##NAMES=Orthoclase
##RRUFFID=R040055
##IDEAL CHEMISTRY=KAlSi_3_O_8_
##LOCALITY=Madagascar
##OWNER=RRUFF
##SOURCE=Bob Downs
##DESCRIPTION=Pale yellow fragments
##STATUS=The identification of this mineral has been confirmed by X-ray diffraction and chemical analysis
##URL=rruff.info/R040055
##MEASURED CHEMISTRY=Light: K_0.96_(Al_0.96_Si_0.03_Fe_0.02_)Si_3.00_O_8_; dark: (K_0.90_Na_0.02_)(Al_0.91_Si_0.08_Fe_0.02_)Si_3.00_O_8
127.3135, 0.0000000E+00
127.7956, 1.086609
128.2778, 0.2836910
128.7599, 1.155273
129.2420, 7.456909
129.7241, 23.42761
130.2062, 32.87781
130.6883, 31.20581
131.1705, 30.93359
131.6526, 47.88977
132.1347, 58.12183
132.6168, 64.56537
133.0989, 61.93182
133.5810, 46.19611
134.0632, 31.35535
134.5453, 13.84985
135.0274, 0.5466310
135.5095, 8.580750
135.9916, 9.527954
136.4737, 4.231628
136.9559, 6.207458
137.4380, 22.72113
137.9201, 43.56653
138.4022, 71.09607
138.8843, 101.2233
139.3664, 126.9450
139.8486, 146.9039
140.3307, 171.0690
140.8128, 216.1044
141.2949, 290.6369
141.7770, 376.5635
142.2591, 477.7436
142.7413, 588.0609
143.2234, 700.5312
143.7055, 812.1995
144.1876, 927.5876
144.6697, 1057.824
145.1518, 1206.303
145.6340, 1362.340
146.1161, 1530.485
146.5982, 1704.088
147.0803, 1874.511
147.5624, 2039.792
148.0445, 2199.017
148.5267, 2350.521
149.0088, 2499.552
149.4909, 2633.997
149.9730, 2753.615
150.4551, 2857.019
150.9372, 2943.958
151.4194, 3018.163
151.9015, 3069.898
152.3836, 3073.265
152.8657, 3021.932
153.3478, 2946.743
153.8299, 2851.380
154.3121, 2740.391
154.7942, 2626.911
155.2763, 2521.060
155.7584, 2411.721
156.2405, 2272.194
156.7226, 2080.713
157.2048, 1896.224
157.6869, 1746.924
158.1690, 1629.567
158.6511, 1527.970
159.1332, 1438.781
159.6153, 1360.606
160.0975, 1286.817
160.5796, 1214.443
161.0617, 1149.814
161.5438, 1097.459
162.0259, 1057.022
162.5080, 1024.507
162.9902, 1000.724
163.4723, 983.1041
163.9544, 964.6470
164.4365, 942.5883
164.9186, 923.2899
165.4007, 912.1973
165.8829, 909.0947
166.3650, 909.6064
166.8471, 912.1076
167.3292, 917.1606
167.8113, 926.3080
168.2934, 944.6937
168.7756, 960.4472
169.2577, 958.7360
169.7398, 938.9720
170.2219, 923.3962
170.7040, 927.0887
171.1861, 939.7574
171.6683, 946.9713
172.1504, 946.7364
172.6325, 939.9078
173.1146, 927.1547
173.5967, 907.7422
174.0788, 890.2690
174.5610, 881.8876
175.0431, 876.8487
175.5252, 868.1639
176.0073, 853.9025
176.4894, 834.0120
176.9715, 805.9078
177.4537, 769.5080
177.9358, 734.8472
178.4179, 707.1931
178.9000, 682.6772
179.3821, 652.9413
179.8642, 615.8181
180.3464, 579.3657
180.8285, 547.6240
181.3106, 519.3122
181.7927, 491.8376
182.2748, 460.6807
182.7569, 430.1824
183.2391, 405.2993
183.7212, 387.7903
184.2033, 375.7776
184.6854, 368.5801
185.1675, 366.9835
185.6496, 363.4570
186.1318, 353.5858
186.6139, 340.2353
187.0960, 325.3501
187.5781, 308.8766
188.0602, 292.1951
188.5423, 277.6847
189.0245, 266.3721
189.5066, 252.9650
189.9887, 227.6758
190.4708, 202.6408
190.9529, 190.5965
191.4350, 197.8497
191.9172, 213.0393
192.3993, 221.2942
192.8814, 221.3201
193.3635, 218.9370
193.8456, 216.3640
194.3277, 213.2366
194.8099, 208.6923
195.2920, 202.1796
195.7741, 194.2639
196.2562, 185.6270
196.7383, 176.2428
197.2204, 166.1215
197.7026, 153.5363
198.1847, 141.0158
198.6668, 130.2387
199.1489, 121.2936
199.6310, 115.2838
200.1131, 115.3052
200.5953, 123.0494
201.0774, 127.6522
201.5595, 124.8103
202.0416, 117.4407
202.5237, 106.0778
203.0058, 90.14679
203.4880, 73.89551
203.9701, 62.67566
204.4522, 57.12109
204.9343, 52.10187
205.4164, 43.28961
205.8985, 36.23425
206.3807, 37.33667
206.8628, 48.69177
207.3449, 60.23230
207.8270, 58.92426
208.3091, 43.06750
208.7912, 30.89795
209.2734, 30.22351
209.7555, 33.07776
210.2376, 33.59381
210.7197, 30.83820
211.2018, 27.77069
211.6839, 27.93005
212.1660, 31.52002
212.6482, 33.50146
213.1303, 32.12048
213.6124, 29.08789
214.0945, 25.86877
214.5766, 22.61206
215.0587, 18.14978
215.5409, 9.172363
216.0230, 4.091797
216.5051, 10.80786
216.9872, 5.169189
217.4693, 4.584473
217.9514, 12.79053
218.4336, 19.15747
218.9157, 24.70813
219.3978, 31.06873
219.8799, 37.86694
220.3620, 41.45508
220.8441, 41.80579
221.3263, 37.67627
221.8084, 25.97852
222.2905, 7.795410
222.7726, 7.283081
223.2547, 11.77515
223.7368, 7.429565
224.2190, 3.405762
224.7011, 0.2971190
225.1832, 1.743896
225.6653, 3.851074
226.1474, 5.459717
226.6295, 3.711914
227.1117, 7.236694
227.5938, 23.09021
228.0759, 29.41443
228.5580, 21.13623
229.0401, 10.89453
229.5222, 9.820435
230.0044, 14.78333
230.4865, 16.38354
230.9686, 3.915283
231.4507, 13.52625
231.9328, 14.32275
232.4149, 8.121826
232.8971, 30.98828
233.3792, 39.05994
233.8613, 35.87476
234.3434, 26.62585
234.8255, 4.845581
235.3076, 18.77368
235.7898, 26.60413
236.2719, 15.98450
236.7540, 3.442993
237.2361, 1.060547
237.7182, 1.3062000E-02
238.2003, 1.953125
238.6825, 3.054443
239.1646, 5.399902
239.6467, 12.13904
240.1288, 23.44678
240.6109, 34.29993
241.0930, 41.37585
241.5752, 46.35559
242.0573, 53.25586
242.5394, 64.83264
243.0215, 75.53613
243.5036, 79.82581
243.9857, 78.52869
244.4679, 78.12976
244.9500, 80.86890
245.4321, 87.09692
245.9142, 96.87891
246.3963, 112.3079
246.8784, 127.3156
247.3606, 136.6772
247.8427, 142.5300
248.3248, 152.8087
248.8069, 172.0911
249.2890, 195.0133
249.7711, 211.5219
250.2533, 220.9470
250.7354, 227.4705
251.2175, 229.0553
251.6996, 229.0911
252.1817, 233.0583
252.6638, 242.0004
253.1460, 257.3956
253.6281, 284.5852
254.1102, 326.9944
254.5923, 364.3689
255.0744, 392.0613
255.5565, 413.3575
256.0387, 430.0403
256.5208, 442.3286
257.0029, 455.6239
257.4850, 476.7986
257.9671, 508.2778
258.4492, 537.9041
258.9314, 567.7560
259.4135, 593.9468
259.8956, 610.1115
260.3777, 617.0786
260.8598, 626.0282
261.3419, 648.8456
261.8241, 687.8273
262.3062, 715.8674
262.7883, 723.2061
263.2704, 729.4756
263.7525, 746.0573
264.2346, 771.2377
264.7168, 795.5420
265.1989, 810.8704
265.6810, 818.3623
266.1631, 841.7560
266.6452, 902.6028
267.1273, 953.8340
267.6095, 975.6003
268.0916, 978.6167
268.5737, 981.3328
269.0558, 993.2295
269.5379, 1014.286
270.0201, 1043.850
270.5022, 1093.586
270.9843, 1139.131
271.4664, 1172.631
271.9485, 1203.328
272.4306, 1244.311
272.9128, 1300.207
273.3949, 1361.312
273.8770, 1405.342
274.3591, 1413.318
274.8412, 1438.121
275.3233, 1496.424
275.8055, 1560.352
276.2876, 1607.948
276.7697, 1635.509
277.2518, 1655.198
277.7339, 1684.614
278.2160, 1730.322
278.6982, 1763.601
279.1803, 1779.896
279.6624, 1787.735
280.1445, 1790.141
280.6266, 1787.236
281.1087, 1778.472
281.5909, 1763.562
282.0730, 1742.429
282.5551, 1715.876
283.0372, 1680.837
283.5193, 1642.830
284.0014, 1607.809
284.4836, 1571.703
284.9657, 1525.311
285.4478, 1459.894
285.9299, 1381.777
286.4120, 1312.851
286.8941, 1255.807
287.3763, 1202.579
287.8584, 1150.821
288.3405, 1100.492
288.8226, 1051.745
289.3047, 1003.693
289.7868, 957.9644
290.2690, 918.5906
290.7511, 886.1843
291.2332, 850.0035
291.7153, 802.8910
292.1974, 752.9685
292.6795, 709.4087
293.1617, 673.3285
293.6438, 638.9351
294.1259, 600.8654
294.6080, 560.4125
295.0901, 524.1512
295.5722, 494.4911
296.0544, 468.9261
296.5365, 444.0417
297.0186, 419.7371
297.5007, 396.7977
297.9828, 377.4266
298.4649, 359.0001
298.9471, 334.0269
299.4292, 299.3076
299.9113, 269.6775
300.3934, 263.6895
300.8755, 280.3655
301.3576, 289.0704
301.8398, 289.9520
302.3219, 279.3003
302.8040, 243.4784
303.2861, 187.0040
303.7682, 143.7181
304.2503, 140.8135
304.7325, 172.8173
305.2146, 183.9976
305.6967, 158.4957
306.1788, 132.5647
306.6609, 118.1462
307.1430, 112.8750
307.6252, 112.5857
308.1073, 115.9341
308.5894, 120.2202
309.0715, 118.0472
309.5536, 102.1262
310.0357, 88.59314
310.5179, 77.15210
311.0000, 68.59949
311.4821, 64.71033
311.9642, 65.78784
312.4463, 69.06396
312.9284, 70.95667
313.4106, 72.28406
313.8927, 68.96338
314.3748, 56.70081
314.8569, 44.35718
315.3390, 36.89941
315.8211, 34.90759
316.3033, 35.60779
316.7854, 36.60913
317.2675, 37.47412
317.7496, 35.87830
318.2317, 28.04956
318.7138, 21.58130
319.1960, 21.28088
319.6781, 24.05090
320.1602, 23.62244
320.6423, 15.39172
321.1244, 4.617920
321.6065, 4.407715
322.0887, 18.49658
322.5708, 33.12915
323.0529, 43.84998
323.5350, 52.99060
324.0171, 62.95288
324.4992, 74.55005
324.9814, 83.33179
325.4635, 83.38696
325.9456, 75.72766
326.4277, 71.20593
326.9098, 74.09790
327.3919, 77.10413
327.8741, 70.17456
328.3562, 54.47278
328.8383, 45.43945
329.3204, 56.99011
329.8025, 77.49939
330.2846, 86.29199
330.7668, 80.45203
331.2489, 69.51697
331.7310, 58.98962
332.2131, 49.47827
332.6952, 43.63562
333.1773, 42.92053
333.6595, 45.03333
334.1415, 50.98071
334.6237, 59.17554
335.1058, 62.98804
335.5879, 57.81982
336.0700, 47.24487
336.5521, 44.01416
337.0342, 57.89282
337.5164, 65.07141
337.9985, 56.01404
338.4806, 40.35693
338.9627, 28.83752
339.4448, 24.74731
339.9269, 25.79639
340.4091, 29.16345
340.8912, 36.89221
341.3733, 41.31946
341.8554, 42.26013
342.3375, 40.60632
342.8196, 33.70898
343.3018, 23.97681
343.7839, 18.57886
344.2660, 24.55450
344.7481, 40.86798
345.2302, 50.53204
345.7123, 48.33862
346.1945, 45.54663
346.6766, 45.73315
347.1587, 46.79749
347.6408, 44.57440
348.1229, 36.40533
348.6050, 28.35803
349.0872, 33.93616
349.5693, 58.02289
350.0514, 73.74933
350.5335, 63.65900
351.0156, 50.20880
351.4977, 51.96075
351.9799, 70.49878
352.4620, 89.04590
352.9441, 94.55035
353.4262, 90.00684
353.9083, 87.37726
354.3904, 89.79553
354.8726, 90.13245
355.3547, 74.64197
355.8368, 49.77527
356.3189, 40.24518
356.8010, 66.39441
357.2831, 99.77020
357.7653, 113.5104
358.2474, 108.7129
358.7295, 99.85449
359.2116, 94.05261
359.6937, 90.31964
360.1758, 84.89893
360.6580, 75.64227
361.1401, 68.03363
361.6222, 65.56683
362.1043, 64.87213
362.5864, 61.13129
363.0685, 53.12396
363.5507, 43.00586
364.0328, 34.51245
364.5149, 27.18030
364.9970, 22.66278
365.4791, 24.92560
365.9612, 26.75287
366.4434, 24.17572
366.9255, 18.07556
367.4076, 11.57440
367.8897, 7.797729
368.3718, 6.287537
368.8539, 3.528442
369.3361, 2.425537
369.8182, 5.904785
370.3003, 5.365417
370.7824, 2.360596
371.2645, 3.088989
371.7466, 11.54016
372.2288, 17.47522
372.7109, 11.18433
373.1930, 8.345154
373.6751, 23.18530
374.1572, 30.30988
374.6393, 30.96649
375.1215, 24.50146
375.6036, 12.42584
376.0857, 2.952026
376.5678, 1.453918
377.0499, 4.136475
377.5320, 3.769653
378.0142, 0.4973140
378.4963, 3.221252
378.9784, 4.9132999E-02
379.4605, 7.878113
379.9426, 13.60022
380.4247, 18.31079
380.9069, 19.64429
381.3890, 12.75635
381.8711, 1.914490
382.3532, 2.728455
382.8353, 2.969421
383.3174, 12.95068
383.7996, 17.06458
384.2817, 13.16089
384.7638, 7.012512
385.2459, 4.138489
385.7280, 15.36395
386.2101, 23.16357
386.6923, 27.66028
387.1744, 31.19861
387.6565, 36.03180
388.1386, 41.80603
388.6207, 42.83643
389.1028, 29.09827
389.5850, 23.79156
390.0671, 36.03662
390.5492, 57.22650
391.0313, 78.73480
391.5134, 97.61578
391.9955, 112.3735
392.4777, 118.6631
392.9598, 115.2575
393.4419, 116.1997
393.9240, 124.1997
394.4061, 137.1077
394.8882, 155.2927
395.3704, 177.5807
395.8525, 196.7357
396.3346, 203.7730
396.8167, 207.6086
397.2988, 225.5024
397.7809, 258.9616
398.2631, 290.7174
398.7452, 311.2274
399.2273, 321.5720
399.7094, 327.8669
400.1915, 324.1476
400.6736, 324.6006
401.1558, 338.7083
401.6379, 359.5126
402.1200, 375.7946
402.6021, 384.3770
403.0842, 388.5162
403.5663, 392.6892
404.0485, 397.8058
404.5306, 399.7061
405.0127, 400.1322
405.4948, 396.2952
405.9769, 385.6398
406.4590, 369.5385
406.9412, 351.0638
407.4233, 332.0073
407.9054, 312.3915
408.3875, 293.1937
408.8696, 276.0128
409.3517, 255.8950
409.8339, 227.2831
410.3160, 198.2872
410.7981, 176.1135
411.2802, 161.8918
411.7623, 151.1366
412.2444, 141.4183
412.7266, 132.2723
413.2087, 119.8786
413.6908, 88.33936
414.1729, 97.01135
414.6550, 98.64081
415.1371, 93.60675
415.6193, 61.96307
416.1014, 64.66901
416.5835, 53.60449
417.0656, 41.97021
417.5477, 49.49841
418.0298, 21.70441
418.5120, 28.91876
418.9941, 22.15295
419.4762, 21.78058
419.9583, 7.551331
420.4404, 2.403442
420.9225, 1.490784
421.4047, 2.294617
421.8868, 4.972229
422.3689, 9.699280
422.8510, 17.22278
423.3331, 8.706360
423.8152, 13.22382
424.2974, 24.40802
424.7795, 17.41528
425.2616, 9.903992
425.7437, 2.987244
426.2258, 1.470520
426.7079, 9.4116002E-02
427.1901, 8.216492
427.6722, 17.07257
428.1543, 18.76099
428.6364, 13.64984
429.1185, 9.160461
429.6006, 5.783936
430.0828, 4.010986
430.5649, 5.174194
431.0470, 9.245422
431.5291, 13.79974
432.0112, 20.31415
432.4933, 24.12659
432.9755, 20.09741
433.4576, 8.962097
433.9397, 5.632935
434.4218, 23.32922
434.9039, 39.35284
435.3860, 43.54828
435.8682, 26.52753
436.3503, 18.60901
436.8324, 26.12439
437.3145, 38.93866
437.7966, 50.59271
438.2787, 60.44568
438.7609, 70.11200
439.2430, 81.03668
439.7251, 93.72229
440.2072, 110.6783
440.6893, 138.1924
441.1714, 158.2319
441.6536, 160.9391
442.1357, 159.8677
442.6178, 169.5740
443.0999, 193.5624
443.5820, 219.1030
444.0641, 228.9152
444.5463, 227.0072
445.0284, 243.7166
445.5105, 289.7313
445.9926, 337.2699
446.4747, 363.1283
446.9568, 373.7198
447.4390, 385.2203
447.9211, 402.7211
448.4032, 419.8508
448.8853, 428.4362
449.3674, 433.3862
449.8495, 450.7998
450.3317, 487.9349
450.8138, 528.8845
451.2959, 547.2314
451.7780, 531.3236
452.2601, 523.5427
452.7422, 525.5507
453.2244, 533.6385
453.7065, 550.5714
454.1886, 571.8766
454.6707, 588.2113
455.1528, 593.5020
455.6349, 590.5632
456.1171, 587.2728
456.5992, 583.7795
457.0813, 579.4678
457.5634, 566.6833
458.0455, 558.2913
458.5276, 565.3905
459.0098, 588.0341
459.4919, 614.4299
459.9740, 639.0597
460.4561, 662.0189
460.9382, 681.0286
461.4203, 695.3781
461.9025, 716.0952
462.3846, 752.4847
462.8667, 799.5518
463.3488, 838.9604
463.8309, 862.8514
464.3130, 891.8898
464.7952, 927.2101
465.2773, 972.9045
465.7594, 1038.845
466.2415, 1124.484
466.7236, 1212.125
467.2057, 1282.416
467.6879, 1334.221
468.1700, 1398.321
468.6521, 1489.967
469.1342, 1576.548
469.6163, 1650.803
470.0984, 1716.221
470.5806, 1777.608
471.0627, 1836.018
471.5448, 1891.082
472.0269, 1947.275
472.5090, 2003.084
472.9911, 2034.371
473.4733, 2034.070
473.9554, 2016.787
474.4375, 1988.208
474.9196, 1951.308
475.4017, 1914.389
475.8839, 1885.581
476.3660, 1850.768
476.8481, 1804.788
477.3302, 1745.468
477.8123, 1662.983
478.2944, 1552.589
478.7766, 1433.611
479.2587, 1335.893
479.7408, 1264.889
480.2229, 1198.725
480.7050, 1136.918
481.1871, 1078.857
481.6693, 1025.186
482.1514, 974.5942
482.6335, 925.0414
483.1156, 874.7086
483.5977, 826.7540
484.0798, 787.2936
484.5620, 756.6638
485.0441, 730.9871
485.5262, 714.0754
486.0083, 697.4366
486.4904, 671.2291
486.9725, 637.5791
487.4547, 611.8402
487.9368, 605.8666
488.4189, 605.7936
488.9010, 597.2599
489.3831, 581.2355
489.8652, 564.0591
490.3474, 548.0831
490.8295, 534.9645
491.3116, 526.8267
491.7937, 520.4021
492.2758, 525.5464
492.7579, 550.8083
493.2401, 580.1545
493.7222, 604.3379
494.2043, 623.6232
494.6864, 641.4720
495.1685, 658.6786
495.6506, 679.2552
496.1328, 715.3009
496.6149, 770.1852
497.0970, 827.4150
497.5791, 882.6497
498.0612, 940.2500
498.5433, 999.1071
499.0254, 1060.595
499.5075, 1137.416
499.9897, 1236.590
500.4718, 1353.631
500.9539, 1486.543
501.4360, 1633.556
501.9181, 1784.225
502.4002, 1930.238
502.8824, 2078.999
503.3645, 2251.462
503.8466, 2457.449
504.3287, 2670.280
504.8108, 2884.522
505.2929, 3108.758
505.7751, 3356.626
506.2572, 3621.008
506.7393, 3884.512
507.2214, 4131.493
507.7035, 4369.735
508.1856, 4625.763
508.6678, 4912.608
509.1499, 5173.128
509.6320, 5385.406
510.1141, 5567.929
510.5962, 5748.114
511.0783, 5925.603
511.5605, 6050.713
512.0426, 6103.266
512.5247, 6087.959
513.0068, 6005.770
513.4890, 5860.914
513.9711, 5670.317
514.4532, 5439.933
514.9353, 5171.354
515.4174, 4871.649
515.8995, 4513.722
516.3817, 4169.353
516.8638, 3836.063
517.3459, 3520.282
517.8280, 3229.401
518.3101, 2961.168
518.7922, 2711.164
519.2744, 2474.832
519.7565, 2254.534
520.2386, 2054.073
520.7207, 1874.438
521.2028, 1708.854
521.6849, 1556.507
522.1671, 1420.177
522.6492, 1300.001
523.1313, 1195.934
523.6134, 1104.333
524.0955, 1030.840
524.5776, 964.1411
525.0598, 892.1193
525.5419, 817.4389
526.0240, 750.7923
526.5061, 696.7023
526.9882, 651.3689
527.4703, 608.1601
527.9525, 564.8879
528.4346, 528.9821
528.9167, 508.4899
529.3988, 486.5760
529.8809, 454.7668
530.3630, 415.9358
530.8452, 374.4393
531.3273, 330.4292
531.8094, 292.6447
532.2915, 280.2571
532.7736, 291.9828
533.2557, 284.5607
533.7379, 240.0768
534.2200, 193.5770
534.7021, 182.3363
535.1842, 200.7228
535.6663, 210.9045
536.1484, 204.4141
536.6306, 193.4683
537.1127, 181.9771
537.5948, 170.9341
538.0769, 162.3081
538.5590, 156.5460
539.0411, 151.5477
539.5233, 144.6376
540.0054, 135.7092
540.4875, 126.3576
540.9696, 113.7458
541.4517, 104.7199
541.9338, 105.0740
542.4160, 108.5232
542.8981, 106.5022
543.3802, 96.28271
543.8623, 85.09180
544.3444, 79.16559
544.8265, 76.56372
545.3087, 72.17120
545.7908, 65.24957
546.2729, 59.06219
546.7550, 56.02515
547.2371, 55.58807
547.7192, 54.85095
548.2014, 54.23706
548.6835, 52.76501
549.1656, 50.28241
549.6477, 46.90594
550.1298, 42.71918
550.6119, 37.73895
551.0941, 31.97339
551.5762, 25.54022
552.0583, 18.27002
552.5404, 8.315552
553.0225, 6.256226
553.5046, 14.80396
553.9868, 11.56647
554.4689, 2.642334
554.9510, 6.571472
555.4331, 16.10406
555.9152, 20.92108
556.3973, 13.45062
556.8795, 5.428589
557.3616, 11.18903
557.8437, 25.49957
558.3258, 29.45172
558.8079, 13.98260
559.2900, 7.894775
559.7722, 11.43054
560.2543, 12.69153
560.7364, 26.26501
561.2185, 20.00464
561.7006, 12.11517
562.1827, 9.079163
562.6649, 8.971680
563.1470, 7.832336
563.6291, 4.072083
564.1112, 0.3304440
564.5933, 1.969421
565.0754, 2.551086
565.5576, 9.647400
566.0397, 25.42755
566.5218, 38.81946
567.0039, 38.94348
567.4860, 27.75653
567.9681, 26.37512
568.4503, 51.63300
568.9324, 63.56018
569.4145, 42.13470
569.8966, 12.51099
570.3787, 0.1163330
570.8608, 5.447937
571.3430, 11.89325
571.8251, 3.488953
572.3072, 13.91858
572.7893, 19.79193
573.2714, 12.23096
573.7535, 2.884216
574.2357, 9.654175
574.7178, 17.11786
575.1999, 3.291382
575.6820, 33.09332
576.1641, 53.08167
576.6462, 33.12219
577.1284, 6.812134
577.6105, 3.870544
578.0926, 1.414368
578.5747, 7.256348
579.0568, 19.29675
579.5389, 30.83917
580.0211, 35.69757
580.5032, 33.01642
580.9852, 28.13696
581.4673, 16.11371
581.9495, 8.649719
582.4316, 12.32782
582.9137, 22.52283
583.3958, 33.11096
583.8779, 43.64185
584.3600, 51.06842
584.8422, 51.91211
585.3243, 48.90289
585.8064, 46.32526
586.2885, 44.69989
586.7706, 43.65906
587.2527, 43.46320
587.7349, 42.98462
588.2170, 37.24359
588.6991, 16.71484
589.1812, 7.179504
589.6633, 19.14008
590.1454, 33.29602
590.6276, 37.62762
591.1097, 33.54889
591.5918, 28.35767
592.0739, 24.65948
592.5560, 23.37036
593.0381, 26.89087
593.5203, 34.34772
594.0024, 40.74933
594.4845, 44.77338
594.9666, 48.32239
595.4487, 53.83997
595.9308, 61.37836
596.4130, 65.04028
596.8951, 65.58270
597.3772, 61.85999
597.8593, 45.93872
598.3414, 30.12500
598.8235, 29.60760
599.3057, 45.07983
599.7878, 61.93170
600.2699, 67.33545
600.7520, 64.85217
601.2341, 65.30457
601.7162, 68.88635
602.1984, 72.64313
602.6805, 76.68054
603.1626, 78.91772
603.6447, 74.66437
604.1268, 62.72205
604.6089, 55.79950
605.0911, 61.76172
605.5732, 66.29181
606.0553, 57.57782
606.5374, 43.04224
607.0195, 36.24072
607.5016, 41.69049
607.9838, 52.20624
608.4659, 60.17096
608.9480, 65.41919
609.4301, 64.51251
609.9122, 54.52301
610.3943, 46.09790
610.8765, 44.28137
611.3586, 47.07544
611.8407, 51.76727
612.3228, 59.03986
612.8049, 65.06537
613.2870, 68.36914
613.7692, 70.20874
614.2513, 72.35199
614.7334, 74.02557
615.2155, 71.94458
615.6976, 64.28680
616.1797, 55.30176
616.6619, 52.48181
617.1440, 55.82300
617.6261, 63.81964
618.1082, 83.91290
618.5903, 98.47302
619.0724, 90.81372
619.5546, 72.75452
620.0367, 65.07690
620.5188, 73.93835
621.0009, 85.09491
621.4830, 94.08252
621.9651, 100.5426
622.4473, 104.5995
622.9294, 105.9152
623.4115, 101.5516
623.8936, 88.65131
624.3757, 72.67609
624.8578, 65.81433
625.3400, 70.48260
625.8221, 75.67035
626.3042, 82.43561
626.7863, 85.21948
627.2684, 78.80731
627.7505, 68.58990
628.2327, 65.76605
628.7148, 78.68542
629.1969, 88.57269
629.6790, 77.92212
630.1611, 60.02966
630.6432, 55.49445
631.1254, 66.80640
631.6075, 80.27094
632.0896, 85.16766
632.5717, 82.27106
633.0538, 74.82739
633.5359, 58.32452
634.0181, 48.40112
634.5002, 52.88989
634.9823, 59.24945
635.4644, 58.71783
635.9465, 54.94598
636.4286, 54.69415
636.9108, 63.16364
637.3929, 68.99249
637.8750, 61.60461
638.3571, 45.85760
638.8392, 35.26184
639.3214, 31.85114
639.8035, 32.39087
640.2856, 33.03888
640.7677, 34.33594
641.2498, 36.84302
641.7319, 42.66315
642.2141, 44.48621
642.6962, 32.63000
643.1783, 23.03546
643.6604, 29.49872
644.1425, 47.26709
644.6246, 58.10504
645.1068, 53.14099
645.5889, 44.12384
646.0710, 34.32483
646.5531, 27.53577
647.0352, 34.59235
647.5173, 55.43018
647.9995, 71.79187
648.4816, 67.33856
648.9637, 47.01318
649.4458, 34.36658
649.9279, 30.71967
650.4100, 31.46149
650.8922, 40.30573
651.3743, 49.22894
651.8564, 52.96814
652.3385, 52.11249
652.8206, 49.54553
653.3027, 45.78406
653.7849, 40.81873
654.2670, 32.44263
654.7491, 23.73804
655.2312, 20.48053
655.7133, 22.98065
656.1954, 25.77911
656.6776, 24.44635
657.1597, 19.96954
657.6418, 15.59662
658.1239, 10.01013
658.6060, 9.347534
659.0881, 19.98224
659.5703, 30.05902
660.0524, 29.26038
660.5345, 20.31757
661.0166, 13.30743
661.4987, 9.261169
661.9808, 8.777954
662.4630, 15.01862
662.9451, 23.46362
663.4272, 29.23480
663.9093, 31.22186
664.3914, 28.56140
664.8735, 19.42999
665.3557, 8.081055
665.8378, 9.305908
666.3199, 26.31793
666.8020, 34.91827
667.2841, 27.80713
667.7662, 16.52094
668.2484, 7.509766
668.7305, 1.495667
669.2126, 1.704651
669.6947, 13.95367
670.1768, 24.53131
670.6589, 30.03937
671.1411, 31.20691
671.6232, 26.76672
672.1053, 18.40564
672.5874, 10.90973
673.0695, 6.997620
673.5516, 6.371460
674.0338, 10.32672
674.5159, 18.73553
674.9980, 20.78210
675.4801, 12.48248
675.9622, 5.427795
676.4443, 9.699524
676.9265, 21.71857
677.4086, 26.40021
677.8907, 18.33514
678.3728, 12.66980
678.8549, 12.08258
679.3370, 13.85822
679.8192, 19.62543
680.3013, 25.82489
680.7834, 23.31909
681.2655, 6.640137
681.7476, 11.59863
682.2297, 13.85614
682.7119, 4.221069
683.1940, 1.003418
683.6761, 0.1386110
684.1582, 1.169739
684.6403, 2.609314
685.1224, 7.860779
685.6046, 5.346252
686.0867, 14.25891
686.5688, 21.71344
687.0509, 2.408875
687.5330, 12.53864
688.0151, 2.999512
688.4973, 17.82257
688.9794, 27.14856
689.4615, 17.97076
689.9436, 5.406189
690.4257, 0.7037350
690.9078, 7.6172002E-02
691.3900, 5.217346
691.8721, 13.53717
692.3542, 13.64978
692.8363, 0.4141850
693.3184, 17.04352
693.8005, 15.22058
694.2827, 9.933899
694.7648, 20.23755
695.2469, 17.83533
695.7290, 10.44556
696.2111, 26.99524
696.6932, 32.44391
697.1754, 6.448853
697.6575, 11.90613
698.1396, 7.313599
698.6217, 1.777466
699.1038, 28.18329
699.5859, 4.278198
700.0681, 21.61334
700.5502, 24.20660
701.0323, 37.45978
701.5144, 27.62384
701.9965, 24.91644
702.4786, 45.30139
702.9608, 52.89722
703.4429, 40.39526
703.9250, 54.31372
704.4071, 21.02185
704.8892, 29.15497
705.3713, 55.15948
705.8535, 43.80994
706.3356, 49.10535
706.8177, 41.14569
707.2998, 34.45819
707.7819, 36.28406
708.2640, 42.35864
708.7462, 50.83990
709.2283, 59.66846
709.7104, 63.55261
710.1925, 57.47791
710.6746, 48.90100
711.1567, 50.20984
711.6389, 59.23450
712.1210, 65.78400
712.6031, 68.17950
713.0852, 67.60358
713.5673, 64.20258
714.0494, 59.13715
714.5316, 56.87537
715.0137, 59.36945
715.4958, 60.99255
715.9779, 59.43457
716.4600, 59.20721
716.9421, 65.24750
717.4243, 73.37695
717.9064, 75.65112
718.3885, 68.98706
718.8706, 61.55939
719.3527, 56.90326
719.8348, 55.04883
720.3170, 56.90997
720.7991, 61.70068
721.2812, 67.82898
721.7633, 74.62500
722.2454, 79.68933
722.7275, 77.43085
723.2097, 67.69104
723.6918, 69.59430
724.1739, 88.97864
724.6560, 102.0213
725.1381, 97.26135
725.6202, 83.96008
726.1024, 73.14691
726.5845, 64.39258
727.0666, 60.51031
727.5487, 64.83630
728.0308, 70.70325
728.5129, 76.82294
728.9951, 82.36658
729.4772, 85.86584
729.9593, 87.63904
730.4414, 89.97406
730.9235, 92.99219
731.4056, 99.30719
731.8878, 117.9295
732.3699, 144.5012
732.8520, 158.0334
733.3341, 153.9083
733.8162, 144.0841
734.2983, 136.8775
734.7805, 133.3058
735.2626, 138.8306
735.7447, 160.6566
736.2268, 175.6531
736.7089, 178.7416
737.1910, 178.1261
737.6732, 175.7928
738.1553, 173.1493
738.6374, 172.4711
739.1195, 173.5834
739.6016, 177.4937
740.0837, 191.0135
740.5659, 205.1011
741.0480, 208.0710
741.5301, 203.2330
742.0122, 202.4034
742.4943, 210.1801
742.9764, 217.3661
743.4586, 210.1588
743.9407, 190.8034
744.4228, 178.8109
744.9049, 176.1860
745.3870, 179.1479
745.8691, 188.4105
746.3513, 196.1503
746.8334, 193.1974
747.3155, 179.5049
747.7976, 175.3652
748.2797, 192.7769
748.7618, 202.3849
749.2440, 190.8788
749.7261, 176.6374
750.2082, 178.6434
750.6903, 192.6999
751.1724, 195.7393
751.6545, 173.2786
752.1367, 150.4950
752.6188, 146.5842
753.1009, 151.0800
753.5830, 151.7234
754.0651, 146.6810
754.5472, 143.4974
755.0294, 145.9438
755.5115, 154.2247
755.9936, 169.7342
756.4757, 192.8643
756.9578, 201.2198
757.4399, 190.2803
757.9221, 174.3531
758.4042, 156.6027
758.8863, 140.1578
759.3684, 130.9511
759.8505, 131.2180
760.3326, 130.8206
760.8148, 128.9030
761.2969, 127.2757
761.7790, 128.5621
762.2611, 129.2451
762.7432, 124.8877
763.2253, 115.3651
763.7075, 104.8975
764.1896, 93.21960
764.6717, 84.37225
765.1538, 85.55017
765.6359, 91.89612
766.1180, 93.25708
766.6002, 87.98126
767.0823, 78.52832
767.5644, 65.76923
768.0465, 54.15076
768.5286, 56.28461
769.0107, 74.25067
769.4929, 87.39447
769.9750, 92.23083
770.4571, 96.32617
770.9392, 105.6539
771.4213, 116.8358
771.9034, 121.6563
772.3856, 119.3084
772.8677, 114.2502
773.3498, 106.7269
773.8319, 97.37891
774.3140, 83.56653
774.7961, 69.65027
775.2783, 59.49225
775.7604, 54.31335
776.2425, 56.75464
776.7246, 76.48639
777.2067, 97.61578
777.6888, 101.3190
778.1710, 94.43127
778.6531, 94.66840
779.1352, 104.2880
779.6173, 109.8174
780.0994, 100.0719
780.5815, 80.52960
781.0637, 63.27246
781.5458, 47.80115
782.0279, 46.89227
782.5100, 65.98419
782.9921, 84.17419
783.4742, 90.16296
783.9564, 86.89832
784.4385, 80.92267
784.9206, 68.60107
785.4027, 62.74048
785.8848, 66.54077
786.3669, 72.96558
786.8491, 82.86218
787.3312, 91.96155
787.8133, 95.04834
788.2954, 91.53070
788.7775, 85.91846
789.2596, 76.08356
789.7418, 69.23669
790.2239, 74.45984
790.7060, 85.30933
791.1881, 89.69775
791.6702, 86.94397
792.1523, 87.41724
792.6345, 99.74438
793.1166, 115.3294
793.5987, 114.6810
794.0808, 99.72858
794.5629, 92.86914
795.0450, 98.14410
795.5272, 97.39966
796.0093, 77.72717
796.4914, 50.40411
796.9735, 38.98157
797.4556, 48.16492
797.9377, 54.72772
798.4199, 56.78198
798.9020, 58.71045
799.3841, 63.20813
799.8662, 67.21771
800.3483, 66.54492
800.8304, 61.48328
801.3126, 58.76959
801.7947, 62.42712
802.2768, 66.16364
802.7589, 62.64282
803.2410, 62.04718
803.7231, 78.56958
804.2053, 106.0646
804.6874, 124.6459
805.1695, 121.5151
805.6516, 113.7878
806.1337, 122.1741
806.6158, 141.5773
807.0980, 162.3762
807.5801, 182.3812
808.0622, 192.2579
808.5443, 187.5831
809.0264, 175.6783
809.5085, 166.8201
809.9907, 160.9055
810.4728, 149.4582
810.9549, 128.0077
811.4370, 117.0122
811.9191, 128.4778
812.4012, 142.6264
812.8834, 139.9733
813.3655, 122.4926
813.8476, 108.6633
814.3297, 96.12872
814.8118, 90.30188
815.2939, 100.8882
815.7761, 109.8193
816.2582, 103.6282
816.7403, 88.02008
817.2224, 73.98523
817.7045, 64.46234
818.1866, 55.42908
818.6688, 45.38879
819.1509, 34.52325
819.6330, 16.76361
820.1151, 0.8745730
820.5972, 1.396851
821.0793, 16.95184
821.5615, 35.44574
822.0436, 39.02063
822.5257, 31.75128
823.0078, 18.18201
823.4899, 0.4716190
823.9720, 4.092712
824.4542, 7.769958
824.9363, 18.07056
825.4184, 10.87091
825.9005, 15.62256
826.3826, 30.37360
826.8647, 34.02625
827.3469, 6.660767
827.8290, 9.906128
828.3111, 3.580505
828.7932, 3.734741
829.2753, 20.88959
829.7574, 13.29358
830.2396, 11.17938
830.7217, 12.04883
831.2038, 23.52808
831.6859, 11.91974
832.1680, 7.448792
832.6501, 26.07721
833.1323, 31.90540
833.6144, 21.01495
834.0965, 23.34399
834.5786, 7.670166
835.0607, 5.658569
835.5428, 1.874939
836.0250, 15.18420
836.5071, 14.94885
836.9892, 6.470886
837.4713, 7.210754
837.9534, 21.21741
838.4355, 31.09540
838.9177, 14.62018
839.3998, 13.60590
839.8819, 13.60944
840.3640, 9.903198
840.8461, 22.55994
841.3282, 18.14191
841.8104, 10.71362
842.2925, 10.09888
842.7746, 14.14081
843.2567, 17.12976
843.7388, 18.32562
844.2209, 19.02161
844.7031, 19.62506
845.1852, 20.53912
845.6673, 23.46490
846.1494, 25.34650
846.6315, 20.36090
847.1136, 7.279846
847.5958, 0.9046630
848.0779, 5.363281
848.5600, 10.94232
849.0421, 17.90100
849.5242, 23.52319
850.0063, 24.95178
850.4885, 23.38043
850.9706, 22.74445
851.4527, 25.21960
851.9348, 25.03186
852.4169, 14.41565
852.8990, 4.469849
853.3812, 6.311584
853.8633, 15.63519
854.3454, 23.92169
854.8275, 28.75336
855.3096, 32.32336
855.7917, 38.10907
856.2739, 41.94830
856.7560, 33.60284
857.2381, 18.07404
857.7202, 13.01184
858.2023, 20.40906
858.6844, 26.13702
859.1666, 21.54279
859.6487, 10.35779
860.1308, 4.456909
860.6129, 22.24329
861.0950, 19.86072
861.5771, 6.656006
862.0593, 25.16003
862.5414, 22.45001
863.0235, 10.64331
863.5056, 3.191711
863.9877, 3.6986999E-02
864.4698, 0.7596440
864.9520, 2.458374
865.4341, 4.895020
865.9162, 3.552551
866.3983, 4.327087
866.8804, 14.88953
867.3625, 28.93256
867.8447, 32.97498
868.3268, 22.97968
868.8089, 17.01733
869.2910, 23.02893
869.7731, 26.59900
870.2552, 18.62244
870.7374, 7.471313
871.2195, 2.548157
871.7016, 3.869019
872.1837, 4.693481
872.6658, 0.5686650
873.1479, 2.636963
873.6301, 5.752747
874.1122, 18.69366
874.5943, 35.36090
875.0764, 49.97479
875.5585, 47.15887
876.0406, 22.48840
876.5228, 5.4687999E-02
877.0049, 7.663818
877.4870, 27.54651
877.9691, 29.19257
878.4512, 17.96954
878.9333, 8.662048
879.4155, 4.862671
879.8976, 8.067993
880.3797, 20.17102
880.8618, 35.60413
881.3439, 44.29218
881.8260, 46.24268
882.3082, 39.04474
882.7903, 21.69330
883.2724, 13.92297
883.7545, 26.59070
884.2366, 42.18414
884.7188, 38.30878
885.2009, 17.14417
885.6830, 8.056763
886.1651, 16.10962
886.6472, 18.64520
887.1293, 7.767395
887.6115, 0.6289060
888.0936, 7.897339
888.5757, 24.81732
889.0578, 29.86261
889.5399, 15.16595
890.0220, 13.93799
890.5042, 47.90619
890.9863, 67.05609
891.4684, 41.08398
891.9505, 7.995911
892.4326, 7.703186
892.9147, 33.59521
893.3969, 44.09534
893.8790, 19.56830
894.3611, 0.9821170
894.8432, 3.102173
895.3253, 0.4750980
895.8074, 1.151367
896.2896, 4.253784
896.7717, 8.643188
897.2538, 14.21503
897.7359, 14.62073
898.2180, 0.4291990
898.7001, 15.16205
899.1823, 16.86102
899.6644, 11.35101
900.1465, 3.331726
900.6286, 4.045898
901.1107, 3.667114
901.5928, 8.301819
902.0750, 21.59930
902.5571, 25.72235
903.0392, 23.93378
903.5213, 21.51721
904.0034, 18.50507
904.4855, 13.11609
904.9677, 5.433655
905.4498, 0.3232420
905.9319, 2.154053
906.4140, 7.873901
906.8961, 11.26392
907.3782, 12.71643
907.8604, 15.50208
908.3425, 19.79718
908.8246, 19.88397
909.3067, 12.71906
909.7888, 4.936951
910.2709, 5.207703
910.7530, 12.59650
911.2351, 20.58069
911.7172, 30.20764
912.1993, 32.50195
912.6815, 24.46814
913.1636, 13.23755
913.6457, 1.285889
914.1278, 8.000610
914.6099, 5.967041
915.0920, 11.05768
915.5742, 20.14923
916.0563, 18.22479
916.5384, 14.30627
917.0205, 8.872070
917.5026, 4.538513
917.9847, 4.270325
918.4669, 6.258606
918.9490, 5.658752
919.4311, 0.6516110
919.9132, 2.073303
920.3953, 7.876343
920.8774, 15.31458
921.3596, 10.98822
921.8417, 3.281860
922.3238, 2.990295
922.8059, 10.55176
923.2880, 17.38354
923.7701, 24.59723
924.2523, 27.04657
924.7344, 16.95490
925.2165, 7.599792
925.6986, 11.57635
926.1807, 22.45343
926.6628, 27.15302
927.1450, 22.68689
927.6271, 16.56775
928.1092, 11.32166
928.5913, 6.323120
929.0734, 0.1943360
929.5555, 5.734375
930.0377, 8.192688
930.5198, 7.333069
931.0019, 1.359741
931.4840, 12.31146
931.9661, 22.23737
932.4482, 14.53601
932.9304, 3.574463
933.4125, 7.412964
933.8946, 18.83124
934.3767, 21.40851
934.8588, 14.45245
935.3409, 10.60376
935.8231, 19.08850
936.3052, 29.38788
936.7873, 28.43848
937.2694, 20.68988
937.7515, 12.43060
938.2336, 5.234680
938.7158, 1.489807
939.1979, 2.078735
939.6800, 8.059631
940.1621, 22.68524
940.6442, 39.42761
941.1263, 45.31042
941.6085, 42.21478
942.0906, 34.67487
942.5727, 24.25153
943.0548, 18.50806
943.5369, 20.91724
944.0190, 24.85901
944.5012, 21.01428
944.9833, 12.00494
945.4654, 8.067322
945.9475, 9.679565
946.4296, 15.81824
946.9117, 26.36584
947.3939, 37.75604
947.8760, 48.22357
948.3581, 56.22070
948.8402, 58.39154
949.3223, 54.93091
949.8044, 51.86346
950.2866, 49.13873
950.7687, 48.23566
951.2508, 49.84595
951.7329, 51.23828
952.2150, 49.79633
952.6971, 46.69202
953.1793, 44.51709
953.6614, 43.02533
954.1435, 42.19348
954.6256, 41.59418
955.1077, 43.39429
955.5898, 50.54602
956.0720, 56.84808
956.5541, 53.07959
957.0362, 42.35040
957.5183, 40.70392
958.0004, 51.40558
958.4825, 61.24268
958.9647, 73.19122
959.4468, 78.58032
959.9289, 69.47119
960.4110, 56.53589
960.8931, 53.19519
961.3752, 58.43866
961.8574, 57.33545
962.3395, 41.62280
962.8216, 36.51263
963.3037, 53.94574
963.7858, 67.44244
964.2679, 58.41809
964.7501, 42.73187
965.2322, 44.53650
965.7143, 65.03949
966.1964, 78.00616
966.6785, 82.56030
967.1606, 80.48450
967.6428, 60.28271
968.1249, 45.76849
968.6070, 56.93073
969.0891, 79.03271
969.5712, 88.60089
970.0533, 84.29114
970.5355, 72.92413
971.0176, 34.72009
971.4997, 17.59100
971.9818, 52.02917
972.4639, 90.25702
972.9460, 97.47272
973.4282, 85.51935
973.9103, 82.54175
974.3924, 93.32654
974.8745, 100.0861
975.3566, 97.54401
975.8387, 93.84668
976.3209, 87.19574
976.8030, 84.27124
977.2851, 96.36841
977.7672, 115.3925
978.2493, 118.7287
978.7314, 97.32190
979.2136, 83.50006
979.6957, 92.58521
980.1778, 100.8434
980.6599, 91.79846
981.1420, 82.54852
981.6241, 92.58533
982.1063, 116.7294
982.5884, 137.2516
983.0705, 154.2010
983.5526, 153.5737
984.0347, 113.1539
984.5168, 75.16754
984.9990, 58.18292
985.4811, 57.12402
985.9632, 73.72571
986.4453, 100.4427
986.9274, 112.8732
987.4095, 97.62042
987.8917, 86.99341
988.3738, 102.2042
988.8559, 115.6521
989.3380, 105.9737
989.8201, 87.72754
990.3022, 79.60010
990.7844, 81.18774
991.2665, 79.76404
991.7486, 69.47943
992.2307, 60.80713
992.7128, 55.54437
993.1949, 56.09839
993.6771, 69.50403
994.1592, 86.35022
994.6413, 91.69061
995.1234, 87.29510
995.6055, 92.53760
996.0876, 124.0654
996.5698, 142.6701
997.0519, 115.1605
997.5340, 84.12494
998.0161, 81.73004
998.4982, 94.24207
998.9803, 101.9719
999.4625, 102.5616
999.9446, 103.1584
1000.427, 106.2647
1000.909, 110.1023
1001.391, 117.2154
1001.873, 121.3419
1002.355, 114.2440
1002.837, 103.1272
1003.319, 99.37927
1003.802, 103.2516
1004.284, 105.0162
1004.766, 99.64258
1005.248, 94.26288
1005.730, 92.50317
1006.212, 91.72949
1006.694, 92.63049
1007.176, 91.76135
1007.658, 81.06604
1008.141, 62.40240
1008.623, 52.09711
1009.105, 60.81073
1009.587, 70.12836
1010.069, 70.73364
1010.551, 69.69122
1011.033, 74.12250
1011.515, 80.17517
1011.997, 80.83612
1012.480, 76.40515
1012.962, 69.20831
1013.444, 55.58667
1013.926, 48.21338
1014.408, 57.70447
1014.890, 69.04639
1015.372, 72.18585
1015.854, 70.23846
1016.337, 67.82898
1016.819, 65.62311
1017.301, 63.12964
1017.783, 60.66608
1018.265, 57.08307
1018.747, 49.83002
1019.229, 43.42926
1019.711, 41.50671
1020.193, 41.80878
1020.676, 41.55096
1021.158, 40.39874
1021.640, 39.29932
1022.122, 41.99249
1022.604, 37.83502
1023.086, 14.52130
1023.568, 6.648438
1024.050, 12.80652
1024.533, 10.07092
1025.015, 4.954590
1025.497, 1.356506
1025.979, 7.710510
1026.461, 16.21466
1026.943, 19.90167
1027.425, 9.165710
1027.907, 2.498291
1028.390, 17.12885
1028.872, 37.26398
1029.354, 43.25977
1029.836, 37.32086
1030.318, 38.62347
1030.800, 60.57953
1031.282, 67.11462
1031.764, 33.48047
1032.246, 6.352539
1032.729, 8.221313
1033.211, 23.70905
1033.693, 43.27704
1034.175, 63.12195
1034.657, 69.78430
1035.139, 54.07642
1035.621, 44.09015
1036.103, 47.69775
1036.585, 49.90564
1037.068, 43.71228
1037.550, 36.06812
1038.032, 33.00403
1038.514, 33.62836
1038.996, 34.26959
1039.478, 33.72717
1039.960, 36.41278
1040.442, 43.23889
1040.925, 52.22162
1041.407, 70.77856
1041.889, 82.16156
1042.371, 67.55457
1042.853, 38.16913
1043.335, 24.44696
1043.817, 30.75348
1044.299, 33.97626
1044.781, 33.48663
1045.264, 30.67133
1045.746, 21.97479
1046.228, 17.89270
1046.710, 27.56012
1047.192, 45.08325
1047.674, 59.20020
1048.156, 70.36591
1048.638, 71.51599
1049.120, 57.80530
1049.603, 51.06891
1050.085, 58.42224
1050.567, 63.64874
1051.049, 55.80420
1051.531, 42.86871
1052.013, 38.78162
1052.495, 42.94586
1052.977, 41.04242
1053.460, 31.34985
1053.942, 28.99335
1054.424, 37.30658
1054.906, 45.74792
1055.388, 49.61328
1055.870, 47.95148
1056.352, 37.71039
1056.834, 22.03894
1057.317, 18.51532
1057.799, 26.69922
1058.281, 27.86267
1058.763, 20.04645
1059.245, 13.88800
1059.727, 13.76959
1060.209, 15.35577
1060.691, 14.01123
1061.173, 11.41669
1061.656, 12.73071
1062.138, 16.78497
1062.620, 17.43848
1063.102, 14.76825
1063.584, 12.69116
1064.066, 12.30188
1064.548, 10.43640
1065.030, 3.893066
1065.512, 3.007263
1065.995, 2.659973
1066.477, 2.353943
1066.959, 9.346313
1067.441, 15.24823
1067.923, 6.765869
1068.405, 14.83795
1068.887, 24.30249
1069.369, 4.679199
1069.852, 18.21515
1070.334, 14.43262
1070.816, 0.4102170
1071.298, 7.703674
1071.780, 9.408997
1072.262, 9.580933
1072.744, 9.316589
1073.226, 9.500977
1073.708, 10.64508
1074.191, 10.08197
1074.673, 6.111084
1075.155, 0.5208130
1075.637, 11.09509
1076.119, 22.53442
1076.601, 32.93213
1077.083, 40.69464
1077.565, 42.39703
1078.047, 37.18152
1078.530, 31.81647
1079.012, 28.29950
1079.494, 26.36682
1079.976, 28.22437
1080.458, 29.32794
1080.940, 25.15283
1081.422, 18.29401
1081.904, 12.59967
1082.386, 9.093140
1082.869, 8.797302
1083.351, 18.92480
1083.833, 21.06744
1084.315, 0.6593020
1084.797, 14.90680
1085.279, 0.7422490
1085.761, 24.62170
1086.243, 31.18317
1086.726, 24.34125
1087.208, 25.90100
1087.690, 41.44202
1088.172, 51.31488
1088.654, 53.85089
1089.136, 53.54156
1089.618, 48.13660
1090.100, 47.15289
1090.583, 61.20544
1091.065, 81.35065
1091.547, 84.72876
1092.029, 69.86450
1092.511, 59.73676
1092.993, 54.51685
1093.475, 53.47516
1093.957, 56.98346
1094.439, 61.94794
1094.922, 67.19409
1095.404, 69.98419
1095.886, 64.79095
1096.368, 54.95868
1096.850, 56.94324
1097.332, 69.07605
1097.814, 78.81256
1098.296, 84.39056
1098.778, 80.93750
1099.261, 67.22137
1099.743, 58.12195
1100.225, 68.85126
1100.707, 87.27167
1101.189, 90.79266
1101.671, 87.69879
1102.153, 99.93121
1102.635, 120.6440
1103.118, 127.2372
1103.600, 116.3591
1104.082, 99.60217
1104.564, 81.43164
1105.046, 69.59149
1105.528, 75.38171
1106.010, 86.30701
1106.492, 87.41144
1106.974, 87.38580
1107.457, 103.4928
1107.939, 129.3214
1108.421, 141.3871
1108.903, 132.2783
1109.385, 123.5849
1109.867, 125.3477
1110.349, 128.1499
1110.831, 127.4073
1111.313, 126.6805
1111.796, 129.0028
1112.278, 132.9762
1112.760, 137.6836
1113.242, 142.7111
1113.724, 141.3800
1114.206, 120.2582
1114.688, 113.9011
1115.170, 136.1589
1115.653, 154.7993
1116.135, 157.0249
1116.617, 153.2436
1117.099, 150.5535
1117.581, 150.7410
1118.063, 161.7137
1118.545, 187.9943
1119.027, 194.2943
1119.510, 174.3127
1119.992, 168.1356
1120.474, 186.9940
1120.956, 204.1313
1121.438, 202.6246
1121.920, 194.8718
1122.402, 201.1130
1122.884, 215.9782
1123.366, 214.0063
1123.849, 198.5470
1124.331, 187.6039
1124.813, 183.0907
1125.295, 184.4808
1125.777, 191.1155
1126.259, 198.1603
1126.741, 204.2987
1127.223, 205.7429
1127.705, 184.4481
1128.188, 158.7200
1128.670, 161.1898
1129.152, 181.6235
1129.634, 203.0033
1130.116, 218.5731
1130.598, 217.1295
1131.080, 190.9811
1131.562, 170.4876
1132.045, 180.9059
1132.527, 193.8956
1133.009, 191.0071
1133.491, 183.1365
1133.973, 182.4281
1134.455, 184.4954
1134.937, 177.5623
1135.419, 160.1628
1135.901, 148.8553
1136.384, 149.7979
1136.866, 151.3400
1137.348, 157.8255
1137.830, 156.5511
1138.312, 130.9060
1138.794, 110.3173
1139.276, 130.6624
1139.758, 175.2673
1140.240, 183.9006
1140.723, 148.0165
1141.205, 131.5945
1141.687, 138.3065
1142.169, 140.1856
1142.651, 130.0267
1143.133, 122.1603
1143.615, 123.5791
1144.097, 128.3172
1144.580, 128.9069
1145.062, 125.7917
1145.544, 119.9028
1146.026, 111.5449
1146.508, 99.05438
1146.990, 85.77673
1147.472, 83.06647
1147.954, 91.97241
1148.437, 101.1984
1148.919, 104.7587
1149.401, 105.6685
1149.883, 105.0333
1150.365, 101.7139
1150.847, 91.60376
1151.329, 80.83478
1151.811, 80.34888
1152.293, 86.54791
1152.776, 84.68140
1153.258, 70.21185
1153.740, 62.24377
1154.222, 73.53973
1154.704, 82.74829
1155.186, 81.10229
1155.668, 78.21948
1156.150, 83.98187
1156.632, 88.46033
1157.115, 76.48236
1157.597, 51.80469
1158.079, 36.00378
1158.561, 30.09283
1159.043, 31.64795
1159.525, 44.24506
1160.007, 47.46490
1160.489, 34.01758
1160.972, 21.32379
1161.454, 19.84406
1161.936, 27.95361
1162.418, 47.18066
1162.900, 70.98383
1163.382, 69.40289
1163.864, 49.03925
1164.346, 39.49951
1164.828, 41.39221
1165.311, 41.73553
1165.793, 36.61365
1166.275, 28.94135
1166.757, 18.48004
1167.239, 14.79370
1167.721, 37.32129
1168.203, 61.49670
1168.685, 60.32977
1169.167, 45.28381
1169.650, 25.52240
1170.132, 8.363220
1170.614, 10.53320
1171.096, 36.89923
1171.578, 52.56915
1172.060, 38.63422
1172.542, 26.93280
1173.024, 26.20703
1173.507, 27.44977
1173.989, 25.12640
1174.471, 24.05139
1174.953, 30.69971
1175.435, 41.98895
1175.917, 46.60364
1176.399, 43.50592
1176.881, 39.96130
1177.364, 35.26990
1177.846, 38.28619
1178.328, 51.70972
1178.810, 53.62512
1179.292, 32.01001
1179.774, 6.402893
1180.256, 0.8751220
1180.738, 4.419495
1181.220, 15.90509
1181.703, 28.26825
1182.185, 27.36896
1182.667, 17.06342
1183.149, 8.662842
1183.631, 4.398926
1184.113, 1.046387
1184.595, 3.109802
1185.077, 4.358765
1185.559, 0.5796510
1186.042, 7.821716
1186.524, 17.72321
1187.006, 26.05646
1187.488, 30.00061
1187.970, 29.66516
1188.452, 23.01569
1188.934, 10.79089
1189.416, 7.268860
1189.899, 18.60248
1190.381, 24.52643
1190.863, 22.07843
1191.345, 22.36188
1191.827, 29.57990
1192.309, 35.83856
1192.791, 36.00848
1193.273, 31.62115
1193.755, 23.99939
1194.238, 14.57971
1194.720, 8.100525
1195.202, 5.149353
1195.684, 10.03320
1196.166, 21.19965
1196.648, 32.27081
1197.130, 40.67142
1197.612, 42.95111
1198.094, 36.28235
1198.577, 27.26266
1199.059, 19.37805
1199.541, 13.67224
1200.023, 11.46777
1200.505, 11.40891
1200.987, 13.02298
1201.469, 15.28992
1201.951, 17.05099
1202.434, 18.09668
1202.916, 16.88388
1203.398, 13.62137
1203.880, 6.797791
1204.362, 9.011688
1204.844, 16.46274
1205.326, 6.544983
1205.808, 1.732574
1206.291, 7.742035
1206.773, 19.83148
1207.255, 5.703857
1207.737, 27.48862
1208.219, 42.51849
1208.701, 41.89297
1209.183, 37.50601
1209.665, 31.18057
1210.147, 22.52460
1210.630, 12.95905
1211.112, 13.34677
1211.594, 32.74200
1212.076, 48.65625
1212.558, 35.44662
1213.040, 18.64377
1213.522, 19.42160
1214.004, 27.20636
1214.486, 36.51675
1214.969, 43.01562
1215.451, 35.37085
1215.933, 13.94534
1216.415, 2.752014
1216.897, 9.197601
1217.379, 15.87204
1217.861, 24.59518
1218.343, 28.62717
1218.826, 23.99069
1219.308, 22.01117
1219.790, 31.06760
1220.272, 42.24615
1220.754, 41.95758
1221.236, 33.73685
1221.718, 27.92728
1222.200, 25.04407
1222.682, 28.80698
1223.165, 37.15869
1223.647, 42.55298
1224.129, 37.46179
1224.611, 34.53381
1225.093, 26.24756
1225.575, 27.17651
1226.057, 45.56143
1226.539, 58.73981
1227.021, 50.42383
1227.504, 36.44751
1227.986, 26.11472
1228.468, 19.91733
1228.950, 18.57874
1229.432, 21.24017
1229.914, 22.31931
1230.396, 23.66879
1230.878, 27.55399
1231.361, 34.68790
1231.843, 36.98047
1232.325, 32.34506
1232.807, 29.86264
1233.289, 34.07251
1233.771, 36.97400
1234.253, 29.95493
1234.735, 19.30035
1235.218, 16.07373
1235.700, 16.56522
1236.182, 14.32071
1236.664, 10.36221
1237.146, 4.264801
1237.628, 0.7518310
1238.110, 6.002563
1238.592, 27.00189
1239.074, 42.22321
1239.557, 41.29596
1240.039, 38.57013
1240.521, 39.58197
1241.003, 35.96411
1241.485, 19.71701
1241.967, 4.257599
1242.449, 9.9212997E-02
1242.931, 0.0000000E+00
##END=



