##NAMES=Otavite
##RRUFFID=R050677
##IDEAL CHEMISTRY=CdCO_3_
##LOCALITY=Tsumeb mine, Tsumeb, Otavi District, Oshikoto, Namibia
##OWNER=RRUFF
##SOURCE=University of Arizona Mineral Museum
##DESCRIPTION=White rhombohedra
##STATUS=The identification of this mineral has been confirmed by X-ray diffraction and chemical analysis
##URL=rruff.info/R050677
##MEASURED CHEMISTRY=(Cd_0.91_Zn_0.05_Pb_0.04_)_Σ=1_CO_3_ ; = lighter phase. The crystal is zoned. The darker phase is (Cd_0.93_Zn_0.05_Pb_0.02_)_Σ=1_CO_3_ ; the inclusion is cerussite: Pb_1.00_CO_3_
90.59570, 0.0000000E+00
91.07782, 0.7283250
91.55994, 1.960304
92.04205, 3.487061
92.52417, 5.139641
93.00629, 6.732529
93.48840, 7.528465
93.97052, 7.103745
94.45264, 5.931816
94.93475, 6.200859
95.41687, 5.858383
95.89898, 4.815468
96.38110, 3.699501
96.86321, 2.835052
97.34533, 2.220016
97.82745, 1.672981
98.30956, 1.646072
98.79168, 1.862221
99.27380, 2.270096
99.75591, 3.309807
100.2380, 4.853851
100.7201, 6.192802
101.2023, 6.703140
101.6844, 6.394928
102.1665, 5.982590
102.6486, 5.558807
103.1307, 5.256821
103.6128, 4.971558
104.0950, 5.007355
104.5771, 5.384453
105.0592, 5.492569
105.5413, 5.805138
106.0234, 6.452606
106.5055, 7.555229
106.9877, 8.857498
107.4698, 9.560646
107.9519, 9.810913
108.4340, 9.475021
108.9161, 8.152657
109.3982, 6.267944
109.8804, 4.396111
110.3625, 3.058784
110.8446, 2.386086
111.3267, 1.893631
111.8088, 1.645126
112.2909, 1.560966
112.7731, 1.690514
113.2552, 2.014679
113.7373, 2.320679
114.2194, 2.268532
114.7015, 1.466385
115.1836, 1.008865
115.6658, 1.237244
116.1479, 1.638023
116.6300, 1.668640
117.1121, 1.118851
117.5942, 0.2556460
118.0763, 0.2810670
118.5584, 0.3760150
119.0406, 0.4771880
119.5227, 0.7989270
120.0048, 1.234451
120.4869, 1.505730
120.9690, 1.484718
121.4511, 1.199753
121.9333, 0.7782210
122.4154, 0.1469270
122.8975, 0.4916760
123.3796, 0.9946210
123.8617, 1.367325
124.3438, 1.559456
124.8260, 1.205261
125.3081, 0.7730410
125.7902, 0.7575680
126.2723, 1.460289
126.7544, 2.511932
127.2365, 3.020958
127.7187, 2.539749
128.2008, 2.259468
128.6829, 2.648048
129.1650, 3.397766
129.6471, 4.073227
130.1292, 4.359955
130.6114, 4.308075
131.0935, 4.658882
131.5756, 6.065979
132.0577, 7.272148
132.5398, 7.797569
133.0219, 7.830910
133.5041, 7.877396
133.9862, 8.390877
134.4683, 9.466827
134.9504, 10.42770
135.4325, 11.06236
135.9146, 11.77208
136.3968, 12.80009
136.8789, 14.16080
137.3610, 15.71403
137.8431, 17.28502
138.3252, 18.87361
138.8073, 20.44712
139.2895, 21.88250
139.7716, 23.38264
140.2537, 25.29157
140.7358, 27.80765
141.2179, 30.28487
141.7000, 31.91003
142.1821, 32.84136
142.6643, 33.62736
143.1464, 34.36392
143.6285, 35.18318
144.1106, 36.46248
144.5927, 38.40311
145.0748, 40.62382
145.5570, 42.76967
146.0391, 44.84331
146.5212, 46.98226
147.0033, 49.34399
147.4854, 51.97475
147.9675, 54.46375
148.4497, 56.62135
148.9318, 58.82296
149.4139, 61.40377
149.8960, 64.42190
150.3781, 67.71882
150.8602, 71.03461
151.3424, 74.36306
151.8245, 77.79820
152.3066, 81.69606
152.7887, 85.50434
153.2708, 88.62408
153.7529, 90.84649
154.2351, 92.69650
154.7172, 95.48697
155.1993, 100.0922
155.6814, 104.6896
156.1635, 109.6897
156.6456, 114.5021
157.1278, 118.3920
157.6099, 120.9903
158.0920, 122.4717
158.5741, 123.4733
159.0562, 124.2431
159.5383, 124.3528
160.0205, 123.8580
160.5026, 122.6341
160.9847, 120.3094
161.4668, 116.5428
161.9489, 111.5383
162.4310, 106.5843
162.9131, 102.1008
163.3953, 97.30022
163.8774, 91.49485
164.3595, 84.78819
164.8416, 78.24726
165.3237, 72.44453
165.8058, 67.32716
166.2880, 62.66194
166.7701, 58.58440
167.2522, 54.79263
167.7343, 50.89948
168.2164, 46.83081
168.6985, 43.06231
169.1807, 40.09049
169.6628, 37.55556
170.1449, 35.02061
170.6270, 32.21891
171.1091, 29.39999
171.5912, 27.19514
172.0734, 25.92744
172.5555, 24.68620
173.0376, 23.00968
173.5197, 21.15229
174.0018, 19.45215
174.4839, 18.12488
174.9661, 17.10139
175.4482, 16.02787
175.9303, 14.86116
176.4124, 13.70475
176.8945, 12.51434
177.3766, 11.33762
177.8588, 10.29442
178.3409, 9.508965
178.8230, 9.001579
179.3051, 8.359100
179.7872, 7.344769
180.2693, 6.456833
180.7515, 5.837776
181.2336, 5.445282
181.7157, 5.204826
182.1978, 5.086082
182.6799, 5.121838
183.1620, 4.816566
183.6441, 3.822578
184.1263, 2.900246
184.6084, 2.449886
185.0905, 2.443508
185.5726, 2.603550
186.0547, 2.739815
186.5368, 2.868332
187.0190, 2.636284
187.5011, 1.661060
187.9832, 0.6080930
188.4653, 1.1841000E-02
188.9474, 0.1457370
189.4296, 0.1061780
189.9117, 0.1979830
190.3938, 0.4144400
190.8759, 0.4963950
191.3580, 0.2175750
191.8401, 0.1212270
192.3223, 0.1056370
192.8044, 0.3758510
193.2865, 0.8799360
193.7686, 0.9205320
194.2507, 0.6213260
194.7328, 0.2974700
195.2150, 5.2673001E-02
195.6971, 0.3485950
196.1792, 0.3871650
196.6613, 4.3522000E-02
197.1434, 0.3220630
197.6255, 0.4329340
198.1077, 0.3574560
198.5898, 0.2517360
199.0719, 0.1748390
199.5540, 0.1281740
200.0361, 0.1205750
200.5182, 0.1679420
201.0004, 0.2356570
201.4825, 0.3237230
201.9646, 0.4172060
202.4467, 0.4777640
202.9288, 0.4572980
203.4109, 0.3632010
203.8930, 0.3327870
204.3752, 0.5234600
204.8573, 0.6064000
205.3394, 0.3563540
205.8215, 0.1125790
206.3036, 0.5203900
206.7857, 0.6045000
207.2679, 0.3412820
207.7500, 0.2193950
208.2321, 0.4059100
208.7142, 0.5893860
209.1963, 0.6223030
209.6784, 0.5576320
210.1606, 0.5592960
210.6427, 0.7920230
211.1248, 1.293224
211.6069, 1.679401
212.0890, 2.040600
212.5711, 2.220154
213.0533, 1.964451
213.5354, 1.418724
214.0175, 1.016895
214.4996, 1.192287
214.9817, 2.069057
215.4638, 2.658928
215.9460, 2.916534
216.4281, 3.004230
216.9102, 2.895512
217.3923, 2.654476
217.8744, 2.474964
218.3565, 2.546028
218.8387, 2.906334
219.3208, 3.214390
219.8029, 3.382309
220.2850, 3.575878
220.7671, 3.923710
221.2492, 4.416218
221.7314, 4.929646
222.2135, 5.373215
222.6956, 5.735218
223.1777, 6.009380
223.6598, 6.208488
224.1419, 6.313766
224.6240, 6.187065
225.1062, 5.848705
225.5883, 5.690258
226.0704, 6.123940
226.5525, 7.076973
227.0346, 7.842430
227.5167, 8.232315
227.9989, 8.507614
228.4810, 8.919067
228.9631, 9.482414
229.4452, 10.01489
229.9273, 10.31647
230.4094, 10.48216
230.8916, 10.78024
231.3737, 11.32292
231.8558, 11.97847
232.3379, 12.56040
232.8200, 13.03915
233.3021, 13.65363
233.7843, 14.77068
234.2664, 16.08975
234.7485, 17.13288
235.2306, 17.64357
235.7127, 17.94323
236.1948, 18.42496
236.6770, 19.08348
237.1591, 19.96454
237.6412, 21.21526
238.1233, 22.66872
238.6054, 24.19687
239.0875, 25.81413
239.5697, 27.41270
240.0518, 28.79083
240.5339, 29.89832
241.0160, 30.96125
241.4981, 31.78799
241.9802, 32.72423
242.4624, 34.17184
242.9445, 36.31762
243.4266, 38.86359
243.9087, 41.34543
244.3908, 43.78631
244.8729, 46.07705
245.3550, 47.77166
245.8372, 49.50996
246.3193, 51.94965
246.8014, 55.34527
247.2835, 59.17033
247.7656, 62.50822
248.2477, 65.04166
248.7299, 67.81543
249.2120, 71.13809
249.6941, 74.67580
250.1762, 78.12947
250.6583, 81.40752
251.1404, 84.68410
251.6226, 88.29082
252.1047, 92.17767
252.5868, 96.58201
253.0689, 102.0874
253.5510, 107.6515
254.0331, 112.4765
254.5153, 116.3871
254.9974, 119.9139
255.4795, 123.8636
255.9616, 128.1950
256.4437, 133.1214
256.9258, 139.0116
257.4080, 145.1000
257.8901, 150.9572
258.3722, 156.4716
258.8543, 161.7876
259.3364, 167.0613
259.8185, 172.1621
260.3007, 177.5848
260.7828, 183.4430
261.2649, 189.5164
261.7470, 195.5731
262.2291, 201.6462
262.7112, 207.9568
263.1934, 214.8532
263.6755, 222.5584
264.1576, 230.0544
264.6397, 237.0358
265.1218, 244.0738
265.6039, 251.6061
266.0861, 259.5319
266.5682, 267.3572
267.0503, 274.5820
267.5324, 281.0856
268.0145, 287.5814
268.4966, 295.0999
268.9788, 301.7131
269.4609, 306.3977
269.9430, 309.2544
270.4251, 311.0445
270.9072, 312.4829
271.3893, 313.6163
271.8715, 312.3376
272.3536, 308.0485
272.8357, 302.5352
273.3178, 296.5569
273.7999, 289.9978
274.2820, 282.3843
274.7642, 273.3615
275.2463, 262.9776
275.7284, 251.8983
276.2105, 239.9362
276.6926, 227.6334
277.1747, 214.5847
277.6568, 201.2522
278.1389, 188.7419
278.6211, 177.7156
279.1032, 167.8908
279.5853, 158.0201
280.0674, 147.5948
280.5495, 137.6636
281.0316, 128.4145
281.5138, 119.8582
281.9959, 112.0007
282.4780, 104.8867
282.9601, 98.36730
283.4422, 92.23339
283.9243, 86.42381
284.4065, 80.97073
284.8886, 75.94581
285.3707, 71.25109
285.8528, 66.75835
286.3349, 62.42699
286.8170, 58.28874
287.2992, 54.31114
287.7813, 50.42118
288.2634, 46.94923
288.7455, 44.15813
289.2276, 41.75504
289.7097, 39.40102
290.1919, 37.00421
290.6740, 34.71930
291.1561, 32.78260
291.6382, 31.25391
292.1203, 29.68777
292.6024, 28.06145
293.0846, 26.39854
293.5667, 24.69130
294.0488, 22.92933
294.5309, 21.21256
295.0130, 19.60091
295.4951, 18.12929
295.9773, 16.90829
296.4594, 16.12950
296.9415, 15.46732
297.4236, 14.61147
297.9057, 13.58311
298.3878, 12.69432
298.8700, 12.22823
299.3521, 12.11635
299.8342, 11.82673
300.3163, 11.30581
300.7984, 10.64605
301.2805, 9.797646
301.7627, 8.835209
302.2448, 8.054169
302.7269, 7.616230
303.2090, 7.468941
303.6911, 7.436813
304.1732, 7.724430
304.6554, 7.797268
305.1375, 7.166252
305.6196, 6.121124
306.1017, 5.442104
306.5838, 5.478237
307.0659, 5.914867
307.5481, 6.187717
308.0302, 6.320847
308.5123, 6.294353
308.9944, 6.047356
309.4765, 5.646267
309.9586, 5.183632
310.4408, 4.670612
310.9229, 4.157112
311.4050, 3.655941
311.8871, 3.139179
312.3692, 2.918781
312.8513, 3.354969
313.3335, 3.982494
313.8156, 4.226784
314.2977, 3.996685
314.7798, 3.606178
315.2619, 3.296749
315.7440, 3.070980
316.2262, 2.916126
316.7083, 3.005421
317.1904, 3.042076
317.6725, 2.667645
318.1546, 1.910324
318.6367, 1.269695
319.1188, 1.117409
319.6010, 1.362869
320.0831, 1.467041
320.5652, 1.333305
321.0473, 1.160084
321.5294, 1.081345
322.0115, 1.060772
322.4937, 0.9372020
322.9758, 0.5816540
323.4579, 0.1454580
323.9400, 4.6436001E-02
324.4221, 0.4430310
324.9042, 0.7677760
325.3864, 0.7785990
325.8685, 0.5880740
326.3506, 0.3848190
326.8327, 0.2126390
327.3148, 9.9583000E-02
327.7969, 0.1225170
328.2791, 0.3112830
328.7612, 0.4370570
329.2433, 0.3772930
329.7254, 0.2702560
330.2075, 0.3272060
330.6896, 0.5846980
331.1718, 0.8010220
331.6539, 0.7027090
332.1360, 0.2586780
332.6181, 8.2455002E-02
333.1002, 0.2971920
333.5823, 0.4102210
334.0645, 0.4194450
334.5466, 0.3333970
335.0287, 0.1782950
335.5108, 7.9281002E-02
335.9929, 0.3858760
336.4750, 0.3978690
336.9572, 0.3143920
337.4393, 0.8402330
337.9214, 0.5896680
338.4035, 0.1467170
338.8856, 0.6585660
339.3677, 0.5980830
339.8499, 0.1589200
340.3320, 0.1520200
340.8141, 0.2980080
341.2962, 0.4070470
341.7783, 0.5657460
342.2604, 0.6787260
342.7426, 0.5843580
343.2247, 0.2362560
343.7068, 0.2137070
344.1889, 0.5755730
344.6710, 0.8650670
345.1531, 0.9597740
345.6353, 0.6972310
346.1174, 0.3512730
346.5995, 7.2788000E-02
347.0816, 9.7652003E-02
347.5637, 7.7960998E-02
348.0458, 0.2901150
348.5280, 1.044125
349.0101, 1.126953
349.4922, 0.1484790
349.9743, 1.285362
350.4564, 1.590141
350.9385, 1.245628
351.4207, 0.7235870
351.9028, 0.2786410
352.3849, 9.0965003E-02
352.8670, 0.3904500
353.3491, 0.7258610
353.8312, 0.9170270
354.3134, 0.7020840
354.7955, 0.3310130
355.2776, 0.1717070
355.7597, 0.3360480
356.2418, 0.6128270
356.7239, 0.6258390
357.2061, 0.1009480
357.6882, 0.1191860
358.1703, 0.1861000
358.6524, 0.6004180
359.1345, 0.8450510
359.6166, 0.8982540
360.0987, 0.8998720
360.5808, 0.9910700
361.0630, 1.188412
361.5451, 1.311554
362.0272, 1.252960
362.5093, 1.237900
362.9914, 1.439400
363.4735, 1.729523
363.9557, 1.843170
364.4378, 1.604427
364.9199, 1.111885
365.4020, 0.7734410
365.8841, 0.4959870
366.3662, 0.5413890
366.8484, 1.221111
367.3305, 2.076233
367.8126, 2.668571
368.2947, 2.856014
368.7768, 2.798985
369.2589, 2.730896
369.7411, 2.656509
370.2232, 2.556870
370.7053, 2.341057
371.1874, 2.175636
371.6695, 2.166794
372.1516, 2.301537
372.6338, 2.489227
373.1159, 2.683315
373.5980, 2.879250
374.0801, 2.911942
374.5622, 2.605820
375.0443, 2.347530
375.5265, 2.289276
376.0086, 2.352947
376.4907, 2.413456
376.9728, 2.404015
377.4549, 2.370537
377.9370, 2.427162
378.4192, 2.620621
378.9013, 2.776268
379.3834, 2.894997
379.8655, 2.929798
380.3476, 2.810883
380.8297, 2.526627
381.3119, 2.189999
381.7940, 1.824810
382.2761, 1.436367
382.7582, 1.394413
383.2403, 2.014778
383.7224, 2.689178
384.2046, 3.044342
384.6867, 3.110413
385.1688, 3.012367
385.6509, 2.710186
386.1330, 2.307549
386.6151, 2.044525
387.0973, 1.946445
387.5794, 1.900875
388.0615, 1.862118
388.5436, 1.831661
389.0257, 1.818680
389.5078, 1.844379
389.9900, 1.851036
390.4721, 1.726219
390.9542, 1.491314
391.4363, 1.392052
391.9184, 1.549862
392.4005, 1.851963
392.8827, 2.192142
393.3648, 2.596466
393.8469, 2.817284
394.3290, 2.689999
394.8111, 2.325718
395.2932, 1.829548
395.7754, 1.229237
396.2575, 0.8546750
396.7396, 1.084351
397.2217, 1.842445
397.7038, 2.203758
398.1859, 1.703987
398.6681, 1.154255
399.1501, 1.123016
399.6323, 1.504707
400.1144, 1.925755
400.5965, 2.255085
401.0786, 2.463638
401.5607, 2.379520
402.0428, 1.724308
402.5250, 1.291828
403.0071, 1.384205
403.4892, 1.693684
403.9713, 1.867050
404.4534, 1.822121
404.9355, 1.709312
405.4177, 1.738194
405.8998, 1.989532
406.3819, 2.009785
406.8640, 1.514362
407.3461, 1.068520
407.8282, 0.9916420
408.3104, 1.208141
408.7925, 1.429298
409.2746, 1.473541
409.7567, 1.333584
410.2388, 0.9910200
410.7209, 9.8507002E-02
411.2031, 0.7028770
411.6852, 0.3609540
412.1673, 0.3031690
412.6494, 0.6989210
413.1315, 0.6710550
413.6136, 0.4680860
414.0958, 0.3691710
414.5779, 0.3414040
415.0600, 0.5084040
415.5421, 1.273178
416.0242, 1.884148
416.5063, 1.874073
416.9885, 1.439659
417.4706, 1.122898
417.9527, 1.338673
418.4348, 1.860821
418.9169, 1.833248
419.3990, 0.8938710
419.8812, 0.2293170
420.3633, 0.3290940
420.8454, 0.7534790
421.3275, 1.207165
421.8096, 1.635773
422.2917, 1.946568
422.7739, 1.994797
423.2560, 1.794365
423.7381, 1.612072
424.2202, 1.458241
424.7023, 1.368137
425.1844, 1.388706
425.6666, 1.495941
426.1487, 1.599651
426.6308, 1.666164
427.1129, 1.705978
427.5950, 1.745716
428.0771, 1.788734
428.5593, 1.778347
429.0414, 1.676067
429.5235, 1.498116
430.0056, 1.279289
430.4877, 0.9530680
430.9698, 0.7421990
431.4520, 0.8949970
431.9341, 1.229671
432.4162, 1.353382
432.8983, 1.125294
433.3804, 0.7501110
433.8625, 0.4581180
434.3447, 0.2648280
434.8268, 0.2017250
435.3089, 0.3610920
435.7910, 0.5724950
436.2731, 0.7201500
436.7552, 0.8218420
437.2374, 0.9802440
437.7195, 1.276627
438.2016, 1.646194
438.6837, 1.803650
439.1658, 1.641068
439.6479, 1.377850
440.1301, 0.8240430
440.6122, 0.2971150
441.0943, 0.1227150
441.5764, 0.3532790
442.0585, 0.8096960
442.5406, 1.306866
443.0227, 1.875916
443.5049, 2.139038
443.9870, 1.848011
444.4691, 1.531809
444.9512, 1.286966
445.4333, 1.078457
445.9154, 0.9014400
446.3976, 0.7462220
446.8797, 0.6218380
447.3618, 0.5271020
447.8439, 0.4187180
448.3260, 0.4700490
448.8081, 1.016096
449.2903, 1.509243
449.7724, 1.518772
450.2545, 1.064049
450.7366, 0.5851040
451.2187, 0.4202230
451.7008, 0.5132620
452.1830, 0.6545810
452.6651, 0.8868890
453.1472, 1.029510
453.6293, 0.8459420
454.1114, 0.5366100
454.5935, 0.3972570
455.0757, 0.5450520
455.5578, 0.7891850
456.0399, 1.020481
456.5220, 1.201456
457.0041, 1.118361
457.4862, 0.6044850
457.9684, 3.5211999E-02
458.4505, 1.6161000E-02
458.9326, 0.4439090
459.4147, 0.7542970
459.8968, 0.6371120
460.3789, 0.4384480
460.8611, 0.4878810
461.3432, 0.7612840
461.8253, 1.027908
462.3074, 1.162731
462.7895, 1.166359
463.2716, 1.034761
463.7538, 0.4563100
464.2359, 0.1576400
464.7180, 0.4357620
465.2001, 0.9139210
465.6822, 1.238493
466.1643, 1.327751
466.6465, 1.262297
467.1286, 1.111910
467.6107, 0.8578720
468.0928, 0.6837580
468.5749, 0.6409800
469.0570, 0.5708270
469.5392, 0.5112740
470.0213, 0.4675080
470.5034, 0.3691650
470.9855, 0.1897680
471.4676, 6.2201999E-02
471.9497, 0.2964120
472.4319, 1.027229
472.9140, 1.527157
473.3961, 1.569017
473.8782, 1.443081
474.3603, 1.260155
474.8424, 1.043814
475.3246, 0.8282970
475.8067, 0.6445290
476.2888, 0.4744030
476.7709, 0.2263830
477.2530, 0.1359180
477.7351, 0.3301090
478.2173, 9.5881999E-02
478.6994, 0.3265080
479.1815, 0.5560210
479.6636, 0.5456890
480.1457, 0.4539360
480.6278, 0.2756980
481.1100, 9.3337998E-02
481.5920, 7.8038998E-02
482.0742, 0.2652320
482.5563, 0.4992350
483.0384, 0.6552470
483.5205, 0.7293070
484.0026, 0.7613410
484.4847, 0.7323130
484.9669, 0.6881940
485.4490, 0.5747640
485.9311, 0.4716320
486.4132, 0.5765910
486.8953, 0.9593640
487.3774, 1.378460
487.8596, 1.422861
488.3417, 0.9353920
488.8238, 0.4912660
489.3059, 5.4267999E-02
489.7880, 0.4278510
490.2701, 0.4214130
490.7523, 0.1355840
491.2344, 0.2011360
491.7165, 0.4582210
492.1986, 0.6570800
492.6807, 0.8945290
493.1628, 1.282190
493.6450, 1.414574
494.1271, 0.9437560
494.6092, 0.3757820
495.0913, 2.1779999E-02
495.5734, 0.2080350
496.0555, 0.1818260
496.5377, 0.2442000
497.0198, 0.8703780
497.5019, 1.114738
497.9840, 0.9089360
498.4661, 0.5819590
498.9482, 0.1746440
499.4304, 0.1746860
499.9125, 0.1830560
500.3946, 0.3592970
500.8767, 0.7528880
501.3588, 0.3860280
501.8409, 0.2914010
502.3231, 0.3847980
502.8052, 0.2953910
503.2873, 1.085178
503.7694, 1.349905
504.2515, 1.066725
504.7336, 0.8519100
505.2158, 0.7028370
505.6979, 0.6159380
506.1800, 0.5985220
506.6621, 0.6427330
507.1442, 0.7841430
507.6263, 1.025593
508.1085, 1.217319
508.5906, 1.081705
509.0727, 0.4450450
509.5548, 0.1254230
510.0369, 0.4606020
510.5190, 0.7772460
511.0012, 0.8272480
511.4833, 0.6678260
511.9654, 0.4008120
512.4475, 3.2040000E-02
512.9296, 0.2671760
513.4117, 9.2472002E-02
513.8939, 0.6470990
514.3760, 1.151131
514.8581, 1.086319
515.3402, 0.8880540
515.8223, 0.9415280
516.3044, 1.213213
516.7866, 1.431145
517.2687, 1.437988
517.7508, 1.331450
518.2329, 1.195799
518.7150, 1.042526
519.1971, 0.9820230
519.6793, 1.091318
520.1614, 1.293467
520.6435, 1.422085
521.1256, 1.484884
521.6077, 1.473286
522.0898, 1.313719
522.5720, 1.134825
523.0541, 1.046066
523.5362, 1.045656
524.0183, 1.060244
524.5004, 1.033026
524.9825, 0.9848710
525.4647, 1.030407
525.9468, 1.368334
526.4289, 1.508829
526.9110, 1.257595
527.3931, 0.9097440
527.8752, 0.7057290
528.3574, 0.6693570
528.8395, 0.6695480
529.3216, 0.5928730
529.8037, 0.4600930
530.2858, 0.3459800
530.7679, 0.2135640
531.2501, 0.1768000
531.7322, 0.3540670
532.2143, 0.6204190
532.6964, 0.8806130
533.1785, 1.129488
533.6606, 1.281708
534.1428, 1.275673
534.6249, 1.138575
535.1070, 0.9017370
535.5891, 0.5170610
536.0712, 0.1670760
536.5533, 4.0236998E-02
537.0355, 0.1112500
537.5176, 5.7840001E-02
537.9997, 0.2034420
538.4818, 0.4720860
538.9639, 0.7217430
539.4460, 0.9372080
539.9282, 1.130144
540.4103, 1.287279
540.8924, 1.311567
541.3745, 1.053579
541.8566, 0.4951550
542.3387, 0.2804990
542.8209, 0.7381900
543.3029, 1.164623
543.7850, 1.479479
544.2672, 1.662636
544.7493, 1.656887
545.2314, 1.457342
545.7135, 1.217741
546.1956, 1.122982
546.6777, 1.156101
547.1599, 1.099445
547.6420, 0.8507250
548.1241, 0.7056450
548.6062, 1.032301
549.0883, 1.506926
549.5704, 1.594431
550.0526, 0.9954410
550.5347, 0.4530090
551.0168, 0.5353530
551.4989, 0.9893860
551.9810, 1.311493
552.4631, 1.396595
552.9453, 1.317623
553.4274, 1.096188
553.9095, 0.7447470
554.3916, 0.6365280
554.8737, 1.036369
555.3558, 1.298981
555.8380, 1.129641
556.3201, 0.7766880
556.8022, 0.5198590
557.2843, 0.4321670
557.7664, 0.4863490
558.2485, 0.6901840
558.7307, 1.037752
559.2128, 1.243164
559.6949, 1.198374
560.1770, 1.123499
560.6591, 1.110147
561.1412, 1.122816
561.6234, 1.155161
562.1055, 1.209013
562.5876, 1.238140
563.0697, 1.230505
563.5518, 1.168188
564.0339, 0.9157070
564.5161, 0.3893550
564.9982, 3.1161999E-02
565.4803, 0.2443010
565.9624, 0.8949600
566.4445, 1.333689
566.9266, 1.523663
567.4088, 1.552490
567.8909, 1.332184
568.3730, 1.030262
568.8551, 0.8740230
569.3372, 0.8926430
569.8193, 0.9361060
570.3015, 0.8523900
570.7836, 0.6414430
571.2657, 0.5676770
571.7478, 0.7069440
572.2299, 0.8789650
572.7120, 1.104271
573.1942, 1.315199
573.6763, 1.446033
574.1584, 1.490414
574.6405, 1.493816
575.1226, 1.496458
575.6047, 1.491537
576.0869, 1.411192
576.5690, 1.203907
577.0511, 1.150591
577.5332, 1.550694
578.0153, 2.081881
578.4974, 2.225439
578.9796, 1.914118
579.4617, 1.485960
579.9438, 0.8923150
580.4259, 0.3537560
580.9080, 0.1219540
581.3901, 0.2037240
581.8723, 0.5081940
582.3544, 1.028648
582.8365, 1.631874
583.3186, 1.860579
583.8007, 1.369076
584.2828, 1.019102
584.7650, 0.8797400
585.2471, 0.8300150
585.7292, 0.7676580
586.2113, 0.7192900
586.6934, 0.8076250
587.1755, 1.151854
587.6577, 1.599129
588.1398, 1.812689
588.6219, 1.785660
589.1040, 1.537514
589.5861, 0.8297250
590.0682, 0.1742920
590.5504, 0.1958870
591.0325, 0.7652590
591.5146, 1.031679
591.9967, 0.2975440
592.4788, 0.4554350
592.9609, 0.2200070
593.4431, 0.6921180
593.9252, 1.245075
594.4073, 1.043234
594.8894, 0.5562460
595.3715, 0.4626960
595.8536, 0.9050940
596.3358, 1.100349
596.8179, 0.7966210
597.3000, 0.5620980
597.7821, 0.6768700
598.2642, 0.9555300
598.7463, 1.109316
599.2285, 1.042782
599.7106, 0.9146650
600.1927, 0.9330940
600.6748, 1.094418
601.1569, 1.227543
601.6390, 1.360147
602.1212, 1.384823
602.6033, 1.136490
603.0854, 0.7703500
603.5675, 0.5422440
604.0496, 0.5411430
604.5317, 0.4990790
605.0139, 0.1334300
605.4960, 0.2857040
605.9781, 0.3300400
606.4602, 1.7258000E-02
606.9423, 0.5060080
607.4244, 1.052790
607.9066, 1.582407
608.3887, 1.730661
608.8708, 1.067322
609.3529, 0.6376880
609.8350, 0.5491960
610.3171, 0.6523900
610.7993, 0.9203410
611.2814, 1.280283
611.7635, 1.586941
612.2456, 1.755291
612.7277, 1.809101
613.2098, 1.786106
613.6920, 1.684622
614.1741, 1.509354
614.6562, 1.172606
615.1383, 0.8786390
615.6204, 0.9010200
616.1025, 1.179249
616.5847, 1.343721
617.0668, 1.139530
617.5489, 0.9761490
618.0310, 1.230940
618.5131, 1.695724
618.9952, 1.927002
619.4774, 1.797045
619.9595, 1.531870
620.4416, 1.403547
620.9237, 1.428110
621.4058, 1.333120
621.8879, 0.8374560
622.3701, 0.5738490
622.8522, 0.9214100
623.3343, 1.423069
623.8164, 1.521795
624.2985, 1.143538
624.7806, 0.8271810
625.2628, 1.200136
625.7448, 1.941982
626.2269, 2.135365
626.7090, 1.721663
627.1912, 1.230158
627.6733, 0.8579310
628.1554, 0.5975890
628.6375, 0.4110550
629.1196, 0.2589490
629.6017, 0.2873310
630.0839, 0.7810690
630.5660, 1.252810
631.0481, 1.226025
631.5302, 0.8691810
632.0123, 0.7266290
632.4944, 1.080915
632.9766, 1.576559
633.4587, 1.538080
633.9408, 0.8011250
634.4229, 0.3783760
634.9050, 0.4333630
635.3871, 0.6217940
635.8693, 0.9181580
636.3514, 1.196453
636.8335, 1.203766
637.3156, 0.8003270
637.7977, 0.4925250
638.2798, 0.8207860
638.7620, 1.437044
639.2441, 1.613430
639.7262, 1.284328
640.2083, 1.016323
640.6904, 1.224316
641.1725, 1.710943
641.6547, 1.810110
642.1368, 0.9803660
642.6189, 0.5625710
643.1010, 0.9623010
643.5831, 1.411459
644.0652, 1.346752
644.5474, 0.9208150
645.0295, 0.6344810
645.5116, 0.7667390
645.9937, 1.081633
646.4758, 1.195955
646.9579, 1.111546
647.4401, 1.071430
647.9222, 1.169958
648.4043, 1.184202
648.8864, 0.7689080
649.3685, 0.1297280
649.8506, 5.5590000E-02
650.3328, 0.5453210
650.8149, 1.148367
651.2970, 1.426592
651.7791, 1.518658
652.2612, 1.614609
652.7433, 1.723248
653.2255, 1.698414
653.7076, 1.407225
654.1897, 0.9550650
654.6718, 0.7296540
655.1539, 0.7513600
655.6360, 0.9527550
656.1182, 1.700968
656.6003, 2.300404
657.0824, 2.256529
657.5645, 1.729778
658.0466, 1.246462
658.5287, 0.9937320
659.0109, 0.8717140
659.4930, 0.8240660
659.9751, 0.8309610
660.4572, 0.8599700
660.9393, 0.9068300
661.4214, 0.8817120
661.9036, 0.6863500
662.3857, 0.3420310
662.8678, 8.3485000E-02
663.3499, 0.2175980
663.8320, 0.2743700
664.3141, 0.2315770
664.7963, 0.7877290
665.2784, 1.002098
665.7605, 0.8823030
666.2426, 0.6456910
666.7247, 0.3951680
667.2068, 0.1553550
667.6890, 5.6425001E-02
668.1711, 0.2369190
668.6532, 0.2882210
669.1353, 0.1752220
669.6174, 4.3821000E-02
670.0995, 0.3671130
670.5817, 0.7724740
671.0638, 1.039820
671.5459, 1.127541
672.0280, 1.123907
672.5101, 0.9130380
672.9922, 0.7085420
673.4744, 0.8479790
673.9565, 1.286135
674.4386, 1.583426
674.9207, 1.371675
675.4028, 0.8277400
675.8849, 0.5081210
676.3671, 0.4258800
676.8492, 0.5716900
677.3313, 1.148176
677.8134, 1.655415
678.2955, 1.577093
678.7776, 1.093575
679.2598, 0.8639430
679.7419, 1.313038
680.2240, 1.698971
680.7061, 1.423515
681.1882, 0.8626120
681.6703, 0.6326410
682.1525, 0.8270020
682.6346, 1.128584
683.1167, 1.298147
683.5988, 1.328766
684.0809, 1.154903
684.5630, 0.6300950
685.0452, 0.2224160
685.5273, 4.0194001E-02
686.0094, 4.0194001E-02
686.4915, 3.1181000E-02
686.9736, 2.5327999E-02
687.4557, 1.0742000E-02
687.9379, 0.2935850
688.4200, 0.5019780
688.9021, 0.2712970
689.3842, 0.2530730
689.8663, 0.7410320
690.3484, 1.122759
690.8306, 1.306166
691.3127, 1.169615
691.7948, 0.8148440
692.2769, 0.7769370
692.7590, 1.422771
693.2411, 1.799889
693.7233, 1.586863
694.2054, 1.368576
694.6875, 1.602911
695.1696, 2.122349
695.6517, 2.416424
696.1339, 2.198938
696.6160, 1.890047
697.0981, 2.080967
697.5802, 2.585192
698.0623, 2.628105
698.5444, 2.052172
699.0266, 1.579559
699.5087, 1.763371
699.9908, 2.423389
700.4729, 2.868010
700.9550, 2.763090
701.4371, 2.958536
701.9193, 3.804234
702.4014, 4.638437
702.8835, 5.072727
703.3656, 5.175526
703.8477, 5.122520
704.3298, 4.978926
704.8120, 4.852098
705.2941, 4.822876
705.7762, 4.914734
706.2583, 5.292635
706.7404, 6.006939
707.2225, 6.764843
707.7046, 7.450888
708.1867, 8.054733
708.6688, 8.439289
709.1509, 8.430552
709.6331, 8.655827
710.1152, 9.200970
710.5973, 9.950075
711.0794, 10.92494
711.5615, 12.02724
712.0436, 13.10862
712.5258, 14.12062
713.0079, 15.09015
713.4900, 16.17426
713.9721, 17.27973
714.4542, 17.90216
714.9363, 18.00343
715.4185, 17.74521
715.9006, 17.12571
716.3827, 16.26318
716.8648, 15.35555
717.3469, 14.43709
717.8290, 13.30590
718.3112, 11.87195
718.7933, 10.30352
719.2754, 8.308290
719.7575, 6.390335
720.2396, 5.400238
720.7217, 5.465422
721.2039, 5.687981
721.6860, 5.181356
722.1681, 4.181305
722.6502, 3.497360
723.1323, 3.155680
723.6144, 2.845043
724.0966, 2.449463
724.5787, 2.074619
725.0608, 1.857389
725.5429, 1.787491
726.0250, 1.713114
726.5071, 1.643831
726.9893, 1.575970
727.4714, 1.516846
727.9535, 1.454506
728.4356, 1.382275
728.9177, 1.293457
729.3998, 1.154488
729.8820, 0.9138130
730.3641, 0.6563890
730.8462, 0.6058430
731.3283, 0.7706180
731.8104, 0.9239830
732.2925, 1.077452
732.7747, 1.073875
733.2568, 0.6617930
733.7389, 3.7503999E-02
734.2210, 0.3844950
734.7031, 0.1435910
735.1852, 8.3457999E-02
735.6674, 0.1986160
736.1495, 0.2355190
736.6316, 0.1828250
737.1137, 7.8658998E-02
737.5958, 1.5127000E-02
738.0779, 4.1561000E-02
738.5601, 8.6975001E-02
739.0422, 1.5038000E-02
739.5243, 0.1530300
740.0064, 0.1930390
740.4885, 5.9441000E-02
740.9706, 7.6531999E-02
741.4528, 0.1285420
741.9349, 0.1161250
742.4170, 6.0504999E-02
742.8991, 9.1216996E-02
743.3812, 0.1210160
743.8633, 0.1138840
744.3455, 0.3558810
744.8276, 0.5333140
745.3097, 0.5991150
745.7918, 0.4346140
746.2739, 4.0431999E-02
746.7560, 0.3225540
747.2382, 0.3735200
747.7203, 0.2368770
748.2024, 0.2463950
748.6845, 0.4076790
749.1666, 0.4754430
749.6487, 0.3657130
750.1309, 0.1309150
750.6130, 0.2311670
751.0951, 0.7385160
751.5772, 0.9444540
752.0593, 0.6066110
752.5414, 0.3075660
753.0236, 0.2085700
753.5057, 0.1766850
753.9878, 7.5291000E-02
754.4699, 8.5432000E-02
754.9520, 0.2075880
755.4341, 0.2558940
755.9163, 0.1973440
756.3984, 0.1187650
756.8805, 0.6012820
757.3626, 0.7931020
757.8447, 0.6028650
758.3268, 0.4273400
758.8090, 0.5884210
759.2911, 0.9344960
759.7732, 0.9374960
760.2553, 0.1410050
760.7374, 0.1582470
761.2195, 0.4448070
761.7017, 1.082602
762.1838, 1.390200
762.6659, 1.445871
763.1480, 1.342699
763.6301, 1.093248
764.1122, 0.9949170
764.5944, 1.505762
765.0765, 2.182785
765.5586, 2.237806
766.0407, 1.753403
766.5228, 1.331814
767.0049, 1.201771
767.4871, 1.240297
767.9692, 1.296967
768.4513, 1.372490
768.9334, 1.460848
769.4155, 1.642885
769.8976, 1.702635
770.3798, 1.418674
770.8619, 1.137074
771.3440, 1.209034
771.8261, 1.561821
772.3082, 1.756859
772.7903, 1.526993
773.2725, 1.249290
773.7546, 1.219309
774.2367, 1.296930
774.7188, 1.183334
775.2009, 0.9025060
775.6830, 0.8605860
776.1652, 1.360380
776.6473, 2.101965
777.1294, 2.345324
777.6115, 2.012735
778.0936, 1.675428
778.5757, 1.230892
779.0579, 1.046957
779.5400, 1.626593
780.0221, 2.463776
780.5042, 2.650564
780.9863, 2.010059
781.4684, 1.488146
781.9506, 1.312237
782.4327, 1.324799
782.9148, 1.637314
783.3969, 1.991323
783.8790, 1.856550
784.3611, 1.169430
784.8433, 0.5693530
785.3254, 0.7136140
785.8075, 1.351152
786.2896, 1.739489
786.7717, 1.874201
787.2538, 1.944481
787.7360, 1.954552
788.2181, 2.051262
788.7002, 2.445753
789.1823, 3.071142
789.6644, 3.343275
790.1465, 2.949879
790.6286, 2.670906
791.1107, 2.546934
791.5928, 2.564999
792.0750, 2.827868
792.5571, 3.220364
793.0392, 3.437544
793.5213, 3.346025
794.0034, 3.189125
794.4855, 3.091984
794.9677, 3.110962
795.4498, 3.383429
795.9319, 3.895323
796.4140, 4.504557
796.8961, 5.161598
797.3782, 5.799244
797.8604, 6.356512
798.3425, 6.849667
798.8246, 7.094885
799.3067, 6.817919
799.7888, 6.779129
800.2709, 7.458504
800.7531, 8.208633
801.2352, 8.408564
801.7173, 8.216320
802.1994, 8.425884
802.6815, 9.560783
803.1636, 10.67798
803.6458, 11.14434
804.1279, 11.40952
804.6100, 12.08043
805.0921, 13.08433
805.5742, 13.89720
806.0563, 14.21261
806.5385, 14.27022
807.0206, 14.39557
807.5027, 14.60639
807.9848, 15.11944
808.4669, 16.04345
808.9490, 16.69104
809.4312, 16.63652
809.9133, 16.31795
810.3954, 16.42501
810.8775, 17.06467
811.3596, 17.42067
811.8417, 17.33065
812.3239, 17.16652
812.8060, 17.01357
813.2881, 16.84125
813.7702, 16.66667
814.2523, 16.45531
814.7344, 16.07689
815.2166, 15.44065
815.6987, 14.67727
816.1808, 13.86352
816.6629, 13.04709
817.1450, 12.30218
817.6271, 11.65129
818.1093, 11.22826
818.5914, 11.14037
819.0735, 11.12265
819.5556, 10.59630
820.0377, 9.445683
820.5198, 8.514126
821.0020, 7.885584
821.4841, 7.302208
821.9662, 6.627693
822.4483, 5.984123
822.9304, 5.503912
823.4125, 5.185806
823.8947, 4.970936
824.3768, 5.082891
824.8589, 5.016405
825.3410, 4.356932
825.8231, 3.530237
826.3052, 2.974230
826.7874, 2.729212
827.2695, 2.683088
827.7516, 2.808672
828.2337, 2.933811
828.7158, 2.726847
829.1979, 2.299440
829.6801, 2.160870
830.1622, 2.357523
830.6443, 2.552765
831.1264, 2.583733
831.6085, 2.514526
832.0906, 2.451481
832.5728, 2.404421
833.0549, 2.286762
833.5370, 1.931168
834.0191, 1.751629
834.5012, 1.970016
834.9833, 2.286003
835.4655, 2.478775
835.9476, 2.546572
836.4297, 2.569407
836.9118, 2.595083
837.3939, 2.542898
837.8760, 2.348894
838.3582, 2.066385
838.8403, 1.655325
839.3224, 1.211096
839.8045, 1.027090
840.2866, 1.243547
840.7687, 1.581982
841.2509, 1.638676
841.7330, 1.472158
842.2151, 1.469036
842.6972, 1.655840
843.1793, 1.613781
843.6614, 1.090206
844.1436, 0.5872570
844.6257, 0.7735060
845.1078, 1.622871
845.5899, 1.977633
846.0720, 1.275400
846.5541, 0.8990750
847.0363, 1.307371
847.5184, 1.746071
848.0005, 1.660898
848.4826, 1.254833
848.9647, 1.037937
849.4468, 1.162998
849.9290, 1.376184
850.4111, 1.649618
850.8932, 1.857437
851.3753, 1.828856
851.8574, 1.657669
852.3395, 1.476362
852.8217, 1.315222
853.3038, 1.279953
853.7859, 1.532766
854.2680, 1.955885
854.7501, 2.185760
855.2322, 2.223309
855.7144, 2.102449
856.1965, 1.757067
856.6786, 1.601334
857.1607, 2.050112
857.6428, 2.845856
858.1249, 3.136766
858.6071, 2.535662
859.0892, 2.268835
859.5713, 2.677843
860.0534, 3.023123
860.5355, 3.045000
861.0176, 2.857996
861.4998, 2.538801
861.9819, 2.094923
862.4640, 1.753578
862.9461, 1.658442
863.4282, 1.626764
863.9103, 1.546738
864.3925, 1.446159
864.8746, 1.354601
865.3567, 1.282928
865.8388, 1.255014
866.3209, 1.289339
866.8030, 1.336061
867.2852, 1.340744
867.7673, 1.294634
868.2494, 1.097467
868.7315, 0.7378440
869.2136, 0.5232600
869.6957, 0.5988460
870.1779, 0.7988830
870.6600, 0.9154000
871.1421, 0.9480320
871.6242, 0.9184470
872.1063, 0.7027570
872.5884, 0.6451570
873.0705, 1.076199
873.5526, 1.423136
874.0347, 1.164410
874.5168, 0.5813770
874.9990, 0.4056170
875.4811, 0.9263570
875.9632, 1.368927
876.4453, 1.414238
876.9274, 1.292356
877.4095, 1.053692
877.8917, 0.8169770
878.3738, 0.7820870
878.8559, 0.9611780
879.3380, 1.091665
879.8201, 0.9201580
880.3022, 0.6411800
880.7844, 0.6042440
881.2665, 0.7370300
881.7486, 0.7469900
882.2307, 0.5965540
882.7128, 0.5057910
883.1949, 0.6269760
883.6771, 0.8477940
884.1592, 0.9147620
884.6413, 0.8117330
885.1234, 0.7376590
885.6055, 0.6750030
886.0876, 0.6409680
886.5698, 0.6029110
887.0519, 0.6301980
887.5340, 0.9020770
888.0161, 1.378042
888.4982, 1.442940
888.9803, 0.5546280
889.4625, 1.7000000E-05
889.9446, 0.2918950
890.4267, 0.7238460
890.9088, 0.7283820
891.3909, 0.5032750
891.8730, 0.5620520
892.3552, 1.062206
892.8373, 1.458454
893.3194, 1.335892
893.8015, 0.9836080
894.2836, 0.6361900
894.7657, 0.3552490
895.2479, 0.2063060
895.7300, 0.1992440
896.2121, 0.3179260
896.6942, 0.5810600
897.1763, 0.8546410
897.6584, 0.8236790
898.1406, 0.5236170
898.6227, 0.2957880
899.1048, 0.1703740
899.5869, 0.1277280
900.0690, 0.1593400
900.5511, 0.2758430
901.0333, 0.5328010
901.5154, 0.9524750
901.9975, 1.055866
902.4796, 0.5239320
902.9617, 0.2691500
903.4438, 0.8143810
903.9260, 1.331701
904.4081, 1.107643
904.8902, 0.4481260
905.3723, 0.1581190
905.8544, 0.4590070
906.3365, 0.7451990
906.8187, 0.9466970
907.3008, 0.9995190
907.7829, 0.8314340
908.2650, 0.5311660
908.7471, 0.1176090
909.2292, 0.3384250
909.7114, 0.5387950
910.1935, 0.2162460
910.6756, 0.2829480
911.1577, 0.7966670
911.6398, 1.202862
912.1219, 1.176395
912.6041, 0.7810020
913.0862, 0.4226090
913.5683, 0.2858090
914.0504, 0.2903330
914.5325, 0.3939080
915.0146, 0.5664270
915.4968, 0.6359370
915.9789, 0.6027930
916.4610, 0.4611630
916.9431, 0.1827890
917.4252, 0.1082530
917.9073, 0.3348220
918.3895, 0.4669670
918.8716, 0.3797820
919.3537, 7.5441003E-02
919.8358, 0.3835540
920.3179, 0.4576110
920.8000, 0.4635090
921.2822, 0.4100360
921.7643, 0.3652670
922.2464, 0.4354100
922.7285, 0.6143400
923.2106, 0.7200530
923.6927, 0.6292300
924.1749, 0.5322300
924.6570, 0.5343230
925.1391, 0.5259530
925.6212, 0.3882540
926.1033, 0.1801590
926.5854, 3.0334000E-02
927.0676, 2.4026999E-02
927.5497, 2.9448999E-02
928.0318, 7.9750000E-03
928.5139, 5.8543999E-02
928.9960, 9.2646003E-02
929.4781, 0.1151160
929.9603, 0.1223960
930.4424, 0.1282250
930.9245, 0.2193110
931.4066, 0.4747790
931.8887, 0.7086910
932.3708, 0.5507640
932.8530, 8.9580998E-02
933.3351, 0.2384950
933.8172, 0.4054160
934.2993, 0.3161680
934.7814, 8.7738000E-02
935.2635, 0.5182230
935.7457, 0.6441460
936.2278, 0.5291820
936.7099, 0.5782570
937.1920, 0.8599740
937.6741, 0.9957980
938.1563, 0.8895260
938.6384, 0.7560270
939.1205, 0.7296030
939.6026, 0.7400570
940.0847, 0.6200050
940.5668, 0.3295100
941.0490, 0.1541040
941.5311, 0.2843000
942.0132, 0.2643850
942.4953, 0.2815490
942.9774, 0.7447510
943.4595, 0.5570740
943.9417, 5.7041001E-02
944.4238, 0.4683740
944.9059, 0.5032140
945.3880, 0.5393330
945.8701, 0.8623280
946.3522, 1.065519
946.8344, 0.7169340
947.3165, 0.1834510
947.7986, 1.1015000E-02
948.2807, 0.1631360
948.7628, 0.3791640
949.2449, 0.5076160
949.7271, 0.5151730
950.2092, 0.1378800
950.6913, 0.2928090
951.1734, 0.1835920
951.6555, 0.3327310
952.1376, 0.7091260
952.6198, 0.7603450
953.1019, 0.6748640
953.5840, 0.5992680
954.0661, 0.5582890
954.5482, 0.6483120
955.0303, 0.8411370
955.5124, 0.9437070
955.9945, 0.9292930
956.4766, 0.8897130
956.9587, 0.8802150
957.4409, 0.8461340
957.9230, 0.6832600
958.4051, 0.3962040
958.8872, 0.2077140
959.3693, 0.1304090
959.8514, 9.3898997E-02
960.3336, 8.2684003E-02
960.8157, 0.1210630
961.2978, 0.2479310
961.7799, 0.4261190
962.2620, 0.5466690
962.7441, 0.6250340
963.2263, 0.5944810
963.7084, 0.2546040
964.1905, 7.9862997E-02
964.6726, 0.3522050
965.1547, 0.7174450
965.6368, 0.8920940
966.1190, 0.8880040
966.6011, 0.7417390
967.0832, 0.2620010
967.5653, 1.3437000E-02
968.0474, 0.2711390
968.5295, 0.5881540
969.0117, 0.6421380
969.4938, 0.5386580
969.9759, 0.3546980
970.4580, 0.1407700
970.9401, 0.1045740
971.4222, 0.4650480
971.9044, 0.8128660
972.3865, 0.9121440
972.8686, 0.8513680
973.3507, 0.5976540
973.8328, 0.2927360
974.3149, 0.2666870
974.7971, 0.5953460
975.2792, 0.8972840
975.7613, 0.8828620
976.2434, 0.6841740
976.7255, 0.3244020
977.2076, 1.0410000E-02
977.6898, 0.1229950
978.1719, 0.6618920
978.6540, 1.059952
979.1361, 1.059252
979.6182, 0.8120380
980.1003, 0.3687820
980.5825, 0.1188600
981.0646, 8.8060005E-03
981.5467, 0.6083030
982.0288, 0.9849340
982.5109, 0.9725110
982.9930, 0.8298840
983.4752, 0.7064880
983.9573, 0.6357940
984.4394, 0.7296470
984.9215, 1.000198
985.4036, 0.9641250
985.8857, 0.5485250
986.3679, 0.3589650
986.8500, 0.6105580
987.3321, 0.9479920
987.8142, 1.123596
988.2963, 1.124788
988.7784, 0.8574260
989.2606, 9.8945998E-02
989.7427, 9.3392998E-02
990.2248, 0.6782800
990.7069, 1.232698
991.1890, 1.091930
991.6711, 0.6969320
992.1533, 0.4178680
992.6354, 0.2716240
993.1175, 0.2383750
993.5996, 0.4102170
994.0817, 0.5062980
994.5638, 0.4942190
995.0460, 0.4426160
995.5281, 0.3546100
996.0102, 0.2547990
996.4923, 9.5542997E-02
996.9744, 8.1095003E-02
997.4565, 1.6689001E-02
997.9387, 0.7683240
998.4208, 1.252096
998.9029, 0.9901450
999.3850, 0.6520860
999.8671, 0.6461540
1000.349, 0.7938960
1000.831, 0.9079860
1001.313, 0.9752240
1001.796, 0.8975180
1002.278, 0.4173530
1002.760, 1.5916999E-02
1003.242, 5.8688998E-02
1003.724, 8.5286997E-02
1004.206, 0.4771800
1004.688, 0.9607600
1005.170, 1.329664
1005.653, 1.506840
1006.135, 1.372261
1006.617, 0.4803220
1007.099, 0.2894780
1007.581, 0.1545330
1008.063, 1.066805
1008.545, 1.429352
1009.027, 1.296675
1009.509, 1.061298
1009.992, 0.8483180
1010.474, 0.6798460
1010.956, 0.5715980
1011.438, 0.5282020
1011.920, 0.6356330
1012.402, 0.7914280
1012.884, 0.7143800
1013.366, 0.4233490
1013.849, 0.1370980
1014.331, 4.4922002E-02
1014.813, 5.7939999E-02
1015.295, 0.2780380
1015.777, 0.7506960
1016.259, 0.7769030
1016.741, 0.4439240
1017.223, 0.1236150
1017.705, 0.1099280
1018.188, 0.1235560
1018.670, 0.1654990
1019.152, 0.4928440
1019.634, 0.4447940
1020.116, 0.1236920
1020.598, 0.1076660
1021.080, 0.3778650
1021.562, 0.3473280
1022.044, 0.1141530
1022.527, 0.3031270
1023.009, 0.2202800
1023.491, 0.9669190
1023.973, 1.133200
1024.455, 0.7561530
1024.937, 0.4580920
1025.419, 0.2432160
1025.901, 8.0030002E-03
1026.384, 0.3203220
1026.866, 0.5008070
1027.348, 0.3535330
1027.830, 2.9074000E-02
1028.312, 0.1980400
1028.794, 0.3328780
1029.276, 0.4226130
1029.758, 0.4601610
1030.240, 0.4461800
1030.723, 0.3795090
1031.205, 0.2490810
1031.687, 1.6182000E-02
1032.169, 0.2762700
1032.651, 0.2075630
1033.133, 0.2582860
1033.615, 0.4479200
1034.097, 0.1878130
1034.579, 3.0083001E-02
1035.062, 0.1141820
1035.544, 0.2652780
1036.026, 0.4010330
1036.508, 0.4812680
1036.990, 0.3862740
1037.472, 2.8803000E-02
1037.954, 7.0949998E-03
1038.436, 0.6016750
1038.919, 0.9938220
1039.401, 0.8310830
1039.883, 0.6128120
1040.365, 0.7867240
1040.847, 1.096062
1041.329, 0.9047180
1041.811, 2.1120001E-02
1042.293, 0.3473420
1042.776, 0.2269340
1043.258, 0.7457200
1043.740, 1.025892
1044.222, 1.195225
1044.704, 1.263260
1045.186, 1.304697
1045.668, 1.478018
1046.150, 1.819744
1046.632, 2.096470
1047.115, 2.295664
1047.597, 2.394968
1048.079, 2.167675
1048.561, 2.087347
1049.043, 2.718908
1049.525, 3.650826
1050.007, 4.021084
1050.489, 3.662569
1050.971, 3.600990
1051.454, 4.107046
1051.936, 4.834639
1052.418, 5.994659
1052.900, 7.039043
1053.382, 7.558250
1053.864, 7.685869
1054.346, 7.773306
1054.828, 7.873823
1055.311, 7.451351
1055.793, 5.751356
1056.275, 4.328310
1056.757, 3.771460
1057.239, 3.629633
1057.721, 3.734350
1058.203, 3.939423
1058.685, 3.997936
1059.167, 3.881935
1059.650, 3.993382
1060.132, 4.724007
1060.614, 5.351547
1061.096, 5.317680
1061.578, 5.356714
1062.060, 6.344042
1062.542, 7.643457
1063.024, 8.048431
1063.506, 7.440109
1063.989, 6.985958
1064.471, 7.197628
1064.953, 7.497303
1065.435, 7.574572
1065.917, 7.769119
1066.399, 8.450815
1066.881, 9.384907
1067.363, 10.18811
1067.846, 10.81219
1068.328, 11.46372
1068.810, 12.18305
1069.292, 13.00401
1069.774, 13.83637
1070.256, 14.88446
1070.738, 16.30612
1071.220, 18.04558
1071.703, 19.95683
1072.185, 22.06395
1072.667, 24.69030
1073.149, 28.10854
1073.631, 31.69859
1074.113, 34.77919
1074.595, 38.34652
1075.077, 43.25984
1075.559, 49.00526
1076.042, 55.06476
1076.524, 61.28910
1077.006, 67.49669
1077.488, 73.64053
1077.970, 79.77508
1078.452, 85.53394
1078.934, 91.76496
1079.416, 98.86388
1079.898, 106.9225
1080.380, 116.1693
1080.863, 126.4908
1081.345, 137.4317
1081.827, 148.7936
1082.309, 160.9448
1082.791, 173.5087
1083.273, 187.6200
1083.755, 203.6861
1084.237, 221.8149
1084.720, 241.8953
1085.202, 264.1262
1085.684, 290.1645
1086.166, 321.0299
1086.648, 348.8473
1087.130, 375.7213
1087.612, 391.9297
1088.094, 393.0283
1088.577, 380.8348
1089.059, 353.3263
1089.541, 315.2371
1090.023, 273.9706
1090.505, 230.7643
1090.987, 191.2028
1091.469, 156.2306
1091.951, 126.4779
1092.433, 103.1836
1092.916, 84.20520
1093.398, 68.72657
1093.880, 56.26225
1094.362, 46.73037
1094.844, 39.94785
1095.326, 34.01564
1095.808, 28.12777
1096.290, 23.37122
1096.772, 20.64721
1097.255, 18.58089
1097.737, 16.45418
1098.219, 14.31886
1098.701, 12.17391
1099.183, 10.12028
1099.665, 8.655060
1100.147, 8.098581
1100.629, 7.699085
1101.112, 7.443996
1101.594, 7.072165
1102.076, 6.329569
1102.558, 5.493782
1103.040, 4.840937
1103.522, 4.365576
1104.004, 3.950792
1104.486, 3.551977
1104.969, 3.299797
1105.451, 3.508987
1105.933, 3.487505
1106.415, 2.645222
1106.897, 1.797430
1107.379, 1.667751
1107.861, 2.033602
1108.343, 2.314445
1108.825, 2.463985
1109.307, 2.554432
1109.790, 2.750206
1110.272, 2.655712
1110.754, 1.856174
1111.236, 1.105694
1111.718, 0.8839870
1112.200, 0.9793450
1112.682, 1.086096
1113.164, 1.206808
1113.647, 1.243492
1114.129, 1.145800
1114.611, 1.043108
1115.093, 0.9305250
1115.575, 0.8425100
1116.057, 0.8543360
1116.539, 0.8296380
1117.021, 0.5324730
1117.504, 3.5973001E-02
1117.986, 9.9492997E-02
1118.468, 0.3949130
1118.950, 0.5989990
1119.432, 0.3317490
1119.914, 0.1180730
1120.396, 0.1470490
1120.878, 0.2398930
1121.360, 0.2081760
1121.843, 0.1483380
1122.325, 0.3858830
1122.807, 1.023420
1123.289, 1.320446
1123.771, 1.209583
1124.253, 0.9726720
1124.735, 0.6129820
1125.217, 0.2972010
1125.699, 0.1133210
1126.182, 8.8499002E-02
1126.664, 0.3347550
1127.146, 0.8149170
1127.628, 0.7704720
1128.110, 0.1186870
1128.592, 0.2676050
1129.074, 0.2818360
1129.556, 2.4805000E-02
1130.039, 0.5180850
1130.521, 0.9866560
1131.003, 0.9349500
1131.485, 0.5220680
1131.967, 0.2561050
1132.449, 0.1434330
1132.931, 0.3894210
1133.413, 0.9880600
1133.896, 1.332214
1134.378, 1.250050
1134.860, 1.058704
1135.342, 0.9730700
1135.824, 0.9429190
1136.306, 0.8797440
1136.788, 0.8118520
1137.270, 0.8318790
1137.752, 0.9513680
1138.234, 1.217104
1138.717, 1.578066
1139.199, 1.725025
1139.681, 1.502619
1140.163, 1.153589
1140.645, 0.8668590
1141.127, 0.7130110
1141.609, 0.8803270
1142.091, 1.249090
1142.574, 1.633890
1143.056, 1.950018
1143.538, 1.971621
1144.020, 1.671516
1144.502, 1.410934
1144.984, 1.472435
1145.466, 1.613819
1145.948, 1.535402
1146.431, 1.421612
1146.913, 1.497385
1147.395, 1.689440
1147.877, 1.927242
1148.359, 2.153101
1148.841, 2.109541
1149.323, 1.629690
1149.805, 1.288347
1150.287, 1.527838
1150.770, 1.905746
1151.252, 2.078135
1151.734, 2.212057
1152.216, 2.645174
1152.698, 3.172281
1153.180, 3.226433
1153.662, 2.695467
1154.144, 2.114798
1154.626, 1.529055
1155.109, 1.156849
1155.591, 1.116379
1156.073, 1.273020
1156.555, 1.666782
1157.037, 2.121428
1157.519, 2.441782
1158.001, 2.605486
1158.483, 2.578932
1158.966, 2.179790
1159.448, 1.998907
1159.930, 2.277994
1160.412, 2.501961
1160.894, 2.543451
1161.376, 2.470722
1161.858, 2.270550
1162.340, 2.025085
1162.822, 1.910345
1163.305, 1.929869
1163.787, 2.048756
1164.269, 2.356325
1164.751, 2.505630
1165.233, 2.433264
1165.715, 2.231693
1166.197, 1.878139
1166.679, 1.603203
1167.161, 1.749634
1167.644, 2.168676
1168.126, 2.145153
1168.608, 1.653982
1169.090, 1.680983
1169.572, 2.278133
1170.054, 2.582575
1170.536, 2.359337
1171.018, 2.119228
1171.500, 2.231783
1171.983, 2.391539
1172.465, 1.971481
1172.947, 1.238800
1173.429, 1.174911
1173.911, 1.607014
1174.393, 1.932137
1174.875, 2.053181
1175.357, 1.932657
1175.840, 1.584934
1176.322, 1.341002
1176.804, 1.526363
1177.286, 1.816082
1177.768, 1.776257
1178.250, 1.608500
1178.732, 1.568405
1179.214, 1.650007
1179.697, 1.862360
1180.179, 2.148458
1180.661, 2.294537
1181.143, 2.194719
1181.625, 2.073090
1182.107, 2.110819
1182.589, 2.116348
1183.071, 1.895069
1183.553, 1.644295
1184.036, 1.657455
1184.518, 1.742970
1185.000, 1.391199
1185.482, 0.5785770
1185.964, 0.2272420
1186.446, 1.042778
1186.928, 1.525175
1187.410, 1.171055
1187.892, 0.7632390
1188.375, 0.6166190
1188.857, 0.5716780
1189.339, 0.4721530
1189.821, 0.3550380
1190.303, 0.3457530
1190.785, 0.4978100
1191.267, 0.4265160
1191.749, 2.0124000E-02
1192.232, 0.2564010
1192.714, 0.1328750
1193.196, 5.4065999E-02
1193.678, 0.1866910
1194.160, 0.2128790
1194.642, 2.8622000E-02
1195.124, 0.2697260
1195.606, 0.2733150
1196.089, 5.1650000E-03
1196.571, 0.2569620
1197.053, 0.4574620
1197.535, 0.4087100
1198.017, 8.4830999E-02
1198.499, 1.8650001E-02
1198.981, 0.5649070
1199.463, 1.182148
1199.945, 1.098801
1200.427, 0.6181450
1200.910, 0.2683720
1201.392, 3.1319000E-02
1201.874, 7.3523998E-02
1202.356, 0.1117780
1202.838, 0.3191380
1203.320, 0.7111780
1203.802, 0.9286730
1204.284, 0.7392080
1204.767, 0.3833770
1205.249, 0.1766280
1205.731, 0.5898020
1206.213, 0.4826160
1206.695, 0.1107560
1207.177, 0.3431590
1207.659, 0.7486650
1208.141, 0.8690110
1208.624, 0.6469270
1209.106, 0.3470080
1209.588, 0.1787680
1210.070, 0.4575120
1210.552, 0.1200830
1211.034, 0.1597520
1211.516, 0.1121060
1211.998, 0.4575080
1212.480, 0.3107300
1212.963, 0.1441880
1213.445, 0.1739010
1213.927, 0.3707960
1214.409, 0.5491030
1214.891, 0.2129520
1215.373, 0.1333390
1215.855, 0.5160370
1216.337, 0.8623390
1216.819, 0.9044720
1217.302, 0.7867360
1217.784, 0.6601300
1218.266, 0.5566560
1218.748, 0.5892370
1219.230, 0.7331890
1219.712, 0.8669850
1220.194, 0.9932670
1220.676, 1.213722
1221.159, 1.511673
1221.641, 1.632923
1222.123, 1.440712
1222.605, 1.079403
1223.087, 0.5001530
1223.569, 2.3163000E-02
1224.051, 0.1269300
1224.533, 0.4707600
1225.016, 0.6693040
1225.498, 0.7218130
1225.980, 0.5729830
1226.462, 0.3131680
1226.944, 0.4887390
1227.426, 1.478134
1227.908, 2.431587
1228.390, 3.077797
1228.872, 3.348221
1229.354, 2.790661
1229.837, 2.254814
1230.319, 2.591507
1230.801, 3.282814
1231.283, 3.331024
1231.765, 2.764877
1232.247, 2.587055
1232.729, 2.882915
1233.211, 3.356159
1233.694, 4.079006
1234.176, 4.665134
1234.658, 4.979908
1235.140, 5.211426
1235.622, 5.475700
1236.104, 5.749634
1236.586, 5.865295
1237.068, 5.879925
1237.551, 6.157143
1238.033, 6.574566
1238.515, 6.360836
1238.997, 5.629700
1239.479, 5.679001
1239.961, 6.659523
1240.443, 7.132160
1240.925, 6.224110
1241.407, 5.212116
1241.890, 5.417488
1242.372, 6.030674
1242.854, 6.056458
1243.336, 5.965340
1243.818, 6.574020
1244.300, 7.502602
1244.782, 7.988342
1245.264, 8.084038
1245.746, 7.875252
1246.229, 6.848946
1246.711, 6.073975
1247.193, 6.223602
1247.675, 6.510918
1248.157, 6.486755
1248.639, 6.391197
1249.121, 6.212524
1249.603, 6.050156
1250.085, 6.090492
1250.568, 6.278450
1251.050, 6.405525
1251.532, 6.391060
1252.014, 6.943657
1252.496, 8.179161
1252.978, 8.594284
1253.460, 7.747711
1253.942, 6.842232
1254.425, 6.673309
1254.907, 6.904274
1255.389, 7.167595
1255.871, 7.298836
1256.353, 6.966789
1256.835, 6.462952
1257.317, 6.249474
1257.799, 6.255699
1258.281, 6.221916
1258.764, 6.091110
1259.246, 6.159653
1259.728, 6.667191
1260.210, 6.976387
1260.692, 6.669754
1261.174, 6.242798
1261.656, 5.728828
1262.138, 5.397148
1262.620, 5.684227
1263.103, 6.147659
1263.585, 5.996002
1264.067, 5.324341
1264.549, 4.932137
1265.031, 4.809731
1265.513, 5.093262
1265.995, 5.941803
1266.477, 6.482864
1266.960, 6.517136
1267.442, 6.149826
1267.924, 5.392509
1268.406, 4.689125
1268.888, 4.621742
1269.370, 4.895905
1269.852, 4.803482
1270.334, 4.526047
1270.817, 4.474243
1271.299, 4.650986
1271.781, 5.208061
1272.263, 5.934959
1272.745, 5.968353
1273.227, 4.974854
1273.709, 3.972786
1274.191, 3.676109
1274.673, 3.376907
1275.156, 2.573967
1275.638, 1.815887
1276.120, 1.473495
1276.602, 1.368713
1277.084, 1.223625
1277.566, 1.144928
1278.048, 1.582298
1278.530, 2.672752
1279.012, 2.956268
1279.495, 2.124664
1279.977, 1.605606
1280.459, 1.606148
1280.941, 1.679657
1281.423, 1.691971
1281.905, 1.440437
1282.387, 0.7105870
1282.869, 4.9072001E-02
1283.352, 3.1000000E-05
1283.834, 0.5408630
1284.316, 0.3819960
1284.798, 0.0000000E+00
##END=



