##NAMES=Pararealgar
##RRUFFID=R150123
##IDEAL CHEMISTRY=AsS
##LOCALITY=U.S. Borax mine, Kramer Borate deposit, Boron, California, USA
##OWNER=RRUFF
##SOURCE=Michael Scott S106210
##DESCRIPTION=Yellowish-orange granular, within a rind of realgar
##STATUS=The identification of this mineral has been confirmed by single-crystal X-ray diffraction.
##URL=rruff.info/R150123
107.4698, 0.0000000E+00
107.9519, 15.70312
108.4340, 0.6875000
108.9161, 4.944336
109.3982, 6.540039
109.8804, 34.00195
110.3625, 77.05957
110.8446, 131.2588
111.3267, 207.8818
111.8088, 302.2422
112.2909, 418.6709
112.7731, 562.5459
113.2552, 730.2051
113.7373, 918.2793
114.2194, 1121.483
114.7015, 1345.471
115.1836, 1582.032
115.6658, 1858.469
116.1479, 2135.725
116.6300, 2388.244
117.1121, 2619.731
117.5942, 2809.498
118.0763, 2897.202
118.5584, 2896.456
119.0406, 2800.492
119.5227, 2577.669
120.0048, 2255.858
120.4869, 1899.876
120.9690, 1510.583
121.4511, 1129.939
121.9333, 824.8496
122.4154, 607.0693
122.8975, 443.2578
123.3796, 315.9775
123.8617, 227.2168
124.3438, 154.1670
124.8260, 91.55664
125.3081, 37.87402
125.7902, 7.282227
126.2723, 44.21387
126.7544, 71.98145
127.2365, 87.75684
127.7187, 89.10547
128.2008, 80.69727
128.6829, 68.12500
129.1650, 47.75000
129.6471, 16.55273
130.1292, 25.38672
130.6114, 79.44434
131.0935, 166.0312
131.5756, 305.5723
132.0577, 461.3447
132.5398, 639.8184
133.0219, 829.8457
133.5041, 1010.737
133.9862, 1167.049
134.4683, 1299.943
134.9504, 1391.606
135.4325, 1435.877
135.9146, 1453.707
136.3968, 1443.403
136.8789, 1409.781
137.3610, 1376.438
137.8431, 1364.729
138.3252, 1373.358
138.8073, 1434.154
139.2895, 1532.389
139.7716, 1690.067
140.2537, 1959.563
140.7358, 2371.479
141.2179, 2816.558
141.7000, 3201.939
142.1821, 3541.425
142.6643, 3702.449
143.1464, 3559.215
143.6285, 3176.094
144.1106, 2774.688
144.5927, 2360.948
145.0748, 1995.822
145.5570, 1714.875
146.0391, 1519.493
146.5212, 1391.056
147.0033, 1323.799
147.4854, 1321.270
147.9675, 1345.367
148.4497, 1358.350
148.9318, 1419.252
149.4139, 1558.919
149.8960, 1784.795
150.3781, 2097.896
150.8602, 2512.019
151.3424, 3092.104
151.8245, 3642.713
152.3066, 4290.910
152.7887, 4834.912
153.2708, 5110.285
153.7529, 5055.467
154.2351, 4741.057
154.7172, 4334.562
155.1993, 3652.747
155.6814, 3102.288
156.1635, 2736.222
156.6456, 2498.742
157.1278, 2349.255
157.6099, 2273.743
158.0920, 2240.149
158.5741, 2106.675
159.0562, 1818.076
159.5383, 1508.652
160.0205, 1168.401
160.5026, 827.6436
160.9847, 550.7158
161.4668, 373.7783
161.9489, 298.0889
162.4310, 294.6670
162.9131, 386.8916
163.3953, 520.1885
163.8774, 670.2715
164.3595, 837.0449
164.8416, 1017.960
165.3237, 1209.264
165.8058, 1413.540
166.2880, 1613.981
166.7701, 1802.773
167.2522, 1993.297
167.7343, 2192.271
168.2164, 2394.225
168.6985, 2629.141
169.1807, 2908.752
169.6628, 3230.876
170.1449, 3609.877
170.6270, 4076.227
171.1091, 4586.441
171.5912, 5058.813
172.0734, 5546.481
172.5555, 5879.687
173.0376, 5982.871
173.5197, 5926.307
174.0018, 5799.280
174.4839, 5637.984
174.9661, 5451.227
175.4482, 5298.592
175.9303, 5257.002
176.4124, 5159.961
176.8945, 4957.814
177.3766, 4671.154
177.8588, 4331.080
178.3409, 3944.174
178.8230, 3508.572
179.3051, 3193.812
179.7872, 3034.665
180.2693, 2959.104
180.7515, 2964.758
181.2336, 3041.078
181.7157, 3173.971
182.1978, 3355.092
182.6799, 3588.859
183.1620, 3831.522
183.6441, 4098.084
184.1263, 4357.571
184.6084, 4600.387
185.0905, 4823.376
185.5726, 5021.604
186.0547, 5187.726
186.5368, 5316.680
187.0190, 5436.205
187.5011, 5538.521
187.9832, 5636.354
188.4653, 5737.744
188.9474, 5843.424
189.4296, 5953.934
189.9117, 6078.640
190.3938, 6217.672
190.8759, 6325.506
191.3580, 6397.916
191.8401, 6434.613
192.3223, 6429.527
192.8044, 6377.757
193.2865, 6304.104
193.7686, 6212.089
194.2507, 6110.715
194.7328, 6037.299
195.2150, 6002.642
195.6971, 6002.768
196.1792, 6039.273
196.6613, 6131.581
197.1434, 6214.523
197.6255, 6249.777
198.1077, 6241.869
198.5898, 6194.087
199.0719, 6076.894
199.5540, 5912.506
200.0361, 5795.357
200.5182, 5721.434
201.0004, 5713.466
201.4825, 5798.361
201.9646, 5951.310
202.4467, 6113.967
202.9288, 6286.586
203.4109, 6460.877
203.8930, 6476.569
204.3752, 6296.589
204.8573, 5969.754
205.3394, 5444.471
205.8215, 4785.908
206.3036, 4123.141
206.7857, 3545.491
207.2679, 3050.442
207.7500, 2691.374
208.2321, 2518.532
208.7142, 2446.276
209.1963, 2468.462
209.6784, 2575.326
210.1606, 2755.140
210.6427, 3003.466
211.1248, 3324.766
211.6069, 3663.707
212.0890, 4048.158
212.5711, 4421.911
213.0533, 4772.211
213.5354, 5093.469
214.0175, 5381.897
214.4996, 5629.441
214.9817, 5827.953
215.4638, 6044.242
215.9460, 6272.896
216.4281, 6519.617
216.9102, 6788.945
217.3923, 7079.596
217.8744, 7391.182
218.3565, 7724.414
218.8387, 8082.656
219.3208, 8433.585
219.8029, 8794.719
220.2850, 9137.301
220.7671, 9444.480
221.2492, 9715.857
221.7314, 9958.927
222.2135, 10174.28
222.6956, 10359.53
223.1777, 10557.82
223.6598, 10763.64
224.1419, 10988.53
224.6240, 11212.00
225.1062, 11438.07
225.5883, 11737.95
226.0704, 12139.73
226.5525, 12673.38
227.0346, 13436.81
227.5167, 14448.89
227.9989, 15684.71
228.4810, 17189.98
228.9631, 18972.30
229.4452, 20791.31
229.9273, 22697.32
230.4094, 24478.61
230.8916, 25560.34
231.3737, 25677.30
231.8558, 25136.51
232.3379, 24118.48
232.8200, 22552.36
233.3021, 21007.02
233.7843, 19789.46
234.2664, 18837.46
234.7485, 18106.80
235.2306, 17687.10
235.7127, 17400.35
236.1948, 17066.74
236.6770, 16730.10
237.1591, 16148.17
237.6412, 15095.46
238.1233, 13754.07
238.6054, 12251.22
239.0875, 10561.05
239.5697, 8818.421
240.0518, 7221.502
240.5339, 5746.492
241.0160, 4482.592
241.4981, 3500.178
241.9802, 2717.243
242.4624, 2090.361
242.9445, 1618.292
243.4266, 1262.926
243.9087, 966.7988
244.3908, 737.9424
244.8729, 551.0820
245.3550, 411.3369
245.8372, 300.4336
246.3193, 206.8633
246.8014, 127.0244
247.2835, 58.55762
247.7656, 3.811523
248.2477, 60.49023
248.7299, 108.9902
249.2120, 147.3379
249.6941, 179.4443
250.1762, 208.1074
250.6583, 234.2139
251.1404, 256.2891
251.6226, 272.1738
252.1047, 281.1992
252.5868, 284.4014
253.0689, 284.7891
253.5510, 278.7578
254.0331, 261.7734
254.5153, 233.3770
254.9974, 199.2051
255.4795, 167.5801
255.9616, 140.0059
256.4437, 111.7686
256.9258, 81.12402
257.4080, 50.99707
257.8901, 23.40039
258.3722, 1.388672
258.8543, 24.87402
259.3364, 49.16504
259.8185, 75.50488
260.3007, 99.41992
260.7828, 116.5967
261.2649, 135.2256
261.7470, 159.1680
262.2291, 189.4639
262.7112, 225.8916
263.1934, 268.4834
263.6755, 317.9375
264.1576, 371.9346
264.6397, 424.6934
265.1218, 485.3457
265.6039, 557.5801
266.0861, 641.9766
266.5682, 737.5850
267.0503, 842.2646
267.5324, 953.2881
268.0145, 1094.603
268.4966, 1266.869
268.9788, 1461.309
269.4609, 1672.970
269.9430, 1902.214
270.4251, 2152.879
270.9072, 2429.776
271.3893, 2731.855
271.8715, 3044.957
272.3536, 3413.318
272.8357, 3747.174
273.3178, 4033.062
273.7999, 4255.860
274.2820, 4387.243
274.7642, 4410.354
275.2463, 4324.458
275.7284, 4106.477
276.2105, 3720.257
276.6926, 3277.249
277.1747, 2770.962
277.6568, 2233.069
278.1389, 1723.357
278.6211, 1268.607
279.1032, 873.9111
279.5853, 568.5771
280.0674, 369.7549
280.5495, 216.9863
281.0316, 105.4189
281.5138, 28.64746
281.9959, 21.55859
282.4780, 46.86719
282.9601, 53.44824
283.4422, 54.98828
283.9243, 52.11523
284.4065, 44.33984
284.8886, 27.94727
285.3707, 7.449219
285.8528, 10.37598
286.3349, 23.21777
286.8170, 33.53418
287.2992, 44.59766
287.7813, 54.63379
288.2634, 70.89551
288.7455, 97.96680
289.2276, 130.4746
289.7097, 162.7500
290.1919, 193.6201
290.6740, 222.0859
291.1561, 245.4766
291.6382, 262.3555
292.1203, 285.6953
292.6024, 319.9971
293.0846, 359.5117
293.5667, 397.5986
294.0488, 433.6338
294.5309, 473.3057
295.0130, 522.3242
295.4951, 581.3125
295.9773, 642.3398
296.4594, 705.5908
296.9415, 770.3994
297.4236, 836.8740
297.9057, 904.5645
298.3878, 971.5420
298.8700, 1033.896
299.3521, 1094.469
299.8342, 1167.474
300.3163, 1258.301
300.7984, 1355.590
301.2805, 1455.828
301.7627, 1558.087
302.2448, 1660.366
302.7269, 1762.771
303.2090, 1864.086
303.6911, 1960.820
304.1732, 2046.732
304.6554, 2139.027
305.1375, 2250.629
305.6196, 2372.352
306.1017, 2484.387
306.5838, 2577.184
307.0659, 2663.457
307.5481, 2767.555
308.0302, 2892.087
308.5123, 3018.485
308.9944, 3138.087
309.4765, 3256.708
309.9586, 3381.411
310.4408, 3512.838
310.9229, 3654.752
311.4050, 3813.001
311.8871, 3988.031
312.3692, 4173.289
312.8513, 4377.653
313.3335, 4586.913
313.8156, 4787.592
314.2977, 4977.358
314.7798, 5156.642
315.2619, 5326.976
315.7440, 5487.312
316.2262, 5631.260
316.7083, 5745.226
317.1904, 5851.093
317.6725, 5966.391
318.1546, 6091.389
318.6367, 6216.553
319.1188, 6335.412
319.6010, 6449.292
320.0831, 6567.491
320.5652, 6701.275
321.0473, 6828.781
321.5294, 6933.809
322.0115, 7021.325
322.4937, 7107.822
322.9758, 7195.119
323.4579, 7292.670
323.9400, 7418.463
324.4221, 7561.467
324.9042, 7747.030
325.3864, 7989.867
325.8685, 8280.621
326.3506, 8602.844
326.8327, 8951.086
327.3148, 9333.150
327.7969, 9769.190
328.2791, 10260.43
328.7612, 10776.26
329.2433, 11333.77
329.7254, 11901.20
330.2075, 12451.67
330.6896, 12980.61
331.1718, 13469.90
331.6539, 13906.24
332.1360, 14283.14
332.6181, 14600.01
333.1002, 14867.84
333.5823, 15065.25
334.0645, 15166.41
334.5466, 15175.57
335.0287, 15126.91
335.5108, 15032.88
335.9929, 14899.54
336.4750, 14781.02
336.9572, 14652.90
337.4393, 14560.65
337.9214, 14521.46
338.4035, 14532.16
338.8856, 14590.61
339.3677, 14699.38
339.8499, 14840.90
340.3320, 14972.63
340.8141, 15089.08
341.2962, 15209.85
341.7783, 15345.53
342.2604, 15485.85
342.7426, 15620.92
343.2247, 15747.60
343.7068, 15860.24
344.1889, 15954.20
344.6710, 16037.89
345.1531, 16059.62
345.6353, 16035.42
346.1174, 15937.67
346.5995, 15744.74
347.0816, 15456.78
347.5637, 15080.13
348.0458, 14620.40
348.5280, 14072.29
349.0101, 13473.11
349.4922, 12799.70
349.9743, 12109.50
350.4564, 11405.25
350.9385, 10707.35
351.4207, 10047.78
351.9028, 9446.742
352.3849, 8905.324
352.8670, 8425.257
353.3491, 8013.168
353.8312, 7656.132
354.3134, 7367.377
354.7955, 7127.355
355.2776, 6917.277
355.7597, 6730.309
356.2418, 6560.962
356.7239, 6397.160
357.2061, 6225.471
357.6882, 6092.757
358.1703, 5991.818
358.6524, 5928.907
359.1345, 5914.764
359.6166, 5946.809
360.0987, 6010.748
360.5808, 6095.080
361.0630, 6201.730
361.5451, 6305.506
362.0272, 6419.717
362.5093, 6516.896
362.9914, 6603.135
363.4735, 6665.490
363.9557, 6682.578
364.4378, 6642.191
364.9199, 6544.947
365.4020, 6392.133
365.8841, 6153.850
366.3662, 5896.057
366.8484, 5596.602
367.3305, 5297.570
367.8126, 5038.052
368.2947, 4831.972
368.7768, 4665.762
369.2589, 4521.019
369.7411, 4403.789
370.2232, 4294.342
370.7053, 4212.121
371.1874, 4118.913
371.6695, 3994.204
372.1516, 3838.293
372.6338, 3659.148
373.1159, 3458.052
373.5980, 3236.485
374.0801, 3030.352
374.5622, 2840.335
375.0443, 2667.153
375.5265, 2512.272
376.0086, 2372.198
376.4907, 2242.777
376.9728, 2120.431
377.4549, 2008.809
377.9370, 1916.677
378.4192, 1847.710
378.9013, 1787.688
379.3834, 1737.487
379.8655, 1691.921
380.3476, 1645.812
380.8297, 1598.604
381.3119, 1556.806
381.7940, 1530.265
382.2761, 1519.055
382.7582, 1501.111
383.2403, 1470.343
383.7224, 1436.082
384.2046, 1405.640
384.6867, 1377.617
385.1688, 1345.601
385.6509, 1305.769
386.1330, 1260.014
386.6151, 1212.875
387.0973, 1165.469
387.5794, 1112.852
388.0615, 1051.254
388.5436, 982.3271
389.0257, 905.9766
389.5078, 816.9404
389.9900, 729.9404
390.4721, 658.0469
390.9542, 599.9473
391.4363, 548.5029
391.9184, 502.8760
392.4005, 461.2627
392.8827, 421.5098
393.3648, 383.7812
393.8469, 345.7051
394.3290, 303.6523
394.8111, 261.7705
395.2932, 228.8926
395.7754, 206.6924
396.2575, 185.4570
396.7396, 153.8545
397.2217, 113.8867
397.7038, 85.80469
398.1859, 79.75781
398.6681, 77.41699
399.1501, 66.51172
399.6323, 48.87988
400.1144, 31.81152
400.5965, 18.48926
401.0786, 8.781250
401.5607, 3.289063
402.0428, 4.490234
402.5250, 4.643555
403.0071, 2.205078
403.4892, 1.965820
403.9713, 7.222656
404.4534, 13.28809
404.9355, 19.64746
405.4177, 25.62305
405.8998, 30.95410
406.3819, 37.03906
406.8640, 48.25781
407.3461, 55.98926
407.8282, 53.92676
408.3104, 44.77051
408.7925, 35.10254
409.2746, 28.69922
409.7567, 25.80078
410.2388, 27.64844
410.7209, 40.33008
411.2031, 49.94922
411.6852, 54.45312
412.1673, 55.97949
412.6494, 55.49121
413.1315, 53.70898
413.6136, 52.84570
414.0958, 57.05469
414.5779, 69.28809
415.0600, 74.85352
415.5421, 65.35840
416.0242, 56.77637
416.5063, 57.54492
416.9885, 64.35840
417.4706, 68.47363
417.9527, 64.32617
418.4348, 53.45215
418.9169, 39.96680
419.3990, 20.36621
419.8812, 6.126953
420.3633, 4.165039
420.8454, 6.997070
421.3275, 7.680664
421.8096, 4.502930
422.2917, 1.518555
422.7739, 4.760742
423.2560, 13.72754
423.7381, 17.09570
424.2202, 10.92285
424.7023, 1.839844
425.1844, 7.157227
425.6666, 15.09082
426.1487, 18.20312
426.6308, 10.21582
427.1129, 1.415039
427.5950, 5.548828
428.0771, 1.957031
428.5593, 5.389648
429.0414, 17.21875
429.5235, 30.13086
430.0056, 37.08789
430.4877, 36.71582
430.9698, 33.63184
431.4520, 28.57422
431.9341, 22.73438
432.4162, 18.27148
432.8983, 15.75781
433.3804, 14.93652
433.8625, 16.01758
434.3447, 19.37402
434.8268, 21.40430
435.3089, 18.49219
435.7910, 17.14160
436.2731, 24.99023
436.7552, 38.84668
437.2374, 46.66895
437.7195, 40.34570
438.2016, 24.98145
438.6837, 20.35156
439.1658, 41.63379
439.6479, 54.25586
440.1301, 47.97559
440.6122, 36.59277
441.0943, 33.82520
441.5764, 42.03027
442.0585, 53.51367
442.5406, 59.49512
443.0227, 59.14746
443.5049, 59.61914
443.9870, 59.32031
444.4691, 61.63184
444.9512, 70.41602
445.4333, 82.02539
445.9154, 90.62793
446.3976, 93.12695
446.8797, 91.43262
447.3618, 89.50391
447.8439, 87.13281
448.3260, 85.08008
448.8081, 80.56250
449.2903, 78.47754
449.7724, 83.25977
450.2545, 94.47949
450.7366, 106.7412
451.2187, 116.9424
451.7008, 124.9346
452.1830, 129.4707
452.6651, 129.2949
453.1472, 128.5703
453.6293, 129.5732
454.1114, 131.5596
454.5935, 133.7422
455.0757, 136.4062
455.5578, 138.3252
456.0399, 136.5762
456.5220, 132.6553
457.0041, 133.8838
457.4862, 143.9570
457.9684, 156.4277
458.4505, 162.2617
458.9326, 161.6113
459.4147, 162.1377
459.8968, 167.3857
460.3789, 172.7793
460.8611, 173.3916
461.3432, 169.9336
461.8253, 167.3613
462.3074, 168.7910
462.7895, 173.3301
463.2716, 176.8604
463.7538, 178.5410
464.2359, 180.0566
464.7180, 180.2549
465.2001, 180.6807
465.6822, 184.5566
466.1643, 192.2354
466.6465, 199.7881
467.1286, 202.2373
467.6107, 198.5586
468.0928, 196.7188
468.5749, 198.4521
469.0570, 198.7207
469.5392, 196.1934
470.0213, 191.8340
470.5034, 186.8037
470.9855, 181.6006
471.4676, 176.6562
471.9497, 173.2832
472.4319, 172.2480
472.9140, 167.3467
473.3961, 155.7549
473.8782, 143.4189
474.3603, 131.6631
474.8424, 120.8398
475.3246, 113.2451
475.8067, 114.5381
476.2888, 120.1758
476.7709, 118.3770
477.2530, 108.3555
477.7351, 98.91016
478.2173, 92.32715
478.6994, 88.43457
479.1815, 87.62012
479.6636, 90.90039
480.1457, 94.84570
480.6278, 97.82422
481.1100, 99.37598
481.5920, 99.66797
482.0742, 99.25195
482.5563, 98.39062
483.0384, 96.89844
483.5205, 94.55371
484.0026, 92.24316
484.4847, 88.55859
484.9669, 85.28320
485.4490, 84.04980
485.9311, 84.59766
486.4132, 85.58105
486.8953, 86.53613
487.3774, 88.44434
487.8596, 93.77344
488.3417, 105.7305
488.8238, 111.9102
489.3059, 110.8652
489.7880, 106.3711
490.2701, 98.35938
490.7523, 88.55664
491.2344, 79.58691
491.7165, 72.87402
492.1986, 69.11816
492.6807, 70.65234
493.1628, 79.83203
493.6450, 87.14648
494.1271, 92.89746
494.6092, 95.19922
495.0913, 90.00781
495.5734, 78.03711
496.0555, 66.57324
496.5377, 61.12598
497.0198, 61.45801
497.5019, 65.54492
497.9840, 74.61816
498.4661, 79.72949
498.9482, 73.47949
499.4304, 61.54004
499.9125, 54.55762
500.3946, 54.61523
500.8767, 55.22949
501.3588, 52.31641
501.8409, 48.03809
502.3231, 47.00781
502.8052, 50.28516
503.2873, 53.40820
503.7694, 52.01367
504.2515, 45.84082
504.7336, 40.27051
505.2158, 34.21191
505.6979, 29.89062
506.1800, 27.52539
506.6621, 27.55957
507.1442, 32.14160
507.6263, 41.74512
508.1085, 51.63379
508.5906, 53.28027
509.0727, 42.07520
509.5548, 39.14160
510.0369, 53.83984
510.5190, 67.39160
511.0012, 72.20801
511.4833, 70.67090
511.9654, 68.05859
512.4475, 66.87402
512.9296, 66.24805
513.4117, 64.37207
513.8939, 60.96582
514.3760, 58.72949
514.8581, 61.43066
515.3402, 62.08105
515.8223, 52.42773
516.3044, 34.41895
516.7866, 20.95508
517.2687, 18.75684
517.7508, 23.24219
518.2329, 32.16406
518.7150, 44.56055
519.1971, 48.29395
519.6793, 34.19043
520.1614, 12.07031
520.6435, 5.738281
521.1256, 20.09473
521.6077, 31.93652
522.0898, 38.21094
522.5720, 39.82910
523.0541, 35.48145
523.5362, 26.59570
524.0183, 17.85059
524.5004, 12.29004
524.9825, 10.20801
525.4647, 13.51074
525.9468, 30.62207
526.4289, 41.15625
526.9110, 39.86328
527.3931, 33.93848
527.8752, 27.58398
528.3574, 22.42773
528.8395, 20.87500
529.3216, 28.19727
529.8037, 41.35352
530.2858, 41.20996
530.7679, 21.35449
531.2501, 3.518555
531.7322, 4.052734
532.2143, 4.506836
532.6964, 2.183594
533.1785, 17.74805
533.6606, 28.89551
534.1428, 21.20605
534.6249, 4.001953
535.1070, 0.1425780
535.5891, 12.75391
536.0712, 24.91699
536.5533, 23.69531
537.0355, 11.71289
537.5176, 4.411133
537.9997, 1.948242
538.4818, 3.422852
538.9639, 12.34277
539.4460, 23.33301
539.9282, 29.83691
540.4103, 30.49805
540.8924, 27.66504
541.3745, 23.28613
541.8566, 17.26074
542.3387, 13.67188
542.8209, 16.25684
543.3029, 16.87402
543.7850, 11.04492
544.2672, 3.802734
544.7493, 1.546875
545.2314, 5.786133
545.7135, 11.49902
546.1956, 13.22461
546.6777, 11.28516
547.1599, 8.902344
547.6420, 4.734375
548.1241, 3.384766
548.6062, 11.74707
549.0883, 24.01367
549.5704, 30.80664
550.0526, 28.96680
550.5347, 23.93652
551.0168, 17.17480
551.4989, 10.13477
551.9810, 5.848633
552.4631, 4.959961
552.9453, 6.264648
553.4274, 8.854492
553.9095, 12.72559
554.3916, 16.99902
554.8737, 24.96582
555.3558, 29.31934
555.8380, 23.78711
556.3201, 15.43945
556.8022, 14.03516
557.2843, 21.52930
557.7664, 30.95703
558.2485, 33.57520
558.7307, 28.97852
559.2128, 29.57910
559.6949, 41.48047
560.1770, 49.75781
560.6591, 46.00000
561.1412, 37.84863
561.6234, 35.81250
562.1055, 43.21289
562.5876, 49.43164
563.0697, 42.09863
563.5518, 25.94043
564.0339, 17.58203
564.5161, 19.98340
564.9982, 24.64648
565.4803, 25.58496
565.9624, 23.77734
566.4445, 23.97656
566.9266, 27.75488
567.4088, 31.25488
567.8909, 33.06250
568.3730, 33.93262
568.8551, 34.23242
569.3372, 34.32520
569.8193, 35.94727
570.3015, 41.54590
570.7836, 50.56641
571.2657, 52.17090
571.7478, 37.17480
572.2299, 26.96191
572.7120, 25.90137
573.1942, 30.10840
573.6763, 38.68945
574.1584, 50.11719
574.6405, 57.54004
575.1226, 51.56738
575.6047, 36.27246
576.0869, 29.85645
576.5690, 34.67188
577.0511, 38.29199
577.5332, 34.53906
578.0153, 26.14941
578.4974, 16.99707
578.9796, 6.048828
579.4617, 0.1679690
579.9438, 4.270508
580.4259, 12.63379
580.9080, 18.36133
581.3901, 20.58496
581.8723, 18.94238
582.3544, 12.62988
582.8365, 3.500000
583.3186, 2.300781
583.8007, 3.423828
584.2828, 2.883789
584.7650, 2.366211
585.2471, 6.628906
585.7292, 4.801758
586.2113, 1.568359
586.6934, 6.820313
587.1755, 7.196289
587.6577, 4.616211
588.1398, 3.612305
588.6219, 4.643555
589.1040, 4.338867
589.5861, 1.766602
590.0682, 2.118164
590.5504, 8.884766
591.0325, 17.11914
591.5146, 18.59473
591.9967, 2.860352
592.4788, 14.03125
592.9609, 17.17676
593.4431, 9.803711
593.9252, 1.833984
594.4073, 3.352539
594.8894, 6.731445
595.3715, 8.993164
595.8536, 9.057617
596.3358, 12.91699
596.8179, 28.98926
597.3000, 39.13574
597.7821, 32.57031
598.2642, 17.65430
598.7463, 5.667969
599.2285, 0.5585940
599.7106, 0.3242190
600.1927, 3.858398
600.6748, 11.02344
601.1569, 16.20898
601.6390, 18.36426
602.1212, 20.31152
602.6033, 26.10840
603.0854, 31.96387
603.5675, 30.37305
604.0496, 16.60840
604.5317, 6.755859
605.0139, 15.60840
605.4960, 30.39453
605.9781, 29.23047
606.4602, 11.35156
606.9423, 3.974609
607.4244, 2.146484
607.9066, 12.61914
608.3887, 21.12988
608.8708, 18.02930
609.3529, 16.11523
609.8350, 17.72070
610.3171, 19.24121
610.7993, 17.37207
611.2814, 12.93457
611.7635, 9.310547
612.2456, 8.451172
612.7277, 9.953125
613.2098, 14.58594
613.6920, 23.03320
614.1741, 25.47949
614.6562, 15.63867
615.1383, 4.064453
615.6204, 2.377930
616.1025, 8.851563
616.5847, 13.66895
617.0668, 14.65723
617.5489, 13.57715
618.0310, 8.996094
618.5131, 3.623047
618.9952, 3.847656
619.4774, 11.37402
619.9595, 20.52441
620.4416, 24.67773
620.9237, 23.58105
621.4058, 21.51855
621.8879, 15.25391
622.3701, 12.20215
622.8522, 16.64844
623.3343, 23.48828
623.8164, 28.00098
624.2985, 29.13184
624.7806, 27.76367
625.2628, 22.91602
625.7448, 16.36133
626.2269, 12.96289
626.7090, 12.94629
627.1912, 14.69043
627.6733, 18.18457
628.1554, 22.30664
628.6375, 24.72754
629.1196, 25.07422
629.6017, 25.82715
630.0839, 28.25098
630.5660, 30.33008
631.0481, 31.69238
631.5302, 31.43555
632.0123, 26.71387
632.4944, 16.22656
632.9766, 4.668945
633.4587, 0.5986330
633.9408, 5.611328
634.4229, 9.702148
634.9050, 11.49121
635.3871, 14.00000
635.8693, 19.60449
636.3514, 26.35547
636.8335, 30.99707
637.3156, 32.28906
637.7977, 33.57715
638.2798, 38.85938
638.7620, 45.25391
639.2441, 46.58105
639.7262, 42.31836
640.2083, 37.31738
640.6904, 34.46387
641.1725, 33.36621
641.6547, 33.07422
642.1368, 34.52393
642.6189, 35.71680
643.1010, 36.70996
643.5831, 37.10693
644.0652, 36.04980
644.5474, 33.90479
645.0295, 32.74316
645.5116, 34.10840
645.9937, 35.00977
646.4758, 28.70410
646.9579, 15.37354
647.4401, 8.208008
647.9222, 11.06299
648.4043, 16.18604
648.8864, 18.46289
649.3685, 18.40186
649.8506, 17.59668
650.3328, 16.27148
650.8149, 12.78564
651.2970, 4.369141
651.7791, 4.571289
652.2612, 8.747070
652.7433, 7.921387
653.2255, 5.354004
653.7076, 3.350586
654.1897, 1.756836
654.6718, 9.2772998E-02
655.1539, 1.186035
655.6360, 3.528320
656.1182, 10.66797
656.6003, 15.67725
657.0824, 10.51270
657.5645, 0.4204100
658.0466, 2.948730
658.5287, 12.89111
659.0109, 31.45654
659.4930, 37.74805
659.9751, 34.91602
660.4572, 31.47217
660.9393, 29.21680
661.4214, 26.98584
661.9036, 23.65967
662.3857, 19.39648
662.8678, 15.79443
663.3499, 12.47705
663.8320, 10.52930
664.3141, 9.977051
664.7963, 10.78320
665.2784, 14.72412
665.7605, 20.72803
666.2426, 24.90234
666.7247, 24.42188
667.2068, 21.67383
667.6890, 21.64600
668.1711, 24.20020
668.6532, 22.83691
669.1353, 13.92480
669.6174, 6.219238
670.0995, 10.54736
670.5817, 25.04004
671.0638, 30.71143
671.5459, 18.18262
672.0280, 7.913086
672.5101, 7.807617
672.9922, 12.37354
673.4744, 15.60791
673.9565, 16.88916
674.4386, 19.69482
674.9207, 27.61230
675.4028, 37.42334
675.8849, 37.19043
676.3671, 23.85205
676.8492, 14.05957
677.3313, 11.97461
677.8134, 13.36621
678.2955, 14.99951
678.7776, 17.12402
679.2598, 20.91553
679.7419, 31.51074
680.2240, 37.62500
680.7061, 26.69678
681.1882, 9.295410
681.6703, 3.345215
682.1525, 11.06445
682.6346, 20.71582
683.1167, 22.37988
683.5988, 18.41895
684.0809, 21.27930
684.5630, 36.90576
685.0452, 46.35205
685.5273, 40.29980
686.0094, 33.34961
686.4915, 36.12451
686.9736, 45.10254
687.4557, 48.38965
687.9379, 38.88770
688.4200, 26.90381
688.9021, 20.12256
689.3842, 18.05371
689.8663, 21.35400
690.3484, 29.90820
690.8306, 37.20605
691.3127, 37.66797
691.7948, 33.00781
692.2769, 32.04102
692.7590, 41.46729
693.2411, 43.80225
693.7233, 31.20557
694.2054, 18.36475
694.6875, 14.68555
695.1696, 18.20752
695.6517, 22.24756
696.1339, 24.10010
696.6160, 24.88867
697.0981, 26.26758
697.5802, 27.66016
698.0623, 25.94775
698.5444, 20.35449
699.0266, 16.59229
699.5087, 19.35498
699.9908, 26.56250
700.4729, 30.41260
700.9550, 28.31982
701.4371, 26.55566
701.9193, 25.14355
702.4014, 24.05615
702.8835, 23.76562
703.3656, 23.73975
703.8477, 21.93311
704.3298, 17.20410
704.8120, 14.14209
705.2941, 20.66699
705.7762, 34.41650
706.2583, 43.83594
706.7404, 47.84521
707.2225, 49.26514
707.7046, 49.26758
708.1867, 47.28271
708.6688, 42.00391
709.1509, 30.49512
709.6331, 25.47412
710.1152, 34.48389
710.5973, 43.64014
711.0794, 42.99414
711.5615, 36.94922
712.0436, 35.02246
712.5258, 40.49268
713.0079, 46.75049
713.4900, 44.11035
713.9721, 34.96436
714.4542, 34.43799
714.9363, 44.91943
715.4185, 51.27393
715.9006, 43.84326
716.3827, 31.45068
716.8648, 30.12305
717.3469, 42.44092
717.8290, 49.25244
718.3112, 46.28271
718.7933, 40.38330
719.2754, 32.13867
719.7575, 24.61670
720.2396, 22.44824
720.7217, 26.13574
721.2039, 30.60303
721.6860, 30.51025
722.1681, 27.47852
722.6502, 28.97705
723.1323, 36.03760
723.6144, 38.62744
724.0966, 31.90771
724.5787, 22.04541
725.0608, 16.08203
725.5429, 14.02441
726.0250, 12.21875
726.5071, 8.574219
726.9893, 6.979004
727.4714, 9.361816
727.9535, 14.47510
728.4356, 22.30664
728.9177, 31.83496
729.3998, 39.71533
729.8820, 43.75537
730.3641, 45.25049
730.8462, 46.06885
731.3283, 45.76514
731.8104, 44.87061
732.2925, 43.11670
732.7747, 41.84180
733.2568, 42.24609
733.7389, 43.98633
734.2210, 45.16748
734.7031, 44.80566
735.1852, 45.33936
735.6674, 50.01807
736.1495, 53.41162
736.6316, 48.46924
737.1137, 38.35645
737.5958, 33.33154
738.0779, 38.86182
738.5601, 46.78662
739.0422, 42.94580
739.5243, 29.13477
740.0064, 23.11523
740.4885, 27.72852
740.9706, 33.86621
741.4528, 38.19336
741.9349, 39.74609
742.4170, 34.49463
742.8991, 17.67383
743.3812, 11.07422
743.8633, 28.75732
744.3455, 44.27637
744.8276, 41.37744
745.3097, 28.09717
745.7918, 16.47656
746.2739, 10.46045
746.7560, 8.881836
747.2382, 11.67285
747.7203, 17.90234
748.2024, 26.23975
748.6845, 36.87305
749.1666, 41.21777
749.6487, 34.53027
750.1309, 25.18506
750.6130, 23.83154
751.0951, 31.19434
751.5772, 31.86572
752.0593, 17.77637
752.5414, 7.868164
753.0236, 8.613770
753.5057, 13.41309
753.9878, 16.82568
754.4699, 18.25977
754.9520, 19.42725
755.4341, 21.51611
755.9163, 23.20459
756.3984, 22.25342
756.8805, 19.16504
757.3626, 16.30957
757.8447, 14.05811
758.3268, 12.30469
758.8090, 11.14697
759.2911, 10.27832
759.7732, 8.350586
760.2553, 3.251465
760.7374, 1.304199
761.2195, 6.003906
761.7017, 10.23145
762.1838, 11.13721
762.6659, 9.301758
763.1480, 5.405273
763.6301, 0.4174800
764.1122, 6.060059
764.5944, 12.13623
765.0765, 15.93555
765.5586, 10.99512
766.0407, 1.059082
766.5228, 10.62500
767.0049, 13.91846
767.4871, 14.24951
767.9692, 16.06348
768.4513, 19.43359
768.9334, 20.05127
769.4155, 15.26367
769.8976, 11.83154
770.3798, 10.82715
770.8619, 11.86914
771.3440, 15.91602
771.8261, 22.14307
772.3082, 26.89746
772.7903, 29.00000
773.2725, 29.15869
773.7546, 27.27002
774.2367, 24.07861
774.7188, 20.87109
775.2009, 17.69727
775.6830, 13.10205
776.1652, 5.803711
776.6473, 2.060547
777.1294, 5.831543
777.6115, 5.386230
778.0936, 0.8652340
778.5757, 10.28613
779.0579, 20.92041
779.5400, 28.03418
780.0221, 31.77979
780.5042, 32.34766
780.9863, 29.54639
781.4684, 24.50000
781.9506, 14.49170
782.4327, 5.298340
782.9148, 7.1289003E-02
783.3969, 1.641113
783.8790, 0.4707030
784.3611, 5.730957
784.8433, 9.681641
785.3254, 7.244141
785.8075, 0.9648440
786.2896, 0.5932620
786.7717, 2.681152
787.2538, 2.728516
787.7360, 3.723145
788.2181, 10.07861
788.7002, 10.25195
789.1823, 4.810059
789.6644, 1.544922
790.1465, 12.15088
790.6286, 18.88525
791.1107, 19.97510
791.5928, 18.13428
792.0750, 12.63135
792.5571, 6.102051
793.0392, 3.910645
793.5213, 8.446289
794.0034, 13.62012
794.4855, 12.62695
794.9677, 9.237793
795.4498, 12.08594
795.9319, 20.32275
796.4140, 24.50879
796.8961, 20.37402
797.3782, 14.34717
797.8604, 15.88184
798.3425, 25.44238
798.8246, 30.01025
799.3067, 27.26514
799.7888, 23.63184
800.2709, 18.13623
800.7531, 14.30225
801.2352, 16.59717
801.7173, 23.52197
802.1994, 27.62305
802.6815, 25.69971
803.1636, 22.47021
803.6458, 16.20996
804.1279, 12.67090
804.6100, 23.65186
805.0921, 44.77148
805.5742, 57.80859
806.0563, 52.56348
806.5385, 38.80127
807.0206, 30.93848
807.5027, 28.73975
807.9848, 29.65918
808.4669, 34.22119
808.9490, 38.80908
809.4312, 42.15967
809.9133, 44.30225
810.3954, 45.52734
810.8775, 46.16895
811.3596, 43.48682
811.8417, 34.34375
812.3239, 25.95996
812.8060, 18.55225
813.2881, 14.09717
813.7702, 16.82617
814.2523, 24.82227
814.7344, 29.35889
815.2166, 23.66162
815.6987, 18.05273
816.1808, 27.45361
816.6629, 44.03271
817.1450, 49.02734
817.6271, 41.30322
818.1093, 32.19336
818.5914, 27.74219
819.0735, 27.72412
819.5556, 33.38867
820.0377, 46.80664
820.5198, 51.47754
821.0020, 41.49316
821.4841, 33.79883
821.9662, 37.31738
822.4483, 44.46533
822.9304, 48.41553
823.4125, 49.56689
823.8947, 46.75049
824.3768, 30.39795
824.8589, 18.94629
825.3410, 24.74756
825.8231, 36.89258
826.3052, 44.74463
826.7874, 46.79297
827.2695, 44.36328
827.7516, 37.32617
828.2337, 30.56299
828.7158, 33.54199
829.1979, 43.00732
829.6801, 44.19385
830.1622, 35.76270
830.6443, 26.28271
831.1264, 19.23193
831.6085, 15.76709
832.0906, 18.91357
832.5728, 30.58789
833.0549, 34.19629
833.5370, 18.90039
834.0191, 11.08252
834.5012, 25.27832
834.9833, 41.49756
835.4655, 41.60840
835.9476, 28.45215
836.4297, 19.29639
836.9118, 21.44092
837.3939, 24.81348
837.8760, 23.05469
838.3582, 20.59521
838.8403, 23.27539
839.3224, 29.05908
839.8045, 33.08545
840.2866, 33.26514
840.7687, 30.89551
841.2509, 27.17578
841.7330, 22.65186
842.2151, 19.36768
842.6972, 17.30908
843.1793, 15.32275
843.6614, 12.54053
844.1436, 10.64307
844.6257, 11.76611
845.1078, 15.64355
845.5899, 20.43262
846.0720, 27.90967
846.5541, 33.76367
847.0363, 37.98633
847.5184, 40.76953
848.0005, 41.48584
848.4826, 40.57080
848.9647, 38.95996
849.4468, 36.70703
849.9290, 34.38916
850.4111, 32.46680
850.8932, 30.55420
851.3753, 27.82080
851.8574, 24.92480
852.3395, 23.84717
852.8217, 25.01416
853.3038, 25.89697
853.7859, 22.77051
854.2680, 18.42920
854.7501, 23.82617
855.2322, 38.96436
855.7144, 47.65820
856.1965, 46.15674
856.6786, 39.85986
857.1607, 31.52490
857.6428, 22.33887
858.1249, 15.88916
858.6071, 11.34033
859.0892, 11.48535
859.5713, 22.16846
860.0534, 30.47656
860.5355, 30.55811
861.0176, 26.48340
861.4998, 22.85840
861.9819, 20.26953
862.4640, 17.87500
862.9461, 14.59229
863.4282, 11.98145
863.9103, 11.41162
864.3925, 12.05762
864.8746, 13.04688
865.3567, 14.06396
865.8388, 14.92920
866.3209, 15.58203
866.8030, 15.93799
867.2852, 15.53906
867.7673, 14.66846
868.2494, 15.36328
868.7315, 17.84180
869.2136, 18.18115
869.6957, 14.26855
870.1779, 9.123535
870.6600, 6.690918
871.1421, 6.963867
871.6242, 7.897949
872.1063, 10.30029
872.5884, 11.93311
873.0705, 11.63770
873.5526, 11.17676
874.0347, 12.64941
874.5168, 14.60791
874.9990, 12.48877
875.4811, 2.200684
875.9632, 1.637207
876.4453, 16.42676
876.9274, 32.84766
877.4095, 25.42725
877.8917, 5.803711
878.3738, 4.700195
878.8559, 1.542969
879.3380, 4.372559
879.8201, 5.280762
880.3022, 3.317871
880.7844, 0.8886720
881.2665, 5.086914
881.7486, 2.717773
882.2307, 23.34814
882.7128, 36.41797
883.1949, 27.67285
883.6771, 9.335938
884.1592, 8.732422
884.6413, 29.56787
885.1234, 39.50488
885.6055, 34.70996
886.0876, 28.01123
886.5698, 22.20654
887.0519, 18.07324
887.5340, 17.52197
888.0161, 20.18359
888.4982, 19.89893
888.9803, 13.92871
889.4625, 8.633301
889.9446, 3.878906
890.4267, 1.329590
890.9088, 2.331543
891.3909, 6.378906
891.8730, 13.71875
892.3552, 24.80420
892.8373, 32.61963
893.3194, 31.36426
893.8015, 25.87451
894.2836, 21.12109
894.7657, 16.24463
895.2479, 6.750488
895.7300, 6.627930
896.2121, 13.67090
896.6942, 5.549316
897.1763, 9.307617
897.6584, 12.25244
898.1406, 4.983887
898.6227, 6.103027
899.1048, 18.14551
899.5869, 27.38184
900.0690, 27.01025
900.5511, 21.17432
901.0333, 15.26562
901.5154, 9.071289
901.9975, 7.587402
902.4796, 14.82812
902.9617, 19.38379
903.4438, 16.60059
903.9260, 13.01562
904.4081, 14.26514
904.8902, 18.06592
905.3723, 17.86963
905.8544, 10.44043
906.3365, 6.607910
906.8187, 11.80078
907.3008, 18.38574
907.7829, 24.29297
908.2650, 27.84180
908.7471, 25.48145
909.2292, 17.60498
909.7114, 9.431641
910.1935, 1.743164
910.6756, 1.269043
911.1577, 9.815918
911.6398, 26.46289
912.1219, 32.10449
912.6041, 26.80371
913.0862, 19.77002
913.5683, 15.35938
914.0504, 13.58691
914.5325, 15.70020
915.0146, 20.49414
915.4968, 19.51172
915.9789, 12.44287
916.4610, 11.96533
916.9431, 22.73975
917.4252, 34.31494
917.9073, 38.22607
918.3895, 35.97949
918.8716, 32.66846
919.3537, 26.42920
919.8358, 24.85156
920.3179, 32.93164
920.8000, 37.49365
921.2822, 28.92334
921.7643, 16.77246
922.2464, 12.06885
922.7285, 14.86572
923.2106, 16.34814
923.6927, 12.69580
924.1749, 11.13379
924.6570, 15.19775
925.1391, 20.71680
925.6212, 26.38623
926.1033, 30.49561
926.5854, 29.67920
927.0676, 22.43115
927.5497, 15.09473
928.0318, 11.78613
928.5139, 10.94971
928.9960, 12.81104
929.4781, 15.24463
929.9603, 12.68896
930.4424, 5.696289
930.9245, 2.325195
931.4066, 8.123535
931.8887, 17.42676
932.3708, 21.42041
932.8530, 21.26270
933.3351, 21.77734
933.8172, 23.13379
934.2993, 24.09131
934.7814, 24.02197
935.2635, 22.63623
935.7457, 18.91016
936.2278, 13.89209
936.7099, 16.92236
937.1920, 31.38477
937.6741, 37.50488
938.1563, 29.02539
938.6384, 20.98145
939.1205, 22.43213
939.6026, 28.80908
940.0847, 31.30615
940.5668, 29.57617
941.0490, 25.80664
941.5311, 17.20166
942.0132, 10.57324
942.4953, 5.645020
942.9774, 4.395508
943.4595, 12.28369
943.9417, 24.61572
944.4238, 28.77051
944.9059, 19.85693
945.3880, 12.20752
945.8701, 12.96436
946.3522, 14.45215
946.8344, 10.77686
947.3165, 5.154785
947.7986, 1.597656
948.2807, 0.9990230
948.7628, 3.184570
949.2449, 8.660156
949.7271, 15.39111
950.2092, 23.08936
950.6913, 29.76416
951.1734, 32.62988
951.6555, 31.58594
952.1376, 25.91504
952.6198, 15.91113
953.1019, 6.718750
953.5840, 2.285156
954.0661, 2.560059
954.5482, 12.09424
955.0303, 28.32080
955.5124, 34.07715
955.9945, 26.96729
956.4766, 18.01660
956.9587, 12.80518
957.4409, 10.71387
957.9230, 11.06055
958.4051, 13.79248
958.8872, 17.72705
959.3693, 23.42627
959.8514, 27.95898
960.3336, 31.21777
960.8157, 32.16406
961.2978, 29.04004
961.7799, 23.21875
962.2620, 18.68945
962.7441, 16.74707
963.2263, 12.16016
963.7084, 0.7001950
964.1905, 8.428711
964.6726, 5.812988
965.1547, 1.920898
965.6368, 13.33105
966.1190, 26.43994
966.6011, 33.01025
967.0832, 29.07471
967.5653, 24.68213
968.0474, 21.07373
968.5295, 18.48682
969.0117, 18.58398
969.4938, 19.09521
969.9759, 16.62061
970.4580, 11.21289
970.9401, 6.413574
971.4222, 1.436523
971.9044, 1.285645
972.3865, 16.09473
972.8686, 31.92139
973.3507, 31.66162
973.8328, 20.25586
974.3149, 11.29199
974.7971, 8.925293
975.2792, 8.375488
975.7613, 6.845215
976.2434, 4.059570
976.7255, 2.012207
977.2076, 9.088379
977.6898, 12.34326
978.1719, 11.50391
978.6540, 8.419922
979.1361, 3.988281
979.6182, 1.440430
980.1003, 8.770020
980.5825, 16.32910
981.0646, 16.85840
981.5467, 11.38770
982.0288, 9.176270
982.5109, 12.12646
982.9930, 12.88623
983.4752, 6.006348
983.9573, 2.736328
984.4394, 1.104004
984.9215, 11.02246
985.4036, 16.33838
985.8857, 13.42285
986.3679, 12.56006
986.8500, 17.39404
987.3321, 21.55420
987.8142, 18.89062
988.2963, 12.45703
988.7784, 12.59229
989.2606, 22.91748
989.7427, 26.85254
990.2248, 21.17480
990.7069, 14.93359
991.1890, 8.429199
991.6711, 5.241211
992.1533, 10.61768
992.6354, 22.80664
993.1175, 31.36621
993.5996, 35.77441
994.0817, 37.51611
994.5638, 35.03516
995.0460, 31.86670
995.5281, 28.11230
996.0102, 25.20850
996.4923, 25.01562
996.9744, 27.28125
997.4565, 29.91895
997.9387, 36.51758
998.4208, 36.72900
998.9029, 18.74951
999.3850, 3.359375
999.8671, 7.677246
1000.349, 20.84668
1000.831, 26.41846
1001.313, 22.69922
1001.796, 19.49902
1002.278, 22.39062
1002.760, 24.43115
1003.242, 20.46289
1003.724, 15.14697
1004.206, 11.41016
1004.688, 10.16162
1005.170, 13.49463
1005.653, 21.21143
1006.135, 27.02246
1006.617, 25.59375
1007.099, 22.52979
1007.581, 23.36719
1008.063, 25.71240
1008.545, 26.04541
1009.027, 24.70654
1009.509, 23.62158
1009.992, 23.52344
1010.474, 24.27686
1010.956, 26.70117
1011.438, 28.94189
1011.920, 27.31494
1012.402, 23.62939
1012.884, 21.48779
1013.366, 21.37402
1013.849, 23.67139
1014.331, 28.49854
1014.813, 33.28955
1015.295, 34.60645
1015.777, 34.27979
1016.259, 40.07910
1016.741, 48.81543
1017.223, 41.35840
1017.705, 16.94287
1018.188, 0.3881840
1018.670, 1.923828
1019.152, 13.58398
1019.634, 22.11426
1020.116, 27.25732
1020.598, 26.69092
1021.080, 20.56787
1021.562, 14.15869
1022.044, 7.931641
1022.527, 4.273438
1023.009, 4.389160
1023.491, 7.870605
1023.973, 15.77490
1024.455, 27.49561
1024.937, 32.78467
1025.419, 30.97168
1025.901, 28.75684
1026.384, 27.30664
1026.866, 25.32227
1027.348, 21.65918
1027.830, 18.11914
1028.312, 18.46631
1028.794, 22.17725
1029.276, 21.47412
1029.758, 14.33496
1030.240, 10.30273
1030.723, 11.47363
1031.205, 15.33838
1031.687, 21.65430
1032.169, 27.94678
1032.651, 28.53027
1033.133, 22.06641
1033.615, 21.49463
1034.097, 29.94238
1034.579, 37.05713
1035.062, 41.12646
1035.544, 42.78027
1036.026, 42.62549
1036.508, 40.42578
1036.990, 34.41748
1037.472, 23.04639
1037.954, 19.92285
1038.436, 33.29102
1038.919, 39.00879
1039.401, 25.73242
1039.883, 12.39502
1040.365, 12.36426
1040.847, 20.92969
1041.329, 26.84473
1041.811, 28.85254
1042.293, 31.57764
1042.776, 37.08838
1043.258, 40.71338
1043.740, 43.03613
1044.222, 41.92822
1044.704, 32.32275
1045.186, 19.52002
1045.668, 14.32764
1046.150, 18.55811
1046.632, 22.39697
1047.115, 23.11475
1047.597, 26.02002
1048.079, 36.99463
1048.561, 45.12354
1049.043, 39.52734
1049.525, 27.27295
1050.007, 22.28418
1050.489, 26.85107
1050.971, 30.20605
1051.454, 28.89697
1051.936, 27.89746
1052.418, 28.74512
1052.900, 30.36084
1053.382, 34.42236
1053.864, 37.74121
1054.346, 32.10449
1054.828, 15.95801
1055.311, 8.563477
1055.793, 25.42041
1056.275, 37.75781
1056.757, 32.58643
1057.239, 22.35889
1057.721, 12.17285
1058.203, 5.708984
1058.685, 9.735840
1059.167, 24.90381
1059.650, 36.58691
1060.132, 39.53320
1060.614, 38.91602
1061.096, 33.26221
1061.578, 28.15039
1062.060, 28.60547
1062.542, 32.12451
1063.024, 34.58350
1063.506, 35.61523
1063.989, 35.21533
1064.471, 32.31348
1064.953, 30.18604
1065.435, 31.19971
1065.917, 32.42285
1066.399, 31.64893
1066.881, 29.52637
1067.363, 26.93213
1067.846, 24.23975
1068.328, 22.70361
1068.810, 24.87256
1069.292, 25.17725
1069.774, 17.23730
1070.256, 10.52344
1070.738, 14.60742
1071.220, 23.10059
1071.703, 26.76025
1072.185, 24.66748
1072.667, 20.83252
1073.149, 14.75781
1073.631, 11.66260
1074.113, 15.70801
1074.595, 21.70752
1075.077, 28.11914
1075.559, 32.78711
1076.042, 32.77002
1076.524, 28.56250
1077.006, 22.22021
1077.488, 12.18652
1077.970, 7.277344
1078.452, 17.42676
1078.934, 27.71143
1079.416, 26.80811
1079.898, 21.16357
1080.380, 18.33691
1080.863, 18.74561
1081.345, 20.41699
1081.827, 23.63867
1082.309, 23.70361
1082.791, 13.50000
1083.273, 5.276855
1083.755, 11.28271
1084.237, 19.48340
1084.720, 13.44482
1085.202, 1.431152
1085.684, 6.939941
1086.166, 2.612305
1086.648, 11.96240
1087.130, 13.03760
1087.612, 14.19141
1088.094, 22.51807
1088.577, 30.62793
1089.059, 31.45947
1089.541, 26.53564
1090.023, 18.63721
1090.505, 8.290527
1090.987, 3.136230
1091.469, 10.76611
1091.951, 17.86865
1092.433, 18.72900
1092.916, 17.01514
1093.398, 16.47168
1093.880, 15.07910
1094.362, 6.924316
1094.844, 7.768555
1095.326, 15.95947
1095.808, 9.044922
1096.290, 1.604492
1096.772, 3.883301
1097.255, 5.958984
1097.737, 0.3745120
1098.219, 8.224609
1098.701, 7.969238
1099.183, 0.1704100
1099.665, 8.430176
1100.147, 17.32715
1100.629, 21.32031
1101.112, 13.56152
1101.594, 6.924316
1102.076, 8.920410
1102.558, 14.27686
1103.040, 19.39746
1103.522, 22.68213
1104.004, 19.33398
1104.486, 4.711426
1104.969, 3.984863
1105.451, 2.559082
1105.933, 3.789063
1106.415, 21.03223
1106.897, 35.39893
1107.379, 31.90283
1107.861, 17.79004
1108.343, 11.76953
1108.825, 16.69922
1109.307, 20.92334
1109.790, 25.63965
1110.272, 26.40430
1110.754, 17.37305
1111.236, 9.393066
1111.718, 11.05420
1112.200, 16.97119
1112.682, 18.16895
1113.164, 14.34424
1113.647, 10.71924
1114.129, 6.308594
1114.611, 3.727539
1115.093, 4.340820
1115.575, 5.180176
1116.057, 4.146973
1116.539, 3.710938
1117.021, 8.258301
1117.504, 16.36865
1117.986, 17.41357
1118.468, 6.028809
1118.950, 0.6967770
1119.432, 5.801758
1119.914, 8.000977
1120.396, 0.1591800
1120.878, 6.955078
1121.360, 2.656738
1121.843, 8.370605
1122.325, 11.98828
1122.807, 6.692383
1123.289, 3.259277
1123.771, 2.268066
1124.253, 0.9531250
1124.735, 1.895996
1125.217, 3.127441
1125.699, 0.4956050
1126.182, 4.551758
1126.664, 10.05762
1127.146, 15.81006
1127.628, 17.19043
1128.110, 13.45264
1128.592, 12.74805
1129.074, 16.88379
1129.556, 17.62988
1130.039, 10.62598
1130.521, 2.339355
1131.003, 0.1308590
1131.485, 2.497070
1131.967, 10.03955
1132.449, 21.78516
1132.931, 22.93604
1133.413, 13.02588
1133.896, 7.227051
1134.378, 10.17041
1134.860, 16.67529
1135.342, 23.24658
1135.824, 28.05518
1136.306, 25.38037
1136.788, 18.40039
1137.270, 22.49902
1137.752, 34.31592
1138.234, 33.68848
1138.717, 19.47314
1139.199, 13.97412
1139.681, 28.66309
1140.163, 43.99951
1140.645, 34.14453
1141.127, 14.08350
1141.609, 11.73682
1142.091, 20.50244
1142.574, 28.33496
1143.056, 32.78906
1143.538, 30.85059
1144.020, 23.44531
1144.502, 18.03564
1144.984, 20.63379
1145.466, 26.32666
1145.948, 32.65479
1146.431, 36.92773
1146.913, 34.35596
1147.395, 27.78809
1147.877, 21.12891
1148.359, 16.06934
1148.841, 16.07471
1149.323, 23.80664
1149.805, 29.40967
1150.287, 21.60400
1150.770, 15.13965
1151.252, 24.29639
1151.734, 37.49902
1152.216, 41.64404
1152.698, 38.66211
1153.180, 37.42773
1153.662, 40.73633
1154.144, 42.66553
1154.626, 41.32617
1155.109, 37.26562
1155.591, 26.95898
1156.073, 17.59131
1156.555, 14.48584
1157.037, 16.01855
1157.519, 20.03125
1158.001, 25.67773
1158.483, 28.91504
1158.966, 28.88721
1159.448, 27.32910
1159.930, 21.30859
1160.412, 18.04541
1160.894, 21.17578
1161.376, 25.77832
1161.858, 29.38574
1162.340, 31.18994
1162.822, 28.90039
1163.305, 22.40723
1163.787, 16.75635
1164.269, 10.41357
1164.751, 9.481445
1165.233, 16.51611
1165.715, 23.89941
1166.197, 27.99951
1166.679, 31.04150
1167.161, 35.76074
1167.644, 41.44873
1168.126, 45.53760
1168.608, 48.03320
1169.090, 47.66650
1169.572, 44.37402
1170.054, 39.56543
1170.536, 33.53662
1171.018, 29.78809
1171.500, 30.96582
1171.983, 34.26270
1172.465, 34.98096
1172.947, 34.23340
1173.429, 36.38037
1173.911, 40.43066
1174.393, 42.88477
1174.875, 43.29688
1175.357, 41.57910
1175.840, 37.87744
1176.322, 34.90283
1176.804, 35.07373
1177.286, 36.88281
1177.768, 38.57422
1178.250, 40.46094
1178.732, 43.16016
1179.214, 46.60303
1179.697, 49.88379
1180.179, 52.08154
1180.661, 50.95605
1181.143, 45.14502
1181.625, 40.03174
1182.107, 41.01074
1182.589, 41.02441
1183.071, 32.58496
1183.553, 24.14795
1184.036, 26.22754
1184.518, 32.95410
1185.000, 34.00146
1185.482, 28.76318
1185.964, 26.59668
1186.446, 33.59570
1186.928, 38.03320
1187.410, 34.53516
1187.892, 30.80225
1188.375, 31.46631
1188.857, 33.00830
1189.339, 30.46045
1189.821, 26.71826
1190.303, 31.06641
1190.785, 45.94336
1191.267, 53.66650
1191.749, 52.02393
1192.232, 49.32959
1192.714, 46.54688
1193.196, 43.50391
1193.678, 39.65625
1194.160, 36.81738
1194.642, 37.41943
1195.124, 40.63965
1195.606, 44.44678
1196.089, 48.55127
1196.571, 43.18408
1197.053, 28.80469
1197.535, 25.32275
1198.017, 36.94043
1198.499, 45.16455
1198.981, 38.09326
1199.463, 28.59229
1199.945, 36.73779
1200.427, 52.19287
1200.910, 53.51562
1201.392, 46.26904
1201.874, 42.29102
1202.356, 41.59277
1202.838, 39.03027
1203.320, 33.67578
1203.802, 30.28467
1204.284, 32.23291
1204.767, 35.07471
1205.249, 36.57422
1205.731, 36.37598
1206.213, 32.83984
1206.695, 28.42090
1207.177, 25.53271
1207.659, 24.35986
1208.141, 24.92139
1208.624, 27.35059
1209.106, 29.01123
1209.588, 28.49170
1210.070, 28.24463
1210.552, 27.91406
1211.034, 28.98145
1211.516, 33.89404
1211.998, 39.05078
1212.480, 41.18750
1212.963, 40.56592
1213.445, 37.42383
1213.927, 29.86084
1214.409, 27.87646
1214.891, 33.81299
1215.373, 36.68262
1215.855, 34.15430
1216.337, 29.31348
1216.819, 23.24170
1217.302, 19.06982
1217.784, 21.51416
1218.266, 27.50928
1218.748, 26.84326
1219.230, 21.06494
1219.712, 17.11816
1220.194, 15.45898
1220.676, 16.55078
1221.159, 19.92383
1221.641, 22.39600
1222.123, 22.21826
1222.605, 20.54639
1223.087, 16.89844
1223.569, 13.96338
1224.051, 15.69775
1224.533, 19.28418
1225.016, 21.03857
1225.498, 21.59619
1225.980, 23.23438
1226.462, 25.94385
1226.944, 27.21094
1227.426, 25.47217
1227.908, 24.40527
1228.390, 26.32715
1228.872, 26.84619
1229.354, 21.23389
1229.837, 16.32812
1230.319, 19.42188
1230.801, 25.96289
1231.283, 27.52246
1231.765, 24.29150
1232.247, 21.69043
1232.729, 19.25977
1233.211, 19.33984
1233.694, 23.01025
1234.176, 26.12158
1234.658, 27.82812
1235.140, 26.63623
1235.622, 21.09863
1236.104, 13.57568
1236.586, 7.396973
1237.068, 3.058594
1237.551, 3.489746
1238.033, 7.540039
1238.515, 9.733887
1238.997, 10.18604
1239.479, 14.83447
1239.961, 23.72510
1240.443, 23.06201
1240.925, 1.601563
1241.407, 19.03418
1241.890, 15.17236
1242.372, 3.469727
1242.854, 3.044922
1243.336, 5.044434
1243.818, 0.4008790
1244.300, 6.057617
1244.782, 3.338867
1245.264, 9.374512
1245.746, 17.68066
1246.229, 16.06494
1246.711, 13.11523
1247.193, 8.121582
1247.675, 4.906738
1248.157, 5.541504
1248.639, 7.355957
1249.121, 8.337891
1249.603, 9.447266
1250.085, 12.86377
1250.568, 18.28564
1251.050, 20.71484
1251.532, 19.90918
1252.014, 17.36621
1252.496, 12.93066
1252.978, 13.19141
1253.460, 20.20605
1253.942, 25.72998
1254.425, 23.81494
1254.907, 20.04346
1255.389, 22.93018
1255.871, 28.49707
1256.353, 29.47656
1256.835, 27.58545
1257.317, 24.93994
1257.799, 22.58887
1258.281, 22.75391
1258.764, 25.34424
1259.246, 27.31543
1259.728, 27.13184
1260.210, 27.76367
1260.692, 31.98535
1261.174, 35.09863
1261.656, 31.94971
1262.138, 30.84033
1262.620, 42.03467
1263.103, 56.51221
1263.585, 53.55811
1264.067, 46.25342
1264.549, 41.35938
1265.031, 37.25293
1265.513, 32.13916
1265.995, 20.96143
1266.477, 16.61719
1266.960, 23.54639
1267.442, 30.31250
1267.924, 30.66602
1268.406, 27.20605
1268.888, 22.58838
1269.370, 16.96631
1269.852, 8.900879
1270.334, 0.2377930
1270.817, 3.481934
1271.299, 2.786133
1271.781, 1.888184
1272.263, 9.143555
1272.745, 14.16211
1273.227, 15.12793
1273.709, 14.36377
1274.191, 11.53809
1274.673, 10.08838
1275.156, 10.07617
1275.638, 13.16602
1276.120, 26.43359
1276.602, 38.66064
1277.084, 33.40967
1277.566, 16.46826
1278.048, 5.210449
1278.530, 5.697266
1279.012, 7.272461
1279.495, 4.955078
1279.977, 6.085449
1280.459, 12.77637
1280.941, 19.37939
1281.423, 23.98047
1281.905, 23.99365
1282.387, 16.25000
1282.869, 6.540527
1283.352, 7.539551
1283.834, 13.30078
1284.316, 10.41064
1284.798, 0.0000000E+00
##END=



