##NAMES=Pararealgar
##RRUFFID=R140447
##IDEAL CHEMISTRY=AsS
##LOCALITY=Getchell mine, Adam Peak, Potosi District, Osgood Mts, Humboldt County, Nevada, USA
##OWNER=RRUFF
##SOURCE=Rock Currier
##DESCRIPTION=Yellow-orange, vitreous-opaque, poorly crystalline to amorphous, secondary alteration coating on realgar, associated with realgar and calcite.
##STATUS=The identification of this mineral has been confirmed by single-crystal X-ray diffraction.
##URL=rruff.info/R140447
103.1307, 0.0000000E+00
103.6128, 39.21729
104.0950, 39.58447
104.5771, 1.651855
105.0592, 11.80786
105.5413, 0.9392090
106.0234, 29.31128
106.5055, 81.22095
106.9877, 146.5605
107.4698, 187.1501
107.9519, 187.4292
108.4340, 175.9390
108.9161, 153.5254
109.3982, 128.1770
109.8804, 115.7915
110.3625, 128.4800
110.8446, 164.8066
111.3267, 232.6597
111.8088, 333.5093
112.2909, 460.4287
112.7731, 611.2656
113.2552, 784.9258
113.7373, 983.7598
114.2194, 1209.134
114.7015, 1474.061
115.1836, 1752.901
115.6658, 2070.347
116.1479, 2389.838
116.6300, 2690.479
117.1121, 2968.936
117.5942, 3202.145
118.0763, 3324.719
118.5584, 3358.354
119.0406, 3284.182
119.5227, 3057.396
120.0048, 2711.962
120.4869, 2329.729
120.9690, 1921.214
121.4511, 1520.785
121.9333, 1181.491
122.4154, 909.7871
122.8975, 687.1523
123.3796, 507.6030
123.8617, 373.0269
124.3438, 260.9443
124.8260, 164.8594
125.3081, 85.73975
125.7902, 28.59229
126.2723, 1.632324
126.7544, 11.95947
127.2365, 17.16406
127.7187, 16.61621
128.2008, 11.15479
128.6829, 8.225586
129.1650, 0.1962890
129.6471, 20.91943
130.1292, 57.90137
130.6114, 111.9829
131.0935, 202.5288
131.5756, 345.8687
132.0577, 513.5542
132.5398, 708.4922
133.0219, 924.0371
133.5041, 1148.427
133.9862, 1374.664
134.4683, 1607.483
134.9504, 1810.461
135.4325, 1982.676
135.9146, 2133.339
136.3968, 2272.018
136.8789, 2397.894
137.3610, 2495.133
137.8431, 2535.903
138.3252, 2504.229
138.8073, 2496.889
139.2895, 2486.071
139.7716, 2514.770
140.2537, 2650.088
140.7358, 2920.047
141.2179, 3243.237
141.7000, 3583.495
142.1821, 3947.617
142.6643, 4118.153
143.1464, 3913.324
143.6285, 3420.547
144.1106, 2945.590
144.5927, 2523.598
145.0748, 2183.168
145.5570, 1932.578
146.0391, 1772.410
146.5212, 1674.633
147.0033, 1619.153
147.4854, 1606.092
147.9675, 1635.525
148.4497, 1683.229
148.9318, 1794.221
149.4139, 1991.385
149.8960, 2280.562
150.3781, 2670.027
150.8602, 3181.260
151.3424, 3874.061
151.8245, 4576.273
152.3066, 5451.070
152.7887, 6234.416
153.2708, 6717.043
153.7529, 6819.181
154.2351, 6622.538
154.7172, 6322.377
155.1993, 5782.869
155.6814, 5296.666
156.1635, 4887.815
156.6456, 4535.387
157.1278, 4235.030
157.6099, 3989.501
158.0920, 3768.702
158.5741, 3437.586
159.0562, 2936.028
159.5383, 2410.339
160.0205, 1834.702
160.5026, 1256.139
160.9847, 768.7456
161.4668, 449.0098
161.9489, 285.7051
162.4310, 185.0376
162.9131, 152.0474
163.3953, 169.5767
163.8774, 235.3735
164.3595, 347.5908
164.8416, 489.7070
165.3237, 664.1172
165.8058, 860.7065
166.2880, 1053.909
166.7701, 1238.591
167.2522, 1421.880
167.7343, 1600.714
168.2164, 1766.412
168.6985, 1967.706
169.1807, 2222.444
169.6628, 2529.921
170.1449, 2908.466
170.6270, 3389.622
171.1091, 3930.110
171.5912, 4454.306
172.0734, 5036.702
172.5555, 5445.724
173.0376, 5578.636
173.5197, 5522.397
174.0018, 5387.875
174.4839, 5220.185
174.9661, 5029.942
175.4482, 4889.359
175.9303, 4902.115
176.4124, 4844.398
176.8945, 4649.139
177.3766, 4344.033
177.8588, 3973.960
178.3409, 3555.531
178.8230, 3086.859
179.3051, 2726.194
179.7872, 2511.288
180.2693, 2364.569
180.7515, 2281.055
181.2336, 2250.840
181.7157, 2259.628
182.1978, 2294.589
182.6799, 2354.201
183.1620, 2465.211
183.6441, 2634.009
184.1263, 2834.508
184.6084, 3069.813
185.0905, 3331.116
185.5726, 3590.928
186.0547, 3824.877
186.5368, 4029.471
187.0190, 4210.334
187.5011, 4356.313
187.9832, 4486.457
188.4653, 4611.075
188.9474, 4735.105
189.4296, 4863.750
189.9117, 5007.153
190.3938, 5162.675
190.8759, 5291.288
191.3580, 5395.777
191.8401, 5466.812
192.3223, 5483.175
192.8044, 5434.846
193.2865, 5370.778
193.7686, 5319.116
194.2507, 5282.829
194.7328, 5290.640
195.2150, 5356.693
195.6971, 5471.545
196.1792, 5632.803
196.6613, 5872.703
197.1434, 6084.088
197.6255, 6203.538
198.1077, 6240.818
198.5898, 6203.795
199.0719, 6037.686
199.5540, 5784.881
200.0361, 5627.916
200.5182, 5577.590
201.0004, 5631.315
201.4825, 5794.339
201.9646, 6045.397
202.4467, 6336.830
202.9288, 6695.059
203.4109, 7105.838
203.8930, 7310.973
204.3752, 7315.146
204.8573, 7065.197
205.3394, 6429.142
205.8215, 5520.212
206.3036, 4576.501
206.7857, 3771.039
207.2679, 3103.555
207.7500, 2590.156
208.2321, 2281.277
208.7142, 2092.333
209.1963, 2021.080
209.6784, 2055.818
210.1606, 2181.175
210.6427, 2392.275
211.1248, 2697.146
211.6069, 3006.971
212.0890, 3348.213
212.5711, 3669.146
213.0533, 3945.605
213.5354, 4181.609
214.0175, 4398.238
214.4996, 4611.694
214.9817, 4819.634
215.4638, 5045.293
215.9460, 5287.062
216.4281, 5543.621
216.9102, 5816.281
217.3923, 6103.682
217.8744, 6407.850
218.3565, 6733.054
218.8387, 7083.665
219.3208, 7407.366
219.8029, 7707.630
220.2850, 7983.646
220.7671, 8222.205
221.2492, 8428.730
221.7314, 8635.697
222.2135, 8868.749
222.6956, 9131.249
223.1777, 9410.109
223.6598, 9697.984
224.1419, 10007.19
224.6240, 10317.18
225.1062, 10633.56
225.5883, 11027.87
226.0704, 11521.02
226.5525, 12149.22
227.0346, 13044.40
227.5167, 14227.54
227.9989, 15673.53
228.4810, 17438.52
228.9631, 19530.87
229.4452, 21671.15
229.9273, 23947.29
230.4094, 26081.85
230.8916, 27319.99
231.3737, 27252.07
231.8558, 26377.96
232.3379, 25069.81
232.8200, 23255.24
233.3021, 21514.45
233.7843, 20176.70
234.2664, 19161.54
234.7485, 18405.03
235.2306, 17997.26
235.7127, 17753.47
236.1948, 17500.28
236.6770, 17297.95
237.1591, 16820.75
237.6412, 15791.06
238.1233, 14422.00
238.6054, 12866.37
239.0875, 11101.43
239.5697, 9268.835
240.0518, 7575.304
240.5339, 5993.379
241.0160, 4626.313
241.4981, 3542.644
241.9802, 2667.453
242.4624, 1964.850
242.9445, 1436.196
243.4266, 1042.698
243.9087, 729.0024
244.3908, 510.4065
244.8729, 335.1477
245.3550, 199.3313
245.8372, 91.28394
246.3193, 5.263428
246.8014, 60.34424
247.2835, 110.2739
247.7656, 152.7759
248.2477, 186.4163
248.7299, 215.1628
249.2120, 238.7390
249.6941, 259.0079
250.1762, 277.7661
250.6583, 295.5161
251.1404, 310.2931
251.6226, 318.8639
252.1047, 319.8370
252.5868, 316.9683
253.0689, 312.7469
253.5510, 304.3323
254.0331, 288.6396
254.5153, 265.2770
254.9974, 237.5098
255.4795, 209.8711
255.9616, 182.1809
256.4437, 155.1133
256.9258, 124.5886
257.4080, 97.33984
257.8901, 78.64551
258.3722, 68.99414
258.8543, 64.06689
259.3364, 58.52417
259.8185, 53.19360
260.3007, 44.78735
260.7828, 35.39380
261.2649, 22.11206
261.7470, 30.59192
262.2291, 24.31226
262.7112, 53.58618
263.1934, 81.30713
263.6755, 105.1912
264.1576, 136.6729
264.6397, 175.3259
265.1218, 220.0432
265.6039, 271.3853
266.0861, 328.4431
266.5682, 388.3093
267.0503, 447.1138
267.5324, 502.2830
268.0145, 574.4634
268.4966, 658.6318
268.9788, 759.9768
269.4609, 879.8315
269.9430, 1018.694
270.4251, 1177.637
270.9072, 1358.712
271.3893, 1561.247
271.8715, 1777.132
272.3536, 2031.215
272.8357, 2271.190
273.3178, 2491.013
273.7999, 2680.247
274.2820, 2819.641
274.7642, 2899.171
275.2463, 2917.100
275.7284, 2840.844
276.2105, 2656.243
276.6926, 2419.355
277.1747, 2114.637
277.6568, 1769.934
278.1389, 1439.272
278.6211, 1147.864
279.1032, 898.1226
279.5853, 705.3459
280.0674, 573.4492
280.5495, 478.8413
281.0316, 425.2910
281.5138, 403.9910
281.9959, 401.5452
282.4780, 413.3669
282.9601, 437.1206
283.4422, 467.6545
283.9243, 504.7642
284.4065, 547.5251
284.8886, 595.7148
285.3707, 649.4985
285.8528, 708.9570
286.3349, 774.1873
286.8170, 845.3350
287.2992, 923.1138
287.7813, 1004.831
288.2634, 1099.608
288.7455, 1208.329
289.2276, 1330.794
289.7097, 1466.564
290.1919, 1615.653
290.6740, 1776.302
291.1561, 1951.030
291.6382, 2141.109
292.1203, 2331.470
292.6024, 2535.128
293.0846, 2730.285
293.5667, 2908.856
294.0488, 3069.220
294.5309, 3177.650
295.0130, 3200.265
295.4951, 3130.032
295.9773, 3015.451
296.4594, 2818.908
296.9415, 2606.668
297.4236, 2417.037
297.9057, 2255.128
298.3878, 2131.355
298.8700, 2055.017
299.3521, 2028.517
299.8342, 2030.703
300.3163, 2062.762
300.7984, 2121.210
301.2805, 2208.141
301.7627, 2321.419
302.2448, 2453.517
302.7269, 2604.433
303.2090, 2770.355
303.6911, 2937.874
304.1732, 3097.858
304.6554, 3264.303
305.1375, 3439.061
305.6196, 3626.332
306.1017, 3836.576
306.5838, 4073.823
307.0659, 4336.426
307.5481, 4622.149
308.0302, 4931.828
308.5123, 5251.474
308.9944, 5583.811
309.4765, 5921.878
309.9586, 6251.857
310.4408, 6570.058
310.9229, 6876.129
311.4050, 7177.814
311.8871, 7482.604
312.3692, 7719.036
312.8513, 7899.019
313.3335, 7991.069
313.8156, 7935.723
314.2977, 7720.593
314.7798, 7443.025
315.2619, 7169.286
315.7440, 6901.734
316.2262, 6673.856
316.7083, 6484.493
317.1904, 6338.285
317.6725, 6243.890
318.1546, 6199.887
318.6367, 6191.135
319.1188, 6213.311
319.6010, 6265.348
320.0831, 6328.397
320.5652, 6413.620
321.0473, 6497.898
321.5294, 6565.749
322.0115, 6621.042
322.4937, 6676.058
322.9758, 6731.825
323.4579, 6796.525
323.9400, 6885.984
324.4221, 6989.682
324.9042, 7132.212
325.3864, 7320.216
325.8685, 7553.176
326.3506, 7831.226
326.8327, 8154.554
327.3148, 8524.842
327.7969, 8953.529
328.2791, 9440.505
328.7612, 9960.831
329.2433, 10530.97
329.7254, 11121.13
330.2075, 11710.10
330.6896, 12294.29
331.1718, 12843.37
331.6539, 13333.16
332.1360, 13756.40
332.6181, 14117.26
333.1002, 14428.22
333.5823, 14665.10
334.0645, 14804.36
334.5466, 14848.15
335.0287, 14819.02
335.5108, 14718.16
335.9929, 14555.23
336.4750, 14414.74
336.9572, 14276.00
337.4393, 14175.76
337.9214, 14131.05
338.4035, 14136.23
338.8856, 14182.00
339.3677, 14267.07
339.8499, 14382.38
340.3320, 14506.00
340.8141, 14637.06
341.2962, 14775.51
341.7783, 14922.93
342.2604, 15077.46
342.7426, 15238.66
343.2247, 15405.80
343.7068, 15573.16
344.1889, 15735.50
344.6710, 15900.72
345.1531, 16028.48
345.6353, 16135.68
346.1174, 16192.23
346.5995, 16181.93
347.0816, 16100.92
347.5637, 15939.90
348.0458, 15686.49
348.5280, 15334.80
349.0101, 14951.09
349.4922, 14500.54
349.9743, 14058.91
350.4564, 13632.85
350.9385, 13243.97
351.4207, 12930.18
351.9028, 12715.59
352.3849, 12593.10
352.8670, 12535.71
353.3491, 12620.01
353.8312, 12674.63
354.3134, 12704.14
354.7955, 12683.50
355.2776, 12577.33
355.7597, 12374.18
356.2418, 12102.92
356.7239, 11808.95
357.2061, 11487.62
357.6882, 11149.02
358.1703, 10748.59
358.6524, 10364.35
359.1345, 10042.68
359.6166, 9790.671
360.0987, 9606.355
360.5808, 9497.686
361.0630, 9478.861
361.5451, 9396.631
362.0272, 9247.470
362.5093, 9043.455
362.9914, 8773.883
363.4735, 8452.107
363.9557, 8103.768
364.4378, 7743.277
364.9199, 7369.629
365.4020, 6976.846
365.8841, 6539.746
366.3662, 6118.523
366.8484, 5698.661
367.3305, 5309.048
367.8126, 4977.290
368.2947, 4713.459
368.7768, 4504.701
369.2589, 4337.967
369.7411, 4232.094
370.2232, 4118.295
370.7053, 4002.296
371.1874, 3871.526
371.6695, 3716.611
372.1516, 3538.820
372.6338, 3342.390
373.1159, 3125.928
373.5980, 2890.935
374.0801, 2673.955
374.5622, 2474.451
375.0443, 2296.137
375.5265, 2138.664
376.0086, 2001.440
376.4907, 1885.369
376.9728, 1790.535
377.4549, 1715.542
377.9370, 1657.312
378.4192, 1616.865
378.9013, 1591.049
379.3834, 1581.087
379.8655, 1583.843
380.3476, 1599.465
380.8297, 1627.848
381.3119, 1663.954
381.7940, 1705.070
382.2761, 1751.127
382.7582, 1795.780
383.2403, 1848.276
383.7224, 1885.697
384.2046, 1898.689
384.6867, 1887.175
385.1688, 1851.390
385.6509, 1788.302
386.1330, 1701.793
386.6151, 1597.167
387.0973, 1471.611
387.5794, 1339.119
388.0615, 1198.339
388.5436, 1057.457
389.0257, 928.5078
389.5078, 814.4724
389.9900, 711.4966
390.4721, 616.1050
390.9542, 528.2917
391.4363, 451.5776
391.9184, 388.1388
392.4005, 335.6378
392.8827, 291.2256
393.3648, 255.0961
393.8469, 221.1404
394.3290, 185.9810
394.8111, 151.9531
395.2932, 123.6378
395.7754, 101.6019
396.2575, 82.95605
396.7396, 65.57349
397.2217, 49.48755
397.7038, 33.92249
398.1859, 17.56519
398.6681, 2.611938
399.1501, 9.545654
399.6323, 19.12329
400.1144, 26.79126
400.5965, 32.61426
401.0786, 37.18958
401.5607, 42.06323
402.0428, 48.19983
402.5250, 52.97852
403.0071, 54.10339
403.4892, 54.50708
403.9713, 58.24109
404.4534, 65.96338
404.9355, 74.22375
405.4177, 78.94934
405.8998, 79.33606
406.3819, 79.47876
406.8640, 79.30066
407.3461, 78.96191
407.8282, 78.77966
408.3104, 78.53394
408.7925, 77.56152
409.2746, 75.40247
409.7567, 72.47046
410.2388, 70.77979
410.7209, 71.81177
411.2031, 72.18628
411.6852, 71.33997
412.1673, 69.88831
412.6494, 68.29272
413.1315, 66.73364
413.6136, 65.35840
414.0958, 64.64514
414.5779, 65.22681
415.0600, 64.00500
415.5421, 59.15100
416.0242, 54.11731
416.5063, 49.47351
416.9885, 45.71533
417.4706, 43.93042
417.9527, 45.69885
418.4348, 49.16211
418.9169, 47.62463
419.3990, 38.85974
419.8812, 29.89185
420.3633, 21.98975
420.8454, 15.34705
421.3275, 10.56470
421.8096, 7.827148
422.2917, 5.674072
422.7739, 2.739136
423.2560, 0.9530030
423.7381, 4.959961
424.2202, 9.828247
424.7023, 14.06726
425.1844, 16.22693
425.6666, 16.80969
426.1487, 17.64404
426.6308, 19.59753
427.1129, 22.10388
427.5950, 23.99377
428.0771, 25.13611
428.5593, 27.90088
429.0414, 34.89636
429.5235, 43.65955
430.0056, 48.58948
430.4877, 47.96545
430.9698, 47.40039
431.4520, 50.45618
431.9341, 55.43506
432.4162, 58.44324
432.8983, 58.26758
433.3804, 57.90210
433.8625, 61.04126
434.3447, 68.26868
434.8268, 74.87170
435.3089, 81.06860
435.7910, 86.24219
436.2731, 89.54041
436.7552, 91.38586
437.2374, 92.97327
437.7195, 94.87805
438.2016, 97.27179
438.6837, 100.8884
439.1658, 107.0059
439.6479, 112.7029
440.1301, 117.9867
440.6122, 122.6956
441.0943, 126.5073
441.5764, 129.4410
442.0585, 131.9494
442.5406, 134.4571
443.0227, 136.8611
443.5049, 139.9204
443.9870, 145.7424
444.4691, 150.0751
444.9512, 149.8169
445.4333, 147.5040
445.9154, 147.4747
446.3976, 152.1508
446.8797, 159.4557
447.3618, 164.9673
447.8439, 168.5043
448.3260, 170.7958
448.8081, 170.4829
449.2903, 170.0189
449.7724, 170.9178
450.2545, 173.2581
450.7366, 176.2143
451.2187, 179.5107
451.7008, 182.9546
452.1830, 185.5874
452.6651, 186.9209
453.1472, 188.6343
453.6293, 192.0081
454.1114, 196.3154
454.5935, 200.7830
455.0757, 205.7268
455.5578, 209.8683
456.0399, 211.4401
456.5220, 211.0582
457.0041, 211.4294
457.4862, 213.2921
457.9684, 216.2023
458.4505, 220.1302
458.9326, 225.0968
459.4147, 229.0416
459.8968, 230.7429
460.3789, 231.7975
460.8611, 234.0343
461.3432, 237.2552
461.8253, 239.6115
462.3074, 239.7217
462.7895, 237.9058
463.2716, 236.0082
463.7538, 234.4762
464.2359, 232.8777
464.7180, 231.3079
465.2001, 229.6334
465.6822, 227.7252
466.1643, 225.5283
466.6465, 223.0134
467.1286, 220.1575
467.6107, 216.9639
468.0928, 213.8910
468.5749, 211.0434
469.0570, 207.8069
469.5392, 203.4915
470.0213, 198.9813
470.5034, 195.5232
470.9855, 193.6639
471.4676, 192.9026
471.9497, 192.9957
472.4319, 194.7195
472.9140, 193.5379
473.3961, 187.1868
473.8782, 179.4164
474.3603, 171.3403
474.8424, 163.4367
475.3246, 156.8262
475.8067, 152.4727
476.2888, 149.4650
476.7709, 146.7891
477.2530, 145.1612
477.7351, 142.6431
478.2173, 137.5106
478.6994, 131.1337
479.1815, 125.6412
479.6636, 120.9880
480.1457, 117.1208
480.6278, 113.6127
481.1100, 111.0757
481.5920, 111.6660
482.0742, 115.9940
482.5563, 118.9803
483.0384, 114.9198
483.5205, 103.9529
484.0026, 98.19067
484.4847, 101.8023
484.9669, 105.9086
485.4490, 107.0573
485.9311, 106.1195
486.4132, 104.8941
486.8953, 104.2087
487.3774, 103.7803
487.8596, 102.9058
488.3417, 101.2000
488.8238, 99.36798
489.3059, 97.14343
489.7880, 95.35028
490.2701, 94.83850
490.7523, 94.89545
491.2344, 93.92310
491.7165, 90.87012
492.1986, 86.98456
492.6807, 85.65399
493.1628, 88.13556
493.6450, 89.58636
494.1271, 88.06561
494.6092, 85.75568
495.0913, 83.63202
495.5734, 81.95239
496.0555, 81.25964
496.5377, 83.20477
497.0198, 86.37250
497.5019, 86.39221
497.9840, 82.60132
498.4661, 78.33929
498.9482, 74.60864
499.4304, 71.89124
499.9125, 71.30640
500.3946, 74.09583
500.8767, 76.12646
501.3588, 74.14453
501.8409, 70.37427
502.3231, 68.82904
502.8052, 70.33569
503.2873, 73.05798
503.7694, 75.76721
504.2515, 78.53394
504.7336, 78.62555
505.2158, 74.11145
505.6979, 69.34723
506.1800, 65.60364
506.6621, 62.66895
507.1442, 60.06885
507.6263, 57.64825
508.1085, 55.78839
508.5906, 55.23224
509.0727, 56.50079
509.5548, 57.19635
510.0369, 56.75610
510.5190, 56.26215
511.0012, 56.45703
511.4833, 56.87177
511.9654, 56.46082
512.4475, 54.55469
512.9296, 52.06000
513.4117, 50.85260
513.8939, 51.19696
514.3760, 50.59460
514.8581, 47.64349
515.3402, 44.45728
515.8223, 42.76495
516.3044, 42.44794
516.7866, 42.53302
517.2687, 42.93207
517.7508, 43.31848
518.2329, 43.47314
518.7150, 43.35504
519.1971, 42.29187
519.6793, 39.56445
520.1614, 36.14789
520.6435, 34.58832
521.1256, 35.83954
521.6077, 35.77649
522.0898, 31.74585
522.5720, 27.49341
523.0541, 27.45471
523.5362, 30.94257
524.0183, 32.82214
524.5004, 28.98041
524.9825, 21.04327
525.4647, 17.52441
525.9468, 23.28503
526.4289, 26.65015
526.9110, 25.15466
527.3931, 22.02301
527.8752, 19.41901
528.3574, 17.85876
528.8395, 17.27246
529.3216, 18.05457
529.8037, 19.83295
530.2858, 20.15424
530.7679, 18.35492
531.2501, 16.63251
531.7322, 16.03375
532.2143, 15.94495
532.6964, 15.79102
533.1785, 15.48828
533.6606, 15.11932
534.1428, 14.59692
534.6249, 14.07300
535.1070, 14.19562
535.5891, 15.14703
536.0712, 15.16071
536.5533, 12.00055
537.0355, 6.698792
537.5176, 5.505249
537.9997, 12.99744
538.4818, 18.62183
538.9639, 17.45752
539.4460, 13.70972
539.9282, 13.03388
540.4103, 16.34705
540.8924, 20.09656
541.3745, 20.34460
541.8566, 16.96838
542.3387, 15.03052
542.8209, 16.16846
543.3029, 16.84131
543.7850, 16.04633
544.2672, 14.54822
544.7493, 13.14618
545.2314, 12.10034
545.7135, 11.57703
546.1956, 11.87402
546.6777, 13.07819
547.1599, 14.93341
547.6420, 17.86914
548.1241, 19.61646
548.6062, 17.67230
549.0883, 14.01971
549.5704, 11.82654
550.0526, 12.23462
550.5347, 12.82117
551.0168, 11.92273
551.4989, 10.17548
551.9810, 8.900757
552.4631, 8.428345
552.9453, 8.075378
553.4274, 6.842590
553.9095, 4.673584
554.3916, 4.697754
554.8737, 10.00110
555.3558, 13.62598
555.8380, 11.74792
556.3201, 8.022461
556.8022, 7.291992
557.2843, 10.49737
557.7664, 14.52808
558.2485, 15.88690
558.7307, 14.53003
559.2128, 12.92102
559.6949, 10.59760
560.1770, 8.855225
560.6591, 8.675415
561.1412, 8.937317
561.6234, 7.903931
562.1055, 4.953186
562.5876, 2.535400
563.0697, 3.760254
563.5518, 7.309387
564.0339, 8.537476
564.5161, 6.561218
564.9982, 4.060181
565.4803, 2.922913
565.9624, 2.841797
566.4445, 2.255005
566.9266, 0.2196040
567.4088, 0.9689330
567.8909, 3.3936001E-02
568.3730, 2.042236
568.8551, 3.546753
569.3372, 4.304504
569.8193, 5.276184
570.3015, 7.407715
570.7836, 10.48242
571.2657, 11.72314
571.7478, 8.668884
572.2299, 6.909485
572.7120, 8.576782
573.1942, 11.12073
573.6763, 11.91357
574.1584, 10.71106
574.6405, 9.611816
575.1226, 10.80231
575.6047, 13.58435
576.0869, 14.50177
576.5690, 12.95459
577.0511, 12.07428
577.5332, 13.82965
578.0153, 16.85236
578.4974, 18.79468
578.9796, 19.32111
579.4617, 20.17834
579.9438, 22.96204
580.4259, 25.84265
580.9080, 26.35187
581.3901, 24.65533
581.8723, 22.87421
582.3544, 22.23505
582.8365, 22.64459
583.3186, 23.89417
583.8007, 27.31122
584.2828, 29.63379
584.7650, 30.97552
585.2471, 31.11780
585.7292, 29.19543
586.2113, 25.88959
586.6934, 23.01129
587.1755, 21.64526
587.6577, 21.51599
588.1398, 22.44678
588.6219, 24.76611
589.1040, 25.81122
589.5861, 24.86389
590.0682, 22.44989
590.5504, 18.45892
591.0325, 13.24432
591.5146, 9.218201
591.9967, 7.437012
592.4788, 6.865417
592.9609, 7.079529
593.4431, 7.832092
593.9252, 8.394226
594.4073, 8.472046
594.8894, 8.455566
595.3715, 8.994385
595.8536, 10.40704
596.3358, 11.10150
596.8179, 11.30762
597.3000, 10.59784
597.7821, 7.642822
598.2642, 4.137512
598.7463, 2.892334
599.2285, 4.751221
599.7106, 6.939026
600.1927, 5.376526
600.6748, 0.2778930
601.1569, 2.234924
601.6390, 0.9517210
602.1212, 0.8840940
602.6033, 2.359558
603.0854, 2.916992
603.5675, 1.065125
604.0496, 4.601624
604.5317, 9.006287
605.0139, 8.647522
605.4960, 5.884460
605.9781, 3.977417
606.4602, 3.334290
606.9423, 3.113525
607.4244, 2.715088
607.9066, 2.227234
608.3887, 2.115540
608.8708, 2.554565
609.3529, 3.156372
609.8350, 4.726257
610.3171, 5.773438
610.7993, 4.555603
611.2814, 1.738831
611.7635, 0.2511600
612.2456, 0.2429200
612.7277, 2.242432
613.2098, 4.119568
613.6920, 5.997192
614.1741, 6.555725
614.6562, 4.887756
615.1383, 2.521057
615.6204, 0.6113280
616.1025, 0.7877200
616.5847, 1.060303
617.0668, 0.9125980
617.5489, 3.065491
618.0310, 4.293518
618.5131, 4.702087
618.9952, 4.486450
619.4774, 3.725647
619.9595, 2.591675
620.4416, 1.170044
620.9237, 0.6298830
621.4058, 1.662415
621.8879, 0.6934810
622.3701, 0.4539790
622.8522, 2.313782
623.3343, 4.715515
623.8164, 5.874512
624.2985, 5.521545
624.7806, 5.079102
625.2628, 6.648560
625.7448, 8.905457
626.2269, 7.561646
626.7090, 8.018845
627.1912, 8.562688
627.6733, 6.005249
628.1554, 7.246338
628.6375, 5.848755
629.1196, 5.637007
629.6017, 2.489075
630.0839, 4.726440
630.5660, 5.538696
631.0481, 3.664551
631.5302, 0.4632570
632.0123, 1.031799
632.4944, 0.5774540
632.9766, 3.997009
633.4587, 7.527466
633.9408, 11.66516
634.4229, 13.26312
634.9050, 10.21191
635.3871, 7.283325
635.8693, 6.554321
636.3514, 7.263611
636.8335, 8.346802
637.3156, 9.627197
637.7977, 10.92706
638.2798, 12.23627
638.7620, 13.43829
639.2441, 14.06329
639.7262, 14.10773
640.2083, 14.73016
640.6904, 16.80377
641.1725, 19.87360
641.6547, 22.45404
642.1368, 25.17560
642.6189, 26.33612
643.1010, 23.99292
643.5831, 21.81696
644.0652, 22.20349
644.5474, 24.72894
645.0295, 28.01105
645.5116, 31.50970
645.9937, 34.51093
646.4758, 35.38831
646.9579, 34.16675
647.4401, 34.13617
647.9222, 36.66840
648.4043, 38.56531
648.8864, 36.47949
649.3685, 31.77936
649.8506, 28.79968
650.3328, 28.34265
650.8149, 28.91003
651.2970, 31.00970
651.7791, 33.23492
652.2612, 33.31702
652.7433, 31.43408
653.2255, 30.26978
653.7076, 32.00922
654.1897, 35.56989
654.6718, 36.78064
655.1539, 34.57452
655.6360, 32.58032
656.1182, 31.17194
656.6003, 30.19171
657.0824, 29.82208
657.5645, 29.83173
658.0466, 29.55420
658.5287, 28.51147
659.0109, 27.39685
659.4930, 27.19031
659.9751, 27.50714
660.4572, 27.16132
660.9393, 25.88397
661.4214, 24.58990
661.9036, 24.02673
662.3857, 23.97253
662.8678, 23.24493
663.3499, 20.89557
663.8320, 19.39056
664.3141, 19.19434
664.7963, 19.60394
665.2784, 20.35138
665.7605, 21.23236
666.2426, 21.84961
666.7247, 21.94635
667.2068, 21.62628
667.6890, 21.18372
668.1711, 20.61761
668.6532, 18.85223
669.1353, 14.80597
669.6174, 11.64856
670.0995, 13.22498
670.5817, 18.89227
671.0638, 22.13379
671.5459, 20.62354
672.0280, 19.43970
672.5101, 21.31555
672.9922, 23.82806
673.4744, 23.79144
673.9565, 21.20447
674.4386, 18.65173
674.9207, 17.93829
675.4028, 18.88092
675.8849, 21.76624
676.3671, 27.69025
676.8492, 30.73444
677.3313, 27.61450
677.8134, 23.72876
678.2955, 24.11499
678.7776, 27.43646
679.2598, 28.80066
679.7419, 25.23523
680.2240, 21.85876
680.7061, 22.29883
681.1882, 24.64246
681.6703, 26.06213
682.1525, 26.01001
682.6346, 24.95648
683.1167, 23.01611
683.5988, 20.72211
684.0809, 21.00336
684.5630, 25.96704
685.0452, 28.76257
685.5273, 26.13953
686.0094, 23.21912
686.4915, 23.53467
686.9736, 26.28430
687.4557, 28.09430
687.9379, 27.36169
688.4200, 25.82233
688.9021, 24.78918
689.3842, 24.14941
689.8663, 23.46619
690.3484, 22.79510
690.8306, 23.01984
691.3127, 25.21649
691.7948, 28.64569
692.2769, 29.50458
692.7590, 25.12000
693.2411, 22.43494
693.7233, 22.29156
694.2054, 23.36890
694.6875, 26.02301
695.1696, 29.17603
695.6517, 30.24097
696.1339, 27.53931
696.6160, 24.11389
697.0981, 23.35706
697.5802, 24.70282
698.0623, 26.42169
698.5444, 28.31946
699.0266, 29.53339
699.5087, 29.29956
699.9908, 28.00208
700.4729, 27.13287
700.9550, 27.42371
701.4371, 27.00067
701.9193, 24.03076
702.4014, 22.00861
702.8835, 24.27002
703.3656, 28.98083
703.8477, 31.99561
704.3298, 31.45148
704.8120, 29.44110
705.2941, 28.23486
705.7762, 27.75171
706.2583, 27.68005
706.7404, 28.06708
707.2225, 28.41174
707.7046, 28.52789
708.1867, 28.32355
708.6688, 27.34442
709.1509, 24.53516
709.6331, 23.66504
710.1152, 27.19604
710.5973, 30.55914
711.0794, 30.84583
711.5615, 29.07404
712.0436, 27.09363
712.5258, 25.60223
713.0079, 24.87341
713.4900, 25.68042
713.9721, 27.61847
714.4542, 28.21924
714.9363, 27.26569
715.4185, 25.83838
715.9006, 24.01276
716.3827, 22.42493
716.8648, 22.32990
717.3469, 23.96973
717.8290, 25.45856
718.3112, 27.17462
718.7933, 28.13806
719.2754, 27.87787
719.7575, 26.55573
720.2396, 23.73822
720.7217, 19.66522
721.2039, 16.58105
721.6860, 17.21472
722.1681, 20.49524
722.6502, 22.22815
723.1323, 22.30627
723.6144, 21.69739
724.0966, 20.31018
724.5787, 19.01770
725.0608, 19.16992
725.5429, 20.40399
726.0250, 20.80603
726.5071, 19.65283
726.9893, 18.73804
727.4714, 19.13776
727.9535, 19.86798
728.4356, 19.48651
728.9177, 18.10883
729.3998, 17.67358
729.8820, 20.29968
730.3641, 23.93890
730.8462, 22.65649
731.3283, 16.17548
731.8104, 13.28748
732.2925, 17.08826
732.7747, 21.79755
733.2568, 22.91785
733.7389, 21.12897
734.2210, 20.12970
734.7031, 20.52631
735.1852, 20.82452
735.6674, 20.74969
736.1495, 20.30713
736.6316, 19.27716
737.1137, 17.96680
737.5958, 17.11182
738.0779, 17.08832
738.5601, 17.58771
739.0422, 18.36200
739.5243, 19.20459
740.0064, 18.85339
740.4885, 17.08124
740.9706, 15.02496
741.4528, 13.17297
741.9349, 11.55487
742.4170, 10.38574
742.8991, 10.03540
743.3812, 8.908508
743.8633, 5.435852
744.3455, 3.002563
744.8276, 3.800415
745.3097, 6.087341
745.7918, 7.770386
746.2739, 8.382996
746.7560, 8.330322
747.2382, 7.356506
747.7203, 5.995605
748.2024, 6.353638
748.6845, 8.504272
749.1666, 9.794617
749.6487, 8.964661
750.1309, 7.942444
750.6130, 9.612976
751.0951, 14.29224
751.5772, 14.98804
752.0593, 7.039063
752.5414, 1.490601
753.0236, 2.107239
753.5057, 5.094238
753.9878, 7.490662
754.4699, 8.845703
754.9520, 9.720276
755.4341, 10.50659
755.9163, 10.81152
756.3984, 9.670227
756.8805, 7.384583
757.3626, 5.918640
757.8447, 5.657654
758.3268, 5.482849
758.8090, 4.387573
759.2911, 3.018127
759.7732, 3.633301
760.2553, 8.934753
760.7374, 11.27368
761.2195, 8.627563
761.7017, 5.402954
762.1838, 3.255493
762.6659, 2.073730
763.1480, 1.330505
763.6301, 0.8691410
764.1122, 1.396118
764.5944, 4.889709
765.0765, 8.942993
765.5586, 9.023254
766.0407, 5.737366
766.5228, 3.244995
767.0049, 3.146851
767.4871, 4.459900
767.9692, 6.149109
768.4513, 8.341370
768.9334, 8.174011
769.4155, 3.312561
769.8976, 5.9997998E-02
770.3798, 0.4969480
770.8619, 0.7788090
771.3440, 3.616455
771.8261, 7.592163
772.3082, 11.04694
772.7903, 14.16577
773.2725, 15.59076
773.7546, 13.34296
774.2367, 9.200073
774.7188, 5.287415
775.2009, 2.257080
775.6830, 1.350586
776.1652, 3.644714
776.6473, 7.312256
777.1294, 7.580078
777.6115, 3.684204
778.0936, 1.665588
778.5757, 2.854248
779.0579, 4.183289
779.5400, 3.789307
780.0221, 2.593689
780.5042, 2.387695
780.9863, 3.661255
781.4684, 3.689209
781.9506, 0.4987790
782.4327, 3.844238
782.9148, 1.945557
783.3969, 2.630005
783.8790, 5.655334
784.3611, 5.949768
784.8433, 4.618042
785.3254, 1.999146
785.8075, 1.053772
786.2896, 1.804810
786.7717, 0.2271120
787.2538, 2.432190
787.7360, 6.625916
788.2181, 9.430603
788.7002, 7.394836
789.1823, 1.306946
789.6644, 2.069458
790.1465, 0.7391970
790.6286, 0.2836300
791.1107, 0.5274050
791.5928, 0.4522710
792.0750, 1.5686000E-02
792.5571, 0.4335330
793.0392, 0.1373900
793.5213, 1.270081
794.0034, 2.643982
794.4855, 3.069702
794.9677, 2.740234
795.4498, 1.577271
795.9319, 0.1809080
796.4140, 1.032532
796.8961, 0.3435670
797.3782, 1.331726
797.8604, 3.498291
798.3425, 6.246277
798.8246, 6.942993
799.3067, 4.390015
799.7888, 1.973511
800.2709, 1.012878
800.7531, 9.4848998E-02
801.2352, 2.650513
801.7173, 6.523376
802.1994, 7.953613
802.6815, 4.238220
803.1636, 0.4794310
803.6458, 0.3385010
804.1279, 2.5878999E-02
804.6100, 0.4086300
805.0921, 1.713135
805.5742, 3.100525
806.0563, 4.146484
806.5385, 5.050964
807.0206, 6.515991
807.5027, 8.391479
807.9848, 8.151550
808.4669, 5.218811
808.9490, 2.517212
809.4312, 1.077698
809.9133, 0.9916990
810.3954, 2.816040
810.8775, 7.100220
811.3596, 10.07410
811.8417, 12.46021
812.3239, 12.65204
812.8060, 7.903748
813.2881, 2.419006
813.7702, 0.1765750
814.2523, 1.143921
814.7344, 3.082275
815.2166, 5.366272
815.6987, 7.149963
816.1808, 7.068787
816.6629, 5.922546
817.1450, 5.511536
817.6271, 5.997559
818.1093, 6.661194
818.5914, 7.113831
819.0735, 7.359253
819.5556, 7.382935
820.0377, 7.131470
820.5198, 6.902649
821.0020, 6.682800
821.4841, 6.484619
821.9662, 6.306885
822.4483, 6.161072
822.9304, 6.199402
823.4125, 6.400574
823.8947, 6.107971
824.3768, 3.601318
824.8589, 2.490173
825.3410, 6.683899
825.8231, 11.57849
826.3052, 11.14337
826.7874, 6.095581
827.2695, 1.731506
827.7516, 0.9524540
828.2337, 2.335693
828.7158, 4.957703
829.1979, 8.138977
829.6801, 8.428345
830.1622, 5.509460
830.6443, 3.725403
831.1264, 5.431274
831.6085, 8.831909
832.0906, 11.09381
832.5728, 12.14697
833.0549, 12.43268
833.5370, 11.52466
834.0191, 10.44165
834.5012, 9.061890
834.9833, 7.889832
835.4655, 7.452820
835.9476, 7.634888
836.4297, 7.772400
836.9118, 7.888733
837.3939, 7.581360
837.8760, 5.954224
838.3582, 4.236206
838.8403, 3.851746
839.3224, 4.738342
839.8045, 6.360352
840.2866, 8.351807
840.7687, 10.15204
841.2509, 10.13751
841.7330, 8.617798
842.2151, 8.408081
842.6972, 9.639771
843.1793, 10.82678
843.6614, 11.47650
844.1436, 11.34656
844.6257, 9.792908
845.1078, 6.856628
845.5899, 6.501160
846.0720, 12.45380
846.5541, 15.47644
847.0363, 12.27612
847.5184, 8.181763
848.0005, 6.901733
848.4826, 7.519165
848.9647, 8.009155
849.4468, 7.828674
849.9290, 7.573486
850.4111, 7.632324
850.8932, 7.844116
851.3753, 7.913818
851.8574, 7.758484
852.3395, 7.787903
852.8217, 8.118835
853.3038, 8.424622
853.7859, 8.409119
854.2680, 8.032227
854.7501, 6.707581
855.2322, 4.473633
855.7144, 4.524963
856.1965, 8.039063
856.6786, 11.49017
857.1607, 12.15912
857.6428, 10.81317
858.1249, 9.979187
858.6071, 10.27887
859.0892, 9.532593
859.5713, 6.146118
860.0534, 3.590332
860.5355, 4.129333
861.0176, 6.007935
861.4998, 6.893005
861.9819, 6.496216
862.4640, 6.084106
862.9461, 6.351440
863.4282, 6.557983
863.9103, 5.695374
864.3925, 4.713684
864.8746, 5.763550
865.3567, 8.294189
865.8388, 8.690063
866.3209, 4.576538
866.8030, 0.5307620
867.2852, 0.5552980
867.7673, 3.434937
868.2494, 5.543457
868.7315, 5.358215
869.2136, 4.802124
869.6957, 4.600525
870.1779, 4.610840
870.6600, 4.562622
871.1421, 4.418030
871.6242, 5.256042
872.1063, 8.867981
872.5884, 10.62268
873.0705, 7.310852
873.5526, 4.130371
874.0347, 4.888794
874.5168, 8.083984
874.9990, 9.942810
875.4811, 9.694458
875.9632, 8.620239
876.4453, 5.780762
876.9274, 3.602051
877.4095, 4.986633
877.8917, 7.883972
878.3738, 8.440186
878.8559, 6.000488
879.3380, 3.382019
879.8201, 2.764771
880.3022, 1.975679
880.7844, 3.229492
881.2665, 3.015137
881.7486, 3.993652
882.2307, 6.282837
882.7128, 8.022583
883.1949, 7.995300
883.6771, 7.118896
884.1592, 7.654236
884.6413, 6.864192
885.1234, 5.367967
885.6055, 5.912170
886.0876, 2.721863
886.5698, 2.295105
887.0519, 3.013672
887.5340, 3.190979
888.0161, 2.850769
888.4982, 2.553467
888.9803, 2.033752
889.4625, 2.002808
889.9446, 3.139832
890.4267, 4.261963
890.9088, 4.433899
891.3909, 4.010376
891.8730, 3.742310
892.3552, 3.831848
892.8373, 4.187744
893.3194, 5.519348
893.8015, 6.438782
894.2836, 5.162048
894.7657, 2.693359
895.2479, 0.8377690
895.7300, 0.1084590
896.2121, 0.7014770
896.6942, 3.033508
897.1763, 5.922119
897.6584, 6.673706
898.1406, 5.537476
898.6227, 5.002136
899.1048, 5.290344
899.5869, 6.225159
900.0690, 7.950989
900.5511, 9.666565
901.0333, 10.07227
901.5154, 9.080688
901.9975, 8.781616
902.4796, 9.830994
902.9617, 10.36371
903.4438, 10.51886
903.9260, 9.566040
904.4081, 5.660095
904.8902, 0.4295650
905.3723, 1.653259
905.8544, 1.111389
906.3365, 3.518738
906.8187, 4.855957
907.3008, 4.897949
907.7829, 2.160034
908.2650, 1.265686
908.7471, 2.364380
909.2292, 0.8619380
909.7114, 0.8564450
910.1935, 1.593384
910.6756, 1.824707
911.1577, 1.413452
911.6398, 1.094482
912.1219, 2.992676
912.6041, 6.575500
913.0862, 8.474915
913.5683, 7.107727
914.0504, 4.596741
914.5325, 3.730957
915.0146, 4.215332
915.4968, 4.333862
915.9789, 4.081970
916.4610, 3.626831
916.9431, 2.875854
917.4252, 2.642395
917.9073, 3.863037
918.3895, 5.895020
918.8716, 6.262756
919.3537, 4.084717
919.8358, 2.401550
920.3179, 0.8021850
920.8000, 0.3166500
921.2822, 2.101501
921.7643, 4.705933
922.2464, 6.861023
922.7285, 8.551025
923.2106, 9.397339
923.6927, 9.257507
924.1749, 8.395630
924.6570, 5.702820
925.1391, 3.316956
925.6212, 3.394653
926.1033, 4.958862
926.5854, 5.840149
927.0676, 5.392334
927.5497, 4.915955
928.0318, 5.774719
928.5139, 6.581055
928.9960, 5.558655
929.4781, 3.556091
929.9603, 2.092346
930.4424, 1.476563
930.9245, 1.574646
931.4066, 2.407227
931.8887, 3.273193
932.3708, 2.670227
932.8530, 1.137756
933.3351, 1.169617
933.8172, 2.800720
934.2993, 4.079224
934.7814, 4.163208
935.2635, 4.380554
935.7457, 6.431824
936.2278, 9.706055
936.7099, 10.36090
937.1920, 7.663513
937.6741, 5.538269
938.1563, 4.642700
938.6384, 3.826050
939.1205, 2.044067
939.6026, 0.2780760
940.0847, 0.5383910
940.5668, 3.396851
941.0490, 4.906189
941.5311, 3.582214
942.0132, 3.004272
942.4953, 4.531250
942.9774, 6.415527
943.4595, 7.625549
943.9417, 8.122253
944.4238, 7.869934
944.9059, 6.434814
945.3880, 5.875427
945.8701, 8.126099
946.3522, 10.21820
946.8344, 9.852600
947.3165, 8.208069
947.7986, 6.911194
948.2807, 6.179199
948.7628, 5.382385
949.2449, 4.220337
949.7271, 2.799377
950.2092, 0.2929690
950.6913, 1.920044
951.1734, 0.7095340
951.6555, 2.822266
952.1376, 4.222778
952.6198, 2.181519
953.1019, 0.3034670
953.5840, 2.073669
954.0661, 5.658386
954.5482, 6.732239
955.0303, 5.604187
955.5124, 3.872498
955.9945, 1.767212
956.4766, 1.104736
956.9587, 3.000854
957.4409, 6.083618
957.9230, 8.367371
958.4051, 9.849121
958.8872, 9.492920
959.3693, 6.734741
959.8514, 4.497375
960.3336, 3.336426
960.8157, 3.028564
961.2978, 3.641846
961.7799, 4.864868
962.2620, 5.858032
962.7441, 6.696655
963.2263, 6.943420
963.7084, 6.278687
964.1905, 5.789063
964.6726, 6.546509
965.1547, 6.972595
965.6368, 4.826111
966.1190, 0.9170530
966.6011, 0.7232060
967.0832, 1.643433
967.5653, 4.181091
968.0474, 6.799316
968.5295, 8.536499
969.0117, 8.483887
969.4938, 7.417725
969.9759, 6.249512
970.4580, 5.127319
970.9401, 3.905090
971.4222, 2.231018
971.9044, 0.9151610
972.3865, 0.6901860
972.8686, 0.9082030
973.3507, 0.9835820
973.8328, 0.9031370
974.3149, 0.7605590
974.7971, 0.6019900
975.2792, 0.4527590
975.7613, 0.2589110
976.2434, 0.1733400
976.7255, 0.6914670
977.2076, 1.384399
977.6898, 1.035278
978.1719, 0.2233280
978.6540, 1.047119
979.1361, 0.7968750
979.6182, 0.2042240
980.1003, 1.926453
980.5825, 3.945923
981.0646, 4.487976
981.5467, 3.791565
982.0288, 4.006104
982.5109, 5.655884
982.9930, 6.899963
983.4752, 6.513367
983.9573, 7.829050
984.4394, 6.245178
984.9215, 8.539490
985.4036, 9.497681
985.8857, 8.895569
986.3679, 8.347412
986.8500, 8.444946
987.3321, 8.043701
987.8142, 5.861267
988.2963, 2.786926
988.7784, 1.769226
989.2606, 3.642395
989.7427, 4.645325
990.2248, 4.635986
990.7069, 3.934021
991.1890, 1.647888
991.6711, 0.1645510
992.1533, 1.159790
992.6354, 4.872009
993.1175, 6.459106
993.5996, 4.472473
994.0817, 2.982605
994.5638, 2.239197
995.0460, 1.763550
995.5281, 1.183960
996.0102, 0.9152830
996.4923, 1.573242
996.9744, 3.047607
997.4565, 4.402893
997.9387, 5.541260
998.4208, 6.450684
998.9029, 6.888794
999.3850, 7.317444
999.8671, 8.969727
1000.349, 10.28644
1000.831, 8.352722
1001.313, 3.265198
1001.796, 0.7155150
1002.278, 2.224670
1002.760, 1.610046
1003.242, 2.634521
1003.724, 7.476868
1004.206, 10.51501
1004.688, 11.79034
1005.170, 11.95935
1005.653, 11.19885
1006.135, 9.287659
1006.617, 4.921082
1007.099, 0.8860470
1007.581, 6.0120001E-02
1008.063, 1.036682
1008.545, 2.615234
1009.027, 4.162964
1009.509, 3.593933
1009.992, 0.3831180
1010.474, 2.293274
1010.956, 1.270996
1011.438, 1.487732
1011.920, 4.057007
1012.402, 6.167053
1012.884, 6.776367
1013.366, 6.168335
1013.849, 6.095886
1014.331, 7.327148
1014.813, 9.137573
1015.295, 11.21368
1015.777, 12.84308
1016.259, 11.69501
1016.741, 8.388977
1017.223, 5.598694
1017.705, 3.796875
1018.188, 3.224304
1018.670, 4.046814
1019.152, 5.460815
1019.634, 6.428467
1020.116, 7.005188
1020.598, 7.398315
1021.080, 7.620117
1021.562, 8.366638
1022.044, 9.854858
1022.527, 9.537659
1023.009, 5.507874
1023.491, 1.033325
1023.973, 1.874634
1024.455, 7.585632
1024.937, 10.82129
1025.419, 11.24719
1025.901, 9.510010
1026.384, 4.980835
1026.866, 1.666992
1027.348, 2.378357
1027.830, 5.140198
1028.312, 6.309753
1028.794, 5.820679
1029.276, 5.643188
1029.758, 6.067932
1030.240, 5.582092
1030.723, 3.160156
1031.205, 1.598999
1031.687, 3.121582
1032.169, 6.287476
1032.651, 8.337036
1033.133, 9.320190
1033.615, 8.570313
1034.097, 4.593201
1034.579, 2.150452
1035.062, 2.814697
1035.544, 4.162903
1036.026, 4.622742
1036.508, 4.621277
1036.990, 5.371399
1037.472, 7.255798
1037.954, 7.881775
1038.436, 6.885498
1038.919, 5.156555
1039.401, 1.359497
1039.883, 1.489075
1040.365, 0.8118900
1040.847, 2.130859
1041.329, 4.260864
1041.811, 5.662964
1042.293, 6.461121
1042.776, 6.107178
1043.258, 6.046570
1043.740, 6.733154
1044.222, 7.271118
1044.704, 6.989746
1045.186, 6.223755
1045.668, 5.046997
1046.150, 3.305176
1046.632, 3.063904
1047.115, 6.155212
1047.597, 8.556824
1048.079, 9.286926
1048.561, 9.005615
1049.043, 7.490479
1049.525, 5.536621
1050.007, 4.634949
1050.489, 5.011597
1050.971, 5.478882
1051.454, 5.849426
1051.936, 6.233826
1052.418, 7.065979
1052.900, 7.524048
1053.382, 6.661499
1053.864, 5.159180
1054.346, 4.353394
1054.828, 4.453308
1055.311, 4.274292
1055.793, 2.938782
1056.275, 2.042236
1056.757, 1.913086
1057.239, 2.635803
1057.721, 5.642700
1058.203, 8.954407
1058.685, 8.485229
1059.167, 3.788147
1059.650, 0.8811650
1060.132, 3.896301
1060.614, 6.311890
1061.096, 4.758911
1061.578, 2.546326
1062.060, 2.212280
1062.542, 3.060303
1063.024, 3.349182
1063.506, 2.929321
1063.989, 3.765076
1064.471, 8.963928
1064.953, 12.11987
1065.435, 8.380798
1065.917, 3.831848
1066.399, 3.740051
1066.881, 5.652222
1067.363, 4.802490
1067.846, 0.9476930
1068.328, 1.370728
1068.810, 0.8615110
1069.292, 3.348572
1069.774, 3.817932
1070.256, 3.979858
1070.738, 5.682922
1071.220, 7.692261
1071.703, 7.374146
1072.185, 5.022278
1072.667, 3.928955
1073.149, 6.015137
1073.631, 7.862122
1074.113, 7.439026
1074.595, 6.664551
1075.077, 7.318726
1075.559, 8.230103
1076.042, 7.292236
1076.524, 4.861206
1077.006, 3.685974
1077.488, 5.159058
1077.970, 6.481689
1078.452, 6.536682
1078.934, 5.809448
1079.416, 3.807617
1079.898, 1.770142
1080.380, 1.580017
1080.863, 0.3341765
1081.345, 2.581970
1081.827, 0.2174070
1082.309, 1.370667
1082.791, 3.229187
1083.273, 7.509644
1083.755, 7.057495
1084.237, 4.883118
1084.720, 3.573914
1085.202, 3.636292
1085.684, 5.642090
1086.166, 10.02179
1086.648, 13.44843
1087.130, 13.88849
1087.612, 13.79419
1088.094, 15.07422
1088.577, 15.88232
1089.059, 14.12024
1089.541, 10.60883
1090.023, 6.716248
1090.505, 2.692017
1090.987, 1.057007
1091.469, 5.584351
1091.951, 8.910828
1092.433, 6.471802
1092.916, 2.998169
1093.398, 2.026550
1093.880, 2.766357
1094.362, 3.740112
1094.844, 4.642883
1095.326, 5.040955
1095.808, 4.399902
1096.290, 3.824280
1096.772, 4.298767
1097.255, 4.273010
1097.737, 1.096313
1098.219, 2.177917
1098.701, 0.2708130
1099.183, 5.886169
1099.665, 8.317688
1100.147, 2.611389
1100.629, 1.501099
1101.112, 3.4729000E-02
1101.594, 1.892578
1102.076, 0.4207150
1102.558, 1.279297
1103.040, 1.066223
1103.522, 6.260803
1104.004, 8.914307
1104.486, 7.292053
1104.969, 6.208008
1105.451, 7.830078
1105.933, 8.383789
1106.415, 5.064026
1106.897, 1.535156
1107.379, 1.247620
1107.861, 2.957275
1108.343, 3.333679
1108.825, 1.822021
1109.307, 0.7642820
1109.790, 7.4890003E-02
1110.272, 9.3627997E-02
1110.754, 2.343079
1111.236, 4.676208
1111.718, 6.239990
1112.200, 6.969604
1112.682, 6.581909
1113.164, 5.018982
1113.647, 3.653809
1114.129, 2.162598
1114.611, 1.448486
1115.093, 2.501404
1115.575, 3.060303
1116.057, 1.367737
1116.539, 0.5378420
1117.021, 0.1485600
1117.504, 2.886536
1117.986, 3.641296
1118.468, 0.4369510
1118.950, 0.1154170
1119.432, 4.052307
1119.914, 6.737915
1120.396, 5.341309
1120.878, 2.877747
1121.360, 1.670593
1121.843, 1.562012
1122.325, 2.234314
1122.807, 3.975586
1123.289, 4.704102
1123.771, 4.180237
1124.253, 3.345581
1124.735, 2.086426
1125.217, 1.608276
1125.699, 2.938232
1126.182, 4.835938
1126.664, 5.598999
1127.146, 5.152588
1127.628, 3.358215
1128.110, 0.1419070
1128.592, 1.452271
1129.074, 0.1997680
1129.556, 2.112854
1130.039, 3.111938
1130.521, 3.536987
1131.003, 3.668579
1131.485, 3.694336
1131.967, 4.583191
1132.449, 6.217773
1132.931, 6.139160
1133.413, 4.273743
1133.896, 3.491516
1134.378, 4.666077
1134.860, 5.488159
1135.342, 4.078186
1135.824, 1.716736
1136.306, 0.3621830
1136.788, 8.3740003E-02
1137.270, 1.663330
1137.752, 4.638733
1138.234, 7.155823
1138.717, 8.724548
1139.199, 8.354980
1139.681, 5.497803
1140.163, 2.807373
1140.645, 4.406250
1141.127, 1.857189
1141.609, 5.495728
1142.091, 1.306763
1142.574, 0.6982420
1143.056, 3.072449
1143.538, 3.831909
1144.020, 1.807068
1144.502, 0.5930180
1144.984, 3.349854
1145.466, 6.467957
1145.948, 5.813477
1146.431, 3.623413
1146.913, 2.115906
1147.395, 1.518555
1147.877, 2.345886
1148.359, 4.179932
1148.841, 5.244812
1149.323, 4.767883
1149.805, 3.727783
1150.287, 1.813904
1150.770, 0.6167600
1151.252, 2.204163
1151.734, 4.368042
1152.216, 4.390564
1152.698, 3.051208
1153.180, 2.691895
1153.662, 3.800964
1154.144, 4.889709
1154.626, 6.385559
1155.109, 6.472595
1155.591, 2.597351
1156.073, 0.8608400
1156.555, 1.2024000E-02
1157.037, 2.535278
1157.519, 3.391785
1158.001, 2.589844
1158.483, 1.842773
1158.966, 1.044739
1159.448, 1.433228
1159.930, 4.290771
1160.412, 6.591553
1160.894, 8.016785
1161.376, 8.367615
1161.858, 6.847900
1162.340, 4.584473
1162.822, 4.252808
1163.305, 6.165771
1163.787, 6.524963
1164.269, 4.841858
1164.751, 2.923157
1165.233, 0.7485350
1165.715, 0.8903810
1166.197, 1.704834
1166.679, 1.533569
1167.161, 2.326287
1167.644, 2.549988
1168.126, 3.423645
1168.608, 2.621643
1169.090, 2.616455
1169.572, 3.536865
1170.054, 4.092651
1170.536, 3.909973
1171.018, 4.546387
1171.500, 7.282715
1171.983, 9.974670
1172.465, 8.284119
1172.947, 10.18858
1173.429, 4.751343
1173.911, 8.468933
1174.393, 7.481445
1174.875, 2.121094
1175.357, 0.7702640
1175.840, 1.234009
1176.322, 4.115234
1176.804, 4.556335
1177.286, 4.261780
1177.768, 5.761536
1178.250, 5.048141
1178.732, 6.693970
1179.214, 4.497986
1179.697, 3.231750
1180.179, 3.189941
1180.661, 3.664673
1181.143, 4.488098
1181.625, 4.753418
1182.107, 2.983032
1182.589, 1.573303
1183.071, 2.805664
1183.553, 4.520752
1184.036, 3.640015
1184.518, 2.059998
1185.000, 4.643311
1185.482, 11.65021
1185.964, 15.08685
1186.446, 10.59583
1186.928, 6.807861
1187.410, 4.222961
1187.892, 3.203979
1188.375, 5.327820
1188.857, 7.900208
1189.339, 8.588745
1189.821, 7.745789
1190.303, 6.064423
1190.785, 2.971466
1191.267, 2.754822
1191.749, 7.192657
1192.232, 9.243835
1192.714, 6.856018
1193.196, 4.959961
1193.678, 5.980011
1194.160, 7.906097
1194.642, 8.802612
1195.124, 8.883026
1195.606, 8.905884
1196.089, 8.853455
1196.571, 8.182526
1197.053, 6.912384
1197.535, 6.098724
1198.017, 5.983154
1198.499, 5.634003
1198.981, 4.415222
1199.463, 3.591858
1199.945, 5.539185
1200.427, 5.083860
1200.910, 8.596619
1201.392, 7.188812
1201.874, 8.104553
1202.356, 10.47360
1202.838, 10.17548
1203.320, 6.504395
1203.802, 3.260315
1204.284, 2.545807
1204.767, 2.919617
1205.249, 3.798920
1205.731, 4.738953
1206.213, 5.147034
1206.695, 5.555237
1207.177, 7.120697
1207.659, 9.150238
1208.141, 9.548615
1208.624, 7.792603
1209.106, 6.403442
1209.588, 5.941711
1210.070, 5.953674
1210.552, 7.207184
1211.034, 7.873871
1211.516, 6.133514
1211.998, 4.164886
1212.480, 4.372162
1212.963, 6.121338
1213.445, 7.010803
1213.927, 6.829834
1214.409, 6.621307
1214.891, 6.489014
1215.373, 6.052765
1215.855, 5.052826
1216.337, 4.356384
1216.819, 4.386597
1217.302, 4.837250
1217.784, 5.464539
1218.266, 5.990753
1218.748, 5.279419
1219.230, 3.669769
1219.712, 2.719147
1220.194, 2.518921
1220.676, 3.375519
1221.159, 5.066315
1221.641, 5.494080
1222.123, 3.453461
1222.605, 2.140320
1223.087, 6.385132
1223.569, 11.37018
1224.051, 11.41083
1224.533, 9.051971
1225.016, 6.746552
1225.498, 5.044800
1225.980, 4.650085
1226.462, 5.460388
1226.944, 6.351318
1227.426, 7.344147
1227.908, 7.179199
1228.390, 3.931458
1228.872, 1.282806
1229.354, 1.190704
1229.837, 1.892303
1230.319, 2.282074
1230.801, 2.365784
1231.283, 1.859375
1231.765, 0.8062130
1232.247, 0.7781370
1232.729, 2.033844
1233.211, 3.659515
1233.694, 5.937042
1234.176, 7.404816
1234.658, 7.505188
1235.140, 7.301758
1235.622, 7.618652
1236.104, 7.848328
1236.586, 6.744415
1237.068, 4.770477
1237.551, 3.997925
1238.033, 4.118866
1238.515, 3.555481
1238.997, 2.412567
1239.479, 2.007965
1239.961, 2.678375
1240.443, 3.801056
1240.925, 5.082825
1241.407, 6.152191
1241.890, 7.237213
1242.372, 7.332642
1242.854, 4.454132
1243.336, 0.7900390
1243.818, 1.757538
1244.300, 2.588257
1244.782, 6.7962997E-02
1245.264, 5.575562
1245.746, 8.358856
1246.229, 4.644135
1246.711, 1.837189
1247.193, 1.662964
1247.675, 1.931702
1248.157, 1.931885
1248.639, 2.139374
1249.121, 3.430634
1249.603, 4.560242
1250.085, 2.779266
1250.568, 1.578156
1251.050, 2.315948
1251.532, 0.9655460
1252.014, 3.709503
1252.496, 5.599792
1252.978, 5.833282
1253.460, 4.188446
1253.942, 2.879211
1254.425, 3.472748
1254.907, 5.010132
1255.389, 6.706696
1255.871, 8.024994
1256.353, 7.424927
1256.835, 5.978607
1257.317, 5.596191
1257.799, 6.198029
1258.281, 7.227570
1258.764, 8.312408
1259.246, 8.741089
1259.728, 8.163055
1260.210, 6.811249
1260.692, 2.920959
1261.174, 0.7603150
1261.656, 4.084473
1262.138, 8.133606
1262.620, 9.306519
1263.103, 8.781860
1263.585, 8.227539
1264.067, 7.779144
1264.549, 8.035248
1265.031, 9.694824
1265.513, 11.70459
1265.995, 13.49075
1266.477, 13.90759
1266.960, 12.57559
1267.442, 10.74664
1267.924, 8.372314
1268.406, 7.204742
1268.888, 10.77853
1269.370, 15.58423
1269.852, 14.66223
1270.334, 10.11029
1270.817, 6.564270
1271.299, 4.065125
1271.781, 1.295105
1272.263, 1.361938
1272.745, 1.126038
1273.227, 2.848022
1273.709, 6.158875
1274.191, 4.242859
1274.673, 2.801788
1275.156, 5.967041
1275.638, 9.190521
1276.120, 8.935120
1276.602, 7.493896
1277.084, 7.777618
1277.566, 9.168701
1278.048, 9.359680
1278.530, 8.051331
1279.012, 5.433960
1279.495, 5.991974
1279.977, 6.465454
1280.459, 6.790924
1280.941, 6.766510
1281.423, 6.280762
1281.905, 5.455688
1282.387, 4.788910
1282.869, 3.970032
1283.352, 2.917786
1283.834, 1.803772
1284.316, 0.7491460
1284.798, 0.0000000E+00
##END=



