##NAMES=Parabutlerite
##RRUFFID=R070547
##IDEAL CHEMISTRY=Fe^3+^SO_4_(OH)&#183;2H_2_O
##LOCALITY=Chuquicamata mine, Calama, El Loa Province, Antofogasta, Chile
##OWNER=RRUFF
##SOURCE=James Shigley
##DESCRIPTION=Granular aggregate of orange microcrystals
##STATUS=The identification of this mineral has been confirmed by single-crystal X-ray diffraction.
##URL=rruff.info/R070547
150.1554, 0.0000000E+00
150.6375, 9.507324
151.1196, 18.37915
151.6017, 3.701660
152.0838, 9.955811
152.5659, 2.218994
153.0481, 32.80835
153.5302, 59.97778
154.0123, 76.88159
154.4944, 90.26489
154.9765, 106.6147
155.4586, 122.5659
155.9408, 144.1868
156.4229, 175.0352
156.9050, 204.8005
157.3871, 213.3357
157.8692, 199.4287
158.3513, 180.7166
158.8335, 178.9976
159.3156, 226.1711
159.7977, 269.7568
160.2798, 283.4802
160.7619, 249.0176
161.2440, 223.4485
161.7262, 231.8743
162.2083, 261.6558
162.6904, 285.9631
163.1725, 288.8928
163.6546, 286.8088
164.1367, 290.0254
164.6189, 303.3013
165.1010, 317.9858
165.5831, 330.8867
166.0652, 341.9248
166.5473, 351.1853
167.0294, 353.0366
167.5116, 355.1021
167.9937, 364.7268
168.4758, 395.4719
168.9579, 423.2974
169.4400, 430.8835
169.9221, 419.7876
170.4043, 404.1023
170.8864, 381.0723
171.3685, 361.3831
171.8506, 359.0374
172.3327, 395.1628
172.8148, 441.0698
173.2970, 470.4221
173.7791, 482.7327
174.2612, 492.1743
174.7433, 508.7202
175.2254, 530.4985
175.7076, 554.0708
176.1897, 577.1560
176.6718, 601.5093
177.1539, 631.5042
177.6360, 668.5750
178.1181, 704.2314
178.6003, 730.2820
179.0824, 748.4749
179.5645, 763.5520
180.0466, 774.8242
180.5287, 785.6758
181.0108, 802.3833
181.4930, 826.1099
181.9751, 854.1223
182.4572, 885.9492
182.9393, 920.5679
183.4214, 950.4146
183.9035, 969.4775
184.3857, 980.0813
184.8678, 987.8228
185.3499, 992.0837
185.8320, 995.9177
186.3141, 1004.765
186.7962, 1018.449
187.2784, 1033.493
187.7605, 1049.962
188.2426, 1066.413
188.7247, 1076.384
189.2068, 1077.453
189.6889, 1072.354
190.1711, 1063.866
190.6532, 1051.553
191.1353, 1044.047
191.6174, 1048.616
192.0995, 1064.834
192.5816, 1090.813
193.0638, 1131.825
193.5459, 1180.458
194.0280, 1208.555
194.5101, 1213.599
194.9922, 1214.021
195.4743, 1226.679
195.9565, 1251.374
196.4386, 1284.453
196.9207, 1329.690
197.4028, 1383.680
197.8849, 1423.125
198.3671, 1446.127
198.8492, 1461.988
199.3313, 1479.228
199.8134, 1497.313
200.2955, 1522.636
200.7776, 1557.837
201.2598, 1602.649
201.7419, 1653.113
202.2240, 1710.746
202.7061, 1771.776
203.1882, 1831.410
203.6703, 1889.662
204.1525, 1946.760
204.6346, 2002.931
205.1167, 2058.023
205.5988, 2113.544
206.0809, 2170.867
206.5630, 2226.680
207.0452, 2272.035
207.5273, 2301.999
208.0094, 2333.719
208.4915, 2386.992
208.9736, 2466.938
209.4557, 2535.788
209.9379, 2593.305
210.4200, 2640.323
210.9021, 2677.515
211.3842, 2704.111
211.8663, 2723.324
212.3484, 2734.772
212.8306, 2735.906
213.3127, 2741.714
213.7948, 2756.728
214.2769, 2774.782
214.7590, 2777.324
215.2411, 2759.026
215.7233, 2736.671
216.2054, 2718.250
216.6875, 2702.845
217.1696, 2694.749
217.6517, 2695.893
218.1338, 2704.058
218.6160, 2711.216
219.0981, 2715.917
219.5802, 2721.966
220.0623, 2729.597
220.5444, 2733.569
221.0265, 2754.470
221.5087, 2799.725
221.9908, 2863.912
222.4729, 2914.984
222.9550, 2937.085
223.4371, 2971.605
223.9192, 3053.499
224.4014, 3208.885
224.8835, 3340.473
225.3656, 3429.458
225.8477, 3482.965
226.3298, 3547.886
226.8119, 3627.468
227.2941, 3714.447
227.7762, 3805.470
228.2583, 3899.374
228.7404, 3998.558
229.2225, 4101.488
229.7046, 4207.109
230.1868, 4321.679
230.6689, 4458.320
231.1510, 4586.225
231.6331, 4681.593
232.1152, 4733.522
232.5974, 4777.812
233.0795, 4823.209
233.5616, 4867.893
234.0437, 4885.884
234.5258, 4872.518
235.0079, 4840.622
235.4901, 4804.069
235.9722, 4781.737
236.4543, 4713.720
236.9364, 4575.785
237.4185, 4367.798
237.9006, 4190.463
238.3828, 4065.988
238.8649, 3951.417
239.3470, 3802.486
239.8291, 3594.582
240.3112, 3396.173
240.7933, 3225.775
241.2755, 3083.627
241.7576, 2929.264
242.2397, 2756.500
242.7218, 2577.730
243.2039, 2403.797
243.6860, 2231.399
244.1682, 2066.835
244.6503, 1911.235
245.1324, 1763.573
245.6145, 1636.342
246.0966, 1535.580
246.5787, 1449.958
247.0609, 1367.228
247.5430, 1283.924
248.0251, 1208.517
248.5072, 1145.136
248.9893, 1095.441
249.4714, 1040.586
249.9536, 976.2114
250.4357, 911.6121
250.9178, 857.9238
251.3999, 822.5088
251.8820, 779.8694
252.3641, 719.0979
252.8463, 638.9277
253.3284, 583.8484
253.8105, 561.5627
254.2926, 553.5364
254.7747, 541.3928
255.2568, 524.9578
255.7390, 504.9351
256.2211, 480.2920
256.7032, 451.1699
257.1853, 424.3179
257.6674, 398.2961
258.1495, 376.8032
258.6317, 365.5540
259.1138, 369.8538
259.5959, 369.9067
260.0780, 360.1138
260.5601, 339.9644
261.0422, 324.6003
261.5244, 314.7698
262.0065, 308.3506
262.4886, 303.0315
262.9707, 298.0593
263.4528, 298.6108
263.9349, 306.8594
264.4171, 322.3505
264.8992, 332.0159
265.3813, 337.3040
265.8634, 336.2339
266.3455, 324.7710
266.8276, 299.1635
267.3098, 275.3860
267.7919, 257.7695
268.2740, 246.3372
268.7561, 229.9078
269.2382, 206.2002
269.7203, 183.5630
270.2025, 172.5181
270.6846, 176.9481
271.1667, 176.5698
271.6488, 163.1765
272.1309, 137.4252
272.6130, 120.3594
273.0952, 115.5121
273.5773, 117.2782
274.0594, 122.3624
274.5415, 131.9365
275.0236, 128.5833
275.5057, 102.9858
275.9879, 59.13147
276.4700, 31.81482
276.9521, 24.63391
277.4342, 25.99597
277.9163, 25.07275
278.3984, 21.41199
278.8806, 16.67383
279.3627, 11.78674
279.8448, 6.309082
280.3269, 4.604248
280.8090, 22.78662
281.2911, 39.78381
281.7733, 47.25452
282.2554, 44.99890
282.7375, 40.70825
283.2196, 35.54944
283.7017, 29.83765
284.1838, 23.83923
284.6660, 16.90869
285.1481, 13.52808
285.6302, 21.20569
286.1123, 39.11560
286.5944, 50.31860
287.0765, 49.71545
287.5587, 40.69397
288.0408, 30.57373
288.5229, 18.76221
289.0050, 12.00012
289.4871, 20.46436
289.9692, 41.26929
290.4514, 54.40735
290.9335, 53.01416
291.4156, 44.23645
291.8977, 46.28552
292.3798, 59.09448
292.8619, 68.92322
293.3441, 62.73279
293.8262, 43.96716
294.3083, 24.99048
294.7904, 6.201172
295.2726, 9.251831
295.7547, 12.81616
296.2368, 5.548706
296.7189, 0.6331790
297.2010, 5.950195
297.6831, 20.08679
298.1653, 28.97083
298.6474, 29.86658
299.1295, 25.90186
299.6116, 18.04993
300.0937, 7.640015
300.5758, 1.197510
301.0580, 7.453125
301.5401, 19.68079
302.0222, 26.10571
302.5043, 24.13477
302.9864, 18.21521
303.4685, 10.08289
303.9507, 1.194092
304.4328, 3.123535
304.9149, 2.597412
305.3970, 13.66296
305.8791, 26.30261
306.3612, 41.84192
306.8434, 51.75818
307.3255, 40.45764
307.8076, 17.14771
308.2897, 2.802979
308.7718, 23.68286
309.2539, 50.30298
309.7361, 50.96497
310.2182, 18.23816
310.7003, 14.30444
311.1824, 22.53503
311.6645, 14.70325
312.1466, 4.989868
312.6288, 4.216064
313.1109, 10.54272
313.5930, 11.68774
314.0751, 7.154663
314.5572, 1.514526
315.0393, 5.598511
315.5215, 11.65820
316.0036, 13.44165
316.4857, 4.106445
316.9678, 5.005981
317.4499, 7.904785
317.9320, 4.187134
318.4142, 0.1582030
318.8963, 1.645752
319.3784, 3.191895
319.8605, 7.659546
320.3426, 24.64893
320.8247, 36.22327
321.3069, 33.21899
321.7890, 16.52307
322.2711, 2.989624
322.7532, 2.761963
323.2353, 4.159668
323.7174, 3.671509
324.1996, 0.3166500
324.6817, 4.033447
325.1638, 5.627197
325.6459, 5.737183
326.1280, 8.876221
326.6101, 19.91272
327.0923, 31.08801
327.5744, 38.09509
328.0565, 42.00671
328.5386, 40.22900
329.0207, 25.56445
329.5028, 3.765869
329.9850, 4.344604
330.4671, 15.88721
330.9492, 35.51965
331.4313, 42.04480
331.9134, 26.61523
332.3955, 14.31140
332.8777, 4.934326
333.3598, 1.221313
333.8419, 3.105591
334.3240, 3.782959
334.8061, 7.952515
335.2882, 4.318604
335.7704, 10.05029
336.2525, 21.17615
336.7346, 28.69849
337.2167, 33.35986
337.6988, 35.74390
338.1809, 34.47913
338.6631, 33.49719
339.1452, 32.41870
339.6273, 31.49451
340.1094, 41.70996
340.5915, 66.55908
341.0736, 96.24878
341.5558, 118.7577
342.0379, 134.1024
342.5200, 145.5586
343.0021, 152.0376
343.4842, 154.4191
343.9663, 160.6228
344.4485, 171.2076
344.9306, 185.7814
345.4127, 203.0352
345.8948, 223.2230
346.3769, 249.4508
346.8590, 284.0607
347.3412, 321.8815
347.8233, 352.2673
348.3054, 375.6350
348.7875, 394.5530
349.2696, 406.4766
349.7517, 413.8894
350.2339, 426.5620
350.7160, 446.9722
351.1981, 472.9062
351.6802, 501.3445
352.1623, 532.4615
352.6444, 568.0707
353.1266, 612.4922
353.6087, 659.6527
354.0908, 699.0912
354.5729, 728.1145
355.0550, 755.7939
355.5371, 789.0620
356.0193, 826.6143
356.5014, 865.6010
356.9835, 906.1851
357.4656, 946.1783
357.9477, 983.5177
358.4298, 1018.135
358.9120, 1051.411
359.3941, 1082.140
359.8762, 1112.009
360.3583, 1143.828
360.8404, 1182.133
361.3225, 1219.042
361.8047, 1252.937
362.2868, 1283.668
362.7689, 1306.578
363.2510, 1313.152
363.7331, 1314.420
364.2152, 1319.304
364.6974, 1340.411
365.1795, 1353.384
365.6616, 1346.525
366.1437, 1324.224
366.6258, 1310.358
367.1079, 1314.628
367.5901, 1322.681
368.0722, 1327.275
368.5543, 1327.572
369.0364, 1323.368
369.5185, 1316.739
370.0006, 1306.853
370.4828, 1290.805
370.9649, 1257.845
371.4470, 1230.287
371.9291, 1217.286
372.4112, 1226.093
372.8933, 1222.860
373.3755, 1199.535
373.8576, 1170.684
374.3397, 1157.422
374.8218, 1165.665
375.3039, 1174.707
375.7861, 1178.302
376.2682, 1176.435
376.7503, 1178.075
377.2324, 1182.619
377.7145, 1191.566
378.1967, 1209.164
378.6788, 1237.328
379.1609, 1256.760
379.6430, 1259.893
380.1251, 1254.857
380.6072, 1270.468
381.0894, 1308.180
381.5715, 1349.329
382.0536, 1379.552
382.5357, 1401.201
383.0178, 1425.195
383.4999, 1452.975
383.9821, 1484.421
384.4642, 1520.253
384.9463, 1560.397
385.4284, 1600.808
385.9105, 1641.777
386.3926, 1682.153
386.8748, 1717.972
387.3569, 1748.552
387.8390, 1783.245
388.3211, 1835.609
388.8032, 1897.674
389.2853, 1952.162
389.7675, 1978.220
390.2496, 2005.537
390.7317, 2066.735
391.2138, 2159.561
391.6959, 2244.134
392.1780, 2292.774
392.6602, 2324.075
393.1423, 2356.670
393.6244, 2393.037
394.1065, 2435.482
394.5886, 2490.779
395.0707, 2554.559
395.5529, 2612.041
396.0350, 2647.136
396.5171, 2682.860
396.9992, 2734.057
397.4813, 2816.861
397.9634, 2884.397
398.4456, 2922.324
398.9277, 2942.461
399.4098, 2965.976
399.8919, 3006.328
400.3740, 3038.129
400.8561, 3055.103
401.3383, 3056.065
401.8204, 3048.830
402.3025, 3031.382
402.7846, 3007.590
403.2667, 2982.117
403.7488, 2960.390
404.2310, 2924.750
404.7131, 2866.777
405.1952, 2792.115
405.6773, 2731.088
406.1594, 2687.099
406.6415, 2647.812
407.1237, 2609.984
407.6058, 2575.534
408.0879, 2518.210
408.5700, 2430.978
409.0521, 2326.822
409.5342, 2228.344
410.0164, 2135.863
410.4985, 2051.633
410.9806, 1984.078
411.4627, 1926.504
411.9448, 1852.672
412.4269, 1759.962
412.9091, 1664.414
413.3912, 1587.382
413.8733, 1522.914
414.3554, 1456.667
414.8375, 1382.377
415.3196, 1305.475
415.8018, 1232.246
416.2839, 1163.022
416.7660, 1094.682
417.2481, 1020.239
417.7302, 949.2954
418.2123, 894.4497
418.6945, 866.6787
419.1766, 840.4895
419.6587, 803.7158
420.1408, 757.9128
420.6229, 707.2917
421.1050, 643.9277
421.5872, 584.0366
422.0693, 535.4495
422.5514, 500.6775
423.0335, 470.7852
423.5156, 447.8567
423.9977, 427.0337
424.4799, 402.6328
424.9620, 370.0952
425.4441, 338.7620
425.9262, 309.4094
426.4083, 282.1504
426.8904, 257.1077
427.3726, 235.4375
427.8547, 214.3804
428.3368, 191.8003
428.8189, 164.6665
429.3010, 142.6543
429.7831, 125.5254
430.2653, 114.0715
430.7474, 111.7048
431.2295, 121.1619
431.7116, 129.7461
432.1937, 132.3210
432.6758, 129.0930
433.1580, 122.1694
433.6401, 109.7988
434.1222, 100.5186
434.6043, 104.5239
435.0864, 120.8181
435.5685, 142.9346
436.0507, 172.3240
436.5328, 203.5049
437.0149, 223.6826
437.4970, 234.1123
437.9791, 245.2869
438.4612, 266.3892
438.9434, 292.2983
439.4255, 314.7610
439.9076, 331.4829
440.3897, 348.0696
440.8718, 366.1604
441.3539, 388.2415
441.8361, 418.1265
442.3182, 460.5615
442.8003, 508.8779
443.2824, 562.3611
443.7645, 621.0969
444.2466, 675.2449
444.7288, 713.1245
445.2109, 748.1211
445.6930, 789.3730
446.1751, 850.5142
446.6572, 908.0188
447.1393, 954.5962
447.6215, 994.5020
448.1036, 1047.240
448.5857, 1124.915
449.0678, 1202.128
449.5499, 1269.833
450.0320, 1324.239
450.5142, 1378.403
450.9963, 1428.412
451.4784, 1482.275
451.9605, 1552.507
452.4426, 1645.725
452.9247, 1734.926
453.4069, 1813.562
453.8890, 1883.842
454.3711, 1956.943
454.8532, 2033.697
455.3353, 2108.568
455.8174, 2173.065
456.2996, 2230.582
456.7817, 2299.923
457.2638, 2386.271
457.7459, 2477.425
458.2281, 2560.243
458.7102, 2634.149
459.1923, 2700.512
459.6744, 2751.922
460.1565, 2799.632
460.6386, 2860.164
461.1208, 2934.905
461.6029, 3003.659
462.0850, 3049.910
462.5671, 3084.008
463.0492, 3117.339
463.5313, 3160.959
464.0135, 3196.463
464.4956, 3215.165
464.9777, 3219.366
465.4598, 3214.695
465.9419, 3203.864
466.4240, 3183.660
466.9062, 3151.415
467.3883, 3103.431
467.8704, 3053.375
468.3525, 3009.810
468.8346, 2959.904
469.3167, 2887.954
469.7989, 2780.775
470.2810, 2673.183
470.7631, 2565.991
471.2452, 2461.520
471.7273, 2377.632
472.2094, 2324.429
472.6916, 2267.110
473.1737, 2177.806
473.6558, 2054.645
474.1379, 1946.401
474.6200, 1856.704
475.1021, 1778.475
475.5843, 1705.469
476.0664, 1636.424
476.5485, 1557.731
477.0306, 1454.214
477.5127, 1342.335
477.9948, 1256.752
478.4770, 1196.419
478.9591, 1144.190
479.4412, 1092.857
479.9233, 1039.232
480.4054, 977.5890
480.8875, 901.5161
481.3697, 829.2008
481.8518, 774.5823
482.3339, 732.3704
482.8160, 691.8870
483.2981, 646.6707
483.7802, 603.8499
484.2624, 569.4880
484.7445, 544.2666
485.2266, 516.2272
485.7087, 477.2930
486.1908, 438.1241
486.6729, 407.5812
487.1551, 397.8470
487.6372, 378.7968
488.1193, 343.0311
488.6014, 298.2246
489.0835, 264.0002
489.5656, 245.0000
490.0478, 226.3186
490.5299, 199.8047
491.0120, 164.7244
491.4941, 143.6742
491.9762, 140.2711
492.4583, 138.8939
492.9405, 119.4253
493.4226, 83.98523
493.9047, 56.30054
494.3868, 42.87671
494.8689, 37.60767
495.3510, 30.62659
495.8332, 22.34668
496.3153, 15.00232
496.7974, 12.65308
497.2795, 10.63782
497.7616, 1.556396
498.2437, 16.03394
498.7259, 31.44775
499.2080, 35.74707
499.6901, 34.77661
500.1722, 35.51624
500.6543, 42.33716
501.1364, 48.88782
501.6186, 56.65784
502.1007, 63.38806
502.5828, 60.40649
503.0649, 23.79150
503.5470, 3.408691
504.0291, 0.8249510
504.5113, 51.76953
504.9934, 82.38611
505.4755, 84.71765
505.9576, 73.87878
506.4397, 65.47583
506.9218, 60.56262
507.4040, 54.72083
507.8861, 46.50464
508.3682, 37.14172
508.8503, 31.04565
509.3324, 28.50037
509.8145, 26.82898
510.2967, 25.48181
510.7788, 23.90063
511.2609, 20.10132
511.7430, 14.15637
512.2252, 4.896240
512.7073, 12.78687
513.1894, 34.51111
513.6715, 50.71704
514.1536, 55.98633
514.6357, 56.99268
515.1179, 56.82935
515.6000, 56.52881
516.0821, 59.80432
516.5642, 70.50940
517.0463, 83.93567
517.5284, 97.14636
518.0106, 108.9222
518.4927, 122.5891
518.9748, 141.3398
519.4569, 161.4691
519.9390, 178.5824
520.4211, 186.5055
520.9033, 200.2802
521.3854, 222.8364
521.8675, 251.5070
522.3496, 278.7872
522.8317, 306.2511
523.3138, 329.2985
523.7960, 341.4656
524.2781, 342.3752
524.7602, 360.7416
525.2423, 398.8018
525.7244, 445.1793
526.2065, 490.3041
526.6887, 533.4246
527.1708, 572.1803
527.6529, 604.1208
528.1350, 633.7816
528.6171, 663.3143
529.0992, 695.0652
529.5814, 736.7839
530.0635, 799.8816
530.5456, 870.4258
531.0277, 940.1958
531.5098, 1008.437
531.9919, 1067.737
532.4741, 1104.721
532.9562, 1136.745
533.4383, 1179.401
533.9204, 1239.198
534.4025, 1305.409
534.8846, 1380.938
535.3668, 1462.169
535.8489, 1536.238
536.3310, 1596.586
536.8131, 1661.550
537.2952, 1740.305
537.7773, 1833.011
538.2595, 1913.719
538.7416, 1981.010
539.2237, 2042.619
539.7058, 2103.950
540.1879, 2165.711
540.6700, 2226.029
541.1522, 2285.196
541.6343, 2341.270
542.1164, 2390.678
542.5985, 2433.603
543.0806, 2470.933
543.5627, 2497.594
544.0449, 2521.990
544.5270, 2559.436
545.0091, 2607.176
545.4912, 2641.460
545.9733, 2643.554
546.4554, 2629.548
546.9376, 2612.594
547.4197, 2598.141
547.9018, 2573.300
548.3839, 2533.750
548.8660, 2482.461
549.3481, 2423.246
549.8303, 2353.217
550.3124, 2279.503
550.7945, 2201.647
551.2766, 2121.095
551.7587, 2041.550
552.2408, 1962.977
552.7230, 1885.572
553.2051, 1812.244
553.6872, 1743.411
554.1693, 1660.170
554.6514, 1559.823
555.1335, 1455.584
555.6157, 1362.403
556.0978, 1277.904
556.5799, 1197.549
557.0620, 1121.579
557.5441, 1048.598
558.0262, 975.3030
558.5084, 902.7559
558.9905, 834.5400
559.4726, 772.1350
559.9547, 714.1946
560.4368, 661.6042
560.9189, 616.7251
561.4011, 572.5676
561.8832, 520.3165
562.3653, 467.3445
562.8474, 421.2743
563.3295, 394.1879
563.8116, 364.3311
564.2938, 327.9038
564.7759, 290.1852
565.2580, 260.8215
565.7401, 243.9540
566.2222, 224.1029
566.7043, 193.5597
567.1865, 156.4103
567.6686, 136.8452
568.1507, 136.2800
568.6328, 135.4976
569.1149, 116.6522
569.5970, 87.05005
570.0792, 71.34631
570.5613, 73.16455
571.0434, 77.43457
571.5255, 69.44092
572.0076, 54.73975
572.4897, 42.07239
572.9719, 36.37634
573.4540, 31.08325
573.9361, 21.14783
574.4182, 8.769897
574.9003, 0.1258540
575.3824, 0.7719730
575.8646, 0.5538330
576.3467, 2.375122
576.8288, 6.618042
577.3109, 9.938354
577.7930, 14.59888
578.2751, 15.64062
578.7573, 7.637695
579.2394, 13.11658
579.7215, 25.51575
580.2036, 26.90247
580.6857, 22.38135
581.1678, 17.98291
581.6500, 14.03833
582.1321, 14.62085
582.6142, 22.02881
583.0963, 34.10889
583.5784, 50.28137
584.0605, 69.10828
584.5427, 83.53528
585.0248, 82.36633
585.5069, 78.78711
585.9890, 86.57300
586.4711, 108.4814
586.9532, 128.5131
587.4354, 135.3124
587.9175, 139.8781
588.3996, 151.6796
588.8817, 179.7065
589.3638, 205.4716
589.8459, 229.1281
590.3281, 249.6532
590.8102, 264.5049
591.2923, 269.6436
591.7744, 279.1161
592.2565, 297.5237
592.7386, 323.4512
593.2208, 350.8822
593.7029, 380.2725
594.1850, 407.1801
594.6671, 426.7151
595.1492, 441.1779
595.6313, 457.8179
596.1135, 477.8496
596.5956, 495.4380
597.0777, 503.3380
597.5598, 506.2476
598.0419, 511.1748
598.5240, 522.9836
599.0062, 533.5724
599.4883, 543.2513
599.9704, 549.0188
600.4525, 543.9943
600.9346, 513.8732
601.4167, 485.9136
601.8989, 468.6533
602.3810, 462.1011
602.8631, 453.5742
603.3452, 443.6055
603.8273, 430.6783
604.3094, 412.1631
604.7916, 387.0061
605.2737, 366.4661
605.7558, 351.0730
606.2379, 339.2074
606.7200, 329.9246
607.2021, 322.3661
607.6843, 313.1499
608.1664, 300.1321
608.6485, 287.2465
609.1306, 278.4038
609.6127, 273.1719
610.0948, 269.8302
610.5770, 268.3226
611.0591, 266.1106
611.5412, 263.2902
612.0233, 260.1030
612.5054, 256.6965
612.9875, 257.4470
613.4697, 254.3040
613.9518, 241.0264
614.4339, 209.1655
614.9160, 196.5638
615.3981, 211.4977
615.8802, 232.8712
616.3624, 236.5872
616.8445, 221.8113
617.3266, 208.0437
617.8087, 198.6471
618.2908, 192.8079
618.7729, 188.4672
619.2551, 184.9525
619.7372, 181.9635
620.2193, 181.0269
620.7014, 180.5822
621.1835, 179.0060
621.6656, 176.5284
622.1478, 173.8715
622.6299, 170.9874
623.1120, 166.9385
623.5941, 162.0712
624.0762, 156.8475
624.5583, 150.0970
625.0405, 137.9604
625.5226, 126.8287
626.0047, 122.8217
626.4868, 130.1888
626.9689, 132.0496
627.4510, 125.5698
627.9332, 114.3632
628.4153, 103.3188
628.8974, 92.55530
629.3795, 87.62878
629.8616, 93.26147
630.3438, 102.2484
630.8259, 102.0927
631.3080, 94.30090
631.7901, 86.79309
632.2722, 86.51465
632.7543, 86.79272
633.2365, 81.38086
633.7186, 69.42480
634.2007, 58.93591
634.6828, 54.12366
635.1649, 50.90015
635.6470, 46.12231
636.1292, 38.03577
636.6113, 31.77417
637.0934, 26.84973
637.5755, 24.38171
638.0576, 27.95105
638.5397, 38.86731
639.0219, 47.20459
639.5040, 50.56604
639.9861, 50.66724
640.4682, 49.84253
640.9503, 48.38977
641.4324, 49.36499
641.9146, 60.93127
642.3967, 72.09216
642.8788, 64.11182
643.3609, 39.13220
643.8430, 20.08850
644.3251, 26.05591
644.8073, 38.53284
645.2894, 44.29053
645.7715, 39.19507
646.2536, 36.00671
646.7357, 40.89343
647.2178, 45.27771
647.7000, 41.36584
648.1821, 24.07788
648.6642, 11.81995
649.1463, 6.184326
649.6284, 6.152100
650.1105, 12.98596
650.5927, 26.42505
651.0748, 34.15833
651.5569, 27.44666
652.0390, 16.31763
652.5211, 20.98462
653.0032, 37.71826
653.4854, 50.44836
653.9675, 48.03271
654.4496, 39.65552
654.9317, 30.47827
655.4138, 20.99536
655.8959, 14.87122
656.3781, 15.86438
656.8602, 18.77930
657.3423, 20.57837
657.8244, 20.90503
658.3065, 20.90662
658.7886, 20.29138
659.2708, 19.72546
659.7529, 20.72559
660.2350, 23.62268
660.7171, 22.37329
661.1992, 14.33679
661.6813, 5.617798
662.1635, 7.934204
662.6456, 18.48633
663.1277, 27.36597
663.6099, 31.03638
664.0920, 30.59631
664.5741, 25.46277
665.0562, 16.73438
665.5383, 8.255371
666.0204, 0.7780760
666.5026, 5.416992
666.9847, 11.42700
667.4668, 17.72791
667.9489, 16.09338
668.4310, 0.4729000
668.9131, 15.36487
669.3953, 17.16199
669.8774, 3.553223
670.3595, 4.506836
670.8416, 5.904053
671.3237, 4.976074
671.8058, 7.772949
672.2880, 12.35352
672.7701, 11.45947
673.2522, 1.626221
673.7343, 8.419067
674.2164, 10.83630
674.6985, 7.877808
675.1807, 3.298950
675.6628, 6.502319
676.1449, 12.23364
676.6270, 7.396606
677.1091, 4.597900
677.5912, 11.09644
678.0734, 9.290894
678.5555, 5.377441
679.0376, 0.4138180
679.5197, 7.354370
680.0018, 7.176758
680.4839, 1.448730
680.9661, 8.805542
681.4482, 6.834473
681.9303, 1.315918
682.4124, 6.287964
682.8945, 7.634766
683.3766, 6.984985
683.8588, 5.312866
684.3409, 2.600952
684.8230, 2.002197
685.3051, 10.65161
685.7872, 15.32666
686.2693, 7.436157
686.7515, 3.416931
687.2336, 5.393066
687.7157, 8.203857
688.1978, 19.73663
688.6799, 28.17334
689.1620, 33.63043
689.6442, 35.46838
690.1263, 33.51996
690.6084, 31.05255
691.0905, 28.87140
691.5726, 27.02844
692.0547, 24.00208
692.5369, 20.74432
693.0190, 21.86292
693.5011, 39.69238
693.9832, 55.65613
694.4653, 49.17615
694.9474, 22.07336
695.4296, 3.828552
695.9117, 12.65753
696.3938, 25.74188
696.8759, 31.07306
697.3580, 26.93127
697.8401, 23.69714
698.3223, 20.48608
698.8044, 19.63684
699.2865, 24.77417
699.7686, 35.75543
700.2507, 42.14093
700.7328, 42.68994
701.2150, 40.22162
701.6971, 37.13586
702.1792, 33.53809
702.6613, 28.86005
703.1434, 19.86548
703.6255, 15.97687
704.1077, 27.32288
704.5898, 46.78711
705.0719, 62.98114
705.5540, 77.09100
706.0361, 82.81116
706.5182, 77.60876
707.0004, 63.73193
707.4825, 44.92297
707.9646, 16.97418
708.4467, 0.1907350
708.9288, 4.507996
709.4109, 24.04681
709.8931, 32.50763
710.3752, 30.58514
710.8573, 27.84509
711.3394, 31.96497
711.8215, 37.77856
712.3036, 37.87195
712.7858, 32.24243
713.2679, 28.08069
713.7500, 30.31244
714.2321, 34.15344
714.7142, 36.43427
715.1964, 35.90546
715.6785, 36.38324
716.1606, 37.07599
716.6427, 39.63464
717.1248, 47.21362
717.6069, 60.93530
718.0891, 67.33911
718.5712, 64.51392
719.0533, 56.96613
719.5354, 47.59534
720.0175, 38.15222
720.4996, 33.42908
720.9818, 35.55182
721.4639, 40.52673
721.9460, 48.66882
722.4281, 56.88367
722.9102, 60.04907
723.3923, 51.54456
723.8745, 43.85999
724.3566, 38.77179
724.8387, 35.98596
725.3208, 35.91510
725.8029, 39.87579
726.2850, 46.04327
726.7672, 54.21625
727.2493, 62.26642
727.7314, 61.55078
728.2135, 52.52649
728.6956, 45.04517
729.1777, 47.53705
729.6599, 52.84467
730.1420, 52.85492
730.6241, 48.14758
731.1062, 42.98749
731.5883, 37.71350
732.0704, 32.88440
732.5526, 28.41956
733.0347, 23.77484
733.5168, 22.81311
733.9989, 28.87561
734.4810, 34.90991
734.9631, 36.10547
735.4453, 31.71375
735.9274, 24.64325
736.4095, 13.75653
736.8916, 5.534912
737.3737, 9.357178
737.8558, 21.03644
738.3380, 33.06244
738.8201, 44.86084
739.3022, 50.84155
739.7843, 42.02759
740.2664, 27.35126
740.7485, 17.16602
741.2307, 19.44232
741.7128, 19.39417
742.1949, 13.31116
742.6770, 6.308777
743.1591, 6.515076
743.6412, 15.23389
744.1234, 24.63971
744.6055, 34.60205
745.0876, 41.51526
745.5697, 32.53540
746.0518, 12.70947
746.5339, 3.486206
747.0161, 25.45160
747.4982, 50.13818
747.9803, 51.31903
748.4624, 36.18927
748.9445, 26.32971
749.4266, 34.31427
749.9088, 40.67261
750.3909, 38.59894
750.8730, 29.93262
751.3551, 25.38965
751.8372, 26.55920
752.3193, 27.04089
752.8015, 22.30475
753.2836, 14.54132
753.7657, 14.80511
754.2478, 22.61945
754.7299, 31.00635
755.2120, 36.44055
755.6942, 39.06323
756.1763, 37.26508
756.6584, 31.07465
757.1405, 27.69208
757.6226, 35.29010
758.1047, 42.01361
758.5869, 38.93182
759.0690, 22.26520
759.5511, 15.42163
760.0332, 21.63538
760.5153, 30.82245
760.9974, 36.02014
761.4796, 37.40088
761.9617, 35.02991
762.4438, 28.59778
762.9259, 21.87463
763.4080, 18.47321
763.8901, 17.18201
764.3723, 16.10046
764.8544, 14.23456
765.3365, 14.60004
765.8186, 23.00549
766.3007, 31.51276
766.7828, 31.46265
767.2650, 13.52637
767.7471, 5.736877
768.2292, 11.72314
768.7113, 24.22314
769.1934, 36.39282
769.6755, 47.69824
770.1577, 49.04681
770.6398, 35.43665
771.1219, 19.59766
771.6040, 18.03168
772.0861, 25.36688
772.5682, 31.94226
773.0504, 35.38239
773.5325, 36.03296
774.0146, 30.72021
774.4967, 23.30524
774.9788, 22.18219
775.4609, 33.76709
775.9431, 39.66180
776.4252, 34.37909
776.9073, 22.87592
777.3894, 17.04822
777.8715, 16.67322
778.3536, 17.27075
778.8358, 17.74799
779.3179, 17.67456
779.8000, 16.42493
780.2821, 14.12213
780.7642, 11.18518
781.2463, 0.1973880
781.7285, 3.755981
782.2106, 13.89722
782.6927, 47.16339
783.1748, 59.67310
783.6569, 39.24567
784.1390, 22.30219
784.6212, 23.45605
785.1033, 36.83136
785.5854, 33.00183
786.0675, 12.90265
786.5496, 3.378357
787.0317, 0.5444950
787.5139, 10.72931
787.9960, 20.11926
788.4781, 26.98901
788.9602, 29.69806
789.4423, 21.00702
789.9244, 13.92346
790.4066, 17.27814
790.8887, 30.92078
791.3708, 37.56244
791.8529, 36.28516
792.3350, 29.89655
792.8171, 15.49737
793.2993, 3.991394
793.7814, 4.869568
794.2635, 12.43140
794.7456, 28.44836
795.2277, 26.35779
795.7098, 17.66010
796.1920, 15.14661
796.6741, 19.69861
797.1562, 22.11554
797.6383, 18.34937
798.1204, 12.11835
798.6025, 4.694885
799.0847, 4.502686
799.5668, 9.000366
800.0489, 8.296692
800.5310, 4.835571
801.0131, 1.657288
801.4952, 9.723633
801.9774, 11.91711
802.4595, 7.747864
802.9416, 2.554199
803.4237, 1.882019
803.9058, 4.029358
804.3879, 0.3671880
804.8701, 11.97138
805.3522, 17.38995
805.8343, 2.797729
806.3164, 11.55365
806.7985, 13.26544
807.2806, 1.032898
807.7628, 11.51703
808.2449, 18.18549
808.7270, 21.12805
809.2091, 18.19794
809.6912, 11.84717
810.1733, 8.360901
810.6555, 8.672363
811.1376, 9.052185
811.6197, 5.714966
812.1018, 2.107361
812.5839, 1.115173
813.0660, 3.486206
813.5482, 8.493591
814.0303, 20.33167
814.5124, 29.42462
814.9945, 25.49219
815.4766, 7.770325
815.9587, 3.882568
816.4409, 8.037720
816.9230, 7.656799
817.4051, 3.511902
817.8872, 2.395386
818.3693, 5.905823
818.8514, 5.158203
819.3336, 7.557556
819.8157, 23.88300
820.2978, 40.41528
820.7799, 43.74402
821.2620, 26.17310
821.7441, 13.50629
822.2263, 5.685547
822.7084, 2.647644
823.1905, 6.848999
823.6726, 16.76917
824.1547, 21.53717
824.6368, 19.47852
825.1190, 15.19427
825.6011, 12.11292
826.0832, 9.560547
826.5653, 6.505981
827.0474, 1.846741
827.5295, 1.063416
828.0117, 0.4724730
828.4938, 2.726624
828.9760, 2.544678
829.4581, 0.9416500
829.9402, 2.197571
830.4223, 0.5802610
830.9044, 1.849243
831.3865, 3.796021
831.8687, 4.722839
832.3508, 2.194885
832.8329, 5.175903
833.3150, 9.811951
833.7971, 3.560120
834.2792, 5.673767
834.7614, 10.38684
835.2435, 6.740356
835.7256, 4.345337
836.2077, 3.273926
836.6898, 3.247437
837.1719, 4.554443
837.6541, 7.152771
838.1362, 8.449280
838.6183, 8.013611
839.1004, 7.910095
839.5825, 10.72076
840.0646, 15.21625
840.5468, 19.51013
841.0289, 23.57422
841.5110, 25.94659
841.9931, 25.88751
842.4752, 24.04901
842.9573, 20.27502
843.4395, 12.60846
843.9216, 10.85980
844.4037, 15.89417
844.8858, 23.05414
845.3679, 29.50250
845.8500, 34.38843
846.3322, 34.57123
846.8143, 29.46545
847.2964, 23.45990
847.7785, 15.48907
848.2606, 10.69183
848.7427, 15.07025
849.2249, 34.64502
849.7070, 44.15845
850.1891, 38.41919
850.6712, 29.46588
851.1533, 26.23584
851.6354, 28.54474
852.1176, 25.38257
852.5997, 16.08624
853.0818, 7.208496
853.5639, 2.673157
854.0460, 2.483337
854.5281, 10.01605
855.0103, 26.60901
855.4924, 34.84137
855.9745, 16.68921
856.4566, 0.4558720
856.9387, 0.5571290
857.4208, 18.28296
857.9030, 29.15344
858.3851, 31.08862
858.8672, 30.45807
859.3493, 30.37244
859.8314, 31.26355
860.3135, 35.76117
860.7957, 43.34888
861.2778, 47.30591
861.7599, 40.61542
862.2420, 31.94977
862.7241, 26.13354
863.2062, 23.74164
863.6884, 21.51599
864.1705, 16.62842
864.6526, 16.97919
865.1347, 30.55035
865.6168, 52.63629
866.0989, 61.06415
866.5811, 56.68134
867.0632, 49.68835
867.5453, 45.22345
868.0274, 41.92426
868.5095, 37.66510
868.9916, 33.01910
869.4738, 31.95337
869.9559, 41.23047
870.4380, 47.50000
870.9201, 46.15759
871.4022, 39.12970
871.8843, 33.29468
872.3665, 28.45886
872.8486, 29.25903
873.3307, 43.35754
873.8128, 59.27722
874.2949, 57.86877
874.7770, 44.36298
875.2592, 33.15747
875.7413, 30.86853
876.2234, 30.52991
876.7055, 28.53906
877.1876, 27.09839
877.6697, 33.69641
878.1519, 51.74695
878.6340, 62.94421
879.1161, 60.35583
879.5982, 51.34845
880.0803, 50.01819
880.5624, 53.70435
881.0446, 54.61530
881.5267, 45.50653
882.0088, 39.17926
882.4909, 45.06537
882.9730, 56.61359
883.4551, 62.88318
883.9373, 60.09747
884.4194, 60.45398
884.9015, 66.24115
885.3836, 72.99841
885.8657, 74.35999
886.3478, 71.21588
886.8300, 66.51282
887.3121, 60.18127
887.7942, 55.08069
888.2763, 53.98785
888.7584, 54.96313
889.2405, 55.99219
889.7227, 56.83118
890.2048, 57.32782
890.6869, 56.61566
891.1690, 56.24591
891.6511, 59.74976
892.1332, 66.46503
892.6154, 65.57452
893.0975, 55.31104
893.5796, 47.99231
894.0617, 61.05499
894.5438, 78.48602
895.0259, 80.60138
895.5081, 62.15753
895.9902, 50.50714
896.4723, 58.74005
896.9544, 67.58960
897.4365, 66.02435
897.9186, 54.35199
898.4008, 53.97937
898.8829, 65.70618
899.3650, 77.08649
899.8471, 79.33344
900.3292, 75.05652
900.8113, 64.06610
901.2935, 48.61145
901.7756, 41.33435
902.2577, 55.53156
902.7398, 69.85437
903.2219, 75.54608
903.7040, 74.58075
904.1862, 78.41962
904.6683, 88.11835
905.1504, 95.96741
905.6325, 95.52936
906.1146, 91.97675
906.5967, 94.92041
907.0789, 102.8425
907.5610, 110.3708
908.0431, 117.1489
908.5252, 121.5002
909.0073, 122.7822
909.4894, 121.5223
909.9716, 116.8373
910.4537, 105.9728
910.9358, 102.9435
911.4179, 112.9426
911.9000, 125.3105
912.3821, 120.9207
912.8643, 107.2099
913.3464, 99.81573
913.8285, 103.7280
914.3106, 110.2641
914.7927, 120.0660
915.2748, 128.5645
915.7570, 130.6572
916.2391, 124.5579
916.7212, 116.6263
917.2033, 105.4384
917.6854, 97.21887
918.1675, 100.9293
918.6497, 112.1761
919.1318, 120.5278
919.6139, 124.8989
920.0960, 124.6487
920.5781, 111.4323
921.0602, 99.74390
921.5424, 102.9600
922.0245, 123.4114
922.5066, 130.2860
922.9887, 118.9181
923.4708, 107.7022
923.9529, 108.9920
924.4351, 117.5947
924.9172, 117.7388
925.3993, 110.6399
925.8814, 103.5094
926.3635, 100.5326
926.8456, 98.45837
927.3278, 95.76013
927.8099, 92.51080
928.2920, 88.68488
928.7741, 82.40094
929.2562, 81.17999
929.7383, 89.53345
930.2205, 100.3326
930.7026, 96.48468
931.1847, 82.24634
931.6668, 71.15759
932.1489, 67.71179
932.6310, 68.45984
933.1132, 74.50049
933.5953, 82.41003
934.0774, 87.69873
934.5595, 93.07465
935.0416, 87.42578
935.5237, 65.74030
936.0059, 44.07654
936.4880, 44.25183
936.9701, 59.02570
937.4522, 66.51489
937.9343, 63.73639
938.4164, 58.32507
938.8986, 52.62122
939.3807, 47.94177
939.8628, 46.21802
940.3449, 48.30530
940.8270, 45.89893
941.3091, 36.61450
941.7913, 29.70459
942.2734, 33.03809
942.7555, 42.42847
943.2376, 46.13721
943.7197, 44.71130
944.2018, 41.57385
944.6840, 36.34741
945.1661, 32.08496
945.6482, 31.13086
946.1303, 32.59888
946.6124, 32.84534
947.0945, 31.47607
947.5767, 30.40674
948.0588, 30.59314
948.5409, 30.48450
949.0230, 26.43616
949.5051, 19.85730
949.9872, 14.17639
950.4694, 9.882080
950.9515, 7.801758
951.4336, 10.64612
951.9157, 14.78699
952.3978, 15.87244
952.8799, 12.44751
953.3621, 10.87830
953.8442, 11.98779
954.3263, 12.42065
954.8084, 8.615967
955.2905, 1.716675
955.7726, 7.911377
956.2548, 20.21326
956.7369, 27.15332
957.2190, 20.03333
957.7011, 11.12744
958.1832, 7.544678
958.6653, 8.847168
959.1475, 6.052490
959.6296, 1.746826
960.1117, 7.260498
960.5938, 7.587891
961.0759, 2.826660
961.5580, 12.65198
962.0402, 33.04602
962.5223, 42.99878
963.0044, 27.57104
963.4865, 11.50220
963.9686, 1.330933
964.4507, 9.935669
964.9329, 11.59424
965.4150, 6.104980
965.8971, 2.538330
966.3792, 14.82251
966.8613, 25.14136
967.3434, 26.64502
967.8256, 22.46802
968.3077, 15.28906
968.7898, 2.757202
969.2719, 1.122314
969.7540, 15.95618
970.2361, 31.37280
970.7183, 30.22791
971.2004, 13.21191
971.6825, 2.706299
972.1646, 1.439209
972.6467, 5.560059
973.1288, 15.66907
973.6110, 26.24915
974.0931, 31.85962
974.5752, 33.16040
975.0573, 34.06836
975.5394, 33.21448
976.0215, 35.49011
976.5037, 42.98071
976.9858, 53.13367
977.4679, 60.11926
977.9500, 64.77917
978.4321, 70.74084
978.9142, 78.71460
979.3964, 89.30847
979.8785, 105.4906
980.3606, 123.2515
980.8427, 137.7969
981.3248, 146.6654
981.8069, 158.2573
982.2891, 174.0408
982.7712, 189.3916
983.2533, 197.0087
983.7354, 201.6842
984.2175, 222.3112
984.6996, 257.4841
985.1818, 282.1431
985.6639, 265.6958
986.1460, 250.6793
986.6281, 264.6025
987.1102, 300.5454
987.5923, 328.2242
988.0745, 347.5017
988.5566, 358.9575
989.0387, 360.0216
989.5208, 357.7550
990.0029, 363.5428
990.4850, 374.3256
990.9672, 383.4514
991.4493, 383.6631
991.9314, 390.9928
992.4135, 411.8079
992.8957, 438.8794
993.3778, 466.7389
993.8599, 495.3035
994.3420, 526.1969
994.8242, 559.8101
995.3063, 591.7501
995.7884, 612.6398
996.2705, 634.3086
996.7526, 673.1128
997.2347, 728.8027
997.7169, 771.9897
998.1990, 784.9780
998.6811, 809.0527
999.1632, 859.9119
999.6453, 929.2349
1000.127, 990.5115
1000.610, 1046.917
1001.092, 1112.261
1001.574, 1195.048
1002.056, 1282.495
1002.538, 1366.922
1003.020, 1450.503
1003.502, 1535.820
1003.984, 1619.161
1004.466, 1713.587
1004.949, 1820.615
1005.431, 1932.525
1005.913, 2041.087
1006.395, 2147.812
1006.877, 2255.576
1007.359, 2364.078
1007.841, 2473.100
1008.323, 2587.516
1008.806, 2695.309
1009.288, 2788.159
1009.770, 2869.157
1010.252, 2963.729
1010.734, 3071.885
1011.216, 3163.667
1011.698, 3225.231
1012.180, 3272.112
1012.662, 3323.872
1013.145, 3372.462
1013.627, 3405.322
1014.109, 3413.797
1014.591, 3412.750
1015.073, 3398.347
1015.555, 3384.644
1016.037, 3385.060
1016.519, 3397.552
1017.002, 3412.343
1017.484, 3429.497
1017.966, 3452.417
1018.448, 3486.367
1018.930, 3524.022
1019.412, 3560.021
1019.894, 3594.579
1020.376, 3632.759
1020.858, 3676.151
1021.341, 3724.852
1021.823, 3783.018
1022.305, 3838.138
1022.787, 3869.660
1023.269, 3883.415
1023.751, 3893.463
1024.233, 3922.615
1024.715, 3908.152
1025.198, 3816.762
1025.680, 3696.231
1026.162, 3579.013
1026.644, 3466.052
1027.126, 3344.301
1027.608, 3211.624
1028.090, 3073.414
1028.572, 2937.822
1029.054, 2794.845
1029.536, 2629.042
1030.019, 2445.124
1030.501, 2276.931
1030.983, 2129.104
1031.465, 1989.168
1031.947, 1855.160
1032.429, 1727.542
1032.911, 1604.947
1033.393, 1491.014
1033.876, 1390.700
1034.358, 1303.698
1034.840, 1236.038
1035.322, 1205.605
1035.804, 1182.227
1036.286, 1141.600
1036.768, 1082.114
1037.250, 1042.516
1037.733, 1022.864
1038.215, 1010.795
1038.697, 998.0537
1039.179, 988.8486
1039.661, 992.2021
1040.143, 1002.580
1040.625, 1003.139
1041.107, 987.3188
1041.589, 967.5250
1042.072, 945.3926
1042.554, 919.8503
1043.036, 884.8228
1043.518, 845.8057
1044.000, 821.8040
1044.482, 818.3484
1044.964, 806.6326
1045.446, 763.2002
1045.928, 712.7832
1046.411, 672.1086
1046.893, 640.3450
1047.375, 600.2883
1047.857, 551.5723
1048.339, 502.7673
1048.821, 457.9124
1049.303, 415.5537
1049.785, 373.3452
1050.268, 332.7625
1050.750, 295.2966
1051.232, 261.7634
1051.714, 231.5864
1052.196, 204.5068
1052.678, 181.2920
1053.160, 165.2634
1053.642, 153.7268
1054.125, 135.9099
1054.607, 111.4958
1055.089, 89.90967
1055.571, 76.58667
1056.053, 67.67554
1056.535, 65.91040
1057.017, 66.71143
1057.499, 51.21606
1057.981, 18.06592
1058.464, 9.674316
1058.946, 25.71899
1059.428, 33.32324
1059.910, 33.36401
1060.392, 28.53809
1060.874, 22.08643
1061.356, 14.08813
1061.838, 5.503174
1062.320, 4.880615
1062.803, 13.30811
1063.285, 15.66211
1063.767, 14.24902
1064.249, 16.56421
1064.731, 22.10181
1065.213, 28.32617
1065.695, 34.15820
1066.177, 40.13770
1066.660, 45.97534
1067.142, 52.33203
1067.624, 60.40479
1068.106, 70.28540
1068.588, 77.77832
1069.070, 81.04077
1069.552, 91.53760
1070.034, 130.1401
1070.516, 173.4185
1070.999, 196.7534
1071.481, 196.6816
1071.963, 205.4993
1072.445, 226.5164
1072.927, 249.7527
1073.409, 271.4670
1073.891, 293.4895
1074.373, 319.7881
1074.855, 348.8137
1075.338, 375.6851
1075.820, 394.4714
1076.302, 420.7878
1076.784, 465.8098
1077.266, 512.9436
1077.748, 550.4810
1078.230, 578.6091
1078.713, 604.4946
1079.195, 628.6628
1079.677, 655.1833
1080.159, 685.2993
1080.641, 719.6809
1081.123, 760.6328
1081.605, 805.8574
1082.087, 847.4216
1082.569, 883.8184
1083.052, 926.8787
1083.534, 976.2122
1084.016, 1034.958
1084.498, 1123.143
1084.980, 1218.944
1085.462, 1285.794
1085.944, 1314.883
1086.426, 1362.044
1086.908, 1442.071
1087.391, 1530.380
1087.873, 1621.478
1088.355, 1712.170
1088.837, 1789.417
1089.319, 1856.411
1089.801, 1926.935
1090.283, 2006.531
1090.765, 2092.975
1091.248, 2187.937
1091.730, 2284.370
1092.212, 2378.020
1092.694, 2469.791
1093.176, 2550.733
1093.658, 2620.813
1094.140, 2696.079
1094.622, 2795.596
1095.104, 2895.566
1095.587, 2969.558
1096.069, 3027.417
1096.551, 3101.949
1097.033, 3205.637
1097.515, 3290.327
1097.997, 3346.762
1098.479, 3391.881
1098.961, 3442.947
1099.443, 3498.014
1099.926, 3557.467
1100.408, 3621.224
1100.890, 3671.837
1101.372, 3698.905
1101.854, 3720.369
1102.336, 3737.968
1102.818, 3756.681
1103.300, 3800.576
1103.783, 3858.257
1104.265, 3887.552
1104.747, 3862.312
1105.229, 3838.559
1105.711, 3850.612
1106.193, 3869.545
1106.675, 3873.819
1107.157, 3863.396
1107.640, 3847.056
1108.122, 3824.990
1108.604, 3795.739
1109.086, 3762.436
1109.568, 3717.876
1110.050, 3647.046
1110.532, 3562.275
1111.014, 3492.596
1111.496, 3443.720
1111.979, 3393.731
1112.461, 3342.975
1112.943, 3280.305
1113.425, 3194.098
1113.907, 3091.161
1114.389, 2971.315
1114.871, 2837.990
1115.353, 2724.169
1115.835, 2650.949
1116.318, 2568.831
1116.800, 2461.978
1117.282, 2346.688
1117.764, 2251.146
1118.246, 2168.687
1118.728, 2079.545
1119.210, 1977.942
1119.692, 1879.586
1120.175, 1794.217
1120.657, 1711.935
1121.139, 1628.605
1121.621, 1543.561
1122.103, 1448.296
1122.585, 1345.340
1123.067, 1252.553
1123.549, 1176.500
1124.031, 1114.464
1124.514, 1079.918
1124.996, 1050.284
1125.478, 998.6047
1125.960, 920.7661
1126.442, 844.0706
1126.924, 768.0522
1127.406, 704.3879
1127.888, 675.7632
1128.370, 652.1897
1128.853, 602.9614
1129.335, 535.8994
1129.817, 477.9773
1130.299, 432.2427
1130.781, 392.0098
1131.263, 357.7239
1131.745, 325.2341
1132.227, 288.2732
1132.710, 250.6199
1133.192, 216.9304
1133.674, 188.0569
1134.156, 165.1035
1134.638, 152.4902
1135.120, 138.4343
1135.602, 120.6160
1136.084, 99.12085
1136.567, 68.61450
1137.049, 35.62280
1137.531, 17.38037
1138.013, 21.55005
1138.495, 24.04004
1138.977, 16.36865
1139.459, 3.487549
1139.941, 16.65381
1140.423, 39.78540
1140.906, 37.67383
1141.388, 15.60303
1141.870, 1.813232
1142.352, 13.77295
1142.834, 27.69092
1143.316, 32.79346
1143.798, 33.47656
1144.280, 33.50830
1144.762, 32.59399
1145.245, 36.27344
1145.727, 44.41260
1146.209, 47.19409
1146.691, 29.85400
1147.173, 13.22266
1147.655, 17.53564
1148.137, 32.30298
1148.619, 32.14062
1149.102, 13.22217
1149.584, 2.596436
1150.066, 13.51904
1150.548, 18.23486
1151.030, 7.333252
1151.512, 4.423340
1151.994, 1.731445
1152.476, 23.77246
1152.958, 35.67017
1153.441, 32.96655
1153.923, 29.68530
1154.405, 27.79980
1154.887, 29.31812
1155.369, 37.61450
1155.851, 50.75977
1156.333, 68.36182
1156.815, 91.88550
1157.297, 104.1746
1157.780, 98.70459
1158.262, 93.90796
1158.744, 96.64673
1159.226, 104.4404
1159.708, 113.8560
1160.190, 123.9775
1160.672, 132.7173
1161.154, 138.8770
1161.637, 145.0527
1162.119, 150.3435
1162.601, 158.1152
1163.083, 174.2358
1163.565, 193.4158
1164.047, 190.9221
1164.529, 173.0198
1165.011, 162.2490
1165.494, 178.8228
1165.976, 189.4773
1166.458, 180.8284
1166.940, 167.8589
1167.422, 163.2903
1167.904, 166.3796
1168.386, 171.8347
1168.868, 179.0811
1169.350, 184.6670
1169.833, 185.0933
1170.315, 185.0197
1170.797, 186.9764
1171.279, 189.2852
1171.761, 188.8159
1172.243, 185.7992
1172.725, 184.6324
1173.207, 185.6626
1173.689, 192.3147
1174.172, 219.2759
1174.654, 241.0007
1175.136, 232.9138
1175.618, 208.1410
1176.100, 202.0303
1176.582, 214.9514
1177.064, 222.3246
1177.546, 219.0005
1178.029, 213.7451
1178.511, 213.0294
1178.993, 214.8298
1179.475, 219.2118
1179.957, 225.1963
1180.439, 223.8038
1180.921, 213.9592
1181.403, 210.1974
1181.885, 217.2983
1182.368, 229.1288
1182.850, 241.1427
1183.332, 254.5618
1183.814, 273.1794
1184.296, 298.6022
1184.778, 307.7100
1185.260, 297.3549
1185.742, 296.0908
1186.224, 324.7922
1186.707, 356.5067
1187.189, 356.5632
1187.671, 340.2927
1188.153, 328.7023
1188.635, 322.2712
1189.117, 330.7046
1189.599, 356.8286
1190.081, 383.4650
1190.564, 399.8114
1191.046, 409.7941
1191.528, 416.1056
1192.010, 417.1237
1192.492, 418.4246
1192.974, 417.8750
1193.456, 426.4512
1193.938, 448.9475
1194.421, 471.7617
1194.903, 482.3331
1195.385, 488.6371
1195.867, 492.4033
1196.349, 494.5586
1196.831, 497.7111
1197.313, 494.6107
1197.795, 499.7712
1198.277, 518.1204
1198.760, 539.9309
1199.242, 557.9631
1199.724, 572.2012
1200.206, 582.0458
1200.688, 587.7645
1201.170, 591.4425
1201.652, 593.2623
1202.134, 593.4839
1202.616, 591.6296
1203.099, 589.4470
1203.581, 588.1442
1204.063, 588.5173
1204.545, 592.3159
1205.027, 599.6758
1205.509, 608.8574
1205.991, 625.6483
1206.473, 630.1582
1206.956, 613.4668
1207.438, 589.5922
1207.920, 577.9047
1208.402, 575.8892
1208.884, 581.1069
1209.366, 594.7852
1209.848, 600.9690
1210.330, 598.0514
1210.813, 587.2004
1211.295, 566.6152
1211.777, 541.8008
1212.259, 522.0474
1212.741, 506.8783
1213.223, 497.2444
1213.705, 495.5587
1214.187, 489.5400
1214.669, 476.4688
1215.151, 462.8011
1215.634, 452.2354
1216.116, 442.6729
1216.598, 428.6685
1217.080, 412.0519
1217.562, 396.5493
1218.044, 383.9413
1218.526, 370.4771
1219.008, 354.5011
1219.491, 341.0458
1219.973, 335.5981
1220.455, 332.5437
1220.937, 319.8601
1221.419, 300.1128
1221.901, 279.2823
1222.383, 253.7085
1222.865, 238.5389
1223.348, 238.8827
1223.830, 237.4425
1224.312, 219.0413
1224.794, 190.8087
1225.276, 164.1047
1225.758, 139.8589
1226.240, 120.2196
1226.722, 107.6583
1227.204, 98.41272
1227.687, 93.15186
1228.169, 89.14746
1228.651, 84.19824
1229.133, 78.76758
1229.615, 74.99854
1230.097, 71.64441
1230.579, 63.64539
1231.061, 44.25378
1231.543, 30.66138
1232.026, 24.83728
1232.508, 22.98022
1232.990, 24.45801
1233.472, 25.44409
1233.954, 17.09973
1234.436, 1.963867
1234.918, 5.018433
1235.400, 3.001221
1235.883, 7.889893
1236.365, 6.707520
1236.847, 4.400879
1237.329, 8.506958
1237.811, 13.67310
1238.293, 9.531860
1238.775, 2.144775
1239.257, 2.878052
1239.740, 17.29321
1240.222, 30.78918
1240.704, 31.77136
1241.186, 20.56702
1241.668, 10.95813
1242.150, 11.59888
1242.632, 6.955078
1243.114, 0.0000000E+00
##END=



