##NAMES=Paradamite
##RRUFFID=R050582
##IDEAL CHEMISTRY=Zn^2+^_2_As^5+^O_4_(OH)
##LOCALITY=Ojuela mine, Mapimi, Durango, Mexico
##OWNER=RRUFF
##SOURCE=University of Arizona Mineral Museum
##DESCRIPTION=Groups of tabular pale yellow crystals
##STATUS=The identification of this mineral has been confirmed by X-ray diffraction and chemical analysis
##URL=rruff.info/R050582
##MEASURED CHEMISTRY=Zn_2.00_(As_1.00_O_4_)(OH)
110.8820, 0.0000000E+00
111.3642, 5.423393
111.8463, 10.38093
112.3284, 14.33601
112.8105, 18.17297
113.2926, 21.84348
113.7747, 23.36252
114.2569, 25.33952
114.7390, 20.45984
115.2211, 12.99632
115.7032, 7.817307
116.1853, 4.384613
116.6674, 1.675049
117.1496, 1.554901
117.6317, 3.610016
118.1138, 3.216904
118.5959, 0.5789340
119.0780, 7.103012
119.5602, 17.52493
120.0423, 29.60312
120.5244, 39.80188
121.0065, 49.68097
121.4886, 57.79327
121.9707, 62.15094
122.4529, 59.97141
122.9350, 54.68909
123.4171, 48.67044
123.8992, 41.96603
124.3813, 35.02762
124.8634, 28.04779
125.3456, 21.08856
125.8277, 14.31027
126.3098, 6.967346
126.7919, 3.5094999E-02
127.2740, 5.187744
127.7561, 8.658478
128.2383, 10.21274
128.7204, 9.288513
129.2025, 6.094360
129.6846, 1.705841
130.1667, 2.547943
130.6488, 7.273743
131.1310, 15.22375
131.6131, 26.90012
132.0952, 41.56671
132.5773, 58.43610
133.0594, 77.64575
133.5415, 97.73779
134.0237, 117.8640
134.5058, 138.2505
134.9879, 160.3697
135.4700, 186.2649
135.9521, 213.1099
136.4343, 234.0995
136.9164, 249.7336
137.3985, 257.6304
137.8806, 254.5011
138.3627, 239.0288
138.8448, 220.9001
139.3270, 200.2476
139.8091, 177.7534
140.2912, 160.6721
140.7733, 149.7811
141.2554, 142.7554
141.7375, 136.9977
142.2197, 131.5945
142.7018, 130.0631
143.1839, 133.8839
143.6660, 143.3484
144.1481, 152.6931
144.6302, 160.2953
145.1124, 169.0500
145.5945, 182.4548
146.0766, 202.9711
146.5587, 224.7057
147.0408, 245.4006
147.5230, 267.5120
148.0051, 290.5408
148.4872, 314.2358
148.9693, 338.6745
149.4514, 364.9318
149.9335, 391.6663
150.4157, 419.9394
150.8978, 449.4918
151.3799, 481.5131
151.8620, 513.6029
152.3441, 545.2400
152.8262, 577.2326
153.3084, 610.3086
153.7905, 646.6042
154.2726, 682.1596
154.7547, 716.0058
155.2368, 745.8751
155.7189, 776.6411
156.2011, 808.4560
156.6832, 842.1982
157.1653, 879.3580
157.6474, 920.3167
158.1295, 963.2952
158.6116, 1006.988
159.0938, 1047.965
159.5759, 1095.026
160.0580, 1151.567
160.5401, 1216.143
161.0222, 1284.026
161.5044, 1350.078
161.9865, 1420.822
162.4686, 1500.622
162.9507, 1591.099
163.4328, 1689.964
163.9149, 1796.689
164.3971, 1912.074
164.8792, 2035.315
165.3613, 2172.352
165.8434, 2314.487
166.3255, 2454.549
166.8076, 2597.038
167.2898, 2729.220
167.7719, 2850.747
168.2540, 2960.342
168.7361, 3042.729
169.2182, 3096.239
169.7003, 3119.158
170.1825, 3109.347
170.6646, 3066.711
171.1467, 2991.135
171.6288, 2875.663
172.1109, 2722.090
172.5931, 2550.296
173.0752, 2361.577
173.5573, 2165.906
174.0394, 1978.748
174.5215, 1801.757
175.0036, 1639.540
175.4858, 1499.250
175.9679, 1379.707
176.4500, 1282.653
176.9321, 1210.209
177.4142, 1159.739
177.8963, 1126.343
178.3785, 1107.723
178.8606, 1104.372
179.3427, 1117.527
179.8248, 1147.245
180.3069, 1191.489
180.7890, 1245.666
181.2712, 1311.626
181.7533, 1395.428
182.2354, 1499.682
182.7175, 1623.495
183.1996, 1764.107
183.6818, 1924.448
184.1639, 2094.390
184.6460, 2275.928
185.1281, 2463.852
185.6102, 2640.763
186.0923, 2812.546
186.5745, 2967.995
187.0566, 3068.935
187.5387, 3117.330
188.0208, 3103.966
188.5029, 3006.206
188.9850, 2827.923
189.4672, 2612.411
189.9493, 2361.977
190.4314, 2086.864
190.9135, 1825.020
191.3956, 1576.562
191.8777, 1349.423
192.3599, 1148.887
192.8420, 975.8237
193.3241, 824.6630
193.8062, 695.1023
194.2883, 585.4109
194.7704, 490.4348
195.2526, 410.8805
195.7347, 343.7932
196.2168, 285.1355
196.6989, 235.0902
197.1810, 190.7151
197.6632, 150.8718
198.1453, 115.2224
198.6274, 83.90918
199.1095, 57.22937
199.5916, 34.36279
200.0737, 13.88440
200.5559, 4.434204
201.0380, 19.56555
201.5201, 30.23914
202.0022, 36.23694
202.4843, 41.90393
202.9664, 47.94604
203.4486, 53.27722
203.9307, 55.51123
204.4128, 54.57703
204.8949, 50.83142
205.3770, 44.17981
205.8591, 34.42273
206.3413, 23.45093
206.8234, 11.92322
207.3055, 1.143677
207.7876, 18.19470
208.2697, 39.07324
208.7519, 63.92651
209.2340, 93.41528
209.7161, 128.0685
210.1982, 164.4861
210.6803, 202.2515
211.1624, 241.7749
211.6446, 284.4603
212.1267, 330.3560
212.6088, 378.4938
213.0909, 428.5887
213.5730, 480.4131
214.0551, 534.7106
214.5373, 590.1953
215.0194, 648.6365
215.5015, 717.0017
215.9836, 797.3954
216.4657, 884.2769
216.9478, 975.3492
217.4300, 1068.226
217.9121, 1173.620
218.3942, 1291.990
218.8763, 1422.243
219.3584, 1560.662
219.8405, 1706.579
220.3227, 1860.112
220.8048, 2020.344
221.2869, 2187.213
221.7690, 2363.962
222.2511, 2549.378
222.7333, 2744.610
223.2154, 2946.780
223.6975, 3157.636
224.1796, 3376.302
224.6617, 3604.644
225.1438, 3847.918
225.6260, 4086.059
226.1081, 4317.938
226.5902, 4544.247
227.0723, 4761.391
227.5544, 4980.292
228.0365, 5176.924
228.5187, 5338.307
229.0008, 5452.315
229.4829, 5558.797
229.9650, 5651.880
230.4471, 5740.109
230.9292, 5844.843
231.4114, 5961.437
231.8935, 6103.865
232.3756, 6276.198
232.8577, 6483.646
233.3398, 6716.603
233.8220, 6985.612
234.3041, 7277.131
234.7862, 7555.870
235.2683, 7838.778
235.7504, 8082.258
236.2325, 8279.424
236.7147, 8453.132
237.1968, 8514.702
237.6789, 8461.261
238.1610, 8297.963
238.6431, 8032.016
239.1252, 7636.054
239.6074, 7174.837
240.0895, 6659.536
240.5716, 6066.922
241.0537, 5499.853
241.5358, 4952.254
242.0179, 4432.600
242.5001, 3957.315
242.9822, 3527.105
243.4643, 3139.545
243.9464, 2795.337
244.4285, 2497.214
244.9106, 2230.938
245.3928, 1997.641
245.8749, 1793.371
246.3570, 1612.365
246.8391, 1458.481
247.3212, 1321.360
247.8034, 1199.056
248.2855, 1093.048
248.7676, 994.3694
249.2497, 901.9680
249.7318, 816.9370
250.2139, 741.2202
250.6961, 676.2592
251.1782, 617.9176
251.6603, 564.9995
252.1424, 517.6428
252.6245, 474.0958
253.1066, 434.0875
253.5888, 397.7769
254.0709, 364.8611
254.5530, 335.7595
255.0351, 309.0365
255.5172, 284.4700
255.9993, 261.8386
256.4815, 242.5266
256.9636, 227.7443
257.4457, 215.8107
257.9278, 204.2174
258.4099, 191.7571
258.8921, 181.5084
259.3742, 174.3988
259.8563, 170.6078
260.3384, 167.1270
260.8205, 162.8594
261.3026, 160.4347
261.7848, 162.9821
262.2669, 172.1971
262.7490, 181.9995
263.2311, 190.6587
263.7132, 198.4456
264.1953, 208.6793
264.6775, 221.3408
265.1596, 236.6764
265.6417, 255.0013
266.1238, 276.6228
266.6059, 299.6514
267.0880, 323.2845
267.5702, 347.9532
268.0523, 375.9795
268.5344, 408.6411
269.0165, 442.3640
269.4986, 474.6511
269.9807, 505.2731
270.4629, 536.5816
270.9450, 568.1771
271.4271, 600.7765
271.9092, 636.5851
272.3913, 676.3872
272.8734, 717.3990
273.3556, 756.6650
273.8377, 793.1518
274.3198, 834.7817
274.8019, 883.5247
275.2840, 937.5312
275.7661, 992.5657
276.2483, 1048.383
276.7304, 1105.568
277.2125, 1162.423
277.6946, 1218.832
278.1768, 1280.877
278.6589, 1349.849
279.1410, 1423.512
279.6231, 1498.017
280.1052, 1574.306
280.5873, 1649.702
281.0695, 1724.180
281.5516, 1798.002
282.0337, 1863.758
282.5158, 1922.087
282.9979, 1970.693
283.4800, 2008.737
283.9622, 2036.656
284.4443, 2044.501
284.9264, 2027.110
285.4085, 1985.363
285.8906, 1924.208
286.3727, 1842.607
286.8549, 1745.259
287.3370, 1633.771
287.8191, 1508.781
288.3012, 1382.565
288.7833, 1257.936
289.2654, 1136.865
289.7476, 1023.639
290.2297, 918.1786
290.7118, 821.3304
291.1939, 733.7662
291.6760, 656.0879
292.1581, 587.1799
292.6403, 528.0582
293.1224, 477.0234
293.6045, 428.0282
294.0866, 381.4808
294.5687, 340.1664
295.0508, 308.3572
295.5330, 284.1268
296.0151, 261.6070
296.4972, 239.2524
296.9793, 217.5660
297.4614, 197.6675
297.9435, 179.4352
298.4257, 163.6710
298.9078, 152.0093
299.3899, 143.2333
299.8720, 135.1295
300.3541, 127.1409
300.8362, 119.7584
301.3184, 113.2504
301.8005, 107.6682
302.2826, 103.6196
302.7647, 102.5369
303.2469, 102.8092
303.7290, 101.8447
304.2111, 99.12701
304.6932, 96.09088
305.1753, 94.51453
305.6574, 93.78351
306.1396, 92.61768
306.6217, 90.28766
307.1038, 87.18866
307.5859, 83.62115
308.0680, 79.52057
308.5501, 75.27307
309.0323, 71.29242
309.5144, 67.32385
309.9965, 62.99396
310.4786, 58.05554
310.9607, 52.68469
311.4428, 46.89465
311.9250, 40.73932
312.4071, 34.39832
312.8892, 28.42993
313.3713, 22.37952
313.8534, 15.67511
314.3355, 6.445190
314.8177, 1.846375
315.2998, 7.103760
315.7819, 9.700012
316.2640, 11.80933
316.7461, 14.09491
317.2282, 16.37970
317.7104, 18.57977
318.1925, 20.65118
318.6746, 22.68109
319.1567, 25.15753
319.6388, 27.69885
320.1209, 29.14557
320.6031, 27.72754
321.0852, 26.18030
321.5673, 26.05121
322.0494, 28.29633
322.5315, 30.18091
323.0136, 31.07587
323.4958, 31.26593
323.9779, 31.21606
324.4600, 31.38617
324.9421, 30.97125
325.4242, 29.35248
325.9064, 26.01404
326.3885, 23.66956
326.8706, 23.63385
327.3527, 24.23761
327.8348, 23.74268
328.3170, 20.68738
328.7991, 18.04846
329.2812, 16.72729
329.7633, 16.79755
330.2454, 15.46808
330.7275, 11.66418
331.2097, 7.354004
331.6918, 4.002930
332.1739, 2.900146
332.6560, 0.6356200
333.1381, 3.491699
333.6202, 9.066528
334.1024, 14.08960
334.5845, 18.49524
335.0666, 22.37366
335.5487, 25.47437
336.0308, 26.89087
336.5129, 30.19019
336.9951, 35.95923
337.4772, 43.32220
337.9593, 50.76935
338.4414, 58.35248
338.9235, 65.98761
339.4056, 73.47009
339.8878, 80.63629
340.3699, 89.32996
340.8520, 99.81348
341.3341, 111.4340
341.8162, 123.7575
342.2983, 136.6863
342.7805, 150.3212
343.2626, 164.7552
343.7447, 179.8989
344.2268, 194.1677
344.7089, 207.3728
345.1910, 221.5250
345.6732, 239.0341
346.1553, 259.6271
346.6374, 279.1623
347.1195, 296.4984
347.6016, 312.9831
348.0837, 331.3147
348.5659, 351.6022
349.0480, 373.1041
349.5301, 394.3752
350.0122, 416.4872
350.4944, 441.7053
350.9765, 470.5803
351.4586, 501.5094
351.9407, 531.9186
352.4228, 562.3349
352.9049, 594.4643
353.3871, 629.0779
353.8692, 665.9675
354.3513, 705.1735
354.8334, 746.7434
355.3155, 789.3679
355.7976, 835.0674
356.2798, 880.9424
356.7619, 922.8428
357.2440, 959.1475
357.7261, 990.3378
358.2082, 1018.115
358.6903, 1041.779
359.1725, 1056.648
359.6546, 1060.659
360.1367, 1054.501
360.6188, 1038.352
361.1009, 1010.777
361.5830, 975.9036
362.0652, 932.6964
362.5473, 883.3644
363.0294, 833.3282
363.5115, 781.6031
363.9936, 731.6501
364.4757, 685.4839
364.9579, 642.7101
365.4400, 604.3517
365.9221, 569.9765
366.4042, 540.0146
366.8863, 515.0012
367.3684, 495.5143
367.8506, 480.4739
368.3327, 469.7512
368.8148, 463.4962
369.2969, 461.0792
369.7790, 462.9619
370.2611, 468.2465
370.7433, 476.4313
371.2254, 488.1201
371.7075, 501.3879
372.1896, 515.7803
372.6717, 531.3688
373.1538, 548.8046
373.6360, 568.8295
374.1181, 589.8423
374.6002, 610.6619
375.0823, 630.9366
375.5645, 652.5814
376.0466, 674.8735
376.5287, 698.9931
377.0108, 727.0307
377.4929, 758.6274
377.9750, 793.2590
378.4572, 830.3651
378.9393, 870.2719
379.4214, 913.7546
379.9035, 960.1096
380.3856, 1010.561
380.8677, 1065.844
381.3499, 1125.940
381.8320, 1189.961
382.3141, 1258.776
382.7962, 1330.888
383.2783, 1406.233
383.7604, 1484.305
384.2426, 1561.502
384.7247, 1639.061
385.2068, 1713.396
385.6889, 1782.827
386.1710, 1848.748
386.6531, 1900.899
387.1353, 1932.202
387.6174, 1941.643
388.0995, 1927.552
388.5816, 1887.715
389.0637, 1824.932
389.5458, 1736.977
390.0280, 1623.605
390.5101, 1501.954
390.9922, 1374.147
391.4743, 1248.247
391.9564, 1131.333
392.4385, 1025.123
392.9207, 929.9501
393.4028, 847.5758
393.8849, 777.1897
394.3670, 716.4391
394.8491, 666.8665
395.3312, 625.7787
395.8134, 592.0228
396.2955, 566.2001
396.7776, 545.3200
397.2597, 529.0663
397.7418, 517.4389
398.2239, 510.4436
398.7061, 509.7043
399.1882, 511.9838
399.6703, 516.8599
400.1524, 524.3427
400.6346, 533.7766
401.1167, 544.5025
401.5988, 557.6265
402.0809, 574.0348
402.5630, 595.1285
403.0451, 616.8066
403.5273, 638.2724
404.0094, 660.1211
404.4915, 683.8893
404.9736, 709.9868
405.4557, 737.1065
405.9378, 764.9951
406.4200, 793.6743
406.9021, 822.7278
407.3842, 851.6779
407.8663, 881.4117
408.3484, 913.1304
408.8305, 947.0177
409.3127, 981.4713
409.7948, 1016.350
410.2769, 1051.351
410.7590, 1085.615
411.2411, 1119.325
411.7232, 1151.067
412.2054, 1180.057
412.6875, 1206.811
413.1696, 1232.091
413.6517, 1256.891
414.1338, 1278.705
414.6159, 1295.002
415.0981, 1305.863
415.5802, 1311.271
416.0623, 1311.886
416.5444, 1306.458
417.0265, 1293.900
417.5086, 1274.135
417.9908, 1247.280
418.4729, 1212.020
418.9550, 1170.345
419.4371, 1124.881
419.9192, 1074.494
420.4013, 1022.030
420.8835, 967.8696
421.3656, 912.6548
421.8477, 857.1519
422.3298, 800.2922
422.8119, 745.0768
423.2940, 692.4496
423.7762, 643.5041
424.2583, 595.6008
424.7404, 547.5445
425.2225, 501.4681
425.7047, 458.4325
426.1868, 419.7401
426.6689, 382.9866
427.1510, 347.2401
427.6331, 312.7838
428.1152, 281.2860
428.5974, 252.6583
429.0795, 226.5611
429.5616, 202.7158
430.0437, 181.5822
430.5258, 160.9617
431.0079, 140.7234
431.4901, 121.2038
431.9722, 102.8531
432.4543, 85.68671
432.9364, 70.03595
433.4185, 56.52704
433.9006, 44.84277
434.3828, 33.93237
434.8649, 23.81000
435.3470, 14.33167
435.8291, 5.018188
436.3112, 3.825562
436.7933, 10.95166
437.2755, 15.87549
437.7576, 19.60693
438.2397, 23.18811
438.7218, 26.54449
439.2039, 29.44427
439.6860, 32.29523
440.1682, 34.33990
440.6503, 34.64819
441.1324, 33.16254
441.6145, 30.72705
442.0966, 27.70288
442.5787, 24.07611
443.0609, 19.83466
443.5430, 15.28192
444.0251, 9.822754
444.5072, 3.059998
444.9893, 4.807983
445.4714, 13.13251
445.9536, 20.97760
446.4357, 29.96344
446.9178, 40.88507
447.3999, 54.30048
447.8820, 68.39697
448.3641, 82.53931
448.8463, 97.73627
449.3284, 115.3939
449.8105, 136.0778
450.2926, 157.8832
450.7747, 180.3970
451.2569, 203.8511
451.7390, 228.8376
452.2211, 255.6100
452.7032, 283.8598
453.1853, 313.4927
453.6674, 344.7793
454.1496, 376.4899
454.6317, 408.5446
455.1138, 441.6073
455.5959, 476.0254
456.0780, 512.0768
456.5602, 549.7709
457.0423, 589.3732
457.5244, 630.3435
458.0065, 671.9655
458.4886, 714.0234
458.9707, 758.1232
459.4529, 805.0929
459.9350, 854.8717
460.4171, 905.8412
460.8992, 958.6746
461.3813, 1012.532
461.8634, 1066.609
462.3456, 1121.640
462.8277, 1177.643
463.3098, 1237.834
463.7919, 1297.040
464.2740, 1353.108
464.7561, 1405.959
465.2383, 1455.898
465.7204, 1504.677
466.2025, 1549.459
466.6846, 1588.120
467.1667, 1621.036
467.6488, 1646.604
468.1310, 1666.875
468.6131, 1679.271
469.0952, 1679.716
469.5773, 1665.127
470.0594, 1643.500
470.5415, 1615.772
471.0237, 1582.147
471.5058, 1544.761
471.9879, 1502.550
472.4700, 1458.844
472.9521, 1414.917
473.4342, 1370.208
473.9164, 1332.978
474.3985, 1304.330
474.8806, 1281.915
475.3627, 1261.099
475.8448, 1242.229
476.3270, 1228.897
476.8091, 1222.939
477.2912, 1223.520
477.7733, 1229.133
478.2554, 1239.808
478.7375, 1256.064
479.2197, 1279.481
479.7018, 1308.422
480.1839, 1340.552
480.6660, 1375.438
481.1481, 1412.965
481.6302, 1453.860
482.1124, 1497.159
482.5945, 1541.289
483.0766, 1584.753
483.5587, 1629.850
484.0408, 1679.059
484.5229, 1731.991
485.0051, 1781.167
485.4872, 1825.481
485.9693, 1865.737
486.4514, 1901.922
486.9335, 1935.088
487.4156, 1962.553
487.8978, 1984.756
488.3799, 2000.894
488.8620, 2010.019
489.3441, 2010.739
489.8262, 2008.496
490.3083, 2004.396
490.7905, 1998.455
491.2726, 1990.198
491.7547, 1978.884
492.2368, 1968.164
492.7189, 1960.083
493.2010, 1954.745
493.6832, 1954.030
494.1653, 1958.086
494.6474, 1966.126
495.1295, 1979.372
495.6116, 1996.321
496.0938, 2012.256
496.5759, 2024.973
497.0580, 2035.715
497.5401, 2048.853
498.0222, 2062.874
498.5044, 2068.580
498.9865, 2062.908
499.4686, 2045.297
499.9507, 2015.477
500.4328, 1973.519
500.9149, 1919.756
501.3971, 1850.878
501.8792, 1771.002
502.3613, 1685.013
502.8434, 1584.267
503.3255, 1486.681
503.8076, 1393.721
504.2898, 1305.824
504.7719, 1225.047
505.2540, 1152.050
505.7361, 1085.506
506.2182, 1024.425
506.7003, 969.1834
507.1825, 918.1544
507.6646, 871.8858
508.1467, 828.8932
508.6288, 787.8167
509.1109, 748.6651
509.5930, 711.1736
510.0752, 675.5978
510.5573, 641.2274
511.0394, 606.3777
511.5215, 571.3018
512.0037, 537.5956
512.4858, 507.2767
512.9679, 478.3566
513.4500, 447.1956
513.9321, 413.7452
514.4142, 382.1382
514.8964, 356.4636
515.3785, 333.4549
515.8606, 309.7634
516.3427, 282.7894
516.8248, 257.8564
517.3069, 237.4037
517.7891, 220.3282
518.2712, 204.5289
518.7533, 189.5497
519.2354, 176.0013
519.7175, 164.8011
520.1996, 155.8275
520.6818, 146.0881
521.1639, 134.6492
521.6460, 123.5464
522.1281, 114.0634
522.6102, 106.3178
523.0923, 99.57788
523.5745, 93.97046
524.0566, 89.08765
524.5387, 84.44861
525.0208, 80.02020
525.5029, 75.46362
525.9850, 70.48230
526.4672, 65.49976
526.9493, 61.44366
527.4314, 58.17224
527.9135, 54.95319
528.3956, 50.63690
528.8777, 46.25812
529.3599, 43.51776
529.8420, 42.60345
530.3241, 41.98358
530.8062, 41.43079
531.2883, 40.25165
531.7704, 37.65942
532.2526, 31.53619
532.7347, 26.39001
533.2168, 24.04730
533.6989, 23.64795
534.1810, 23.06653
534.6631, 22.52222
535.1453, 21.21161
535.6274, 18.62323
536.1095, 14.64899
536.5916, 11.85632
537.0737, 10.71582
537.5558, 9.950684
538.0380, 8.759399
538.5201, 7.092651
539.0022, 4.992737
539.4843, 2.277710
539.9664, 0.3491210
540.4485, 1.458191
540.9307, 1.243652
541.4128, 1.388062
541.8949, 2.461426
542.3770, 4.168518
542.8591, 6.769287
543.3412, 9.880920
543.8234, 11.76086
544.3055, 10.75476
544.7876, 8.359436
545.2697, 5.422668
545.7518, 1.887695
546.2339, 0.1666260
546.7161, 1.074829
547.1982, 3.818359
547.6803, 6.550781
548.1624, 9.393066
548.6445, 11.60065
549.1266, 12.77802
549.6088, 13.27155
550.0909, 13.77393
550.5730, 14.31995
551.0551, 14.78778
551.5372, 15.07971
552.0193, 15.22479
552.5015, 15.72162
552.9836, 16.86722
553.4657, 17.31143
553.9478, 15.44366
554.4299, 11.62012
554.9120, 9.875397
555.3942, 10.73511
555.8763, 12.09766
556.3584, 11.33664
556.8405, 9.199036
557.3226, 7.624573
557.8047, 7.518860
558.2869, 7.722992
558.7690, 7.153503
559.2511, 6.042999
559.7332, 4.965759
560.2154, 3.887756
560.6975, 3.148010
561.1796, 3.031677
561.6617, 3.559631
562.1439, 4.076447
562.6260, 5.261871
563.1081, 5.744110
563.5902, 4.642181
564.0723, 0.5424800
564.5544, 2.082397
565.0366, 2.780975
565.5187, 2.469879
566.0008, 2.289032
566.4829, 2.199707
566.9650, 2.294708
567.4471, 2.522125
567.9293, 2.993073
568.4114, 4.021606
568.8935, 5.587158
569.3756, 7.531494
569.8577, 10.31393
570.3398, 13.23642
570.8220, 14.67844
571.3041, 14.69421
571.7862, 14.93677
572.2683, 17.30396
572.7504, 20.09784
573.2325, 21.48624
573.7147, 20.52368
574.1968, 19.70477
574.6789, 20.09427
575.1610, 21.10434
575.6431, 21.98111
576.1252, 22.63470
576.6074, 23.14246
577.0895, 23.41046
577.5716, 23.54044
578.0537, 23.94324
578.5358, 24.77872
579.0179, 25.51721
579.5001, 25.92740
579.9822, 26.02405
580.4643, 25.91714
580.9464, 25.49567
581.4285, 25.61020
581.9106, 27.66925
582.3928, 30.91739
582.8749, 32.60321
583.3570, 32.10211
583.8391, 31.33527
584.3212, 32.13483
584.8033, 33.97504
585.2855, 35.96164
585.7676, 37.95389
586.2497, 39.81140
586.7318, 41.82758
587.2139, 43.70062
587.6960, 44.56616
588.1782, 43.13382
588.6603, 41.69339
589.1424, 40.96097
589.6245, 40.93158
590.1066, 41.36203
590.5887, 42.33133
591.0709, 43.63281
591.5530, 45.38351
592.0351, 47.78418
592.5172, 48.94400
592.9993, 48.53934
593.4814, 47.66962
593.9636, 47.67126
594.4457, 48.43747
594.9278, 49.40829
595.4099, 50.57156
595.8920, 51.66431
596.3741, 52.21194
596.8563, 52.41364
597.3384, 52.77057
597.8205, 53.69339
598.3026, 54.64612
598.7847, 55.23993
599.2668, 55.51987
599.7490, 55.97925
600.2311, 56.82849
600.7132, 57.68350
601.1953, 58.37457
601.6774, 59.05222
602.1595, 59.58661
602.6417, 60.08426
603.1238, 60.49927
603.6059, 60.60779
604.0880, 60.08615
604.5701, 60.29715
605.0522, 61.50912
605.5344, 63.00436
606.0165, 63.66711
606.4986, 63.58469
606.9807, 62.99078
607.4628, 61.70132
607.9449, 60.27542
608.4271, 59.63980
608.9092, 59.61206
609.3913, 59.45206
609.8735, 58.71231
610.3556, 57.72549
610.8377, 56.64667
611.3198, 55.53735
611.8019, 54.58514
612.2841, 53.85657
612.7662, 53.32150
613.2483, 52.91684
613.7304, 52.86234
614.2125, 52.39410
614.6946, 51.28430
615.1768, 50.14120
615.6589, 49.72852
616.1410, 50.14850
616.6231, 50.45538
617.1052, 50.56363
617.5873, 50.40518
618.0695, 49.29794
618.5516, 47.54929
619.0337, 46.96313
619.5158, 49.66986
619.9979, 53.08282
620.4800, 53.46814
620.9622, 51.45596
621.4443, 50.11981
621.9264, 52.40717
622.4085, 54.94388
622.8906, 55.22556
623.3727, 52.51041
623.8549, 51.10245
624.3370, 52.46365
624.8191, 54.94547
625.3012, 57.44516
625.7833, 59.75833
626.2654, 62.70850
626.7476, 66.76178
627.2297, 70.82718
627.7118, 73.27728
628.1939, 74.07086
628.6760, 74.71188
629.1581, 75.54340
629.6403, 76.37469
630.1224, 76.74661
630.6045, 76.83157
631.0866, 77.21591
631.5687, 77.78589
632.0508, 79.07678
632.5330, 81.94214
633.0151, 86.11807
633.4972, 90.23572
633.9793, 93.17355
634.4614, 96.36731
634.9435, 100.6144
635.4257, 106.0927
635.9078, 111.8346
636.3899, 117.6706
636.8720, 123.9598
637.3541, 131.1923
637.8362, 140.1198
638.3184, 147.0692
638.8005, 152.1151
639.2826, 154.5152
639.7647, 152.2873
640.2468, 145.9985
640.7289, 139.6187
641.2111, 133.9107
641.6932, 128.8854
642.1753, 124.7445
642.6574, 121.2701
643.1395, 117.9669
643.6216, 113.6417
644.1038, 110.2311
644.5859, 109.1265
645.0680, 109.9926
645.5501, 111.1502
646.0322, 112.7099
646.5143, 114.0131
646.9965, 114.7138
647.4786, 114.7625
647.9607, 115.1275
648.4428, 116.0822
648.9249, 116.9056
649.4070, 116.6648
649.8892, 115.4126
650.3713, 116.1050
650.8534, 119.1373
651.3355, 122.5194
651.8176, 124.2117
652.2997, 124.6475
652.7819, 124.6598
653.2640, 124.2233
653.7461, 124.0275
654.2282, 124.8203
654.7103, 126.1441
655.1924, 127.3062
655.6746, 128.4346
656.1567, 128.9966
656.6388, 127.9694
657.1209, 126.2920
657.6030, 126.7297
658.0851, 130.9603
658.5673, 134.2211
659.0494, 134.6370
659.5316, 132.8812
660.0137, 133.1953
660.4958, 135.7289
660.9779, 138.7345
661.4600, 141.4122
661.9421, 143.7218
662.4243, 145.5135
662.9064, 146.8065
663.3885, 147.9976
663.8706, 149.4392
664.3527, 150.8684
664.8348, 151.8759
665.3170, 152.1875
665.7991, 152.9708
666.2812, 155.2806
666.7633, 157.9050
667.2454, 159.6368
667.7275, 159.4371
668.2097, 160.1666
668.6918, 162.3506
669.1739, 165.1066
669.6560, 167.2762
670.1381, 168.8929
670.6202, 169.2387
671.1024, 167.7193
671.5845, 165.5090
672.0666, 164.8584
672.5487, 165.4686
673.0308, 166.1780
673.5129, 166.3863
673.9951, 166.4460
674.4772, 166.8087
674.9593, 167.3309
675.4414, 167.3562
675.9235, 165.5728
676.4056, 164.1895
676.8878, 164.5222
677.3699, 166.7588
677.8520, 168.1171
678.3341, 168.2655
678.8162, 168.0229
679.2983, 167.7222
679.7805, 167.3474
680.2626, 167.7833
680.7447, 169.1750
681.2268, 170.4462
681.7089, 170.2049
682.1910, 169.0886
682.6732, 168.7424
683.1553, 169.4419
683.6374, 170.7118
684.1195, 172.6118
684.6016, 174.6854
685.0837, 176.3557
685.5659, 177.0783
686.0480, 177.9592
686.5301, 179.5180
687.0122, 181.3125
687.4943, 182.6049
687.9764, 183.1334
688.4586, 183.7520
688.9407, 184.5570
689.4228, 185.6848
689.9049, 187.6340
690.3870, 190.4011
690.8691, 192.7361
691.3513, 193.6223
691.8334, 193.9169
692.3155, 195.5880
692.7976, 198.4657
693.2797, 201.0375
693.7618, 201.4983
694.2440, 201.7427
694.7261, 203.2090
695.2082, 206.0293
695.6903, 208.6140
696.1724, 209.8691
696.6545, 211.2454
697.1367, 213.3959
697.6188, 216.4659
698.1009, 219.8422
698.5830, 223.8297
699.0651, 227.5745
699.5472, 229.9441
700.0294, 231.1281
700.5115, 233.4539
700.9936, 237.2368
701.4757, 241.1404
701.9578, 243.9271
702.4399, 245.8308
702.9221, 247.0492
703.4042, 247.2012
703.8863, 248.1418
704.3684, 251.9292
704.8505, 256.2331
705.3326, 258.4437
705.8148, 255.5861
706.2969, 254.6115
706.7790, 256.9567
707.2611, 260.8227
707.7432, 262.7402
708.2253, 262.2860
708.7075, 262.2513
709.1896, 263.5033
709.6718, 265.1644
710.1539, 265.5815
710.6360, 264.9044
711.1181, 263.7130
711.6002, 261.7097
712.0823, 259.7134
712.5645, 258.9432
713.0466, 259.0228
713.5287, 258.2421
714.0108, 255.6331
714.4929, 252.3329
714.9750, 248.6394
715.4572, 244.6650
715.9393, 241.0104
716.4214, 237.9157
716.9035, 234.7056
717.3856, 230.8416
717.8677, 226.4574
718.3499, 223.0131
718.8320, 220.5490
719.3141, 218.1421
719.7962, 215.0255
720.2783, 211.5514
720.7604, 208.2021
721.2426, 205.0111
721.7247, 202.2175
722.2068, 200.3715
722.6889, 198.6999
723.1710, 196.6583
723.6531, 194.0670
724.1353, 191.3343
724.6174, 188.7138
725.0995, 185.7017
725.5816, 181.6499
726.0637, 176.2459
726.5458, 171.7614
727.0280, 168.4179
727.5101, 165.8412
727.9922, 164.2203
728.4743, 162.9901
728.9564, 160.4417
729.4385, 155.6985
729.9207, 150.6764
730.4028, 146.6086
730.8849, 143.3270
731.3670, 140.5706
731.8491, 139.3591
732.3312, 137.3435
732.8134, 133.3569
733.2955, 128.5637
733.7776, 124.7877
734.2597, 122.2832
734.7418, 120.1765
735.2239, 118.6526
735.7061, 116.9864
736.1882, 113.3972
736.6703, 108.0587
737.1524, 102.1343
737.6345, 95.73163
738.1166, 89.38483
738.5988, 83.93195
739.0809, 79.04974
739.5630, 73.80786
740.0451, 66.91711
740.5272, 60.48895
741.0093, 55.52356
741.4915, 51.86627
741.9736, 48.30170
742.4557, 44.99780
742.9378, 41.40698
743.4199, 37.12238
743.9020, 32.37866
744.3842, 28.65552
744.8663, 25.98663
745.3484, 23.10205
745.8305, 19.24341
746.3126, 14.74585
746.7947, 9.630127
747.2769, 4.082336
747.7590, 0.6117550
748.2411, 3.769653
748.7232, 5.836670
749.2053, 6.100830
749.6874, 3.980591
750.1696, 5.451172
750.6517, 12.84296
751.1338, 20.67566
751.6159, 25.70123
752.0980, 27.72845
752.5801, 31.58301
753.0623, 37.52966
753.5444, 43.18890
754.0265, 46.02295
754.5086, 47.26099
754.9907, 49.26111
755.4728, 52.20410
755.9550, 55.66235
756.4371, 60.11920
756.9192, 64.49384
757.4013, 67.74982
757.8835, 69.27576
758.3656, 71.11749
758.8477, 73.53662
759.3298, 76.03497
759.8120, 77.97900
760.2941, 79.35767
760.7762, 81.54132
761.2583, 84.89331
761.7404, 87.43250
762.2225, 85.63367
762.7047, 81.39319
763.1868, 79.54578
763.6689, 81.37817
764.1510, 84.03503
764.6331, 86.62915
765.1152, 88.47290
765.5974, 88.91455
766.0795, 87.68921
766.5616, 85.01038
767.0437, 80.46228
767.5258, 74.87122
768.0079, 69.42932
768.4901, 64.24524
768.9722, 58.32886
769.4543, 51.47571
769.9364, 44.54309
770.4185, 39.40405
770.9006, 35.08826
771.3828, 29.01477
771.8649, 20.41846
772.3470, 10.49683
772.8291, 0.4415280
773.3112, 12.03162
773.7933, 23.77673
774.2755, 35.75256
774.7576, 47.65002
775.2397, 58.77600
775.7218, 70.26855
776.2039, 84.67078
776.6860, 102.3441
777.1682, 119.8896
777.6503, 136.3188
778.1324, 152.9957
778.6145, 172.5754
779.0966, 194.1647
779.5787, 215.4666
780.0609, 234.7094
780.5430, 255.2375
781.0251, 280.7324
781.5072, 308.6942
781.9893, 334.0348
782.4714, 354.4688
782.9536, 374.4517
783.4357, 394.3408
783.9178, 413.7230
784.3999, 432.3989
784.8820, 450.5812
785.3641, 467.3472
785.8463, 483.4917
786.3284, 497.0110
786.8105, 503.1776
787.2926, 503.5935
787.7747, 501.9083
788.2568, 500.4707
788.7390, 496.3645
789.2211, 488.3860
789.7032, 476.6343
790.1853, 461.0953
790.6674, 438.9880
791.1495, 417.5399
791.6317, 398.0537
792.1138, 379.9191
792.5959, 362.0977
793.0780, 344.5676
793.5601, 326.1749
794.0422, 304.8324
794.5244, 284.6160
795.0065, 271.7568
795.4886, 264.4253
795.9707, 258.3123
796.4528, 249.5046
796.9349, 243.9563
797.4171, 245.1411
797.8992, 251.5095
798.3813, 257.8459
798.8634, 263.0154
799.3455, 270.4521
799.8276, 280.2162
800.3098, 293.0808
800.7919, 311.8623
801.2740, 336.2318
801.7561, 361.2703
802.2382, 384.2682
802.7203, 407.5710
803.2025, 433.2153
803.6846, 461.2156
804.1667, 491.9810
804.6488, 524.9915
805.1309, 561.4463
805.6130, 605.6919
806.0952, 652.7380
806.5773, 693.6702
807.0594, 727.3230
807.5416, 758.7546
808.0237, 789.8936
808.5058, 817.7556
808.9879, 838.5828
809.4700, 851.8193
809.9521, 854.0093
810.4343, 843.3225
810.9164, 821.5178
811.3985, 787.1799
811.8806, 743.2546
812.3627, 695.6790
812.8448, 641.4163
813.3270, 588.3225
813.8091, 535.0869
814.2912, 485.6562
814.7733, 449.3115
815.2554, 426.3550
815.7375, 413.7268
816.2197, 409.3184
816.7018, 417.2412
817.1839, 443.4124
817.6660, 486.7905
818.1481, 544.4697
818.6302, 612.2805
819.1124, 697.8979
819.5945, 804.3062
820.0766, 931.9785
820.5587, 1083.206
821.0408, 1254.230
821.5229, 1449.360
822.0051, 1670.629
822.4872, 1916.556
822.9693, 2190.422
823.4514, 2492.951
823.9335, 2814.761
824.4156, 3157.722
824.8978, 3518.917
825.3799, 3899.948
825.8620, 4306.477
826.3441, 4741.620
826.8262, 5208.323
827.3083, 5706.770
827.7905, 6230.857
828.2726, 6793.044
828.7547, 7422.414
829.2368, 8109.069
829.7189, 8859.911
830.2010, 9674.999
830.6832, 10539.64
831.1653, 11447.70
831.6474, 12392.14
832.1295, 13392.20
832.6116, 14452.33
833.0938, 15513.02
833.5759, 16585.23
834.0580, 17621.92
834.5401, 18573.74
835.0222, 19535.77
835.5043, 20262.99
835.9865, 20764.96
836.4686, 21020.30
836.9507, 20988.45
837.4328, 20673.38
837.9149, 20149.91
838.3970, 19405.06
838.8792, 18561.33
839.3613, 17667.31
839.8434, 16778.69
840.3255, 15974.74
840.8076, 15260.36
841.2897, 14655.41
841.7719, 14177.49
842.2540, 13816.68
842.7361, 13559.85
843.2182, 13408.06
843.7003, 13358.38
844.1824, 13414.25
844.6646, 13560.35
845.1467, 13791.88
845.6288, 14101.94
846.1109, 14479.11
846.5930, 14922.58
847.0751, 15409.10
847.5573, 15948.65
848.0394, 16506.03
848.5215, 17072.58
849.0036, 17656.38
849.4857, 18185.14
849.9678, 18687.80
850.4500, 19088.63
850.9321, 19369.53
851.4142, 19524.30
851.8963, 19482.57
852.3784, 19245.40
852.8605, 18808.16
853.3427, 18134.99
853.8248, 17288.38
854.3069, 16293.54
854.7890, 15166.78
855.2711, 14016.36
855.7532, 12841.55
856.2354, 11719.09
856.7175, 10664.93
857.1996, 9689.618
857.6818, 8807.200
858.1639, 8015.125
858.6460, 7315.979
859.1281, 6708.087
859.6102, 6185.284
860.0923, 5739.094
860.5745, 5362.519
861.0566, 5047.104
861.5387, 4793.323
862.0208, 4590.190
862.5029, 4432.337
862.9850, 4322.544
863.4672, 4257.914
863.9493, 4242.085
864.4314, 4260.812
864.9135, 4310.215
865.3956, 4393.837
865.8777, 4520.847
866.3599, 4690.370
866.8420, 4889.044
867.3241, 5115.295
867.8062, 5370.938
868.2883, 5656.538
868.7704, 5973.745
869.2526, 6320.760
869.7347, 6698.575
870.2168, 7103.485
870.6989, 7541.443
871.1810, 8001.882
871.6631, 8493.431
872.1453, 9014.531
872.6274, 9572.751
873.1095, 10168.91
873.5916, 10792.63
874.0737, 11433.02
874.5558, 12085.31
875.0380, 12758.39
875.5201, 13465.24
876.0022, 14147.54
876.4843, 14810.00
876.9664, 15421.31
877.4485, 15971.26
877.9307, 16471.96
878.4128, 16844.66
878.8949, 17095.52
879.3770, 17190.38
879.8591, 17096.95
880.3412, 16830.47
880.8234, 16403.93
881.3055, 15817.75
881.7876, 15112.44
882.2697, 14230.95
882.7518, 13296.44
883.2339, 12357.32
883.7161, 11416.95
884.1982, 10500.77
884.6803, 9601.322
885.1624, 8755.894
885.6445, 7979.226
886.1266, 7272.676
886.6088, 6623.510
887.0909, 6029.133
887.5730, 5492.938
888.0551, 5021.080
888.5372, 4595.188
889.0193, 4209.537
889.5015, 3864.827
889.9836, 3552.853
890.4657, 3274.132
890.9478, 3020.714
891.4299, 2791.128
891.9120, 2585.345
892.3942, 2400.734
892.8763, 2234.749
893.3584, 2085.863
893.8405, 1952.156
894.3226, 1831.175
894.8047, 1725.872
895.2869, 1631.620
895.7690, 1543.098
896.2511, 1457.629
896.7332, 1382.148
897.2153, 1318.803
897.6974, 1264.611
898.1796, 1219.103
898.6617, 1181.290
899.1438, 1147.838
899.6259, 1118.074
900.1080, 1092.839
900.5901, 1073.384
901.0723, 1058.277
901.5544, 1045.755
902.0365, 1035.650
902.5186, 1030.227
903.0007, 1031.386
903.4828, 1034.574
903.9650, 1037.243
904.4471, 1039.807
904.9292, 1046.630
905.4113, 1057.474
905.8935, 1068.513
906.3756, 1077.294
906.8577, 1085.157
907.3398, 1093.448
907.8220, 1101.970
908.3041, 1110.010
908.7862, 1118.621
909.2683, 1125.001
909.7504, 1129.482
910.2325, 1130.823
910.7147, 1125.935
911.1968, 1114.710
911.6789, 1098.568
912.1610, 1077.453
912.6431, 1053.240
913.1252, 1028.846
913.6074, 1002.608
914.0895, 971.9395
914.5716, 934.8085
915.0537, 895.5022
915.5358, 853.0916
916.0179, 809.7300
916.5001, 766.7231
916.9822, 724.1863
917.4643, 680.0308
917.9464, 633.9894
918.4285, 587.3661
918.9106, 540.2518
919.3928, 494.7678
919.8749, 453.5760
920.3570, 417.0729
920.8391, 380.9967
921.3212, 343.2599
921.8033, 306.6908
922.2855, 272.2532
922.7676, 239.7933
923.2497, 209.6743
923.7318, 182.0538
924.2139, 157.3353
924.6960, 136.6232
925.1782, 118.1825
925.6603, 100.5013
926.1424, 83.47668
926.6245, 67.09180
927.1066, 50.94727
927.5887, 36.32483
928.0709, 23.15710
928.5530, 11.39050
929.0351, 1.459351
929.5172, 6.696899
929.9993, 14.25330
930.4814, 21.19116
930.9636, 28.09399
931.4457, 36.42700
931.9278, 44.77844
932.4099, 50.99622
932.8920, 53.85388
933.3741, 56.43408
933.8563, 58.96741
934.3384, 61.82092
934.8205, 65.18652
935.3026, 69.31494
935.7847, 71.76660
936.2668, 72.60498
936.7490, 72.90088
937.2311, 73.19788
937.7132, 73.67920
938.1953, 74.61328
938.6774, 75.92334
939.1595, 76.21021
939.6417, 73.51904
940.1238, 71.61523
940.6059, 71.67200
941.0880, 72.96704
941.5701, 73.90796
942.0522, 74.48376
942.5344, 73.71997
943.0165, 71.03491
943.4986, 67.89868
943.9807, 66.02344
944.4628, 64.70752
944.9449, 62.90576
945.4271, 60.13879
945.9092, 57.41718
946.3913, 54.79309
946.8734, 52.30188
947.3555, 50.09491
947.8376, 48.11407
948.3198, 45.86029
948.8019, 43.27374
949.2840, 40.34326
949.7661, 36.84454
950.2482, 33.07526
950.7303, 29.11432
951.2125, 24.98169
951.6946, 21.33490
952.1767, 18.41931
952.6588, 15.73187
953.1409, 13.14307
953.6230, 10.62091
954.1052, 8.483154
954.5873, 6.589172
955.0695, 3.980896
955.5516, 0.3758540
956.0337, 4.653442
956.5158, 6.766113
956.9979, 8.138123
957.4800, 11.14087
957.9622, 17.61188
958.4443, 22.56433
958.9264, 25.28320
959.4085, 27.38074
959.8906, 30.62756
960.3727, 34.70758
960.8549, 38.61365
961.3370, 42.20947
961.8191, 45.67346
962.3012, 49.03601
962.7833, 52.32910
963.2654, 55.57996
963.7476, 58.76465
964.2297, 62.01703
964.7118, 65.43011
965.1939, 68.86365
965.6760, 72.03265
966.1581, 75.41345
966.6403, 80.55426
967.1224, 86.79584
967.6045, 92.08185
968.0866, 95.12384
968.5687, 97.52167
969.0508, 99.08026
969.5330, 100.7021
970.0151, 103.4891
970.4972, 107.5502
970.9793, 112.4220
971.4614, 118.1698
971.9435, 124.3020
972.4257, 130.8716
972.9078, 137.2045
973.3899, 142.2223
973.8720, 145.7592
974.3541, 148.6320
974.8362, 149.8247
975.3184, 151.7858
975.8005, 155.9902
976.2826, 161.9287
976.7647, 166.1545
977.2468, 168.7011
977.7289, 171.2645
978.2111, 174.9463
978.6932, 178.6755
979.1753, 180.6374
979.6574, 181.9304
980.1395, 184.6263
980.6216, 191.2860
981.1038, 196.4832
981.5859, 199.5026
982.0680, 201.5093
982.5501, 203.5741
983.0322, 205.7683
983.5143, 208.6183
983.9965, 212.1570
984.4786, 216.4076
984.9607, 222.3174
985.4428, 228.2042
985.9249, 232.5437
986.4070, 235.1913
986.8892, 238.4385
987.3713, 242.3846
987.8534, 246.4855
988.3355, 250.5237
988.8176, 254.5295
989.2997, 258.7558
989.7819, 262.9699
990.2640, 266.6356
990.7461, 269.3654
991.2282, 271.9545
991.7103, 275.1099
992.1924, 278.0208
992.6746, 279.7127
993.1567, 279.9336
993.6388, 279.9257
994.1209, 279.7626
994.6030, 279.6777
995.0851, 279.9214
995.5673, 280.3404
996.0494, 280.9201
996.5315, 281.5590
997.0136, 281.5866
997.4957, 280.7759
997.9778, 279.4998
998.4600, 277.3653
998.9421, 274.9354
999.4242, 274.4372
999.9063, 275.6940
1000.388, 277.1052
1000.871, 278.8730
1001.353, 279.2330
1001.835, 274.6332
1002.317, 268.5602
1002.799, 265.5150
1003.281, 268.3405
1003.763, 268.9128
1004.245, 266.5346
1004.728, 263.5624
1005.210, 261.8782
1005.692, 261.0274
1006.174, 259.5757
1006.656, 257.6181
1007.138, 255.8574
1007.620, 255.2691
1008.102, 254.4183
1008.584, 252.1060
1009.067, 249.1731
1009.549, 247.6989
1010.031, 247.8702
1010.513, 247.4568
1010.995, 245.9283
1011.477, 243.9275
1011.959, 241.9136
1012.441, 240.0094
1012.924, 238.5925
1013.406, 238.0504
1013.888, 237.0427
1014.370, 235.0667
1014.852, 232.6523
1015.334, 230.3342
1015.816, 228.1137
1016.298, 224.2159
1016.780, 218.8495
1017.263, 214.2270
1017.745, 212.1885
1018.227, 210.8081
1018.709, 209.4249
1019.191, 207.6631
1019.673, 204.6624
1020.155, 199.5298
1020.637, 195.8646
1021.120, 194.2141
1021.602, 193.1118
1022.084, 190.7703
1022.566, 187.9061
1023.048, 186.0691
1023.530, 185.3875
1024.012, 184.1506
1024.494, 180.9582
1024.976, 178.0288
1025.458, 176.3547
1025.941, 175.4823
1026.423, 173.6356
1026.905, 170.8658
1027.387, 168.8471
1027.869, 168.6074
1028.351, 168.5380
1028.833, 166.8781
1029.316, 164.6318
1029.798, 163.0280
1030.280, 162.2603
1030.762, 162.3524
1031.244, 163.7435
1031.726, 164.6679
1032.208, 163.0844
1032.690, 160.1500
1033.172, 159.3018
1033.655, 160.3231
1034.137, 161.5615
1034.619, 162.4257
1035.101, 162.9671
1035.583, 163.0489
1036.065, 162.9299
1036.547, 163.1415
1037.029, 163.6846
1037.511, 163.5510
1037.994, 162.5518
1038.476, 161.1970
1038.958, 159.5852
1039.440, 158.0244
1039.922, 157.1778
1040.404, 157.3059
1040.886, 155.9354
1041.368, 152.5071
1041.851, 148.6618
1042.333, 145.0091
1042.815, 141.4662
1043.297, 137.6840
1043.779, 133.7444
1044.261, 130.0650
1044.743, 126.9961
1045.225, 123.9537
1045.708, 120.5437
1046.190, 117.2079
1046.672, 114.3223
1047.154, 111.8842
1047.636, 110.0892
1048.118, 108.9409
1048.600, 107.7985
1049.082, 105.9087
1049.564, 103.9896
1050.047, 102.7236
1050.529, 102.0423
1051.011, 101.6688
1051.493, 101.9799
1051.975, 101.6501
1052.457, 100.3286
1052.939, 98.52020
1053.421, 96.74384
1053.903, 95.15189
1054.386, 94.15820
1054.868, 93.92383
1055.350, 93.60315
1055.832, 92.82565
1056.314, 91.83270
1056.796, 90.70526
1057.278, 89.50067
1057.760, 88.54852
1058.243, 87.83926
1058.725, 87.24982
1059.207, 87.01392
1059.689, 86.38574
1060.171, 84.05676
1060.653, 81.18484
1061.135, 79.51575
1061.617, 79.89389
1062.099, 79.86591
1062.582, 79.27762
1063.064, 78.75061
1063.546, 78.87482
1064.028, 79.37787
1064.510, 79.96786
1064.992, 80.50555
1065.474, 80.39291
1065.956, 78.91901
1066.438, 77.34036
1066.921, 76.05121
1067.403, 74.79532
1067.885, 72.86826
1068.367, 70.40390
1068.849, 68.83743
1069.331, 68.38861
1069.813, 68.48352
1070.295, 69.23810
1070.778, 69.93445
1071.260, 69.96680
1071.742, 69.34225
1072.224, 68.58328
1072.706, 67.73035
1073.188, 66.57007
1073.670, 64.91199
1074.152, 62.98724
1074.635, 60.54016
1075.117, 58.30515
1075.599, 57.54642
1076.081, 59.67407
1076.563, 60.52972
1077.045, 59.57544
1077.527, 57.87045
1078.009, 55.82159
1078.491, 53.61145
1078.974, 51.95923
1079.456, 50.80832
1079.938, 49.91144
1080.420, 48.92313
1080.902, 48.42249
1081.384, 49.32755
1081.866, 50.47253
1082.348, 50.21155
1082.831, 48.45404
1083.313, 47.08118
1083.795, 46.26242
1084.277, 45.95142
1084.759, 46.57037
1085.241, 47.32513
1085.723, 47.86325
1086.205, 48.02505
1086.688, 46.81607
1087.170, 43.64389
1087.652, 40.92096
1088.134, 39.24942
1088.616, 38.23489
1089.098, 37.55118
1089.580, 37.03506
1090.062, 36.39746
1090.544, 35.54636
1091.026, 34.77579
1091.509, 34.63425
1091.991, 33.80869
1092.473, 31.21082
1092.955, 27.66132
1093.437, 26.42429
1093.919, 27.04724
1094.401, 27.42386
1094.883, 26.04480
1095.366, 25.18683
1095.848, 26.79153
1096.330, 28.79913
1096.812, 28.98422
1097.294, 26.98938
1097.776, 27.05899
1098.258, 29.20905
1098.740, 31.63284
1099.223, 33.31537
1099.705, 34.54932
1100.187, 35.20322
1100.669, 35.64246
1101.151, 36.74936
1101.633, 38.51343
1102.115, 41.19632
1102.597, 45.00262
1103.079, 48.87680
1103.562, 50.88580
1104.044, 52.69641
1104.526, 57.71823
1105.008, 65.77350
1105.490, 70.83377
1105.972, 68.48132
1106.454, 67.79327
1106.936, 71.26389
1107.418, 76.95605
1107.901, 81.13074
1108.383, 84.42801
1108.865, 88.71014
1109.347, 94.57828
1109.829, 100.0529
1110.311, 104.3633
1110.793, 107.9757
1111.275, 111.2897
1111.758, 114.1275
1112.240, 115.5269
1112.722, 115.4880
1113.204, 113.8300
1113.686, 110.1794
1114.168, 105.4860
1114.650, 99.93869
1115.132, 94.03174
1115.615, 88.09210
1116.097, 82.00180
1116.579, 77.20770
1117.061, 73.89713
1117.543, 70.18713
1118.025, 64.20370
1118.507, 57.81689
1118.989, 53.08566
1119.471, 49.44434
1119.953, 45.69928
1120.436, 41.45670
1120.918, 37.67502
1121.400, 34.45139
1121.882, 31.53574
1122.364, 28.92395
1122.846, 26.34177
1123.328, 22.98495
1123.810, 19.05286
1124.293, 16.01123
1124.775, 15.14957
1125.257, 13.98810
1125.739, 12.01199
1126.221, 9.752533
1126.703, 8.102020
1127.185, 6.844482
1127.667, 5.154633
1128.150, 2.899017
1128.632, 1.347687
1129.114, 2.244873
1129.596, 2.628296
1130.078, 0.8332210
1130.560, 2.110138
1131.042, 2.615295
1131.524, 1.125610
1132.006, 0.7420960
1132.489, 2.609985
1132.971, 4.183655
1133.453, 3.014313
1133.935, 1.436981
1134.417, 1.415161
1134.899, 2.873840
1135.381, 3.579498
1135.863, 3.548615
1136.346, 3.056030
1136.828, 1.914764
1137.310, 0.9056090
1137.792, 0.7111820
1138.274, 1.082977
1138.756, 1.832001
1139.238, 3.124329
1139.720, 3.666748
1140.203, 3.353882
1140.685, 2.820892
1141.167, 2.356659
1141.649, 1.969574
1142.131, 1.452362
1142.613, 0.9747010
1143.095, 0.9519350
1143.577, 2.416138
1144.059, 2.537994
1144.542, 0.8793950
1145.024, 0.9460750
1145.506, 1.557007
1145.988, 1.383972
1146.470, 0.9300840
1146.952, 0.2971500
1147.434, 0.1990660
1147.916, 0.3663940
1148.398, 0.4659730
1148.881, 0.6732180
1149.363, 0.8567810
1149.845, 0.1935120
1150.327, 0.7786250
1150.809, 2.2186000E-02
1151.291, 2.469543
1151.773, 4.166809
1152.255, 3.002289
1152.738, 2.097565
1153.220, 2.393707
1153.702, 3.393250
1154.184, 4.336273
1154.666, 5.183167
1155.148, 5.794342
1155.630, 6.151489
1156.112, 6.087372
1156.594, 5.150757
1157.077, 4.152985
1157.559, 3.427155
1158.041, 2.990936
1158.523, 3.151794
1159.005, 3.766388
1159.487, 3.569336
1159.969, 1.960938
1160.451, 0.5081790
1160.933, 0.4712220
1161.416, 0.8503720
1161.898, 0.9739690
1162.380, 0.8255000
1162.862, 0.2234500
1163.344, 0.8080140
1163.826, 1.435486
1164.308, 1.139801
1164.790, 0.7384340
1165.273, 0.8668210
1165.755, 1.235260
1166.237, 1.627075
1166.719, 2.099182
1167.201, 1.578400
1167.683, 4.0070001E-02
1168.165, 0.9228210
1168.647, 0.6126100
1169.130, 2.409271
1169.612, 2.018738
1170.094, 0.7419740
1170.576, 0.7058110
1171.058, 2.617340
1171.540, 3.397583
1172.022, 2.858124
1172.504, 2.611145
1172.986, 4.056091
1173.469, 6.174377
1173.951, 8.008362
1174.433, 9.615814
1174.915, 11.10031
1175.397, 12.44013
1175.879, 13.76526
1176.361, 15.06244
1176.843, 16.48883
1177.326, 17.69446
1177.808, 19.46225
1178.290, 23.43781
1178.772, 28.98764
1179.254, 33.36005
1179.736, 35.35422
1180.218, 38.62024
1180.700, 43.97345
1181.182, 49.27554
1181.665, 51.64795
1182.147, 52.85519
1182.629, 55.87131
1183.111, 60.44250
1183.593, 63.54947
1184.075, 64.49527
1184.557, 64.21225
1185.039, 62.42471
1185.521, 60.61414
1186.004, 61.83478
1186.486, 63.91779
1186.968, 62.98459
1187.450, 58.77737
1187.932, 54.85736
1188.414, 52.14359
1188.896, 49.37527
1189.378, 46.30139
1189.861, 42.98505
1190.343, 39.40079
1190.825, 35.72144
1191.307, 32.50031
1191.789, 29.87427
1192.271, 26.56998
1192.753, 21.46872
1193.235, 17.21640
1193.718, 14.87744
1194.200, 13.56497
1194.682, 11.94818
1195.164, 10.01211
1195.646, 7.420929
1196.128, 3.765411
1196.610, 1.686401
1197.092, 2.964264
1197.574, 3.644958
1198.057, 1.795258
1198.539, 1.118164
1199.021, 1.584442
1199.503, 0.5978390
1199.985, 0.5483700
1200.467, 2.544830
1200.949, 3.593933
1201.431, 2.864441
1201.913, 1.630188
1202.396, 0.1781010
1202.878, 1.130615
1203.360, 1.188904
1203.842, 0.3948060
1204.324, 0.2151180
1204.806, 0.2074890
1205.288, 0.4618840
1205.770, 1.833344
1206.253, 2.223175
1206.735, 0.2090450
1207.217, 4.104340
1207.699, 5.483917
1208.181, 5.115845
1208.663, 5.131683
1209.145, 6.236572
1209.627, 7.858307
1210.109, 10.11710
1210.592, 12.58838
1211.074, 14.86279
1211.556, 16.98212
1212.038, 19.14697
1212.520, 21.39691
1213.002, 23.47556
1213.484, 25.86774
1213.966, 26.62457
1214.448, 23.59531
1214.931, 22.69690
1215.413, 32.06329
1215.895, 46.06424
1216.377, 47.45703
1216.859, 39.61652
1217.341, 33.30750
1217.823, 33.49832
1218.305, 34.27719
1218.788, 35.14960
1219.270, 36.05450
1219.752, 36.90298
1220.234, 37.97321
1220.716, 38.88818
1221.198, 40.20810
1221.680, 41.51508
1222.162, 42.81165
1222.645, 43.91888
1223.127, 44.70749
1223.609, 45.64682
1224.091, 47.74158
1224.573, 50.05624
1225.055, 49.89011
1225.537, 47.96658
1226.019, 47.33121
1226.501, 50.81638
1226.984, 52.96545
1227.466, 53.08398
1227.948, 52.42618
1228.430, 52.32135
1228.912, 52.32736
1229.394, 51.26630
1229.876, 49.44540
1230.358, 48.37402
1230.841, 49.07675
1231.323, 49.28381
1231.805, 48.74716
1232.287, 47.78598
1232.769, 46.44598
1233.251, 45.04633
1233.733, 44.52881
1234.215, 42.60068
1234.698, 43.24411
1235.180, 39.42038
1235.662, 36.61453
1236.144, 35.35831
1236.626, 34.56564
1237.108, 33.06891
1237.590, 31.40054
1238.072, 30.08820
1238.554, 29.19275
1239.036, 28.87369
1239.519, 29.22833
1240.001, 29.81766
1240.483, 30.69058
1240.965, 31.27328
1241.447, 30.70154
1241.929, 29.74963
1242.411, 29.39047
1242.893, 29.43832
1243.376, 28.65637
1243.858, 26.57663
1244.340, 25.82208
1244.822, 26.90048
1245.304, 28.23880
1245.786, 28.71332
1246.268, 28.60812
1246.750, 28.15799
1247.233, 27.46060
1247.715, 26.75595
1248.197, 25.97574
1248.679, 25.98013
1249.161, 26.95981
1249.643, 27.79678
1250.125, 27.43585
1250.607, 26.70035
1251.089, 25.46402
1251.572, 24.41187
1252.054, 24.09241
1252.536, 24.87897
1253.018, 25.69040
1253.500, 26.12445
1253.982, 25.63690
1254.464, 23.15247
1254.946, 20.52634
1255.428, 19.48065
1255.911, 18.94324
1256.393, 17.25385
1256.875, 14.65631
1257.357, 13.56610
1257.839, 14.33459
1258.321, 14.73138
1258.803, 13.09940
1259.285, 11.10489
1259.768, 9.322052
1260.250, 7.790009
1260.732, 6.320068
1261.214, 5.146454
1261.696, 5.811798
1262.178, 8.464783
1262.660, 9.793945
1263.142, 6.722992
1263.625, 4.101685
1264.107, 3.440857
1264.589, 3.730194
1265.071, 3.555725
1265.553, 2.946228
1266.035, 1.854156
1266.517, 0.2992250
1266.999, 1.136444
1267.481, 3.095001
1267.964, 3.276428
1268.446, 0.5485230
1268.928, 2.635010
1269.410, 2.186005
1269.892, 0.1277770
1270.374, 0.1892700
1270.856, 1.410767
1271.338, 2.618408
1271.820, 3.094727
1272.303, 3.463348
1272.785, 3.925934
1273.267, 4.020813
1273.749, 2.529266
1274.231, 0.8419490
1274.713, 0.8492130
1275.195, 2.357666
1275.677, 3.003143
1276.160, 2.548981
1276.642, 2.153351
1277.124, 1.972687
1277.606, 2.171051
1278.088, 3.410004
1278.570, 4.628967
1279.052, 4.942047
1279.534, 4.495270
1280.016, 3.676605
1280.499, 2.459320
1280.981, 2.111877
1281.463, 2.803986
1281.945, 4.242645
1282.427, 7.247955
1282.909, 9.939850
1283.391, 10.98285
1283.873, 10.92603
1284.356, 10.31088
1284.838, 8.981018
1285.320, 7.639557
1285.802, 7.620483
1286.284, 8.941589
1286.766, 7.966339
1287.248, 8.334747
1287.730, 10.79111
1288.213, 13.52823
1288.695, 13.50076
1289.177, 11.90359
1289.659, 11.31558
1290.141, 11.47314
1290.623, 12.24167
1291.105, 14.20898
1291.587, 15.64014
1292.069, 16.18820
1292.552, 16.05237
1293.034, 14.49490
1293.516, 12.19461
1293.998, 9.994293
1294.480, 8.319122
1294.962, 8.519287
1295.444, 11.70279
1295.926, 12.70178
1296.408, 10.75241
1296.891, 8.234589
1297.373, 7.357758
1297.855, 6.924591
1298.337, 5.447113
1298.819, 3.598511
1299.301, 3.333313
1299.783, 4.929626
1300.265, 4.965942
1300.748, 3.200958
1301.230, 1.303467
1301.712, 0.5497740
1302.194, 0.1218870
1302.676, 0.0000000E+00
##END=



