##NAMES=Parahopeite
##RRUFFID=R050463
##IDEAL CHEMISTRY=Zn_3_(PO_4_)_2_&#183;4H_2_O
##LOCALITY=Broken Hill mine, Kabwe, Zambia
##OWNER=RRUFF
##SOURCE=University of Arizona Mineral Museum
##DESCRIPTION=Colorless elongated subparallel aggregate of crystals
##STATUS=The identification of this mineral has been confirmed by X-ray diffraction and chemical analysis
##URL=rruff.info/R050463
##MEASURED CHEMISTRY=Zn_3.00_(P_1.00_O_4_)_2_Â·4H_2_O
137.1737, 0.0000000E+00
137.6559, 0.2376250
138.1380, 0.1768950
138.6201, 0.1908110
139.1022, 5.5411998E-02
139.5843, 8.1786998E-02
140.0664, 0.1486050
140.5486, 6.4514004E-02
141.0307, 0.1677780
141.5128, 0.5641480
141.9949, 1.171059
142.4770, 1.947723
142.9591, 3.033913
143.4413, 4.542175
143.9234, 6.339989
144.4055, 8.213554
144.8876, 10.02878
145.3697, 11.78549
145.8518, 13.45800
146.3340, 14.94197
146.8161, 16.42196
147.2982, 17.89055
147.7803, 19.38396
148.2624, 20.97644
148.7445, 22.76993
149.2267, 24.81361
149.7088, 26.79839
150.1909, 28.66190
150.6730, 30.52554
151.1551, 32.32976
151.6372, 34.12833
152.1194, 36.17146
152.6015, 38.81533
153.0836, 42.29309
153.5657, 45.84377
154.0478, 49.51646
154.5299, 53.24767
155.0121, 56.78545
155.4942, 60.00528
155.9763, 63.42758
156.4584, 68.02313
156.9405, 73.80379
157.4227, 79.75098
157.9048, 85.53822
158.3869, 91.30671
158.8690, 97.31648
159.3511, 103.6167
159.8332, 110.3056
160.3154, 117.4771
160.7975, 125.1155
161.2796, 133.0209
161.7617, 141.1177
162.2438, 149.4431
162.7259, 157.8948
163.2081, 167.4483
163.6902, 176.2652
164.1723, 183.5506
164.6544, 189.2467
165.1365, 192.3310
165.6186, 191.7668
166.1008, 187.4332
166.5829, 179.9204
167.0650, 167.2409
167.5471, 153.0461
168.0292, 138.8904
168.5113, 125.2054
168.9935, 112.3261
169.4756, 100.8587
169.9577, 90.60236
170.4398, 82.11800
170.9219, 75.75294
171.4040, 70.69692
171.8862, 66.42355
172.3683, 62.67768
172.8504, 59.51066
173.3325, 57.20027
173.8146, 56.75177
174.2967, 56.46568
174.7789, 56.35315
175.2610, 56.45159
175.7431, 56.67860
176.2252, 56.96689
176.7073, 57.36135
177.1894, 57.94343
177.6716, 59.12685
178.1537, 59.98178
178.6358, 60.51997
179.1179, 60.60683
179.6000, 59.94579
180.0821, 58.32517
180.5643, 55.91740
181.0464, 53.30532
181.5285, 50.38229
182.0106, 47.41882
182.4927, 44.48026
182.9749, 41.58327
183.4570, 38.78544
183.9391, 36.05216
184.4212, 33.50836
184.9033, 31.34873
185.3854, 29.69566
185.8676, 28.22987
186.3497, 26.76427
186.8318, 25.30220
187.3139, 23.72357
187.7960, 21.93112
188.2781, 19.99784
188.7603, 17.98926
189.2424, 15.88007
189.7245, 13.76635
190.2066, 11.74405
190.6887, 9.786942
191.1708, 8.015556
191.6530, 6.379700
192.1351, 4.977139
192.6172, 3.977516
193.0993, 3.483158
193.5814, 3.267971
194.0635, 2.885170
194.5457, 2.242939
195.0278, 1.661713
195.5099, 1.139576
195.9920, 0.6570660
196.4741, 0.1854860
196.9562, 0.2898410
197.4384, 0.7409440
197.9205, 1.083324
198.4026, 1.292923
198.8847, 1.398804
199.3668, 1.354488
199.8489, 1.236191
200.3311, 1.140823
200.8132, 1.119671
201.2953, 1.130337
201.7774, 1.005135
202.2595, 0.3281940
202.7416, 1.6941000E-02
203.2238, 0.2668110
203.7059, 0.8915180
204.1880, 1.466434
204.6701, 1.783222
205.1522, 1.892918
205.6344, 2.014904
206.1165, 2.232620
206.5986, 2.370041
207.0807, 2.411591
207.5628, 2.345753
208.0449, 2.119347
208.5271, 1.673164
209.0092, 1.090710
209.4913, 0.7296370
209.9734, 0.7571220
210.4555, 0.7549320
210.9376, 0.5110820
211.4198, 0.1123700
211.9019, 0.1978230
212.3840, 0.2793580
212.8661, 0.2001910
213.3482, 0.1583180
213.8303, 0.1165890
214.3125, 0.1608430
214.7946, 0.3372190
215.2767, 0.6415100
215.7588, 1.062710
216.2409, 1.677113
216.7230, 2.350853
217.2052, 2.840611
217.6873, 3.062534
218.1694, 3.267536
218.6515, 3.627663
219.1336, 4.142208
219.6157, 4.763298
220.0979, 5.645309
220.5800, 6.513023
221.0621, 7.005348
221.5442, 6.998062
222.0263, 6.966343
222.5084, 7.435333
222.9906, 8.459270
223.4727, 9.415688
223.9548, 10.12401
224.4369, 10.67062
224.9190, 11.06152
225.4011, 11.29227
225.8833, 11.49120
226.3654, 11.88232
226.8475, 12.55748
227.3296, 12.96890
227.8117, 12.59444
228.2938, 12.17943
228.7760, 12.23374
229.2581, 12.85106
229.7402, 13.68129
230.2223, 14.25916
230.7044, 14.50202
231.1866, 14.76067
231.6687, 15.03656
232.1508, 15.36129
232.6329, 15.73015
233.1150, 16.15501
233.5971, 16.68544
234.0793, 17.44024
234.5614, 18.60711
235.0435, 19.52494
235.5256, 19.96052
236.0077, 20.34331
236.4898, 20.92883
236.9720, 21.76077
237.4541, 22.72640
237.9362, 23.66649
238.4183, 24.50292
238.9004, 25.50623
239.3825, 26.71521
239.8647, 28.01995
240.3468, 29.40111
240.8289, 30.83183
241.3110, 32.21251
241.7931, 33.44090
242.2752, 34.48052
242.7574, 35.41590
243.2395, 35.96586
243.7216, 36.63048
244.2037, 37.79205
244.6858, 39.45905
245.1679, 41.32294
245.6501, 43.05001
246.1322, 44.59844
246.6143, 46.15296
247.0964, 47.67508
247.5785, 49.23697
248.0606, 50.92237
248.5428, 52.71628
249.0249, 54.52599
249.5070, 56.27191
249.9891, 57.96183
250.4712, 59.49607
250.9533, 60.78513
251.4355, 62.00381
251.9176, 63.29090
252.3997, 64.64526
252.8818, 65.98383
253.3639, 67.30810
253.8460, 68.57382
254.3282, 69.25763
254.8103, 68.80202
255.2924, 68.20728
255.7745, 68.37641
256.2566, 69.23886
256.7387, 69.76550
257.2209, 69.09193
257.7030, 67.39763
258.1851, 66.18713
258.6672, 66.10558
259.1493, 65.97802
259.6314, 64.85136
260.1136, 62.85627
260.5957, 60.90802
261.0778, 59.47045
261.5599, 58.45887
262.0420, 57.51054
262.5241, 56.84098
263.0063, 56.02454
263.4884, 54.63514
263.9705, 52.73115
264.4526, 50.89915
264.9347, 49.53978
265.4168, 48.34765
265.8990, 46.70266
266.3811, 44.31655
266.8632, 42.11050
267.3453, 40.94197
267.8275, 40.64030
268.3096, 40.00755
268.7917, 38.48115
269.2738, 36.56324
269.7559, 34.92657
270.2380, 33.58700
270.7202, 32.39366
271.2023, 31.25084
271.6844, 30.16973
272.1665, 29.24192
272.6486, 28.64331
273.1307, 28.04389
273.6129, 26.93616
274.0950, 25.32401
274.5771, 24.10158
275.0592, 24.07465
275.5413, 25.03674
276.0234, 25.76868
276.5056, 25.95248
276.9877, 26.04994
277.4698, 26.51093
277.9519, 27.24824
278.4340, 27.82639
278.9161, 27.91824
279.3983, 27.61607
279.8804, 27.36748
280.3625, 27.35363
280.8446, 27.12690
281.3267, 26.32957
281.8088, 25.14396
282.2910, 23.98987
282.7731, 23.17857
283.2552, 22.57101
283.7373, 21.68241
284.2194, 20.37608
284.7015, 19.03548
285.1837, 17.84470
285.6658, 16.73125
286.1479, 15.57933
286.6300, 14.33190
287.1121, 13.02740
287.5942, 11.73377
288.0764, 10.39771
288.5585, 9.206886
289.0406, 8.317055
289.5227, 7.558922
290.0048, 6.764153
290.4869, 5.856483
290.9691, 4.918518
291.4512, 4.050034
291.9333, 3.204643
292.4154, 2.590347
292.8975, 2.528702
293.3796, 2.559624
293.8618, 2.229591
294.3439, 1.425110
294.8260, 0.6431960
295.3081, 0.6664730
295.7902, 1.739784
296.2723, 2.451561
296.7545, 2.101028
297.2366, 1.651085
297.7187, 1.674324
298.2008, 2.204178
298.6829, 2.856354
299.1650, 3.191261
299.6472, 3.156174
300.1293, 3.308640
300.6114, 3.868080
301.0935, 4.459587
301.5756, 4.797081
302.0577, 4.986671
302.5399, 5.417191
303.0220, 6.573891
303.5041, 8.399506
303.9862, 9.597878
304.4683, 9.588257
304.9504, 9.589005
305.4326, 10.01781
305.9147, 10.77695
306.3968, 11.66646
306.8789, 12.59626
307.3610, 13.54643
307.8431, 14.38800
308.3253, 14.93918
308.8074, 15.68281
309.2895, 16.84723
309.7716, 18.21814
310.2537, 19.51463
310.7358, 20.60916
311.2180, 21.61994
311.7001, 22.84129
312.1822, 24.49055
312.6643, 25.87764
313.1464, 26.50282
313.6285, 27.06377
314.1107, 28.20754
314.5928, 30.09409
315.0749, 32.25204
315.5570, 33.98981
316.0392, 35.18212
316.5213, 36.40186
317.0034, 37.56184
317.4855, 38.88242
317.9676, 40.70220
318.4497, 42.92861
318.9319, 44.97240
319.4140, 46.11416
319.8961, 46.23381
320.3782, 46.62658
320.8603, 47.20914
321.3424, 48.19492
321.8246, 50.02519
322.3067, 52.35751
322.7888, 54.41119
323.2709, 55.57002
323.7530, 55.94157
324.2351, 56.28492
324.7173, 56.65702
325.1994, 56.90865
325.6815, 56.86553
326.1636, 56.72182
326.6457, 56.81342
327.1278, 57.37537
327.6100, 58.09871
328.0921, 58.16701
328.5742, 57.33391
329.0563, 56.26145
329.5384, 54.98558
330.0205, 53.69699
330.5027, 52.48212
330.9848, 51.40370
331.4669, 50.30179
331.9490, 49.03490
332.4311, 47.54914
332.9132, 45.72694
333.3954, 43.06619
333.8775, 40.34928
334.3596, 38.14273
334.8417, 36.37022
335.3238, 34.82154
335.8059, 33.27452
336.2881, 31.76254
336.7702, 30.38018
337.2523, 29.12449
337.7344, 27.95906
338.2165, 26.93339
338.6986, 25.96089
339.1808, 25.00096
339.6629, 23.83730
340.1450, 22.55258
340.6271, 21.64843
341.1092, 21.23991
341.5913, 20.91402
342.0735, 20.44343
342.5556, 19.92322
343.0377, 19.47417
343.5198, 19.15518
344.0019, 18.91635
344.4840, 18.69352
344.9662, 18.51545
345.4483, 18.29646
345.9304, 17.88199
346.4125, 17.40862
346.8946, 16.99802
347.3767, 16.69587
347.8589, 16.49500
348.3410, 16.40618
348.8231, 16.40237
349.3052, 16.28001
349.7873, 15.87178
350.2694, 15.52380
350.7516, 15.51279
351.2337, 15.77425
351.7158, 16.02889
352.1979, 16.07153
352.6800, 15.97752
353.1621, 15.98068
353.6443, 16.07330
354.1264, 16.29408
354.6085, 16.78106
355.0906, 17.38547
355.5727, 17.84741
356.0548, 17.96476
356.5370, 18.04492
357.0191, 18.52982
357.5012, 19.44648
357.9833, 20.43576
358.4654, 21.31026
358.9475, 22.21558
359.4297, 23.39986
359.9118, 24.98132
360.3939, 26.39521
360.8760, 27.04433
361.3581, 27.09599
361.8402, 27.45823
362.3224, 28.47939
362.8045, 29.64366
363.2866, 30.53713
363.7687, 31.16403
364.2508, 31.34954
364.7329, 30.85439
365.2151, 29.92646
365.6972, 28.94232
366.1793, 27.91829
366.6614, 26.90770
367.1436, 26.05626
367.6257, 25.24858
368.1078, 24.12989
368.5899, 22.37901
369.0720, 20.52040
369.5541, 19.00185
370.0363, 17.77756
370.5184, 16.56013
371.0005, 15.19931
371.4826, 13.78156
371.9647, 12.48299
372.4468, 11.29684
372.9290, 10.23535
373.4111, 9.383537
373.8932, 8.646210
374.3753, 7.871506
374.8574, 7.020584
375.3395, 6.118515
375.8217, 5.134594
376.3038, 4.025368
376.7859, 3.267338
377.2680, 3.142456
377.7501, 3.232746
378.2322, 3.242695
378.7144, 3.135731
379.1965, 2.870087
379.6786, 2.383659
380.1607, 1.717674
380.6428, 1.190762
381.1249, 0.7677000
381.6071, 0.4809150
382.0892, 0.4510880
382.5713, 0.5704770
383.0534, 0.6115610
383.5355, 0.4872400
384.0176, 0.2477340
384.4998, 3.0148000E-02
384.9819, 0.4894750
385.4640, 0.7301750
385.9461, 0.5280570
386.4282, 0.2349360
386.9103, 0.1756290
387.3925, 0.9549290
387.8746, 0.2883910
388.3567, 6.9599003E-02
388.8388, 0.1345020
389.3209, 0.9730450
389.8030, 0.5703010
390.2852, 0.7737770
390.7673, 1.002815
391.2494, 0.3896060
391.7315, 1.330605
392.2136, 0.7324410
392.6957, 0.7499080
393.1779, 0.4868240
393.6600, 0.8337400
394.1421, 0.9933430
394.6242, 0.5444070
395.1063, 0.4337500
395.5884, 0.8541870
396.0706, 0.5782550
396.5527, 1.549099
397.0348, 1.427933
397.5169, 0.8363610
397.9990, 1.231632
398.4811, 0.9502790
398.9633, 1.201263
399.4454, 0.9081310
399.9275, 0.6581690
400.4096, 0.5059590
400.8917, 0.4950450
401.3738, 0.6086770
401.8560, 0.8197750
402.3381, 1.323296
402.8202, 1.536446
403.3023, 1.019508
403.7844, 0.2866440
404.2665, 9.8259002E-02
404.7487, 4.7104001E-02
405.2308, 0.3479580
405.7129, 0.3300090
406.1950, 2.6356000E-02
406.6771, 0.3288500
407.1592, 0.4750100
407.6414, 0.5812300
408.1235, 0.7386130
408.6056, 0.9376600
409.0877, 1.116230
409.5698, 1.230198
410.0519, 1.299194
410.5341, 1.339848
411.0162, 1.318897
411.4983, 1.401005
411.9804, 1.779709
412.4625, 2.308182
412.9446, 2.758411
413.4268, 3.138210
413.9089, 3.358429
414.3910, 3.218784
414.8731, 2.810528
415.3553, 2.583115
415.8374, 2.706249
416.3195, 3.027020
416.8016, 3.316242
417.2837, 3.558235
417.7658, 3.922058
418.2480, 4.628235
418.7301, 5.386585
419.2122, 5.789948
419.6943, 5.814041
420.1764, 5.876251
420.6585, 6.337154
421.1407, 7.151428
421.6228, 7.742271
422.1049, 8.178616
422.5870, 8.352242
423.0691, 8.001091
423.5512, 7.394009
424.0334, 7.021511
424.5155, 7.084835
424.9976, 7.410904
425.4797, 7.703201
425.9618, 8.118649
426.4439, 8.135937
426.9261, 7.384354
427.4082, 6.536663
427.8903, 6.164902
428.3724, 6.206669
428.8545, 6.117664
429.3366, 5.395950
429.8188, 4.085869
430.3009, 3.260601
430.7830, 3.446255
431.2651, 3.560452
431.7472, 3.379017
432.2293, 3.057079
432.7115, 2.806828
433.1936, 2.704945
433.6757, 2.639774
434.1578, 2.374783
434.6399, 1.770100
435.1220, 1.462513
435.6042, 1.979084
436.0863, 2.396923
436.5684, 2.125614
437.0505, 1.327881
437.5326, 0.6324810
438.0147, 0.5420760
438.4969, 0.8639560
438.9790, 0.8564380
439.4611, 0.3100280
439.9432, 3.3859000E-02
440.4253, 0.3117680
440.9074, 0.9361380
441.3896, 1.439117
441.8717, 1.735123
442.3538, 1.933510
442.8359, 2.123432
443.3180, 2.295166
443.8001, 2.371704
444.2823, 2.315109
444.7644, 2.192699
445.2465, 1.944576
445.7286, 1.692566
446.2107, 1.672642
446.6928, 2.105904
447.1750, 2.619286
447.6571, 2.977978
448.1392, 3.151154
448.6213, 3.297581
449.1034, 3.571983
449.5855, 3.812321
450.0677, 3.914371
450.5498, 3.727440
451.0319, 3.648621
451.5140, 3.872208
451.9961, 4.166737
452.4782, 4.210617
452.9604, 3.935413
453.4425, 3.632473
453.9246, 3.703072
454.4067, 4.122589
454.8888, 4.336739
455.3709, 4.216198
455.8531, 4.069523
456.3352, 4.092674
456.8173, 4.186043
457.2994, 4.228848
457.7815, 4.145081
458.2636, 4.057121
458.7458, 4.280125
459.2279, 5.171070
459.7100, 5.580845
460.1921, 5.105911
460.6742, 4.502899
461.1563, 4.225189
461.6385, 4.283371
462.1206, 4.447037
462.6027, 4.527214
463.0848, 4.535625
463.5669, 4.602024
464.0491, 4.741982
464.5312, 4.968117
465.0133, 5.395573
465.4954, 5.833363
465.9775, 6.059341
466.4597, 6.010864
466.9418, 5.920616
467.4239, 6.088398
467.9060, 6.446400
468.3881, 6.513714
468.8702, 6.120716
469.3524, 5.622173
469.8345, 5.264496
470.3166, 5.033092
470.7987, 4.924294
471.2808, 5.001087
471.7629, 5.150799
472.2451, 5.269470
472.7272, 5.372066
473.2093, 5.547733
473.6914, 5.861137
474.1735, 6.211117
474.6556, 6.398071
475.1378, 6.407913
475.6199, 6.322620
476.1020, 6.069614
476.5841, 5.790031
477.0662, 5.517612
477.5483, 5.308655
478.0305, 5.381851
478.5126, 5.957344
478.9947, 6.948933
479.4768, 7.570740
479.9589, 7.614151
480.4410, 7.538078
480.9232, 7.176868
481.4053, 6.838806
481.8874, 6.869205
482.3695, 7.333973
482.8516, 7.999779
483.3337, 8.599247
483.8159, 9.123451
484.2980, 9.663483
484.7801, 10.36386
485.2622, 10.90524
485.7443, 10.99890
486.2264, 10.90625
486.7086, 11.05667
487.1907, 11.65493
487.6728, 12.47047
488.1549, 13.20395
488.6370, 13.85268
489.1191, 14.44683
489.6013, 14.92884
490.0834, 15.43546
490.5655, 16.09403
491.0476, 16.88903
491.5297, 17.70549
492.0118, 18.42326
492.4940, 19.17807
492.9761, 20.19517
493.4582, 21.47746
493.9403, 22.72667
494.4224, 23.80432
494.9045, 24.73399
495.3867, 25.56056
495.8688, 26.26815
496.3509, 27.01501
496.8330, 27.76749
497.3151, 28.57181
497.7972, 29.48145
498.2794, 30.54980
498.7615, 31.86309
499.2436, 33.56773
499.7257, 35.58867
500.2078, 36.79942
500.6899, 36.33395
501.1721, 36.09985
501.6542, 36.58167
502.1363, 37.35352
502.6184, 38.00208
503.1005, 38.39612
503.5826, 38.57298
504.0648, 38.56794
504.5469, 38.37838
505.0290, 38.05936
505.5111, 37.58862
505.9932, 37.00158
506.4753, 36.28737
506.9575, 35.48522
507.4396, 34.67095
507.9217, 33.89484
508.4038, 33.04235
508.8859, 32.04700
509.3680, 30.89433
509.8502, 29.30932
510.3323, 26.99406
510.8144, 24.60254
511.2965, 22.89013
511.7786, 21.72692
512.2607, 20.34145
512.7429, 18.04741
513.2250, 15.85218
513.7071, 14.81393
514.1892, 14.69264
514.6713, 14.37630
515.1534, 13.34319
515.6356, 11.93246
516.1177, 10.81786
516.5998, 10.17923
517.0819, 9.416813
517.5640, 8.247982
518.0461, 7.170460
518.5283, 6.602627
519.0104, 6.449596
519.4925, 6.333714
519.9746, 6.005035
520.4567, 5.527214
520.9388, 5.156345
521.4210, 5.064449
521.9031, 4.747890
522.3852, 3.959637
522.8673, 3.097485
523.3494, 2.386826
523.8315, 1.871006
524.3137, 1.550014
524.7958, 1.513012
525.2779, 1.663326
525.7600, 1.654861
526.2421, 1.454063
526.7242, 1.219151
527.2064, 0.9764440
527.6885, 0.7619090
528.1706, 0.6520160
528.6527, 0.6870800
529.1348, 0.6325380
529.6169, 0.2878000
530.0991, 0.1952510
530.5812, 0.6221850
531.0633, 0.9652020
531.5454, 1.098301
532.0275, 0.8790210
532.5096, 0.3685650
532.9918, 1.4040000E-03
533.4739, 0.2452810
533.9560, 0.3562550
534.4381, 0.1814230
534.9202, 4.6783000E-02
535.4023, 5.4859001E-02
535.8845, 0.1934170
536.3666, 0.5274280
536.8487, 0.7882160
537.3308, 0.9763450
537.8129, 1.074764
538.2951, 1.004044
538.7772, 0.9438510
539.2593, 0.8276210
539.7415, 0.7958180
540.2236, 1.036789
540.7057, 1.591652
541.1878, 2.242313
541.6699, 2.770981
542.1520, 3.196930
542.6342, 3.658310
543.1163, 4.156239
543.5984, 4.734917
544.0805, 5.517632
544.5626, 6.324574
545.0447, 6.844288
545.5269, 6.861816
546.0090, 6.997757
546.4911, 7.756119
546.9732, 8.814053
547.4553, 9.498112
547.9374, 9.674110
548.4196, 9.886978
548.9017, 10.70825
549.3838, 12.15963
549.8659, 13.33252
550.3480, 13.85309
550.8301, 14.54915
551.3123, 15.81433
551.7944, 17.33270
552.2765, 18.63808
552.7586, 19.59491
553.2407, 20.54308
553.7228, 21.91822
554.2050, 23.75584
554.6871, 25.35043
555.1692, 26.48929
555.6513, 27.71685
556.1334, 29.17550
556.6155, 30.80968
557.0977, 32.55632
557.5798, 34.40034
558.0619, 36.47149
558.5440, 39.17880
559.0261, 42.19498
559.5082, 44.38782
559.9904, 45.46973
560.4725, 46.30227
560.9546, 47.58956
561.4367, 49.14973
561.9188, 50.15029
562.4009, 50.40093
562.8831, 50.31809
563.3652, 50.11479
563.8473, 49.66614
564.3294, 48.66364
564.8115, 47.07813
565.2936, 45.27565
565.7758, 43.56139
566.2579, 41.94367
566.7400, 40.94956
567.2221, 41.20893
567.7042, 41.36038
568.1863, 41.12057
568.6685, 40.69908
569.1506, 40.33823
569.6327, 40.08158
570.1148, 39.75502
570.5969, 39.21288
571.0790, 38.46020
571.5612, 37.49402
572.0433, 36.23375
572.5254, 34.99382
573.0075, 34.12392
573.4896, 33.28541
573.9717, 31.88494
574.4539, 29.70162
574.9360, 27.61680
575.4181, 26.10378
575.9002, 24.91128
576.3823, 23.80042
576.8644, 22.70210
577.3466, 21.35579
577.8287, 19.50622
578.3108, 17.30826
578.7929, 15.52694
579.2750, 14.39095
579.7571, 13.38929
580.2393, 12.53312
580.7214, 11.78319
581.2035, 11.17409
581.6856, 10.65906
582.1677, 10.06768
582.6498, 9.254284
583.1320, 8.291481
583.6141, 7.415443
584.0962, 6.586842
584.5783, 5.976967
585.0604, 5.868980
585.5425, 5.811733
586.0247, 5.346920
586.5068, 4.502731
586.9889, 3.796093
587.4710, 3.586678
587.9531, 3.540249
588.4352, 3.219284
588.9174, 2.671677
589.3995, 2.256870
589.8816, 2.168205
590.3637, 2.227100
590.8458, 2.107235
591.3279, 1.746883
591.8101, 1.342251
592.2922, 0.6480940
592.7743, 0.1477240
593.2564, 0.2216950
593.7385, 0.6614110
594.2206, 1.076488
594.7028, 1.288937
595.1849, 1.346542
595.6670, 1.319923
596.1491, 1.208221
596.6312, 1.003269
597.1133, 0.5528180
597.5955, 0.2098160
598.0776, 0.2066310
598.5597, 0.4229970
599.0418, 0.6675530
599.5239, 0.9875830
600.0060, 1.102177
600.4882, 0.5480920
600.9703, 0.3565830
601.4524, 0.7736360
601.9345, 0.5274660
602.4166, 0.1379280
602.8987, 6.6628002E-02
603.3809, 0.2818950
603.8630, 0.3129770
604.3451, 6.6071004E-02
604.8272, 0.2160680
605.3093, 0.6853330
605.7914, 1.047699
606.2736, 0.9048420
606.7557, 0.2892720
607.2378, 0.3241690
607.7199, 0.5214610
608.2020, 0.3873180
608.6841, 0.3648410
609.1663, 0.5519180
609.6484, 0.5629350
610.1305, 3.3229999E-02
610.6126, 0.5403750
611.0947, 0.7063220
611.5768, 0.4621320
612.0590, 0.1619380
612.5411, 0.1311380
613.0232, 0.3449780
613.5053, 0.3290560
613.9874, 0.1377940
614.4695, 6.4156003E-02
614.9517, 0.2544210
615.4338, 0.4943580
615.9159, 0.4000320
616.3980, 0.2164080
616.8801, 0.5225030
617.3622, 0.2374840
617.8444, 2.1179000E-02
618.3265, 7.0239998E-02
618.8086, 0.3417170
619.2907, 0.5179290
619.7728, 0.4976460
620.2549, 0.3552670
620.7371, 0.1236920
621.2192, 0.1876110
621.7013, 0.3276940
622.1834, 0.2784190
622.6655, 6.9087997E-02
623.1476, 0.4641990
623.6298, 1.089687
624.1119, 1.373615
624.5940, 1.125706
625.0761, 1.011471
625.5582, 1.484627
626.0403, 2.175720
626.5225, 2.638653
627.0046, 2.839638
627.4867, 2.929340
627.9688, 3.002525
628.4509, 3.044678
628.9330, 2.993984
629.4152, 2.687004
629.8973, 2.592926
630.3794, 2.843693
630.8615, 3.171673
631.3436, 3.424480
631.8257, 3.630009
632.3079, 3.903202
632.7900, 4.324600
633.2721, 4.772827
633.7542, 5.012264
634.2363, 5.082272
634.7184, 5.392906
635.2006, 6.113144
635.6827, 6.810730
636.1648, 7.032509
636.6469, 6.856903
637.1291, 6.939892
637.6112, 7.484173
638.0933, 8.046383
638.5754, 8.496597
639.0576, 8.879780
639.5397, 9.244022
640.0218, 9.598415
640.5039, 9.940720
640.9860, 10.28217
641.4681, 10.60122
641.9503, 10.78016
642.4324, 10.73948
642.9145, 10.75755
643.3966, 10.99344
643.8787, 11.22710
644.3608, 11.22321
644.8430, 11.05157
645.3251, 11.08166
645.8072, 11.72138
646.2893, 12.40000
646.7714, 12.47805
647.2535, 12.10476
647.7357, 11.76171
648.2178, 11.59303
648.6999, 11.44805
649.1820, 11.16595
649.6641, 10.74132
650.1462, 10.27201
650.6284, 9.732185
651.1105, 9.179195
651.5926, 8.565529
652.0747, 7.981335
652.5568, 7.529430
653.0389, 7.214020
653.5211, 6.962490
654.0032, 6.778496
654.4853, 6.586414
654.9674, 6.109783
655.4495, 5.313713
655.9316, 4.632664
656.4138, 4.220726
656.8959, 3.979954
657.3780, 3.827526
657.8601, 3.762470
658.3422, 3.668327
658.8243, 3.498344
659.3065, 3.269257
659.7886, 2.988857
660.2707, 2.724094
660.7528, 2.570904
661.2349, 2.534645
661.7170, 2.490501
662.1992, 2.261868
662.6813, 1.861679
663.1634, 1.749474
663.6455, 2.127804
664.1276, 2.392929
664.6097, 2.193329
665.0919, 1.873940
665.5740, 1.805698
666.0561, 2.018276
666.5382, 2.164162
667.0203, 2.024567
667.5024, 1.785835
667.9846, 1.642677
668.4667, 1.562450
668.9488, 1.477913
669.4309, 1.363415
669.9130, 1.337643
670.3951, 1.614548
670.8773, 2.309502
671.3594, 2.423950
671.8415, 1.152771
672.3236, 0.2659150
672.8057, 0.3487660
673.2878, 0.8171200
673.7700, 1.123173
674.2521, 1.189594
674.7342, 1.176094
675.2163, 1.180164
675.6984, 1.203499
676.1805, 1.352089
676.6627, 1.617420
677.1448, 1.682690
677.6269, 1.387020
678.1090, 1.008366
678.5911, 0.8384670
679.0732, 0.9245410
679.5554, 0.9129490
680.0375, 0.6490820
680.5196, 0.5073590
681.0017, 0.6879040
681.4838, 1.032402
681.9659, 1.397263
682.4481, 1.721401
682.9302, 1.938473
683.4123, 1.970387
683.8944, 1.849216
684.3765, 1.677811
684.8586, 1.441921
685.3408, 1.242924
685.8229, 1.106293
686.3050, 1.032436
686.7871, 1.013111
687.2692, 1.044567
687.7513, 1.182449
688.2335, 1.546951
688.7156, 1.900566
689.1977, 2.081455
689.6798, 2.180553
690.1619, 2.372059
690.6440, 2.682941
691.1262, 2.965118
691.6083, 3.079937
692.0904, 3.033382
692.5725, 2.840046
693.0546, 2.429649
693.5367, 2.078930
694.0189, 1.782486
694.5010, 1.654274
694.9831, 1.893814
695.4652, 2.441807
695.9473, 2.831726
696.4294, 2.799129
696.9116, 2.694458
697.3937, 2.765514
697.8758, 2.935577
698.3579, 3.063629
698.8400, 3.113636
699.3221, 3.096561
699.8043, 3.007248
700.2864, 2.863689
700.7685, 2.836922
701.2506, 3.017857
701.7327, 3.128590
702.2148, 3.064304
702.6970, 2.953453
703.1791, 2.904739
703.6612, 2.886993
704.1433, 2.756859
704.6254, 2.373085
705.1075, 1.979012
705.5897, 1.726406
706.0718, 1.621243
706.5539, 1.776760
707.0360, 2.184258
707.5181, 2.462605
708.0002, 2.278549
708.4824, 1.730766
708.9645, 1.307320
709.4466, 0.9980280
709.9287, 0.8350070
710.4108, 0.8338200
710.8929, 0.9605670
711.3751, 1.335102
711.8572, 1.816795
712.3393, 2.058380
712.8214, 1.885841
713.3035, 1.573120
713.7856, 1.340076
714.2678, 1.145687
714.7499, 0.8244900
715.2320, 0.3779790
715.7141, 0.1491090
716.1962, 0.4017830
716.6783, 0.9627650
717.1605, 1.321999
717.6426, 1.441311
718.1247, 1.423691
718.6068, 1.044422
719.0889, 0.7703780
719.5710, 0.9611170
720.0532, 1.356972
720.5353, 1.495644
721.0174, 1.223316
721.4995, 0.8216060
721.9816, 0.3666380
722.4637, 9.2240004E-03
722.9459, 9.0691000E-02
723.4280, 0.6349910
723.9101, 0.9382710
724.3922, 0.6088680
724.8743, 3.7285000E-02
725.3564, 6.9430000E-03
725.8386, 0.7185440
726.3207, 1.095573
726.8028, 0.9194070
727.2849, 0.6441610
727.7670, 0.3364220
728.2491, 4.0707000E-02
728.7313, 0.2387350
729.2134, 0.4921490
729.6955, 0.5862050
730.1776, 0.2821160
730.6597, 0.1585200
731.1418, 0.2842480
731.6240, 0.1416280
732.1061, 4.0382002E-02
732.5882, 8.6750001E-02
733.0703, 0.2426070
733.5524, 0.5127640
734.0345, 0.9167250
734.5167, 0.9109310
734.9988, 0.1613920
735.4809, 0.7773930
735.9631, 0.3803670
736.4452, 0.3035580
736.9273, 0.7894480
737.4094, 1.001373
737.8915, 0.9576380
738.3737, 0.4955250
738.8558, 1.3687000E-02
739.3379, 1.6201001E-02
739.8200, 0.2992440
740.3021, 0.6829380
740.7842, 1.077831
741.2664, 1.366596
741.7485, 1.435699
742.2306, 1.317787
742.7127, 1.209774
743.1948, 1.130604
743.6769, 1.034786
744.1591, 0.8199040
744.6412, 0.6867030
745.1233, 0.8191800
745.6054, 1.098907
746.0875, 1.282749
746.5696, 1.288410
747.0518, 1.210663
747.5339, 1.052731
748.0160, 0.8879320
748.4981, 0.8491550
748.9802, 0.9376750
749.4623, 1.091469
749.9445, 1.285328
750.4266, 1.462032
750.9087, 1.493992
751.3908, 1.309540
751.8729, 1.334545
752.3550, 1.760990
752.8372, 2.145435
753.3193, 2.481846
753.8014, 2.618870
754.2835, 2.250080
754.7656, 1.372616
755.2477, 0.7696690
755.7299, 1.093044
756.2120, 1.595928
756.6941, 1.380531
757.1762, 0.7995340
757.6583, 0.8834690
758.1404, 1.866474
758.6226, 2.844337
759.1047, 2.847809
759.5868, 2.061569
760.0689, 1.873199
760.5510, 2.645470
761.0331, 3.077728
761.5153, 2.641541
761.9974, 2.053028
762.4795, 1.723793
762.9616, 1.655403
763.4437, 1.880932
763.9258, 2.686169
764.4080, 3.301006
764.8901, 3.235104
765.3722, 2.856148
765.8543, 2.418839
766.3364, 2.058739
766.8185, 2.125618
767.3007, 2.821636
767.7828, 3.641315
768.2649, 3.557037
768.7470, 2.523132
769.2291, 1.840176
769.7112, 1.570873
770.1934, 1.636642
770.6755, 2.238895
771.1576, 3.012344
771.6397, 3.248829
772.1218, 2.846058
772.6039, 2.670036
773.0861, 3.161407
773.5682, 3.601604
774.0503, 3.548492
774.5324, 3.222744
775.0145, 2.925648
775.4966, 2.759983
775.9788, 2.697552
776.4609, 2.751038
776.9430, 2.828575
777.4251, 2.571926
777.9072, 2.001434
778.3893, 1.912212
778.8715, 2.608196
779.3536, 3.371342
779.8357, 3.573215
780.3178, 3.296154
780.7999, 3.093845
781.2820, 3.016014
781.7642, 2.925186
782.2463, 2.851040
782.7284, 2.730385
783.2105, 2.454552
783.6926, 2.155045
784.1747, 2.008104
784.6569, 2.062441
785.1390, 2.232098
785.6211, 2.566351
786.1032, 2.922581
786.5853, 2.995909
787.0674, 2.788900
787.5496, 2.458977
788.0317, 2.080780
788.5138, 1.766273
788.9959, 1.697842
789.4780, 1.914745
789.9601, 1.958456
790.4423, 1.651274
790.9244, 1.467155
791.4065, 1.687551
791.8886, 1.954765
792.3707, 1.866808
792.8528, 1.491423
793.3350, 1.341530
793.8171, 1.948662
794.2992, 2.488438
794.7813, 2.293678
795.2634, 1.785515
795.7455, 1.562477
796.2277, 1.649284
796.7098, 1.726479
797.1919, 1.608128
797.6740, 1.368767
798.1561, 1.071259
798.6382, 0.7037120
799.1204, 0.7132640
799.6025, 1.279442
800.0846, 1.811333
800.5667, 2.036880
801.0488, 2.051971
801.5309, 1.983959
802.0131, 1.817505
802.4952, 1.648884
802.9773, 1.481579
803.4594, 1.332806
803.9415, 1.206619
804.4236, 1.101891
804.9058, 1.030182
805.3879, 0.9920040
805.8700, 0.9403500
806.3521, 0.8403700
806.8342, 0.8015370
807.3163, 1.127907
807.7985, 1.684204
808.2806, 1.841713
808.7627, 1.483383
809.2448, 1.018677
809.7269, 0.7055020
810.2090, 0.5500830
810.6912, 0.6048470
811.1733, 1.084587
811.6554, 1.273540
812.1375, 0.8586200
812.6196, 0.4932290
813.1017, 0.3870620
813.5839, 0.4957660
814.0660, 0.8669890
814.5481, 1.522079
815.0302, 1.861397
815.5123, 1.325157
815.9944, 0.6506120
816.4766, 0.4760480
816.9587, 0.5854260
817.4408, 0.5255200
817.9229, 0.2151790
818.4050, 9.6717998E-02
818.8871, 0.2187120
819.3693, 0.1675070
819.8514, 6.8470001E-02
820.3335, 0.5017700
820.8156, 0.7805710
821.2977, 0.7902370
821.7798, 0.8442040
822.2620, 1.258965
822.7441, 1.824413
823.2262, 1.874523
823.7083, 0.9622730
824.1904, 0.5784150
824.6725, 1.351414
825.1547, 2.008644
825.6368, 1.859661
826.1189, 1.306061
826.6010, 0.8880390
827.0831, 0.7109180
827.5652, 0.5782360
828.0474, 0.2791900
828.5295, 2.3910999E-02
829.0116, 0.1821060
829.4937, 0.5738600
829.9758, 0.6932260
830.4579, 0.4511680
830.9401, 0.1887820
831.4222, 0.1798170
831.9043, 0.3168070
832.3864, 0.2282410
832.8685, 0.1859630
833.3506, 0.2938770
833.8328, 0.1145210
834.3149, 0.5301130
834.7971, 0.6858100
835.2792, 0.6682170
835.7613, 0.6392400
836.2434, 0.6078990
836.7255, 0.5155940
837.2076, 0.2351260
837.6898, 2.4329999E-02
838.1719, 2.6009001E-02
838.6540, 0.1571880
839.1361, 0.4084400
839.6182, 0.7071340
840.1003, 0.7706830
840.5825, 0.3009220
841.0646, 0.2876740
841.5467, 0.3854260
842.0288, 0.1302110
842.5109, 5.8403000E-02
842.9930, 0.1189840
843.4752, 0.1071050
843.9573, 5.0788999E-02
844.4394, 3.6366001E-02
844.9215, 0.1469730
845.4036, 0.3220830
845.8857, 0.2964590
846.3679, 6.7844003E-02
846.8500, 0.3879200
847.3321, 0.5608440
847.8142, 0.5947380
848.2963, 0.4354250
848.7784, 9.9380001E-02
849.2606, 0.1185650
849.7427, 0.1056670
850.2248, 3.8910002E-02
850.7069, 7.1530002E-03
851.1890, 7.6812997E-02
851.6711, 0.2802770
852.1533, 0.5519520
852.6354, 0.6758040
853.1175, 0.5296100
853.5996, 0.3314250
854.0817, 0.3946040
854.5638, 0.5882800
855.0460, 0.4916610
855.5281, 0.1229250
856.0102, 5.2696001E-02
856.4923, 0.1707460
856.9744, 0.4774400
857.4565, 0.4543190
857.9387, 0.1138920
858.4208, 7.8552000E-02
858.9029, 8.7387003E-02
859.3850, 3.0972000E-02
859.8671, 0.1207540
860.3492, 0.2755130
860.8314, 0.4103360
861.3135, 0.5091440
861.7956, 0.4278830
862.2777, 3.0387999E-02
862.7598, 0.2449610
863.2419, 0.2068600
863.7241, 0.6666490
864.2062, 0.5922160
864.6883, 0.2601430
865.1704, 0.2525600
865.6525, 0.6720620
866.1346, 1.055115
866.6168, 1.029747
867.0989, 0.7758140
867.5810, 0.5119670
868.0631, 0.2511860
868.5452, 5.6609999E-02
869.0273, 5.1128000E-02
869.5095, 5.8155000E-02
869.9916, 6.0486000E-02
870.4737, 0.2551080
870.9558, 0.3244820
871.4379, 0.2456970
871.9200, 0.1417160
872.4022, 4.0871002E-02
872.8843, 0.1165010
873.3664, 4.8981000E-02
873.8485, 0.3184700
874.3306, 0.5233610
874.8127, 0.6721840
875.2949, 0.7760160
875.7770, 0.7597390
876.2591, 0.7724380
876.7412, 0.9591060
877.2233, 1.136234
877.7054, 1.130444
878.1876, 0.9739990
878.6697, 0.7836420
879.1518, 0.5850790
879.6339, 0.4387050
880.1160, 0.3293270
880.5981, 0.3406940
881.0803, 0.7161060
881.5624, 1.329769
882.0445, 1.756397
882.5266, 1.869400
883.0087, 1.841286
883.4908, 1.857967
883.9730, 1.889156
884.4551, 1.763386
884.9372, 1.460735
885.4193, 1.357815
885.9014, 1.563164
886.3835, 1.802052
886.8657, 1.891483
887.3478, 1.908936
887.8299, 2.055626
888.3120, 2.393669
888.7941, 2.659630
889.2762, 2.913651
889.7584, 3.046146
890.2405, 2.993458
890.7226, 2.790897
891.2047, 2.420315
891.6868, 1.960583
892.1689, 1.714527
892.6511, 1.884220
893.1332, 2.126762
893.6153, 2.251274
894.0974, 2.376324
894.5795, 2.738651
895.0616, 3.204880
895.5438, 3.364967
896.0259, 3.062309
896.5080, 2.638908
896.9901, 2.403194
897.4722, 2.330116
897.9543, 2.441986
898.4365, 2.683201
898.9186, 2.754501
899.4007, 2.601456
899.8828, 2.374008
900.3649, 2.175407
900.8470, 1.982319
901.3292, 1.698124
901.8113, 1.254204
902.2934, 1.082851
902.7755, 1.368393
903.2576, 1.568672
903.7397, 1.299824
904.2219, 0.9193420
904.7040, 1.044140
905.1861, 1.780182
905.6682, 2.129551
906.1503, 1.776196
906.6324, 1.425026
907.1146, 1.180470
907.5967, 1.066814
908.0788, 1.232529
908.5609, 1.525822
909.0430, 1.504055
909.5251, 0.5569610
910.0073, 1.048302
910.4894, 1.292400
910.9715, 1.302544
911.4536, 0.3768500
911.9357, 0.6603160
912.4178, 0.4597780
912.9000, 0.2397120
913.3821, 0.6905210
913.8642, 0.1084710
914.3463, 0.3340260
914.8284, 0.2873690
915.3105, 0.4661670
915.7927, 0.1547850
916.2748, 1.4076000E-02
916.7569, 0.3046720
917.2390, 0.3569180
917.7211, 8.1900004E-03
918.2032, 0.1872140
918.6854, 0.6135030
919.1675, 0.5394940
919.6496, 8.7886997E-02
920.1317, 0.4329680
920.6138, 0.2464790
921.0959, 0.2471960
921.5781, 1.010700
922.0602, 1.195663
922.5423, 1.158379
923.0244, 0.6566770
923.5065, 0.3909570
923.9886, 0.6800990
924.4708, 0.8819350
924.9529, 0.6465070
925.4350, 0.2015800
925.9171, 0.2771720
926.3992, 0.7137260
926.8813, 0.7651670
927.3635, 0.1772420
927.8456, 0.9593430
928.3277, 0.7966500
928.8098, 0.2225490
929.2919, 0.2535740
929.7740, 0.5833440
930.2562, 0.8504560
930.7383, 1.092773
931.2204, 1.355469
931.7025, 1.645935
932.1846, 1.986546
932.6667, 2.451805
933.1489, 3.016209
933.6310, 3.600357
934.1132, 4.178493
934.5953, 4.666920
935.0774, 4.979458
935.5595, 5.253475
936.0416, 5.818020
936.5237, 6.675816
937.0059, 7.527798
937.4880, 8.324192
937.9701, 9.368759
938.4522, 10.88531
938.9343, 12.43441
939.4164, 13.37980
939.8986, 13.80060
940.3807, 15.13784
940.8628, 18.01137
941.3449, 20.56743
941.8270, 22.27249
942.3091, 24.05426
942.7913, 26.39389
943.2734, 29.10210
943.7555, 31.90010
944.2376, 34.77003
944.7197, 37.72424
945.2018, 40.54083
945.6840, 43.71613
946.1661, 47.57409
946.6482, 51.73681
947.1303, 55.96426
947.6124, 60.19205
948.0945, 64.28300
948.5767, 68.11395
949.0588, 72.28839
949.5409, 77.19769
950.0230, 82.66531
950.5051, 88.73699
950.9872, 95.19567
951.4694, 101.7060
951.9515, 108.2261
952.4336, 114.7400
952.9157, 121.2333
953.3978, 127.7777
953.8799, 135.0014
954.3621, 142.2389
954.8442, 147.8477
955.3263, 151.6909
955.8084, 154.0504
956.2905, 155.0395
956.7726, 154.5768
957.2548, 152.6422
957.7369, 149.1076
958.2190, 143.1289
958.7011, 134.6082
959.1832, 125.3095
959.6653, 115.3459
960.1475, 104.8664
960.6296, 93.63144
961.1117, 82.38210
961.5938, 72.44370
962.0759, 63.85052
962.5580, 56.03186
963.0402, 49.08060
963.5223, 42.74576
964.0044, 36.84992
964.4865, 31.70974
964.9686, 27.83881
965.4507, 24.92650
965.9329, 21.92608
966.4150, 18.56694
966.8971, 15.86409
967.3792, 14.34951
967.8613, 12.94624
968.3434, 11.21516
968.8256, 9.434589
969.3077, 7.885811
969.7898, 6.562637
970.2719, 5.301151
970.7540, 3.902618
971.2361, 2.885540
971.7183, 2.840466
972.2004, 2.889698
972.6825, 2.231441
973.1646, 1.234703
973.6467, 0.2955510
974.1288, 0.9157070
974.6110, 1.289742
975.0931, 1.430202
975.5752, 0.6348460
976.0573, 1.049194
976.5394, 0.9631460
977.0215, 0.8604160
977.5037, 1.444855
977.9858, 0.7785570
978.4679, 1.350185
978.9500, 1.430721
979.4321, 1.712772
979.9142, 1.501385
980.3964, 1.201805
980.8785, 1.377163
981.3606, 1.788635
981.8427, 2.433159
982.3248, 3.178162
982.8069, 3.972542
983.2891, 4.756390
983.7712, 5.354668
984.2533, 5.840420
984.7354, 6.866035
985.2175, 8.446568
985.6996, 9.857342
986.1818, 10.93257
986.6639, 12.19138
987.1460, 13.99406
987.6281, 16.15177
988.1102, 18.18970
988.5923, 20.02878
989.0745, 22.48634
989.5566, 25.79324
990.0387, 29.04517
990.5208, 31.90581
991.0029, 34.76809
991.4850, 37.98646
991.9672, 41.44228
992.4493, 44.65374
992.9314, 47.07377
993.4135, 50.55099
993.8956, 55.83199
994.3777, 61.14598
994.8599, 65.82525
995.3420, 70.40376
995.8241, 75.24456
996.3062, 80.39940
996.7883, 86.26205
997.2704, 93.26192
997.7526, 100.2451
998.2347, 106.9722
998.7168, 113.7847
999.1989, 121.2268
999.6810, 128.6700
1000.163, 135.3779
1000.645, 141.3215
1001.127, 146.6637
1001.609, 152.4580
1002.092, 156.0828
1002.574, 156.2041
1003.056, 154.0407
1003.538, 150.3245
1004.020, 145.0845
1004.502, 138.0001
1004.984, 129.1495
1005.466, 119.4445
1005.949, 109.0208
1006.431, 98.45874
1006.913, 87.62545
1007.395, 77.29459
1007.877, 68.60637
1008.359, 61.22577
1008.841, 54.13292
1009.323, 47.04717
1009.805, 40.69554
1010.288, 35.83464
1010.770, 31.87209
1011.252, 28.24823
1011.734, 24.96073
1012.216, 22.07660
1012.698, 19.61707
1013.180, 17.54241
1013.662, 15.82461
1014.145, 14.39021
1014.627, 13.26762
1015.109, 12.32298
1015.591, 11.28066
1016.073, 10.20531
1016.555, 9.191700
1017.037, 8.247318
1017.519, 7.493980
1018.001, 7.030758
1018.484, 6.854015
1018.966, 7.048515
1019.448, 7.498981
1019.930, 7.674183
1020.412, 7.599850
1020.894, 7.837368
1021.376, 8.482433
1021.858, 9.020493
1022.341, 9.139236
1022.823, 9.113132
1023.305, 9.298298
1023.787, 9.703377
1024.269, 10.70132
1024.751, 12.35940
1025.233, 13.75312
1025.715, 14.62542
1026.198, 15.65087
1026.680, 17.31930
1027.162, 19.27359
1027.644, 20.79112
1028.126, 21.86041
1028.608, 23.06392
1029.090, 24.38340
1029.572, 25.77372
1030.054, 27.32721
1030.536, 28.78444
1031.019, 29.92593
1031.501, 30.83593
1031.983, 31.79548
1032.465, 32.88323
1032.947, 33.45198
1033.429, 33.47420
1033.911, 33.07019
1034.393, 32.30678
1034.876, 31.03331
1035.358, 29.03638
1035.840, 26.51501
1036.322, 23.86685
1036.804, 20.91665
1037.286, 18.71497
1037.768, 17.77032
1038.250, 16.58250
1038.733, 14.52733
1039.215, 12.53442
1039.697, 11.30472
1040.179, 10.58916
1040.661, 9.768257
1041.143, 8.715981
1041.625, 8.034695
1042.107, 7.987133
1042.589, 7.959740
1043.072, 7.870850
1043.554, 7.714546
1044.036, 7.317410
1044.518, 6.888683
1045.000, 6.985394
1045.482, 7.807163
1045.964, 8.402771
1046.446, 8.365314
1046.928, 8.560200
1047.411, 9.462399
1047.893, 10.43563
1048.375, 10.89146
1048.857, 11.07798
1049.339, 11.64754
1049.821, 12.75087
1050.303, 13.77786
1050.785, 14.53752
1051.268, 15.34149
1051.750, 16.49884
1052.232, 17.53750
1052.714, 17.98288
1053.196, 18.04057
1053.678, 18.24012
1054.160, 18.71220
1054.642, 18.93390
1055.125, 18.80550
1055.607, 18.37773
1056.089, 17.53508
1056.571, 16.53485
1057.053, 15.58563
1057.535, 14.62038
1058.017, 13.41689
1058.499, 11.90815
1058.981, 10.53027
1059.464, 9.443016
1059.946, 8.491833
1060.428, 7.721989
1060.910, 6.952566
1061.392, 5.926914
1061.874, 4.816708
1062.356, 3.978401
1062.838, 3.486261
1063.320, 3.098602
1063.803, 2.790081
1064.285, 2.489380
1064.767, 2.164852
1065.249, 1.836924
1065.731, 1.512869
1066.213, 1.207106
1066.695, 0.9620020
1067.177, 0.7870140
1067.660, 0.5394860
1068.142, 2.3254000E-02
1068.624, 0.4268680
1069.106, 0.2865410
1069.588, 4.6991002E-02
1070.070, 0.1232260
1070.552, 0.3619690
1071.034, 0.4170550
1071.516, 0.2340240
1071.999, 8.5410997E-02
1072.481, 6.2703997E-02
1072.963, 0.1279030
1073.445, 0.4694210
1073.927, 0.6966300
1074.409, 0.3344860
1074.891, 0.2974570
1075.373, 0.7056100
1075.855, 0.7927530
1076.338, 0.6309550
1076.820, 3.7020002E-02
1077.302, 0.4503420
1077.784, 0.4896700
1078.266, 0.4014820
1078.748, 0.3920630
1079.230, 0.4461820
1079.712, 0.5514240
1080.195, 0.6772860
1080.677, 0.6784780
1081.159, 0.4025270
1081.641, 0.2040230
1082.123, 0.3618620
1082.605, 0.5418360
1083.087, 0.4489650
1083.569, 0.2590260
1084.052, 0.2271600
1084.534, 0.3568550
1085.016, 0.4993820
1085.498, 0.6558170
1085.980, 0.6686690
1086.462, 0.2461700
1086.944, 9.6377999E-02
1087.426, 0.1431980
1087.908, 0.5367110
1088.391, 0.5645600
1088.873, 0.2494530
1089.355, 0.1236290
1089.837, 0.4896010
1090.319, 0.8482910
1090.801, 1.317602
1091.283, 1.641468
1091.765, 1.602797
1092.248, 1.413841
1092.730, 1.295563
1093.212, 1.218435
1093.694, 0.9745290
1094.176, 0.4586890
1094.658, 0.2608950
1095.140, 1.026573
1095.622, 1.599218
1096.104, 1.173071
1096.587, 0.5855920
1097.069, 0.5792790
1097.551, 0.9819490
1098.033, 1.386789
1098.515, 1.729841
1098.997, 1.846342
1099.479, 1.395073
1099.961, 1.113205
1100.443, 1.458714
1100.926, 1.847019
1101.408, 1.799599
1101.890, 1.546480
1102.372, 1.472486
1102.854, 1.617781
1103.336, 1.826023
1103.818, 2.254463
1104.300, 2.459959
1104.783, 2.081652
1105.265, 1.755112
1105.747, 1.880367
1106.229, 2.215849
1106.711, 2.531862
1107.193, 2.780083
1107.675, 2.777746
1108.157, 2.222021
1108.640, 1.931744
1109.122, 2.267220
1109.604, 2.574024
1110.086, 2.588625
1110.568, 2.464901
1111.050, 2.254799
1111.532, 2.032967
1112.014, 2.108511
1112.496, 2.801306
1112.979, 2.947277
1113.461, 1.855736
1113.943, 1.095173
1114.425, 1.248276
1114.907, 1.641329
1115.389, 1.915154
1115.871, 2.050079
1116.353, 1.955107
1116.835, 1.547598
1117.318, 1.388638
1117.800, 1.536667
1118.282, 1.840622
1118.764, 2.465246
1119.246, 2.950758
1119.728, 2.938305
1120.210, 2.743435
1120.692, 2.880136
1121.175, 3.337898
1121.657, 3.559690
1122.139, 3.523170
1122.621, 3.261889
1123.103, 2.540833
1123.585, 2.220907
1124.067, 2.873646
1124.549, 3.671955
1125.031, 3.658211
1125.514, 3.024063
1125.996, 2.665438
1126.478, 2.615761
1126.960, 2.566706
1127.442, 2.493536
1127.924, 2.528290
1128.406, 2.742311
1128.888, 2.920736
1129.370, 2.880758
1129.853, 2.735241
1130.335, 2.737207
1130.817, 2.880156
1131.299, 3.096626
1131.781, 3.409931
1132.263, 3.478363
1132.745, 3.219404
1133.227, 3.006691
1133.710, 3.081066
1134.192, 3.226589
1134.674, 3.093655
1135.156, 2.751619
1135.638, 2.545252
1136.120, 2.485115
1136.602, 2.679169
1137.084, 3.089848
1137.567, 3.204517
1138.049, 2.827663
1138.531, 2.354729
1139.013, 2.164755
1139.495, 2.157728
1139.977, 2.100161
1140.459, 2.026817
1140.941, 2.114546
1141.423, 2.307640
1141.906, 2.291464
1142.388, 2.017803
1142.870, 1.787258
1143.352, 1.791170
1143.834, 1.885443
1144.316, 2.008526
1144.798, 2.060547
1145.280, 1.680546
1145.762, 1.149563
1146.245, 1.226055
1146.727, 1.793373
1147.209, 1.939892
1147.691, 1.310036
1148.173, 0.8033220
1148.655, 1.306026
1149.137, 1.989227
1149.619, 2.166267
1150.102, 2.093309
1150.584, 1.996939
1151.066, 1.915033
1151.548, 1.838612
1152.030, 1.765278
1152.512, 1.752644
1152.994, 1.881014
1153.476, 2.024666
1153.958, 2.201389
1154.441, 2.284430
1154.923, 2.073700
1155.405, 1.801046
1155.887, 1.692707
1156.369, 1.745029
1156.851, 1.890625
1157.333, 2.199186
1157.815, 2.251688
1158.297, 1.651068
1158.780, 1.218332
1159.262, 1.348059
1159.744, 1.593714
1160.226, 1.632021
1160.708, 1.567841
1161.190, 1.606766
1161.672, 1.756899
1162.154, 1.940474
1162.637, 2.270586
1163.119, 2.424740
1163.601, 2.447012
1164.083, 2.144424
1164.565, 1.120638
1165.047, 0.2072720
1165.529, 0.3810180
1166.011, 1.343697
1166.494, 1.906178
1166.976, 1.996201
1167.458, 1.964123
1167.940, 1.790413
1168.422, 1.611877
1168.904, 1.455759
1169.386, 1.304935
1169.868, 1.137442
1170.350, 1.027374
1170.833, 1.107813
1171.315, 1.344185
1171.797, 1.637745
1172.279, 1.965048
1172.761, 1.798857
1173.243, 1.134659
1173.725, 0.7789330
1174.207, 1.036453
1174.689, 1.489645
1175.172, 1.800158
1175.654, 1.927517
1176.136, 1.743988
1176.618, 1.400352
1177.100, 1.180687
1177.582, 1.105595
1178.064, 1.259249
1178.546, 1.581421
1179.029, 1.736572
1179.511, 1.553694
1179.993, 1.304899
1180.475, 1.212841
1180.957, 1.175745
1181.439, 1.114317
1181.921, 1.035664
1182.403, 0.8807470
1182.885, 0.7318500
1183.368, 0.7816430
1183.850, 1.052130
1184.332, 1.323011
1184.814, 1.543749
1185.296, 1.674042
1185.778, 1.757805
1186.260, 1.677769
1186.742, 1.131744
1187.225, 0.5644130
1187.707, 0.5494690
1188.189, 0.9348260
1188.671, 1.073524
1189.153, 0.8157180
1189.635, 0.6654260
1190.117, 0.7531240
1190.599, 0.8058700
1191.082, 0.7256640
1191.564, 0.6890490
1192.046, 0.8288780
1192.528, 1.020823
1193.010, 1.098505
1193.492, 1.071177
1193.974, 1.015118
1194.456, 0.9291420
1194.938, 0.8329260
1195.421, 0.7417810
1195.903, 0.5106200
1196.385, 5.6334000E-02
1196.867, 0.2446670
1197.349, 9.2235997E-02
1197.831, 0.2981720
1198.313, 0.5818460
1198.795, 0.7494950
1199.277, 0.6944960
1199.760, 0.4704550
1200.242, 0.3425220
1200.724, 0.3417780
1201.206, 0.4392740
1201.688, 0.6137910
1202.170, 0.7804850
1202.652, 0.8641660
1203.134, 0.8821830
1203.617, 0.8572040
1204.099, 0.7739510
1204.581, 0.5173230
1205.063, 0.2263410
1205.545, 0.1652570
1206.027, 0.3300190
1206.509, 0.5724740
1206.991, 0.8461420
1207.474, 1.058186
1207.956, 1.174616
1208.438, 1.195940
1208.920, 1.016712
1209.402, 0.8481060
1209.884, 1.008099
1210.366, 1.204256
1210.848, 0.7725940
1211.330, 0.1952760
1211.813, 0.3892540
1212.295, 1.116451
1212.777, 1.787077
1213.259, 0.9571690
1213.741, 0.2817670
1214.223, 0.2184310
1214.705, 0.3528500
1215.187, 0.4064900
1215.669, 0.4796960
1216.152, 0.8115670
1216.634, 1.363697
1217.116, 1.390203
1217.598, 0.8278060
1218.080, 0.5549600
1218.562, 0.6693230
1219.044, 0.8123250
1219.526, 0.8620510
1220.009, 0.8052670
1220.491, 0.6128180
1220.973, 0.3671610
1221.455, 0.2167890
1221.937, 0.1490570
1222.419, 0.1785930
1222.901, 0.2233790
1223.383, 4.7109998E-03
1223.865, 0.4162430
1224.348, 0.5624160
1224.830, 0.2992860
1225.312, 8.4905997E-02
1225.794, 0.4790650
1226.276, 0.7673260
1226.758, 0.7993980
1227.240, 0.7506660
1227.722, 0.7910420
1228.204, 0.8354380
1228.687, 0.6943470
1229.169, 0.4482040
1229.651, 0.4460790
1230.133, 0.8365780
1230.615, 0.9686320
1231.097, 0.5029370
1231.579, 9.6675999E-02
1232.061, 0.2121830
1232.544, 0.3199750
1233.026, 0.1050830
1233.508, 0.2566490
1233.990, 0.6179960
1234.472, 0.9390580
1234.954, 1.033579
1235.436, 0.8715530
1235.918, 0.6562630
1236.401, 0.3706950
1236.883, 0.2102380
1237.365, 0.2158300
1237.847, 0.3722130
1238.329, 0.6845630
1238.811, 0.9874710
1239.293, 1.086353
1239.775, 1.059765
1240.257, 1.043922
1240.740, 1.044825
1241.222, 1.157303
1241.704, 1.278753
1242.186, 1.040762
1242.668, 0.4769080
1243.150, 0.1278690
1243.632, 0.2007470
1244.114, 0.3957270
1244.596, 0.6956880
1245.079, 0.8315410
1245.561, 0.4433670
1246.043, 1.7400000E-03
1246.525, 0.1063650
1247.007, 4.2440002E-03
1247.489, 0.1552660
1247.971, 0.3216590
1248.453, 0.5023610
1248.936, 0.7464640
1249.418, 0.8746090
1249.900, 0.7820360
1250.382, 0.7336120
1250.864, 0.7162690
1251.346, 0.7257440
1251.828, 0.7705310
1252.310, 0.8288150
1252.792, 0.8933180
1253.275, 0.9275210
1253.757, 0.6875380
1254.239, 0.2223850
1254.721, 0.2623200
1255.203, 0.7523440
1255.685, 0.9348550
1256.167, 0.5813770
1256.649, 0.2303660
1257.131, 3.9907001E-02
1257.614, 3.0139999E-03
1258.096, 0.2406040
1258.578, 0.4827690
1259.060, 0.2348440
1259.542, 8.3959997E-02
1260.024, 0.1151290
1260.506, 0.5617660
1260.988, 0.8456690
1261.471, 0.8637830
1261.953, 0.6833150
1262.435, 0.2054480
1262.917, 8.0073997E-02
1263.399, 0.9238510
1263.881, 1.484365
1264.363, 1.260471
1264.845, 0.8591190
1265.328, 0.3812920
1265.810, 0.1245400
1266.292, 0.5547080
1266.774, 1.431324
1267.256, 1.748333
1267.738, 1.479164
1268.220, 1.290213
1268.702, 1.178116
1269.184, 1.117422
1269.667, 1.097666
1270.149, 0.9185180
1270.631, 0.4908620
1271.113, 0.1750450
1271.595, 0.3413070
1272.077, 0.7475890
1272.559, 1.144472
1273.041, 1.452591
1273.523, 1.538977
1274.006, 1.444201
1274.488, 1.301229
1274.970, 1.113596
1275.452, 0.8719500
1275.934, 0.5760480
1276.416, 0.3115980
1276.898, 7.3858000E-02
1277.380, 6.9994003E-02
1277.863, 0.1594120
1278.345, 7.6402999E-02
1278.827, 0.4912400
1279.309, 0.9927580
1279.791, 0.8722290
1280.273, 0.4502870
1280.755, 0.4630470
1281.237, 0.9049360
1281.719, 1.171215
1282.202, 1.251606
1282.684, 1.195904
1283.166, 0.9137860
1283.648, 0.9966850
1284.130, 1.279560
1284.612, 1.544802
1285.094, 1.653389
1285.576, 1.571342
1286.059, 1.085463
1286.541, 0.4782810
1287.023, 0.1018750
1287.505, 0.0000000E+00
##END=



