##NAMES=Parisite-(Ce)
##RRUFFID=R120065
##IDEAL CHEMISTRY=CaCe_2_(CO_3_)_3_F_2_
##LOCALITY=East Kemptville Tin mine, East Kemptville, Argyle, Yarmouth Co., Nova Scotia, Canada
##OWNER=RRUFF
##SOURCE=Donald Doell
##DESCRIPTION=Pale orange hexagonal prismatic crystals, associated with R120064, anatase
##STATUS=The identification of this mineral is not yet confirmed.
##URL=rruff.info/R120065
169.0772, 0.0000000E+00
169.5593, 1.850136
170.0414, 3.321732
170.5236, 4.390343
171.0057, 5.132103
171.4878, 5.512573
171.9699, 5.546013
172.4520, 5.258072
172.9341, 4.646935
173.4163, 3.678009
173.8984, 3.680519
174.3805, 3.094383
174.8626, 2.146027
175.3447, 1.315460
175.8268, 0.6692730
176.3090, 0.3133770
176.7911, 0.2418370
177.2732, 0.3329160
177.7553, 4.3489998E-03
178.2374, 0.6966860
178.7195, 1.134369
179.2017, 0.8743740
179.6838, 0.2676770
180.1659, 0.1485980
180.6480, 0.3836820
181.1301, 0.5297620
181.6122, 0.6153790
182.0944, 0.6845020
182.5765, 0.8585050
183.0586, 1.256050
183.5407, 1.784218
184.0228, 2.221977
184.5049, 2.506531
184.9871, 2.972603
185.4692, 4.170593
185.9513, 5.981056
186.4334, 7.667007
186.9155, 8.985344
187.3976, 9.934502
187.8798, 10.46188
188.3619, 10.50719
188.8440, 10.36028
189.3261, 10.40081
189.8082, 10.61937
190.2903, 10.83034
190.7725, 10.91373
191.2546, 10.90497
191.7367, 10.96838
192.2188, 11.09690
192.7009, 11.25066
193.1830, 11.71273
193.6652, 12.51174
194.1473, 13.14594
194.6294, 13.25098
195.1115, 12.87073
195.5936, 12.54921
196.0757, 12.31122
196.5579, 12.15242
197.0400, 12.07579
197.5221, 12.08422
198.0042, 12.13251
198.4863, 12.04982
198.9684, 11.82584
199.4506, 12.29060
199.9327, 13.68201
200.4148, 15.53775
200.8969, 16.81380
201.3790, 17.45193
201.8611, 17.93184
202.3433, 18.50543
202.8254, 19.17645
203.3075, 19.94451
203.7896, 20.90690
204.2717, 21.87173
204.7538, 22.38197
205.2360, 22.46075
205.7181, 22.00818
206.2002, 20.85997
206.6823, 18.91870
207.1644, 16.86790
207.6465, 14.63167
208.1287, 12.38919
208.6108, 10.67760
209.0929, 9.614548
209.5750, 8.745331
210.0571, 7.842316
210.5392, 6.924408
211.0214, 5.856720
211.5035, 4.546494
211.9856, 3.109818
212.4677, 1.926407
212.9498, 1.047455
213.4319, 0.3100590
213.9140, 0.4457550
214.3962, 1.344009
214.8783, 1.792191
215.3604, 1.648972
215.8425, 1.030075
216.3246, 0.3744050
216.8067, 0.4187770
217.2889, 1.073013
217.7710, 1.320236
218.2531, 0.8552550
218.7352, 0.9259340
219.2173, 1.841293
219.6994, 3.383392
220.1816, 4.419464
220.6637, 4.717224
221.1458, 4.945618
221.6279, 5.494095
222.1100, 6.404449
222.5921, 7.561386
223.0743, 9.087845
223.5564, 10.85864
224.0385, 12.31242
224.5206, 13.10373
225.0027, 14.06097
225.4848, 15.74655
225.9670, 18.47113
226.4491, 21.14221
226.9312, 23.52679
227.4133, 25.79764
227.8954, 28.21649
228.3775, 30.71005
228.8597, 33.37732
229.3418, 36.25700
229.8239, 39.39685
230.3060, 42.60205
230.7881, 45.74464
231.2702, 48.92793
231.7524, 52.53557
232.2345, 56.72975
232.7166, 61.04280
233.1987, 65.07510
233.6808, 68.42270
234.1629, 72.35851
234.6451, 77.20662
235.1272, 82.74493
235.6093, 88.00186
236.0914, 92.52220
236.5735, 97.34152
237.0556, 103.1877
237.5378, 110.8310
238.0199, 117.8250
238.5020, 123.8441
238.9841, 129.1446
239.4662, 134.4858
239.9483, 139.8878
240.4305, 145.3293
240.9126, 150.9397
241.3947, 157.1436
241.8768, 162.5963
242.3589, 167.1174
242.8410, 170.8472
243.3232, 174.3670
243.8053, 177.7389
244.2874, 180.7870
244.7695, 183.4213
245.2516, 185.7784
245.7337, 187.4178
246.2159, 188.1031
246.6980, 188.0821
247.1801, 188.1503
247.6622, 188.4210
248.1443, 188.6009
248.6264, 188.4760
249.1086, 187.7098
249.5907, 187.4559
250.0728, 187.8681
250.5549, 188.7671
251.0370, 189.7797
251.5191, 191.3409
252.0013, 192.3422
252.4834, 192.2300
252.9655, 190.5859
253.4476, 188.9527
253.9297, 187.4185
254.4118, 185.8656
254.8940, 184.0337
255.3761, 182.0350
255.8582, 179.5484
256.3403, 176.5144
256.8224, 173.0780
257.3046, 168.5589
257.7867, 162.5908
258.2688, 155.8079
258.7509, 149.3407
259.2330, 143.0229
259.7151, 137.4822
260.1973, 133.0930
260.6794, 130.2327
261.1615, 127.1187
261.6436, 123.5566
262.1257, 119.9466
262.6078, 116.9564
263.0900, 114.6555
263.5721, 112.8748
264.0542, 111.5198
264.5363, 110.5179
265.0184, 110.4919
265.5005, 111.7639
265.9827, 113.6397
266.4648, 115.1696
266.9469, 116.2631
267.4290, 117.2322
267.9111, 118.0862
268.3932, 118.7872
268.8754, 119.9404
269.3575, 121.6552
269.8396, 123.6402
270.3217, 125.5620
270.8038, 127.4428
271.2859, 129.0759
271.7681, 130.4178
272.2502, 131.4682
272.7323, 132.2554
273.2144, 132.8043
273.6965, 133.0184
274.1786, 132.7938
274.6608, 132.1163
275.1429, 130.9466
275.6250, 129.0745
276.1071, 126.6450
276.5892, 124.7558
277.0714, 123.4960
277.5535, 122.5418
278.0356, 121.7227
278.5177, 121.0798
278.9998, 120.1999
279.4819, 118.8583
279.9641, 117.1776
280.4462, 115.7817
280.9283, 114.7048
281.4104, 113.8359
281.8925, 113.1978
282.3746, 112.7994
282.8568, 112.1056
283.3389, 110.9626
283.8210, 109.5337
284.3031, 108.4045
284.7852, 107.6543
285.2673, 106.5613
285.7495, 104.2997
286.2316, 100.9943
286.7137, 98.34738
287.1958, 96.79709
287.6779, 95.67957
288.1600, 93.45947
288.6422, 90.11630
289.1243, 86.83177
289.6064, 84.52368
290.0885, 82.98897
290.5706, 81.26031
291.0527, 79.16354
291.5349, 77.04059
292.0170, 75.43716
292.4991, 74.33736
292.9812, 73.44472
293.4633, 72.65939
293.9454, 71.96558
294.4276, 71.27126
294.9097, 70.53658
295.3918, 69.98962
295.8739, 70.07713
296.3560, 70.67592
296.8381, 71.20297
297.3203, 71.27139
297.8024, 71.09698
298.2845, 71.11848
298.7666, 71.35313
299.2487, 71.70734
299.7308, 72.23149
300.2130, 72.82486
300.6951, 73.18468
301.1772, 72.88005
301.6593, 72.42407
302.1414, 72.64130
302.6235, 73.51649
303.1057, 74.50078
303.5878, 75.54337
304.0699, 76.33203
304.5520, 76.22484
305.0341, 74.50568
305.5162, 72.28230
305.9984, 70.73888
306.4805, 69.79189
306.9626, 68.76152
307.4447, 67.19365
307.9268, 65.27361
308.4089, 63.28973
308.8911, 61.44618
309.3732, 59.35544
309.8553, 56.54788
310.3374, 53.20319
310.8195, 49.85867
311.3016, 47.01775
311.7838, 44.25909
312.2659, 41.10353
312.7480, 37.27151
313.2301, 33.52399
313.7122, 30.15454
314.1943, 27.15137
314.6765, 24.57069
315.1586, 22.76993
315.6407, 21.16890
316.1228, 19.32420
316.6049, 17.09039
317.0870, 15.05386
317.5692, 13.66200
318.0513, 12.59869
318.5334, 11.43196
319.0155, 9.784988
319.4976, 8.208221
319.9797, 6.960175
320.4619, 6.073029
320.9440, 5.317078
321.4261, 4.606644
321.9082, 4.009003
322.3903, 3.592194
322.8724, 3.415695
323.3546, 3.371582
323.8367, 3.560135
324.3188, 3.960861
324.8009, 4.088089
325.2830, 3.831436
325.7651, 3.301727
326.2473, 2.571686
326.7294, 1.113159
327.2115, 7.8781001E-02
327.6936, 0.1024930
328.1757, 0.3520510
328.6578, 0.3270260
329.1400, 0.6051640
329.6221, 1.664764
330.1042, 2.542206
330.5863, 3.228104
331.0684, 3.748688
331.5505, 4.085388
332.0327, 4.260422
332.5148, 4.323364
332.9969, 4.355057
333.4790, 4.167908
333.9611, 3.588150
334.4432, 2.374557
334.9254, 1.838882
335.4075, 2.471664
335.8896, 3.380325
336.3717, 3.271530
336.8538, 1.785812
337.3359, 0.1558070
337.8180, 1.242172
338.3001, 2.411530
338.7823, 4.040436
339.2644, 6.315369
339.7465, 8.658539
340.2286, 10.38768
340.7107, 11.33043
341.1928, 12.64494
341.6750, 14.57463
342.1571, 17.02051
342.6392, 19.52684
343.1213, 22.11861
343.6034, 24.75240
344.0855, 27.46440
344.5677, 30.22949
345.0498, 32.92410
345.5319, 35.48688
346.0140, 38.01927
346.4961, 40.67928
346.9782, 43.45737
347.4604, 46.41341
347.9425, 49.64301
348.4246, 53.08472
348.9067, 56.40454
349.3888, 59.57388
349.8709, 62.68060
350.3531, 65.90916
350.8352, 69.19925
351.3173, 72.30284
351.7994, 75.09653
352.2815, 77.66901
352.7636, 80.27051
353.2458, 82.87251
353.7279, 85.08508
354.2100, 86.35475
354.6921, 87.06874
355.1742, 87.92926
355.6563, 89.59033
356.1385, 91.03511
356.6206, 91.23700
357.1027, 90.34558
357.5848, 89.05180
358.0669, 87.57556
358.5490, 85.88982
359.0312, 84.06699
359.5133, 82.22324
359.9954, 80.07523
360.4775, 77.35829
360.9596, 74.22148
361.4417, 71.00400
361.9239, 67.49898
362.4060, 64.13289
362.8881, 61.26050
363.3702, 59.02306
363.8523, 56.48047
364.3344, 52.96556
364.8166, 49.20284
365.2987, 45.94345
365.7808, 43.89687
366.2629, 41.87788
366.7450, 39.52023
367.2271, 36.83194
367.7093, 34.33096
368.1914, 31.98268
368.6735, 29.83908
369.1556, 27.95811
369.6377, 26.85176
370.1198, 25.45934
370.6020, 23.40390
371.0841, 20.96349
371.5662, 19.21571
372.0483, 18.48035
372.5304, 18.09955
373.0125, 17.87726
373.4947, 18.00612
373.9768, 17.66451
374.4589, 16.54662
374.9410, 15.20007
375.4231, 14.58124
375.9052, 14.96089
376.3874, 15.27022
376.8695, 15.15280
377.3516, 14.63208
377.8337, 14.37724
378.3158, 14.40657
378.7979, 14.57622
379.2801, 14.79008
379.7622, 15.05414
380.2443, 15.26324
380.7264, 15.35272
381.2085, 15.43158
381.6906, 15.87733
382.1728, 16.69664
382.6549, 17.39256
383.1370, 17.48479
383.6191, 17.12103
384.1012, 16.91046
384.5833, 16.90958
385.0655, 17.08231
385.5476, 17.54617
386.0297, 18.21472
386.5118, 18.67311
386.9939, 18.50305
387.4760, 18.01779
387.9582, 17.75922
388.4403, 17.75713
388.9224, 17.66335
389.4045, 17.12341
389.8866, 16.34212
390.3687, 15.60235
390.8509, 15.04832
391.3330, 14.53143
391.8151, 13.96156
392.2972, 13.38103
392.7793, 12.80063
393.2614, 12.09561
393.7436, 11.40440
394.2257, 10.86554
394.7078, 10.59783
395.1899, 10.43311
395.6720, 10.32149
396.1541, 10.20522
396.6363, 10.01872
397.1184, 9.928680
397.6005, 9.595612
398.0826, 8.756683
398.5647, 7.305145
399.0468, 6.203201
399.5290, 5.845810
400.0111, 5.701897
400.4932, 5.336990
400.9753, 4.343216
401.4574, 3.686516
401.9395, 3.675163
402.4217, 4.117821
402.9038, 4.066139
403.3859, 3.149055
403.8680, 2.277992
404.3501, 1.961731
404.8322, 2.461426
405.3144, 2.589058
405.7965, 2.202644
406.2786, 1.610649
406.7607, 1.349709
407.2428, 1.493858
407.7249, 1.559372
408.2071, 1.355949
408.6892, 0.9306870
409.1713, 0.5444340
409.6534, 0.1727370
410.1355, 2.6100000E-02
410.6176, 0.2215500
411.0998, 0.8227920
411.5819, 1.235725
412.0640, 1.349442
412.5461, 1.249893
413.0282, 1.018311
413.5103, 0.6680530
413.9925, 0.2860720
414.4746, 0.2779160
414.9567, 0.7810820
415.4388, 0.6941910
415.9209, 9.2155002E-02
416.4030, 0.8149570
416.8852, 0.8062970
417.3673, 0.3121340
417.8494, 0.2609560
418.3315, 0.9687040
418.8136, 1.532196
419.2957, 1.795937
419.7779, 1.763741
420.2600, 1.500824
420.7421, 0.6432880
421.2242, 0.2009580
421.7063, 0.5403440
422.1884, 1.2230000E-02
422.6706, 0.4889530
423.1527, 0.6363600
423.6348, 0.5562820
424.1169, 0.4449840
424.5990, 0.5386510
425.0811, 0.4075550
425.5633, 0.2565920
426.0454, 1.607315
426.5275, 2.354614
427.0096, 2.087959
427.4917, 1.540581
427.9738, 1.331291
428.4560, 1.701660
428.9381, 1.888283
429.4202, 1.727295
429.9023, 1.341270
430.3844, 1.141769
430.8665, 1.176018
431.3487, 1.267448
431.8308, 1.306465
432.3129, 1.286201
432.7950, 1.451424
433.2771, 1.885338
433.7592, 2.293076
434.2414, 2.165848
434.7235, 1.561317
435.2056, 1.180046
435.6877, 1.309029
436.1698, 1.755234
436.6519, 2.222275
437.1341, 2.696770
437.6162, 2.951553
438.0983, 2.664551
438.5804, 2.084137
439.0625, 1.591736
439.5446, 1.204323
440.0268, 1.066879
440.5089, 1.509430
440.9910, 2.294189
441.4731, 2.930565
441.9552, 3.295670
442.4373, 3.364456
442.9195, 2.928185
443.4016, 2.007652
443.8837, 1.362999
444.3658, 1.595757
444.8479, 2.068504
445.3300, 2.275078
445.8122, 1.804893
446.2943, 1.468307
446.7764, 1.410126
447.2585, 1.580811
447.7406, 1.855934
448.2227, 2.423073
448.7049, 2.900597
449.1870, 3.175781
449.6691, 3.217644
450.1512, 3.194008
450.6333, 3.035431
451.1154, 2.896553
451.5976, 2.944046
452.0797, 3.243111
452.5618, 3.520096
453.0439, 3.734489
453.5260, 3.900009
454.0081, 4.087112
454.4903, 4.313721
454.9724, 4.451172
455.4545, 4.369225
455.9366, 4.107910
456.4187, 3.955917
456.9008, 3.933411
457.3830, 3.963882
457.8651, 3.987083
458.3472, 3.995148
458.8293, 3.948990
459.3114, 3.720314
459.7935, 3.540817
460.2757, 3.815689
460.7578, 4.454376
461.2399, 5.001671
461.7220, 5.059700
462.2041, 4.952713
462.6862, 5.003578
463.1684, 5.298225
463.6505, 5.585068
464.1326, 5.721031
464.6147, 5.776306
465.0968, 5.843559
465.5789, 6.024323
466.0611, 6.125961
466.5432, 6.012436
467.0253, 5.716316
467.5074, 5.575607
467.9895, 6.009445
468.4716, 6.334404
468.9538, 6.157494
469.4359, 4.946274
469.9180, 4.403076
470.4001, 4.888756
470.8822, 5.754692
471.3643, 6.061325
471.8465, 5.637482
472.3286, 5.111687
472.8107, 4.572548
473.2928, 4.100014
473.7749, 4.053459
474.2570, 4.484657
474.7392, 4.943253
475.2213, 5.053101
475.7034, 4.848557
476.1855, 4.691574
476.6676, 4.639389
477.1497, 4.637573
477.6319, 4.685478
478.1140, 4.752182
478.5961, 4.742981
479.0782, 4.414574
479.5603, 3.971748
480.0424, 3.761078
480.5246, 3.755043
481.0067, 3.749191
481.4888, 3.722122
481.9709, 3.589653
482.4530, 3.188683
482.9352, 2.292046
483.4173, 1.712997
483.8994, 2.014923
484.3815, 2.726608
484.8636, 3.186569
485.3457, 2.968338
485.8279, 2.758934
486.3100, 2.814140
486.7921, 3.131866
487.2742, 3.231010
487.7563, 2.872345
488.2384, 2.534576
488.7206, 2.528168
489.2027, 3.074112
489.6848, 3.354225
490.1669, 3.273827
490.6490, 3.013359
491.1311, 2.814896
491.6133, 2.667007
492.0954, 2.652412
492.5775, 2.853157
493.0596, 3.184357
493.5417, 3.320206
494.0238, 3.264572
494.5060, 3.161240
494.9881, 3.117409
495.4702, 3.100327
495.9523, 3.007866
496.4344, 2.798508
496.9165, 2.611595
497.3987, 2.714806
497.8808, 2.935440
498.3629, 2.949715
498.8450, 2.290115
499.3271, 1.659142
499.8092, 1.569908
500.2914, 1.939873
500.7735, 2.317337
501.2556, 2.622032
501.7377, 2.806381
502.2198, 2.840599
502.7019, 2.650055
503.1841, 2.509354
503.6662, 2.546928
504.1483, 2.597397
504.6304, 2.470741
505.1125, 2.107491
505.5946, 1.665558
506.0768, 1.046135
506.5589, 0.3536150
507.0410, 0.1816640
507.5231, 0.7006760
508.0052, 1.241791
508.4873, 1.446739
508.9695, 1.308296
509.4516, 1.143913
509.9337, 0.9415130
510.4158, 0.7822720
510.8979, 0.7896800
511.3800, 0.9299550
511.8622, 1.050484
512.3443, 1.093399
512.8264, 1.122231
513.3085, 1.261642
513.7906, 1.470261
514.2728, 1.605301
514.7549, 1.605484
515.2370, 1.489403
515.7191, 1.178490
516.2012, 0.6494370
516.6833, 0.3302840
517.1655, 0.6959300
517.6476, 1.207741
518.1297, 1.406952
518.6118, 0.8216250
519.0939, 0.3934250
519.5760, 0.4106450
520.0582, 0.6705630
520.5403, 0.6850890
521.0224, 0.2470780
521.5045, 0.1465150
521.9866, 0.3787920
522.4688, 0.4509350
522.9509, 0.3935390
523.4330, 0.1649550
523.9151, 9.5694996E-02
524.3972, 0.2822490
524.8793, 0.3906860
525.3615, 0.5196000
525.8436, 0.7181550
526.3257, 0.8372650
526.8078, 0.4618450
527.2899, 0.2704700
527.7720, 0.6396330
528.2542, 3.7354000E-02
528.7363, 0.8432540
529.2184, 1.016624
529.7005, 0.5831760
530.1826, 0.1162190
530.6647, 5.1964000E-02
531.1469, 8.8813998E-02
531.6290, 0.1544190
532.1111, 0.2953640
532.5932, 0.3151860
533.0753, 1.8080000E-03
533.5574, 0.4110720
534.0396, 0.6762620
534.5217, 0.8552930
535.0038, 0.7663270
535.4859, 5.0560001E-02
535.9680, 0.9702070
536.4501, 1.215744
536.9323, 0.1516190
537.4144, 0.7699580
537.8965, 0.9274520
538.3786, 0.2963640
538.8607, 6.9678999E-02
539.3428, 0.3666000
539.8250, 0.6997150
540.3071, 0.4204710
540.7892, 0.3647690
541.2713, 0.4666440
541.7534, 0.4972920
542.2355, 1.660164
542.7177, 1.603188
543.1998, 0.6833190
543.6819, 4.7768001E-02
544.1640, 0.6525650
544.6461, 1.490189
545.1282, 1.552467
545.6104, 0.9440690
546.0925, 0.3472440
546.5746, 6.0332999E-02
547.0567, 0.2062530
547.5388, 4.6532001E-02
548.0209, 0.9032590
548.5031, 1.512878
548.9852, 1.525650
549.4673, 1.292633
549.9494, 1.193130
550.4315, 1.445641
550.9136, 1.485100
551.3958, 1.093094
551.8779, 0.4865040
552.3600, 0.3468930
552.8421, 0.7713470
553.3242, 1.324760
553.8063, 1.938652
554.2885, 2.561119
554.7706, 2.655861
555.2527, 2.171967
555.7348, 1.718468
556.2169, 1.956009
556.6990, 2.627548
557.1812, 3.094452
557.6633, 3.256943
558.1454, 3.216232
558.6275, 2.892021
559.1096, 2.458237
559.5917, 2.215019
560.0739, 2.432396
560.5560, 2.730255
561.0381, 2.937866
561.5202, 3.068832
562.0023, 3.198624
562.4844, 3.346764
562.9666, 3.494713
563.4487, 3.607124
563.9308, 3.643799
564.4129, 3.843384
564.8950, 4.383331
565.3771, 4.903847
565.8593, 5.075172
566.3414, 4.801765
566.8235, 4.542305
567.3056, 4.282608
567.7877, 4.141846
568.2698, 4.431618
568.7520, 5.127106
569.2341, 5.743935
569.7162, 6.072037
570.1983, 6.232063
570.6804, 6.467659
571.1625, 6.760391
571.6447, 6.979980
572.1268, 6.864922
572.6089, 6.738678
573.0910, 6.918739
573.5731, 7.459526
574.0552, 8.170097
574.5374, 9.285965
575.0195, 10.38120
575.5016, 11.06025
575.9837, 10.78875
576.4658, 10.65183
576.9479, 10.72042
577.4301, 10.98888
577.9122, 11.47105
578.3943, 12.27800
578.8764, 13.08152
579.3585, 13.81517
579.8406, 14.48480
580.3228, 15.15548
580.8049, 15.84919
581.2870, 16.44586
581.7691, 16.78976
582.2512, 16.95574
582.7333, 17.23682
583.2155, 17.64844
583.6975, 18.19243
584.1796, 19.01177
584.6617, 19.94706
585.1439, 20.73683
585.6260, 21.29666
586.1081, 21.74729
586.5902, 22.06065
587.0723, 22.30309
587.5544, 22.61658
588.0366, 22.98733
588.5187, 23.51765
589.0008, 24.35570
589.4829, 25.45728
589.9650, 26.24684
590.4471, 26.58957
590.9293, 26.82217
591.4114, 27.09483
591.8935, 27.42708
592.3756, 27.62970
592.8577, 27.67221
593.3398, 27.67162
593.8220, 27.73645
594.3041, 27.83656
594.7862, 27.97147
595.2683, 28.14160
595.7504, 28.24978
596.2325, 28.05527
596.7147, 27.69601
597.1968, 27.52888
597.6789, 27.92831
598.1610, 28.39659
598.6431, 28.56302
599.1252, 28.47856
599.6074, 28.38712
600.0895, 28.23793
600.5716, 28.19608
601.0537, 28.42605
601.5358, 29.06068
602.0179, 29.32562
602.5001, 28.87460
602.9822, 28.38842
603.4643, 28.46237
603.9464, 29.36687
604.4285, 29.72972
604.9106, 29.35931
605.3928, 28.63374
605.8749, 28.06848
606.3570, 27.65367
606.8391, 27.30971
607.3212, 27.09359
607.8033, 26.83048
608.2855, 26.12680
608.7676, 25.10931
609.2497, 24.22223
609.7318, 23.88005
610.2139, 23.64787
610.6960, 23.23491
611.1782, 22.62342
611.6603, 21.84227
612.1424, 20.82081
612.6245, 19.68344
613.1066, 18.48090
613.5887, 17.07436
614.0709, 15.92420
614.5530, 15.11256
615.0351, 14.47572
615.5172, 13.85332
615.9993, 13.25600
616.4814, 12.59369
616.9636, 11.82769
617.4457, 11.03168
617.9278, 10.34095
618.4099, 9.747208
618.8920, 9.171677
619.3741, 8.548218
619.8563, 7.937653
620.3384, 7.449066
620.8205, 7.067192
621.3026, 6.720497
621.7847, 6.397003
622.2668, 6.068954
622.7490, 5.747124
623.2311, 5.440315
623.7132, 5.027000
624.1953, 4.318779
624.6774, 3.603447
625.1595, 3.083015
625.6417, 2.837181
626.1238, 2.644943
626.6059, 2.530411
627.0880, 2.450150
627.5701, 2.367302
628.0522, 2.291733
628.5344, 2.098953
629.0165, 1.687363
629.4986, 1.256744
629.9807, 1.263809
630.4628, 1.636436
630.9449, 1.984032
631.4271, 2.227417
631.9092, 2.274078
632.3913, 1.858116
632.8734, 1.069023
633.3555, 0.4788590
633.8376, 0.6282040
634.3198, 0.8558270
634.8019, 0.6765210
635.2840, 0.1011350
635.7661, 0.5113750
636.2482, 0.1276930
636.7303, 0.3791120
637.2125, 0.5354770
637.6946, 0.1708070
638.1767, 4.7706999E-02
638.6588, 5.9211999E-02
639.1409, 2.2720000E-02
639.6230, 1.8982001E-02
640.1052, 5.8830000E-02
640.5873, 3.4912001E-02
641.0694, 0.1795350
641.5515, 0.4410250
642.0336, 0.5930560
642.5157, 0.6205440
642.9979, 0.4730990
643.4800, 0.1191330
643.9621, 0.6853790
644.4442, 0.8323060
644.9263, 0.6248470
645.4084, 0.4644320
645.8906, 0.6229710
646.3727, 0.7591930
646.8548, 0.6641310
647.3369, 0.2928310
647.8190, 3.0884000E-02
648.3011, 7.1608998E-02
648.7833, 0.1306230
649.2654, 0.2759250
649.7475, 0.5385510
650.2296, 0.4615630
650.7117, 8.7898001E-02
651.1938, 0.5891110
651.6760, 0.2277680
652.1581, 0.7360530
652.6402, 1.482872
653.1223, 1.773621
653.6044, 1.837311
654.0865, 1.829437
654.5687, 1.758919
655.0508, 1.640411
655.5329, 1.188484
656.0150, 0.9821780
656.4971, 1.445702
656.9792, 2.411324
657.4614, 2.974930
657.9435, 2.704597
658.4256, 2.595039
658.9077, 3.034058
659.3898, 3.991104
659.8719, 4.698730
660.3541, 5.105675
660.8362, 5.508682
661.3183, 6.166847
661.8004, 7.000084
662.2825, 7.723007
662.7646, 8.317261
663.2468, 8.861992
663.7289, 9.488838
664.2110, 10.08341
664.6931, 10.51163
665.1752, 10.77252
665.6573, 10.79434
666.1395, 10.36851
666.6216, 9.760406
667.1037, 9.296379
667.5858, 9.282608
668.0679, 9.075172
668.5500, 8.562889
669.0322, 7.857658
669.5143, 7.215309
669.9964, 6.648018
670.4785, 6.041115
670.9606, 5.253983
671.4427, 4.474609
671.9249, 4.429710
672.4070, 5.013382
672.8891, 5.375359
673.3712, 4.683098
673.8533, 3.691597
674.3354, 3.334976
674.8176, 3.579643
675.2997, 3.824516
675.7818, 3.585388
676.2639, 3.389954
676.7460, 3.658096
677.2281, 4.645752
677.7103, 5.206078
678.1924, 4.949669
678.6745, 4.612854
679.1566, 4.785736
679.6387, 5.623055
680.1208, 6.186035
680.6030, 6.341576
681.0851, 6.458099
681.5672, 7.089844
682.0493, 8.112457
682.5314, 9.040054
683.0135, 9.770576
683.4957, 10.30785
683.9778, 10.65209
684.4599, 10.79877
684.9420, 10.73086
685.4241, 10.57162
685.9063, 10.06648
686.3884, 8.884003
686.8705, 7.245132
687.3526, 5.906609
687.8347, 5.068825
688.3168, 4.269920
688.7990, 3.343102
689.2811, 2.340935
689.7632, 1.715805
690.2453, 1.501862
690.7274, 1.438782
691.2095, 1.427635
691.6917, 1.449242
692.1738, 1.477699
692.6559, 1.506699
693.1380, 1.435623
693.6201, 1.031158
694.1022, 0.5978780
694.5844, 0.4074480
695.0665, 0.5200810
695.5486, 0.6794510
696.0307, 0.8422850
696.5128, 0.9838790
696.9949, 1.086914
697.4771, 1.137901
697.9592, 1.182312
698.4413, 1.270370
698.9234, 1.296555
699.4055, 1.079590
699.8876, 0.6151730
700.3698, 0.2412800
700.8519, 2.7977001E-02
701.3340, 9.5604002E-02
701.8161, 0.2633210
702.2982, 0.4155580
702.7803, 0.4220890
703.2625, 0.1350710
703.7446, 0.1639630
704.2267, 0.2239380
704.7088, 0.1782990
705.1909, 0.3070300
705.6730, 1.080017
706.1552, 1.546829
706.6373, 1.312119
707.1194, 0.5651090
707.6015, 0.2085110
708.0836, 0.3487550
708.5657, 0.5448760
709.0479, 0.5521320
709.5300, 0.4977720
710.0121, 0.9113850
710.4942, 1.755348
710.9763, 2.362129
711.4584, 2.013199
711.9406, 1.328850
712.4227, 1.076591
712.9048, 1.285622
713.3869, 1.620087
713.8690, 2.192909
714.3511, 2.642097
714.8333, 2.666527
715.3154, 2.007637
715.7975, 1.696022
716.2796, 1.960648
716.7617, 2.297714
717.2438, 2.267479
717.7260, 1.823532
718.2081, 1.624245
718.6902, 1.749870
719.1723, 1.943573
719.6544, 1.868370
720.1365, 1.624161
720.6187, 1.454178
721.1008, 1.392113
721.5829, 1.500275
722.0650, 1.964622
722.5471, 2.581459
723.0292, 3.083153
723.5114, 3.244469
723.9935, 3.420456
724.4756, 3.640167
724.9577, 3.917885
725.4398, 4.280151
725.9219, 4.706451
726.4041, 5.321663
726.8862, 6.234444
727.3683, 7.256798
727.8504, 7.829887
728.3325, 8.024612
728.8146, 8.324821
729.2968, 9.074409
729.7789, 9.926659
730.2610, 10.40933
730.7431, 10.64473
731.2252, 11.04460
731.7073, 11.76346
732.1895, 12.71179
732.6716, 13.94532
733.1537, 15.45481
733.6358, 16.86671
734.1179, 18.11499
734.6000, 19.29671
735.0822, 20.43026
735.5643, 21.55663
736.0464, 22.87956
736.5285, 24.38970
737.0106, 26.14346
737.4927, 28.36695
737.9749, 30.80862
738.4570, 33.12702
738.9391, 35.25824
739.4212, 37.02235
739.9033, 38.57870
740.3854, 39.58471
740.8676, 39.68285
741.3497, 38.57206
741.8318, 37.25493
742.3139, 35.77384
742.7960, 34.22647
743.2781, 32.60646
743.7603, 30.86818
744.2424, 29.09057
744.7245, 27.26859
745.2066, 25.49733
745.6887, 23.73699
746.1708, 22.10602
746.6530, 20.89481
747.1351, 20.13333
747.6172, 19.71629
748.0993, 19.65240
748.5814, 19.90071
749.0635, 20.37834
749.5457, 21.13856
750.0278, 21.96277
750.5099, 22.72078
750.9920, 23.59570
751.4741, 24.87123
751.9562, 26.69582
752.4384, 28.32324
752.9205, 29.49373
753.4026, 30.54205
753.8847, 32.14365
754.3668, 34.15807
754.8489, 36.05945
755.3311, 37.79665
755.8132, 39.14728
756.2953, 40.16283
756.7774, 40.59052
757.2595, 39.96910
757.7416, 37.93748
758.2238, 35.10873
758.7059, 31.04227
759.1880, 26.36028
759.6701, 22.30041
760.1522, 18.88086
760.6343, 15.91541
761.1165, 13.32529
761.5986, 11.18894
762.0807, 9.798866
762.5628, 9.080658
763.0449, 8.498749
763.5270, 7.724640
764.0092, 7.281631
764.4913, 6.623154
764.9734, 6.499969
765.4555, 6.358704
765.9376, 6.171188
766.4197, 5.787971
766.9019, 5.001160
767.3840, 3.966438
767.8661, 3.407394
768.3482, 3.528061
768.8303, 3.568520
769.3124, 3.106697
769.7946, 2.378242
770.2767, 2.269501
770.7588, 2.700989
771.2409, 3.152367
771.7230, 3.330139
772.2051, 3.360901
772.6873, 3.314560
773.1694, 3.216858
773.6515, 3.164597
774.1336, 3.413963
774.6157, 3.498589
775.0978, 3.096863
775.5800, 2.237801
776.0621, 1.748520
776.5442, 1.681000
777.0263, 1.848297
777.5084, 2.309540
777.9905, 2.935921
778.4727, 3.053818
778.9548, 2.683571
779.4369, 2.193573
779.9190, 1.648865
780.4011, 1.241379
780.8832, 1.219955
781.3654, 1.591316
781.8475, 1.957870
782.3296, 2.334061
782.8117, 2.537544
783.2938, 2.440163
783.7759, 2.002098
784.2581, 1.738808
784.7402, 1.691628
785.2223, 1.698120
785.7044, 1.660835
786.1865, 1.587692
786.6686, 1.498993
787.1508, 1.397522
787.6329, 1.311554
788.1150, 1.306213
788.5971, 1.300674
789.0792, 1.223022
789.5613, 1.066605
790.0435, 0.8301540
790.5256, 0.2406310
791.0077, 0.1867220
791.4898, 0.1081390
791.9719, 0.5896300
792.4540, 0.9305270
792.9362, 0.8399050
793.4183, 0.6574550
793.9004, 0.6881410
794.3825, 0.8452000
794.8646, 0.8371580
795.3467, 0.6421510
795.8289, 0.5239110
796.3110, 0.9300080
796.7931, 1.328888
797.2752, 1.155411
797.7573, 0.1179960
798.2394, 0.4463810
798.7216, 1.8310999E-02
799.2037, 0.5098880
799.6858, 0.5092160
800.1679, 0.1410680
800.6500, 0.2997740
801.1321, 9.7717002E-02
801.6143, 0.5824580
802.0964, 0.7909090
802.5785, 0.7655330
803.0606, 0.5088810
803.5427, 9.2000002E-05
804.0248, 0.3900450
804.5070, 0.3182070
804.9891, 0.1296080
805.4712, 0.1191860
805.9533, 0.4501800
806.4354, 0.5121610
806.9175, 0.1958470
807.3997, 0.2317960
807.8818, 0.6892090
808.3639, 1.161118
808.8460, 1.018051
809.3281, 0.1837160
809.8102, 0.5807650
810.2924, 0.4927980
810.7745, 4.2419001E-02
811.2566, 0.5406340
811.7387, 0.9463040
812.2208, 1.166992
812.7029, 0.9892580
813.1851, 0.7452700
813.6672, 0.7045440
814.1493, 0.9812320
814.6314, 0.9452060
815.1135, 0.4865570
815.5956, 1.3718000E-02
816.0778, 0.2607120
816.5599, 0.2888790
817.0420, 0.2226720
817.5241, 6.7107998E-02
818.0062, 9.8678999E-02
818.4883, 0.2907710
818.9705, 0.4164280
819.4526, 0.2961270
819.9347, 0.1591490
820.4168, 0.3286590
820.8989, 0.4073640
821.3810, 1.002151
821.8632, 0.8019870
822.3453, 0.3328700
822.8274, 0.7942350
823.3095, 0.4898380
823.7916, 4.0390000E-02
824.2737, 4.4661999E-02
824.7559, 0.2266080
825.2380, 0.1446840
825.7201, 1.078171
826.2022, 1.658737
826.6843, 0.9533840
827.1664, 1.4771000E-02
827.6486, 0.5661160
828.1307, 0.5742340
828.6128, 0.5684050
829.0949, 0.6336520
829.5770, 0.5462340
830.0591, 9.5427997E-02
830.5413, 0.6665040
831.0234, 1.229523
831.5055, 1.592529
831.9876, 1.717667
832.4697, 1.286591
832.9518, 0.7838900
833.4340, 0.8588870
833.9161, 1.496246
834.3982, 1.934494
834.8803, 1.713333
835.3624, 1.436172
835.8445, 1.370087
836.3267, 1.497742
836.8088, 1.566681
837.2909, 1.549408
837.7730, 1.579773
838.2551, 1.787811
838.7372, 2.092834
839.2194, 2.288849
839.7015, 2.381470
840.1836, 2.407944
840.6657, 2.062714
841.1478, 1.941330
841.6299, 2.627686
842.1121, 4.009262
842.5942, 4.918228
843.0763, 5.044342
843.5584, 5.152405
844.0405, 5.516891
844.5226, 6.031799
845.0048, 6.296646
845.4869, 6.315872
845.9690, 6.169495
846.4511, 5.720459
846.9332, 5.270767
847.4153, 5.183029
847.8975, 5.365021
848.3796, 5.546906
848.8617, 5.650436
849.3438, 5.763336
849.8259, 5.972656
850.3080, 6.200012
850.7902, 6.226807
851.2723, 5.986633
851.7544, 5.941208
852.2365, 6.283295
852.7186, 6.793930
853.2007, 7.075882
853.6829, 7.208603
854.1650, 7.421570
854.6471, 7.768723
855.1292, 8.233170
855.6113, 8.951782
856.0934, 9.709229
856.5756, 10.17285
857.0577, 10.15184
857.5398, 10.18333
858.0219, 10.27921
858.5040, 10.48352
858.9861, 10.91191
859.4683, 11.50160
859.9504, 11.95778
860.4325, 12.16008
860.9146, 12.38144
861.3967, 12.84749
861.8788, 13.44885
862.3610, 14.10645
862.8431, 14.92587
863.3252, 15.52751
863.8073, 15.64845
864.2894, 15.78235
864.7715, 16.51759
865.2537, 17.89406
865.7358, 18.70857
866.2179, 18.79887
866.7000, 18.92273
867.1821, 19.91135
867.6642, 21.33754
868.1464, 22.64047
868.6285, 23.73907
869.1106, 24.99442
869.5927, 27.23862
870.0748, 29.09523
870.5569, 29.62398
871.0391, 28.64220
871.5212, 27.48415
872.0033, 26.08386
872.4854, 24.76576
872.9675, 23.64728
873.4496, 22.79926
873.9318, 22.65382
874.4139, 23.16652
874.8960, 23.59645
875.3781, 23.52655
875.8602, 23.22476
876.3423, 22.79100
876.8245, 22.23495
877.3066, 21.71980
877.7887, 21.23436
878.2708, 20.78284
878.7529, 20.36681
879.2350, 20.01990
879.7172, 20.03242
880.1993, 20.32263
880.6814, 20.55521
881.1635, 20.41322
881.6456, 20.35345
882.1277, 20.87398
882.6099, 21.72531
883.0920, 22.20842
883.5741, 21.83070
884.0562, 21.53371
884.5383, 21.53159
885.0204, 21.62019
885.5026, 21.25349
885.9847, 20.49811
886.4668, 20.06731
886.9489, 20.32964
887.4310, 20.60046
887.9131, 19.87404
888.3953, 18.73923
888.8774, 18.10297
889.3595, 18.81244
889.8416, 19.13957
890.3237, 18.68677
890.8058, 17.90291
891.2880, 17.18669
891.7701, 16.53413
892.2522, 16.08786
892.7343, 15.88213
893.2164, 15.73207
893.6985, 15.44110
894.1807, 15.08318
894.6628, 14.76967
895.1449, 14.52682
895.6270, 14.26231
896.1091, 13.84135
896.5912, 13.48267
897.0734, 13.39381
897.5555, 13.63408
898.0376, 13.36374
898.5197, 12.52008
899.0018, 11.57031
899.4839, 10.75568
899.9661, 10.10139
900.4482, 9.730484
900.9303, 9.597839
901.4124, 9.425858
901.8945, 9.008972
902.3766, 8.586548
902.8588, 8.376663
903.3409, 8.277679
903.8230, 7.706741
904.3051, 6.442200
904.7872, 5.580124
905.2693, 5.610107
905.7515, 6.081665
906.2336, 6.206223
906.7157, 6.007965
907.1978, 5.550110
907.6799, 4.538651
908.1620, 3.680313
908.6442, 3.419601
909.1263, 3.476212
909.6084, 3.376755
910.0905, 3.070114
910.5726, 2.698181
911.0547, 2.220688
911.5369, 1.807480
912.0190, 1.874573
912.5011, 2.178452
912.9832, 1.933304
913.4653, 0.9205780
913.9474, 6.6924997E-02
914.4296, 0.5216670
914.9117, 0.7383120
915.3938, 0.9889220
915.8759, 1.374588
916.3580, 1.402237
916.8401, 0.9210050
917.3223, 0.4628910
917.8044, 0.4661100
918.2865, 0.7931370
918.7686, 0.9564510
919.2507, 0.9541170
919.7328, 0.8290860
920.2150, 0.3501430
920.6971, 1.3947000E-02
921.1792, 0.1923830
921.6613, 0.8581390
922.1434, 1.057526
922.6255, 0.5031740
923.1077, 0.1347660
923.5898, 0.3299870
924.0719, 0.7602080
924.5540, 0.6482700
925.0361, 8.4670998E-02
925.5182, 0.5877380
926.0004, 1.453659
926.4825, 2.042023
926.9646, 1.764114
927.4467, 1.125214
927.9288, 0.9029540
928.4109, 1.311584
928.8931, 1.788040
929.3752, 2.306519
929.8573, 2.880447
930.3394, 3.698273
930.8215, 4.598450
931.3036, 4.899277
931.7858, 4.482498
932.2679, 4.143860
932.7500, 4.465027
933.2321, 5.071304
933.7142, 5.742401
934.1964, 6.477005
934.6785, 7.034027
935.1606, 7.295868
935.6427, 7.675110
936.1248, 8.523071
936.6069, 9.615021
937.0891, 10.00841
937.5712, 9.851379
938.0533, 9.863647
938.5354, 10.49303
939.0175, 11.34531
939.4996, 12.23514
939.9818, 13.17119
940.4639, 14.20119
940.9460, 15.44176
941.4281, 16.40376
941.9102, 16.93204
942.3923, 17.25485
942.8745, 17.53638
943.3566, 17.92149
943.8387, 18.96225
944.3208, 21.02597
944.8029, 22.83743
945.2850, 23.41318
945.7672, 23.57573
946.2493, 24.09554
946.7314, 25.06755
947.2135, 26.18384
947.6956, 27.54294
948.1777, 28.71301
948.6599, 29.13849
949.1420, 29.15971
949.6241, 29.52657
950.1062, 30.25546
950.5883, 31.28357
951.0704, 32.75992
951.5526, 34.35028
952.0347, 35.98639
952.5168, 37.59712
952.9989, 38.84042
953.4810, 39.62170
953.9631, 40.47168
954.4453, 41.52806
954.9274, 42.75529
955.4095, 44.22400
955.8916, 45.79694
956.3737, 47.18726
956.8558, 48.14212
957.3380, 49.21848
957.8201, 50.74591
958.3022, 52.40585
958.7843, 53.87360
959.2664, 55.08534
959.7485, 56.54291
960.2307, 58.28223
960.7128, 60.06975
961.1949, 61.65173
961.6770, 63.17703
962.1591, 64.97362
962.6412, 67.03369
963.1234, 68.65912
963.6055, 69.17889
964.0876, 69.69489
964.5697, 70.56680
965.0518, 71.74689
965.5339, 73.05864
966.0161, 74.50574
966.4982, 76.21219
966.9803, 78.42184
967.4624, 80.58377
967.9445, 82.13153
968.4266, 83.16571
968.9088, 83.82343
969.3909, 83.38828
969.8730, 83.72766
970.3551, 85.34853
970.8372, 87.26245
971.3193, 88.55673
971.8015, 89.25024
972.2836, 89.41165
972.7657, 89.03059
973.2478, 88.85852
973.7299, 89.86806
974.2120, 91.05307
974.6942, 91.41766
975.1763, 90.88557
975.6584, 90.99516
976.1405, 92.23071
976.6226, 93.18690
977.1047, 93.35004
977.5869, 92.90598
978.0690, 92.03506
978.5511, 90.89838
979.0332, 90.19952
979.5153, 90.58420
979.9974, 90.90475
980.4796, 90.46085
980.9617, 89.63292
981.4438, 88.98700
981.9259, 88.65686
982.4080, 88.12672
982.8901, 87.43001
983.3723, 86.58652
983.8544, 85.38159
984.3365, 84.01846
984.8186, 83.09787
985.3007, 82.66548
985.7828, 82.07796
986.2650, 80.86676
986.7471, 79.64044
987.2292, 78.55276
987.7113, 77.58487
988.1934, 76.93700
988.6755, 76.71214
989.1577, 76.29489
989.6398, 75.35530
990.1219, 74.14951
990.6040, 73.07764
991.0861, 72.00069
991.5682, 70.65897
992.0504, 68.55508
992.5325, 66.85509
993.0146, 65.64940
993.4967, 64.76511
993.9788, 64.19394
994.4609, 63.86542
994.9431, 63.00171
995.4252, 61.55742
995.9073, 59.94162
996.3894, 58.08041
996.8715, 56.45171
997.3536, 55.63757
997.8358, 55.55234
998.3179, 54.75615
998.8000, 52.87062
999.2821, 51.19257
999.7642, 50.09177
1000.246, 49.39240
1000.728, 49.08107
1001.211, 48.88397
1001.693, 48.06360
1002.175, 46.10905
1002.657, 44.11713
1003.139, 42.23199
1003.621, 40.78755
1004.103, 40.23433
1004.585, 40.86618
1005.068, 40.57602
1005.550, 39.27963
1006.032, 37.82893
1006.514, 36.90118
1006.996, 36.15349
1007.478, 35.16696
1007.960, 33.94315
1008.442, 32.62825
1008.924, 30.84082
1009.407, 29.52509
1009.889, 29.06947
1010.371, 28.98701
1010.853, 28.13803
1011.335, 26.65976
1011.817, 25.61635
1012.299, 25.37833
1012.781, 25.04948
1013.263, 23.71344
1013.746, 22.11269
1014.228, 21.02815
1014.710, 20.67387
1015.192, 19.93256
1015.674, 18.66211
1016.156, 17.48466
1016.638, 16.82399
1017.120, 16.48172
1017.603, 16.18434
1018.085, 15.84561
1018.567, 15.18095
1019.049, 13.45152
1019.531, 12.11720
1020.013, 11.82199
1020.495, 11.98878
1020.977, 11.79564
1021.459, 11.22987
1021.942, 10.76060
1022.424, 10.46710
1022.906, 10.08501
1023.388, 9.242493
1023.870, 8.266617
1024.352, 7.492859
1024.834, 6.975662
1025.316, 6.456894
1025.799, 5.903427
1026.281, 5.390549
1026.763, 4.966034
1027.245, 4.593552
1027.727, 4.003448
1028.209, 3.338547
1028.691, 3.104324
1029.173, 3.898575
1029.656, 4.521301
1030.138, 4.365738
1030.620, 3.774368
1031.102, 3.041367
1031.584, 2.057037
1032.066, 1.610672
1032.548, 1.763672
1033.030, 1.962738
1033.512, 1.724152
1033.995, 1.291153
1034.477, 0.8050540
1034.959, 0.3448940
1035.441, 0.3154300
1035.923, 1.343842
1036.405, 1.988220
1036.887, 1.869675
1037.369, 1.334167
1037.851, 1.016937
1038.334, 0.8718570
1038.816, 0.7322690
1039.298, 0.6139370
1039.780, 0.2526700
1040.262, 0.9652560
1040.744, 2.145203
1041.226, 2.483231
1041.708, 1.922745
1042.191, 1.654266
1042.673, 1.693268
1043.155, 1.874313
1043.637, 2.347382
1044.119, 2.705536
1044.601, 2.097244
1045.083, 0.9584500
1045.565, 0.3031920
1046.047, 1.119049
1046.530, 1.403366
1047.012, 0.7751460
1047.494, 0.1106870
1047.976, 0.5633240
1048.458, 0.6386410
1048.940, 0.4692690
1049.422, 7.9727001E-02
1049.904, 6.1432000E-02
1050.386, 0.6819760
1050.869, 1.442581
1051.351, 1.506149
1051.833, 1.112930
1052.315, 1.344101
1052.797, 2.302277
1053.279, 3.100632
1053.761, 3.486206
1054.243, 3.680420
1054.726, 3.889771
1055.208, 4.121765
1055.690, 4.347565
1056.172, 4.448700
1056.654, 4.984848
1057.136, 6.280807
1057.618, 7.472580
1058.100, 7.943375
1058.583, 7.912247
1059.065, 8.180740
1059.547, 8.726486
1060.029, 9.450485
1060.511, 10.43031
1060.993, 11.41379
1061.475, 12.27817
1061.957, 13.09264
1062.439, 13.97533
1062.922, 14.95088
1063.404, 15.67969
1063.886, 16.08807
1064.368, 16.69240
1064.850, 18.20892
1065.332, 19.98082
1065.814, 21.06595
1066.296, 21.52164
1066.778, 23.09387
1067.261, 26.07451
1067.743, 29.72047
1068.225, 33.79323
1068.707, 38.53787
1069.189, 44.03499
1069.671, 50.40302
1070.153, 58.17447
1070.635, 67.59985
1071.118, 77.80316
1071.600, 88.17032
1072.082, 99.25267
1072.564, 111.4987
1073.046, 124.7363
1073.528, 137.7610
1074.010, 150.5549
1074.492, 164.3413
1074.974, 178.7629
1075.457, 195.3157
1075.939, 214.3684
1076.421, 236.5734
1076.903, 263.3012
1077.385, 293.8371
1077.867, 329.7675
1078.349, 371.2422
1078.831, 417.0910
1079.313, 468.9354
1079.796, 522.9922
1080.278, 577.4084
1080.760, 630.4786
1081.242, 669.7863
1081.724, 695.5959
1082.206, 699.8503
1082.688, 679.1544
1083.170, 637.8867
1083.652, 578.7357
1084.135, 505.1430
1084.617, 430.1016
1085.099, 354.8059
1085.581, 287.7916
1086.063, 232.6287
1086.545, 189.5182
1087.027, 157.7010
1087.509, 136.6695
1087.992, 122.3568
1088.474, 114.7871
1088.956, 111.2552
1089.438, 111.2148
1089.920, 113.8206
1090.402, 119.2448
1090.884, 126.3204
1091.366, 133.4851
1091.849, 140.2229
1092.331, 147.7362
1092.813, 155.8060
1093.295, 165.3703
1093.777, 176.2150
1094.259, 189.4364
1094.741, 207.1017
1095.223, 229.1448
1095.705, 255.3289
1096.188, 285.2031
1096.670, 319.8452
1097.152, 360.3813
1097.634, 403.9813
1098.116, 450.1784
1098.598, 497.2547
1099.080, 540.5625
1099.562, 579.6353
1100.044, 597.1680
1100.527, 580.4518
1101.009, 540.3963
1101.491, 475.2568
1101.973, 393.3869
1102.455, 317.9402
1102.937, 248.5692
1103.419, 189.5755
1103.901, 142.5867
1104.384, 105.6632
1104.866, 80.40456
1105.348, 62.88965
1105.830, 49.73035
1106.312, 41.00169
1106.794, 33.88614
1107.276, 28.50386
1107.758, 24.16862
1108.240, 20.65947
1108.723, 17.88356
1109.205, 15.79959
1109.687, 14.17760
1110.169, 12.58850
1110.651, 10.73836
1111.133, 9.230835
1111.615, 8.152618
1112.097, 7.285324
1112.579, 6.363556
1113.062, 5.519989
1113.544, 5.445862
1114.026, 5.958359
1114.508, 6.169861
1114.990, 5.373199
1115.472, 4.541855
1115.954, 3.956833
1116.436, 3.533829
1116.919, 3.220963
1117.401, 3.003098
1117.883, 2.662048
1118.365, 2.179855
1118.847, 1.769958
1119.329, 1.556992
1119.811, 1.495148
1120.293, 1.701614
1120.776, 2.031204
1121.258, 1.973907
1121.740, 1.486267
1122.222, 0.9909210
1122.704, 0.5378420
1123.186, 0.2519380
1123.668, 0.3976590
1124.150, 0.6737370
1124.632, 0.7844700
1125.115, 0.6804500
1125.597, 0.3479770
1126.079, 0.4085540
1126.561, 0.6789860
1127.043, 0.1199650
1127.525, 1.208801
1128.007, 1.273453
1128.489, 0.7237090
1128.971, 0.2512510
1129.454, 6.7688003E-02
1129.936, 0.1473850
1130.418, 0.4588780
1130.900, 0.7437290
1131.382, 0.9992070
1131.864, 1.145981
1132.346, 0.8517760
1132.828, 0.2359160
1133.311, 0.3094330
1133.793, 0.6139070
1134.275, 0.8168950
1134.757, 0.9241790
1135.239, 0.9751740
1135.721, 1.027710
1136.203, 1.063278
1136.685, 0.8280790
1137.167, 0.3562160
1137.650, 0.1044010
1138.132, 0.7155760
1138.614, 1.209366
1139.096, 1.026901
1139.578, 0.4514620
1140.060, 0.2147370
1140.542, 0.9884950
1141.024, 1.108231
1141.506, 0.4646450
1141.989, 0.2910770
1142.471, 0.8827510
1142.953, 1.180862
1143.435, 0.9308470
1143.917, 0.2714840
1144.399, 0.1754610
1144.881, 0.4153590
1145.363, 0.2948300
1145.846, 0.3207090
1146.328, 0.8653720
1146.810, 0.4841310
1147.292, 0.1550750
1147.774, 0.3276980
1148.256, 9.5900998E-02
1148.738, 0.5148320
1149.220, 0.9896390
1149.703, 1.144547
1150.185, 0.6770630
1150.667, 0.1648250
1151.149, 0.7396550
1151.631, 1.750168
1152.113, 2.095795
1152.595, 1.265717
1153.077, 0.7794650
1153.559, 0.8185120
1154.042, 1.010803
1154.524, 1.165070
1155.006, 1.340607
1155.488, 1.872086
1155.970, 2.514923
1156.452, 2.628845
1156.934, 1.432297
1157.416, 0.7938390
1157.898, 1.182281
1158.381, 1.731674
1158.863, 1.759369
1159.345, 1.409454
1159.827, 1.238556
1160.309, 1.216431
1160.791, 1.227158
1161.273, 1.229752
1161.755, 1.237274
1162.238, 1.210220
1162.720, 1.230789
1163.202, 1.438660
1163.684, 1.788574
1164.166, 2.012650
1164.648, 2.098236
1165.130, 2.051376
1165.612, 1.690353
1166.094, 1.411301
1166.577, 1.426117
1167.059, 1.596329
1167.541, 1.758041
1168.023, 1.904358
1168.505, 1.876328
1168.987, 1.656494
1169.469, 1.526810
1169.951, 1.739487
1170.433, 2.048828
1170.916, 2.368835
1171.398, 2.657257
1171.880, 2.774399
1172.362, 2.722885
1172.844, 2.818954
1173.326, 3.159088
1173.808, 3.353104
1174.290, 2.692093
1174.773, 2.074081
1175.255, 2.490555
1175.737, 3.651901
1176.219, 3.901520
1176.701, 3.190140
1177.183, 2.604904
1177.665, 2.423874
1178.147, 2.502686
1178.630, 2.839973
1179.112, 3.269043
1179.594, 3.643112
1180.076, 3.949379
1180.558, 4.209755
1181.040, 4.433182
1181.522, 4.548653
1182.004, 4.487549
1182.486, 4.391754
1182.969, 4.437881
1183.451, 4.520058
1183.933, 4.451836
1184.415, 4.187195
1184.897, 4.235252
1185.379, 4.632332
1185.861, 4.846642
1186.343, 4.445457
1186.825, 3.940048
1187.308, 4.077141
1187.790, 4.468430
1188.272, 4.475998
1188.754, 3.809120
1189.236, 3.410370
1189.718, 3.328224
1190.200, 3.352921
1190.682, 3.354347
1191.165, 3.380478
1191.647, 3.511658
1192.129, 3.711983
1192.611, 3.919853
1193.093, 4.211227
1193.575, 4.277283
1194.057, 4.050301
1194.539, 3.855530
1195.021, 4.030060
1195.504, 4.326340
1195.986, 4.358269
1196.468, 4.230415
1196.950, 4.293015
1197.432, 4.833115
1197.914, 4.965919
1198.396, 4.496643
1198.878, 4.027298
1199.360, 4.260025
1199.843, 4.785950
1200.325, 5.009666
1200.807, 4.979355
1201.289, 4.992577
1201.771, 5.111198
1202.253, 5.263145
1202.735, 5.471008
1203.217, 5.626541
1203.700, 5.488670
1204.182, 5.269295
1204.664, 5.298210
1205.146, 5.556076
1205.628, 5.809029
1206.110, 6.072006
1206.592, 6.246361
1207.074, 6.299576
1207.557, 6.292183
1208.039, 6.204773
1208.521, 6.155128
1209.003, 6.291641
1209.485, 6.629890
1209.967, 7.316437
1210.449, 8.864403
1210.931, 9.455986
1211.413, 8.463272
1211.896, 7.060165
1212.378, 6.874687
1212.860, 7.262520
1213.342, 7.232170
1213.824, 6.672844
1214.306, 6.528030
1214.788, 7.137932
1215.270, 7.461441
1215.752, 7.168159
1216.235, 6.624001
1216.717, 6.113037
1217.199, 5.807182
1217.681, 6.112244
1218.163, 7.149101
1218.645, 7.629379
1219.127, 7.306747
1219.609, 6.921242
1220.092, 6.637543
1220.574, 6.548256
1221.056, 7.016174
1221.538, 7.653206
1222.020, 7.813759
1222.502, 7.293526
1222.984, 7.224602
1223.466, 7.821808
1223.948, 8.275230
1224.431, 8.251183
1224.913, 8.016068
1225.395, 7.906563
1225.877, 7.877930
1226.359, 7.830223
1226.841, 7.763542
1227.323, 7.790291
1227.805, 7.937897
1228.287, 8.072441
1228.770, 8.154167
1229.252, 8.206535
1229.734, 8.168121
1230.216, 8.085602
1230.698, 8.035835
1231.180, 8.037117
1231.662, 8.057083
1232.144, 8.116730
1232.627, 8.063568
1233.109, 7.747070
1233.591, 7.424576
1234.073, 7.446373
1234.555, 7.628784
1235.037, 7.712982
1235.519, 7.651314
1236.001, 7.638336
1236.484, 7.671562
1236.966, 7.835052
1237.448, 8.303032
1237.930, 8.715736
1238.412, 8.637749
1238.894, 8.319344
1239.376, 8.076500
1239.858, 7.910141
1240.340, 7.937881
1240.823, 8.177231
1241.305, 8.381874
1241.787, 8.426010
1242.269, 8.400490
1242.751, 8.240395
1243.233, 8.139915
1243.715, 8.427284
1244.197, 9.193428
1244.679, 9.282715
1245.162, 8.711472
1245.644, 8.230927
1246.126, 8.390282
1246.608, 8.585251
1247.090, 8.409760
1247.572, 8.038963
1248.054, 7.665665
1248.536, 7.280449
1249.019, 7.092224
1249.501, 7.085777
1249.983, 7.063873
1250.465, 6.891258
1250.947, 6.713753
1251.429, 6.530991
1251.911, 6.441467
1252.393, 6.629234
1252.875, 7.059143
1253.358, 6.905106
1253.840, 6.281441
1254.322, 5.955772
1254.804, 6.795921
1255.286, 7.384438
1255.768, 7.001778
1256.250, 6.415108
1256.732, 6.308762
1257.214, 6.574234
1257.697, 6.488541
1258.179, 6.134460
1258.661, 5.904625
1259.143, 6.230103
1259.625, 6.323334
1260.107, 5.983093
1260.589, 5.489273
1261.071, 4.950104
1261.554, 4.471970
1262.036, 4.537071
1262.518, 4.978920
1263.000, 5.225204
1263.482, 5.027031
1263.964, 4.594894
1264.446, 3.771202
1264.928, 3.137405
1265.411, 3.427025
1265.893, 4.114983
1266.375, 4.249115
1266.857, 3.923286
1267.339, 3.409157
1267.821, 2.477608
1268.303, 1.950874
1268.785, 1.925117
1269.267, 2.001442
1269.750, 1.796448
1270.232, 1.568649
1270.714, 1.782166
1271.196, 2.211845
1271.678, 2.306778
1272.160, 1.921883
1272.642, 1.503143
1273.124, 1.039787
1273.606, 0.7345280
1274.089, 0.8764500
1274.571, 1.102135
1275.053, 1.106697
1275.535, 0.9552230
1276.017, 0.7556920
1276.499, 0.4883880
1276.981, 0.3623200
1277.463, 0.3813630
1277.946, 0.4338680
1278.428, 0.4505540
1278.910, 0.4804000
1279.392, 0.5906070
1279.874, 0.7108230
1280.356, 0.7758100
1280.838, 0.7871090
1281.320, 0.6453320
1281.802, 0.3660580
1282.285, 8.1603996E-02
1282.767, 0.3263630
1283.249, 0.4770890
1283.731, 5.3185001E-02
1284.213, 0.4812770
1284.695, 0.7839810
1285.177, 0.8515470
1285.659, 0.5132520
1286.141, 0.1044920
1286.624, 0.4721370
1287.106, 0.1968990
1287.588, 0.1229320
1288.070, 0.4458010
1288.552, 0.7010040
1289.034, 0.7922520
1289.516, 0.7896040
1289.998, 0.8349460
1290.481, 0.9204710
1290.963, 1.024429
1291.445, 1.244217
1291.927, 1.251297
1292.409, 0.9683910
1292.891, 0.7738340
1293.373, 0.9103850
1293.855, 1.331589
1294.338, 0.9938890
1294.820, 1.241821
1295.302, 1.072739
1295.784, 0.8608470
1296.266, 1.313225
1296.748, 1.252029
1297.230, 0.9743270
1297.712, 0.4155810
1298.194, 2.1103000E-02
1298.677, 0.1618040
1299.159, 0.5942230
1299.641, 0.9157260
1300.123, 1.087036
1300.605, 0.9680100
1301.087, 0.2801670
1301.569, 3.8734000E-02
1302.051, 0.2202070
1302.533, 0.2201160
1303.016, 0.0000000E+00
##END=



