##NAMES=Parsonsite
##RRUFFID=R060154
##IDEAL CHEMISTRY=Pb_2_(UO_2_)(PO_4_)_2_&#183;0-2H_2_O
##LOCALITY=Faye, near Grury, France
##OWNER=RRUFF
##SOURCE=Marcus Origlieri
##DESCRIPTION=Yellow acicular crystals in radial aggregates
##STATUS=The identification of this mineral has been confirmed by X-ray diffraction and chemical analysis
##URL=rruff.info/R060154
##MEASURED CHEMISTRY=Pb_2.18_(UO_2_)_1.09_(PO_4_)_1.82_Â·1.99H_2_O
152.4568, 0.0000000E+00
152.9389, 0.4536130
153.4210, 4.910156
153.9032, 9.424561
154.3853, 8.372803
154.8674, 6.801025
155.3495, 5.934814
155.8316, 5.666504
156.3137, 5.751465
156.7959, 6.117432
157.2780, 6.545410
157.7601, 6.736328
158.2422, 6.140625
158.7243, 5.459961
159.2065, 4.955322
159.6886, 4.289307
160.1707, 4.172119
160.6528, 4.329834
161.1349, 4.995605
161.6170, 6.921387
162.0992, 10.65796
162.5813, 15.45166
163.0634, 20.89990
163.5455, 27.69238
164.0276, 33.98682
164.5097, 38.78247
164.9919, 42.33032
165.4740, 45.59985
165.9561, 47.39355
166.4382, 49.88501
166.9203, 55.28101
167.4024, 68.01660
167.8846, 79.93140
168.3667, 84.79248
168.8488, 83.61963
169.3309, 82.90454
169.8130, 86.81860
170.2952, 93.34399
170.7773, 99.94287
171.2594, 106.5806
171.7415, 112.3306
172.2236, 115.7832
172.7057, 117.0657
173.1879, 118.6448
173.6700, 122.2271
174.1521, 127.2786
174.6342, 132.9321
175.1163, 139.9563
175.5984, 146.8430
176.0806, 151.5388
176.5627, 154.0383
177.0448, 155.7373
177.5269, 157.4226
178.0090, 159.2119
178.4911, 161.4299
178.9733, 165.1587
179.4554, 169.1279
179.9375, 170.7766
180.4196, 169.8589
180.9017, 168.9956
181.3838, 171.2971
181.8660, 176.0732
182.3481, 180.9473
182.8302, 185.1013
183.3123, 188.6492
183.7944, 191.6274
184.2766, 194.0491
184.7587, 196.3657
185.2408, 199.1316
185.7229, 202.3115
186.2050, 205.7051
186.6871, 209.0244
187.1693, 212.4377
187.6514, 216.5703
188.1335, 221.6150
188.6156, 226.7954
189.0977, 230.9485
189.5798, 234.0542
190.0620, 237.0217
190.5441, 240.4143
191.0262, 244.0605
191.5083, 247.0393
191.9904, 249.1333
192.4725, 250.8701
192.9547, 253.3469
193.4368, 256.6165
193.9189, 259.6072
194.4010, 261.4775
194.8831, 262.3579
195.3652, 263.8970
195.8474, 266.3210
196.3295, 269.3506
196.8116, 272.4341
197.2937, 275.5635
197.7758, 278.8542
198.2579, 282.6504
198.7401, 286.9646
199.2222, 290.1362
199.7043, 291.7390
200.1864, 292.3745
200.6685, 293.8152
201.1507, 296.4409
201.6328, 297.8738
202.1149, 296.0933
202.5970, 290.6799
203.0791, 286.1655
203.5612, 283.2344
204.0434, 281.2598
204.5255, 278.7275
205.0076, 275.7078
205.4897, 272.0149
205.9718, 267.2063
206.4539, 260.9707
206.9361, 255.7644
207.4182, 252.0391
207.9003, 249.4424
208.3824, 246.8206
208.8645, 244.4075
209.3466, 241.4009
209.8288, 237.0781
210.3109, 229.9563
210.7930, 222.9709
211.2751, 215.6121
211.7572, 208.6440
212.2393, 205.3931
212.7215, 207.6370
213.2036, 209.7029
213.6857, 207.4373
214.1678, 199.0144
214.6499, 192.2959
215.1320, 188.1562
215.6142, 186.0959
216.0963, 184.4231
216.5784, 183.6948
217.0605, 182.2788
217.5426, 178.7505
218.0247, 172.0117
218.5069, 166.6023
218.9890, 163.3376
219.4711, 161.7524
219.9532, 159.4524
220.4353, 155.9409
220.9175, 152.5444
221.3996, 150.1052
221.8817, 149.0398
222.3638, 148.0125
222.8459, 147.0085
223.3280, 145.9607
223.8102, 144.6890
224.2923, 143.0601
224.7744, 141.2908
225.2565, 139.6658
225.7386, 138.7109
226.2207, 136.4419
226.7029, 132.1643
227.1850, 126.3064
227.6671, 121.4829
228.1492, 118.1646
228.6313, 115.1958
229.1134, 112.1069
229.5956, 109.5649
230.0777, 105.2358
230.5598, 97.99194
231.0419, 88.71313
231.5240, 81.40649
232.0062, 76.37305
232.4883, 72.98682
232.9704, 71.12891
233.4525, 71.84204
233.9346, 71.87354
234.4167, 70.73047
234.8989, 68.70898
235.3810, 67.17065
235.8631, 66.01074
236.3452, 65.34302
236.8273, 65.39551
237.3094, 67.17139
237.7916, 67.27246
238.2737, 64.22192
238.7558, 59.25781
239.2379, 57.71216
239.7200, 61.51660
240.2021, 65.66772
240.6843, 67.51099
241.1664, 65.95142
241.6485, 64.73682
242.1306, 64.45093
242.6127, 64.85596
243.0948, 64.58960
243.5770, 62.73413
244.0591, 61.21655
244.5412, 61.28369
245.0233, 64.18408
245.5054, 65.86499
245.9876, 65.74585
246.4697, 64.51758
246.9518, 64.23535
247.4339, 65.60059
247.9160, 67.21948
248.3981, 68.24341
248.8803, 67.81348
249.3624, 68.66577
249.8445, 71.53076
250.3266, 75.28052
250.8087, 76.76001
251.2908, 74.39526
251.7730, 72.19946
252.2551, 72.12793
252.7372, 75.24707
253.2193, 77.61768
253.7014, 79.43384
254.1835, 80.48730
254.6657, 80.10645
255.1478, 77.57495
255.6299, 74.88501
256.1120, 72.98120
256.5941, 72.54077
257.0763, 70.78735
257.5584, 67.01465
258.0405, 62.38940
258.5226, 59.40820
259.0047, 58.72461
259.4868, 58.31372
259.9690, 57.54272
260.4511, 56.46753
260.9332, 54.69556
261.4153, 51.65991
261.8974, 48.53442
262.3795, 47.38452
262.8617, 48.73340
263.3438, 50.33569
263.8259, 51.36353
264.3080, 51.63501
264.7901, 52.86426
265.2722, 55.72925
265.7544, 58.61377
266.2365, 58.70654
266.7186, 54.78467
267.2007, 51.93188
267.6828, 52.42725
268.1649, 56.60010
268.6471, 57.77197
269.1292, 54.83057
269.6113, 50.64136
270.0934, 49.08398
270.5755, 51.09253
271.0576, 52.33032
271.5398, 50.82715
272.0219, 46.83911
272.5040, 45.64941
272.9861, 48.13354
273.4682, 51.63135
273.9503, 53.18335
274.4325, 52.36890
274.9146, 51.64746
275.3967, 51.54492
275.8788, 52.02832
276.3610, 52.57886
276.8431, 53.42383
277.3252, 53.97778
277.8073, 53.75049
278.2894, 52.76562
278.7715, 50.60376
279.2537, 46.71704
279.7358, 41.81079
280.2179, 39.13037
280.7000, 39.20264
281.1821, 38.84058
281.6642, 34.65063
282.1464, 26.64087
282.6285, 20.18604
283.1106, 16.14404
283.5927, 14.16919
284.0748, 13.88818
284.5569, 15.52100
285.0391, 16.92334
285.5212, 15.72534
286.0033, 12.26538
286.4854, 10.76074
286.9675, 12.30811
287.4496, 15.19971
287.9318, 15.75928
288.4139, 13.91895
288.8960, 12.43628
289.3781, 13.48047
289.8602, 16.48047
290.3423, 18.64648
290.8245, 19.93896
291.3066, 19.98828
291.7887, 17.60132
292.2708, 13.03271
292.7529, 8.575439
293.2350, 5.730957
293.7172, 4.026855
294.1993, 2.147217
294.6814, 7.3239999E-03
295.1635, 2.268311
295.6456, 4.933105
296.1277, 7.710449
296.6099, 9.225586
297.0920, 7.803711
297.5741, 4.930176
298.0562, 3.283936
298.5383, 2.890381
299.0204, 3.691650
299.5026, 6.725830
299.9847, 10.99146
300.4668, 14.02466
300.9489, 14.47583
301.4311, 13.27710
301.9132, 11.22534
302.3953, 8.329102
302.8774, 5.551025
303.3595, 3.052979
303.8416, 1.240723
304.3238, 0.9086910
304.8059, 3.139893
305.2880, 6.151855
305.7701, 8.611572
306.2522, 10.44946
306.7343, 11.28345
307.2165, 10.36279
307.6986, 8.547119
308.1807, 6.749756
308.6628, 5.355225
309.1449, 3.907227
309.6270, 1.787354
310.1092, 0.7111820
310.5913, 2.932617
311.0734, 4.582031
311.5555, 5.701660
312.0376, 6.020752
312.5197, 4.857910
313.0019, 4.508789
313.4840, 7.219482
313.9661, 11.62720
314.4482, 15.02344
314.9303, 15.73071
315.4124, 15.44556
315.8946, 15.33911
316.3767, 15.78491
316.8588, 15.42114
317.3409, 13.23657
317.8230, 10.06421
318.3051, 7.017090
318.7873, 3.590820
319.2694, 1.053955
319.7515, 0.2700200
320.2336, 1.415527
320.7157, 2.394287
321.1978, 2.282227
321.6800, 1.885254
322.1621, 1.943848
322.6442, 3.097900
323.1263, 4.157715
323.6084, 4.739502
324.0905, 4.869141
324.5727, 5.158203
325.0548, 5.870361
325.5369, 6.697998
326.0190, 7.470215
326.5012, 9.102295
326.9833, 9.655518
327.4654, 7.653564
327.9475, 4.129639
328.4296, 3.272705
328.9117, 8.508789
329.3939, 13.38574
329.8760, 15.15430
330.3581, 11.44458
330.8402, 8.815186
331.3223, 7.062256
331.8044, 6.322266
332.2866, 7.143311
332.7687, 11.28516
333.2508, 14.22290
333.7329, 13.97095
334.2150, 9.378418
334.6971, 7.105225
335.1793, 8.347168
335.6614, 10.71411
336.1435, 10.88525
336.6256, 7.779541
337.1077, 5.584717
337.5898, 5.932617
338.0720, 8.667969
338.5541, 9.697021
339.0362, 8.695313
339.5183, 6.978027
340.0004, 5.885254
340.4825, 5.608154
340.9647, 4.561035
341.4468, 1.834229
341.9289, 1.491699
342.4110, 1.369629
342.8931, 2.668213
343.3752, 6.926514
343.8574, 8.169434
344.3395, 6.628662
344.8216, 7.000244
345.3037, 10.10376
345.7858, 14.38794
346.2679, 17.53784
346.7501, 19.53076
347.2322, 20.38086
347.7143, 19.09082
348.1964, 16.56445
348.6785, 15.93945
349.1607, 17.50049
349.6428, 19.80322
350.1249, 21.70630
350.6070, 23.11621
351.0891, 23.67236
351.5713, 23.05518
352.0534, 21.65186
352.5355, 19.79639
353.0176, 17.50342
353.4997, 15.08350
353.9818, 12.07861
354.4640, 9.350586
354.9461, 8.455078
355.4282, 11.25757
355.9103, 14.30786
356.3924, 14.40186
356.8745, 12.01392
357.3567, 9.124512
357.8388, 5.798340
358.3209, 3.032227
358.8030, 2.002197
359.2851, 3.591553
359.7672, 5.441406
360.2494, 6.496094
360.7315, 6.936035
361.2136, 7.097412
361.6957, 4.890381
362.1778, 4.069580
362.6599, 3.235596
363.1421, 7.412842
363.6242, 9.870605
364.1063, 10.72583
364.5884, 5.577881
365.0705, 8.144531
365.5526, 7.720459
366.0348, 7.255859
366.5169, 11.13965
366.9990, 7.196289
367.4811, 11.18066
367.9632, 12.15601
368.4453, 14.62988
368.9275, 14.02173
369.4096, 14.36499
369.8917, 17.80127
370.3738, 19.51758
370.8559, 18.53320
371.3380, 21.09009
371.8202, 17.41895
372.3023, 17.11353
372.7844, 18.66553
373.2665, 22.94873
373.7487, 25.54248
374.2308, 26.10620
374.7129, 25.35913
375.1950, 23.92944
375.6771, 21.27393
376.1592, 19.78931
376.6414, 20.48877
377.1235, 23.02271
377.6056, 24.02515
378.0877, 23.24756
378.5698, 22.26172
379.0519, 22.63062
379.5341, 24.37109
380.0162, 25.36914
380.4983, 24.98462
380.9804, 24.10156
381.4625, 24.78955
381.9446, 27.00122
382.4268, 29.79565
382.9089, 33.09644
383.3910, 36.56006
383.8731, 38.92017
384.3552, 39.88232
384.8373, 40.63623
385.3195, 42.44092
385.8016, 45.03467
386.2837, 48.06689
386.7658, 52.75732
387.2479, 57.23828
387.7300, 58.48145
388.2122, 56.64868
388.6943, 55.37402
389.1764, 58.93115
389.6585, 64.14502
390.1406, 66.71777
390.6227, 63.43359
391.1049, 60.21118
391.5870, 61.72021
392.0691, 66.55396
392.5512, 70.69897
393.0333, 72.78931
393.5154, 73.47607
393.9976, 72.69678
394.4797, 69.72607
394.9618, 67.49365
395.4439, 66.77563
395.9260, 67.57031
396.4081, 69.69507
396.8903, 75.09570
397.3724, 79.77637
397.8545, 82.64062
398.3366, 83.64941
398.8188, 84.01196
399.3009, 82.79956
399.7830, 81.41797
400.2651, 81.05298
400.7472, 83.21997
401.2293, 84.59180
401.7115, 84.53149
402.1936, 83.35449
402.6757, 82.45923
403.1578, 82.45337
403.6399, 81.86743
404.1220, 80.08398
404.6042, 77.01489
405.0863, 72.73535
405.5684, 66.85132
406.0505, 60.42090
406.5326, 54.73560
407.0147, 49.78760
407.4969, 45.93555
407.9790, 43.87378
408.4611, 42.83008
408.9432, 39.18164
409.4253, 32.74316
409.9074, 26.17773
410.3896, 20.93970
410.8717, 17.14014
411.3538, 15.63281
411.8359, 17.04126
412.3180, 19.50049
412.8001, 20.98291
413.2823, 21.52783
413.7644, 21.00562
414.2465, 18.31152
414.7286, 14.83936
415.2107, 12.29346
415.6928, 10.78320
416.1750, 10.04321
416.6571, 10.47021
417.1392, 11.50439
417.6213, 12.23633
418.1034, 11.97339
418.5855, 11.65771
419.0677, 11.88647
419.5498, 12.50073
420.0319, 13.14648
420.5140, 13.49048
420.9961, 14.08228
421.4782, 15.30591
421.9604, 17.72339
422.4425, 19.25000
422.9246, 18.66968
423.4067, 17.25879
423.8889, 16.80127
424.3710, 18.91528
424.8531, 20.56421
425.3352, 21.03271
425.8173, 20.29175
426.2994, 19.74634
426.7816, 18.86304
427.2637, 18.70605
427.7458, 20.29834
428.2279, 25.18384
428.7100, 27.89526
429.1921, 27.37842
429.6743, 25.09497
430.1564, 24.73999
430.6385, 26.97485
431.1206, 28.98047
431.6027, 29.32373
432.0848, 28.10474
432.5670, 28.37134
433.0491, 30.31689
433.5312, 32.70288
434.0133, 34.44019
434.4954, 35.52173
434.9775, 35.84619
435.4597, 35.17041
435.9418, 34.16479
436.4239, 34.12354
436.9060, 34.89600
437.3881, 35.35620
437.8702, 34.51685
438.3524, 32.99976
438.8345, 31.53711
439.3166, 30.10718
439.7987, 29.18091
440.2808, 29.56323
440.7629, 30.58276
441.2451, 31.21802
441.7272, 31.96313
442.2093, 31.39746
442.6914, 27.62891
443.1735, 21.28271
443.6556, 16.45605
444.1378, 16.13354
444.6199, 16.81836
445.1020, 16.22314
445.5841, 12.84424
446.0662, 10.60913
446.5483, 10.22437
447.0305, 11.32422
447.5126, 13.36426
447.9947, 18.55200
448.4768, 21.95532
448.9590, 21.76904
449.4411, 17.86938
449.9232, 15.70020
450.4053, 16.01953
450.8874, 16.84253
451.3695, 16.23804
451.8517, 13.24219
452.3338, 13.23828
452.8159, 17.78540
453.2980, 24.23438
453.7801, 26.96411
454.2622, 25.71875
454.7444, 24.08765
455.2265, 23.24341
455.7086, 23.30835
456.1907, 25.39136
456.6728, 29.69727
457.1549, 33.73804
457.6371, 34.94092
458.1192, 34.18872
458.6013, 33.57397
459.0834, 33.65039
459.5655, 33.98291
460.0476, 34.51929
460.5298, 35.00098
461.0119, 34.69238
461.4940, 32.12573
461.9761, 29.35132
462.4582, 28.24976
462.9403, 29.08740
463.4225, 29.67651
463.9046, 29.12891
464.3867, 27.79443
464.8688, 26.04395
465.3509, 24.20215
465.8330, 21.71118
466.3152, 17.89087
466.7973, 13.24463
467.2794, 9.564697
467.7615, 7.019287
468.2436, 5.337891
468.7257, 4.462402
469.2079, 4.439697
469.6900, 5.202393
470.1721, 7.613525
470.6542, 9.804199
471.1363, 9.564209
471.6184, 6.224121
472.1006, 2.997070
472.5827, 0.2272950
473.0648, 1.968506
473.5469, 2.989014
474.0291, 2.738037
474.5112, 2.083496
474.9933, 1.506348
475.4754, 0.9492190
475.9575, 7.1533002E-02
476.4396, 1.185303
476.9218, 2.477051
477.4039, 3.603516
477.8860, 4.488525
478.3681, 4.904053
478.8502, 4.632324
479.3323, 3.953369
479.8145, 2.594482
480.2966, 0.9060060
480.7787, 0.2514650
481.2608, 2.801514
481.7429, 5.458496
482.2250, 5.665527
482.7072, 2.612305
483.1893, 0.2082520
483.6714, 0.4274900
484.1535, 1.677979
484.6356, 2.360840
485.1177, 2.781006
485.5999, 2.074707
486.0820, 1.155762
486.5641, 5.795410
487.0462, 7.697510
487.5283, 4.404541
488.0104, 1.569580
488.4926, 1.686279
488.9747, 5.389893
489.4568, 7.893555
489.9389, 9.034180
490.4210, 9.201416
490.9031, 8.783203
491.3853, 7.790283
491.8674, 6.062988
492.3495, 3.385498
492.8316, 0.2507320
493.3137, 2.592773
493.7958, 5.094238
494.2780, 6.691650
494.7601, 6.338867
495.2422, 4.989258
495.7243, 4.355225
496.2064, 4.490479
496.6885, 5.391846
497.1707, 7.747314
497.6528, 10.63135
498.1349, 12.76880
498.6170, 13.50000
499.0992, 13.86401
499.5813, 14.48535
500.0634, 15.15771
500.5455, 15.39233
501.0276, 14.45898
501.5097, 13.55542
501.9919, 13.21191
502.4740, 13.57349
502.9561, 14.00220
503.4382, 14.59766
503.9203, 15.09985
504.4024, 15.42285
504.8846, 16.06226
505.3667, 15.46802
505.8488, 12.88965
506.3309, 9.455566
506.8130, 7.727539
507.2951, 8.039551
507.7773, 8.640137
508.2594, 8.972412
508.7415, 9.089844
509.2236, 9.093750
509.7057, 8.943604
510.1878, 9.018066
510.6700, 9.764160
511.1521, 11.00879
511.6342, 12.40259
512.1163, 14.07544
512.5984, 15.15674
513.0806, 13.90063
513.5627, 11.40356
514.0448, 9.949219
514.5269, 11.83936
515.0090, 14.01001
515.4911, 14.12769
515.9733, 12.44897
516.4554, 11.05127
516.9375, 10.63550
517.4196, 10.77173
517.9017, 11.36035
518.3839, 12.90503
518.8660, 13.57227
519.3481, 12.64722
519.8302, 10.95508
520.3123, 9.320557
520.7944, 7.386230
521.2766, 6.268799
521.7587, 6.475342
522.2408, 7.623535
522.7229, 8.166504
523.2050, 8.091309
523.6871, 7.732910
524.1693, 7.049072
524.6514, 6.144775
525.1335, 6.089111
525.6156, 7.005371
526.0977, 8.063477
526.5798, 8.093994
527.0620, 7.555176
527.5441, 7.860352
528.0262, 9.549072
528.5083, 11.67432
528.9904, 12.79150
529.4725, 13.45117
529.9547, 15.07861
530.4368, 20.32324
530.9189, 25.08643
531.4010, 25.90454
531.8831, 22.79053
532.3652, 20.72314
532.8474, 21.95825
533.3295, 24.24878
533.8116, 26.29517
534.2937, 28.59619
534.7758, 29.47803
535.2579, 27.72632
535.7401, 25.16602
536.2222, 24.80981
536.7043, 28.53442
537.1864, 30.03906
537.6685, 27.06055
538.1506, 21.00903
538.6328, 18.86304
539.1149, 21.21289
539.5970, 23.93604
540.0791, 24.14502
540.5612, 22.48633
541.0433, 22.20947
541.5255, 23.54321
542.0076, 25.10156
542.4897, 25.40283
542.9718, 24.90698
543.4539, 24.55811
543.9360, 24.61938
544.4182, 24.59985
544.9003, 23.75488
545.3824, 22.88159
545.8645, 23.21313
546.3466, 26.28638
546.8287, 29.40015
547.3109, 31.63184
547.7930, 32.95654
548.2751, 33.20508
548.7572, 31.17798
549.2393, 29.06250
549.7214, 28.15259
550.2036, 29.48193
550.6857, 29.78247
551.1678, 28.51416
551.6499, 26.71143
552.1320, 25.91455
552.6141, 26.31860
553.0963, 26.54541
553.5784, 26.26147
554.0605, 25.67480
554.5426, 25.38159
555.0247, 25.36548
555.5068, 25.11328
555.9890, 23.59644
556.4711, 21.85522
556.9532, 21.75806
557.4353, 20.83218
557.9174, 24.78921
558.3995, 27.22550
558.8817, 28.22301
559.3638, 23.47157
559.8459, 26.14353
560.3281, 25.84066
560.8102, 25.41562
561.2923, 28.07178
561.7744, 29.06763
562.2565, 28.96851
562.7386, 28.87842
563.2208, 28.96606
563.7029, 29.24146
564.1850, 29.83911
564.6671, 31.22461
565.1492, 32.23975
565.6313, 32.01270
566.1135, 30.35205
566.5956, 30.17261
567.0777, 31.86133
567.5598, 33.61597
568.0419, 32.86084
568.5240, 30.26904
569.0062, 29.47876
569.4883, 31.66821
569.9704, 34.78931
570.4525, 36.44019
570.9346, 36.94116
571.4167, 37.10571
571.8989, 36.30103
572.3810, 36.12061
572.8631, 38.33740
573.3452, 42.53955
573.8273, 45.95337
574.3094, 47.41553
574.7916, 47.90918
575.2737, 47.70923
575.7558, 46.28125
576.2379, 46.10156
576.7200, 48.30859
577.2021, 50.79907
577.6843, 51.42651
578.1664, 48.94751
578.6485, 48.58521
579.1306, 51.53369
579.6127, 56.09668
580.0948, 59.08154
580.5770, 60.43579
581.0591, 60.90771
581.5412, 60.34863
582.0233, 59.42334
582.5054, 59.92676
582.9875, 61.60400
583.4697, 62.68652
583.9518, 61.08496
584.4339, 58.70166
584.9160, 57.80176
585.3981, 58.83374
585.8802, 59.89648
586.3624, 60.02759
586.8445, 59.62134
587.3266, 59.11206
587.8087, 58.93628
588.2908, 58.47656
588.7729, 56.72632
589.2551, 54.81665
589.7372, 54.97095
590.2193, 58.82153
590.7014, 61.42432
591.1835, 61.04785
591.6656, 58.59497
592.1478, 58.68018
592.6299, 61.40747
593.1120, 64.08032
593.5941, 65.52612
594.0762, 65.80688
594.5583, 64.30518
595.0405, 60.89062
595.5226, 57.70312
596.0047, 56.96533
596.4868, 57.52686
596.9689, 57.75830
597.4510, 57.19678
597.9332, 56.77661
598.4153, 57.35669
598.8974, 58.49048
599.3795, 59.40479
599.8616, 60.37012
600.3438, 60.28613
600.8259, 58.12280
601.3080, 54.60205
601.7901, 52.59717
602.2722, 52.54785
602.7543, 53.35107
603.2365, 54.92017
603.7186, 57.10034
604.2007, 58.49194
604.6828, 59.03345
605.1649, 58.86548
605.6470, 57.45166
606.1292, 55.14819
606.6113, 54.29150
607.0934, 55.38501
607.5755, 56.25806
608.0576, 54.42871
608.5398, 51.05396
609.0219, 47.98071
609.5040, 45.91504
609.9861, 43.74170
610.4683, 40.88354
610.9504, 37.68384
611.4325, 34.68896
611.9146, 32.38989
612.3967, 29.95679
612.8788, 26.95361
613.3610, 23.65894
613.8431, 22.01611
614.3252, 22.94604
614.8073, 23.49731
615.2894, 21.93945
615.7715, 18.06689
616.2537, 15.81421
616.7358, 15.40161
617.2179, 15.86792
617.7000, 16.00098
618.1821, 15.71289
618.6642, 15.77124
619.1464, 16.49023
619.6285, 17.36011
620.1106, 17.63550
620.5927, 17.66968
621.0748, 18.06299
621.5569, 20.15234
622.0391, 21.55200
622.5212, 20.42480
623.0033, 17.60181
623.4854, 15.79688
623.9675, 16.47754
624.4496, 17.39404
624.9318, 18.26831
625.4139, 19.17847
625.8960, 19.13354
626.3781, 17.86401
626.8602, 16.45947
627.3423, 15.32373
627.8245, 14.42334
628.3066, 14.34229
628.7887, 15.05005
629.2708, 16.46997
629.7529, 19.10913
630.2350, 22.32056
630.7172, 24.66626
631.1993, 25.64624
631.6814, 25.90234
632.1635, 25.99463
632.6456, 25.85718
633.1277, 25.24561
633.6099, 22.92358
634.0920, 21.09814
634.5741, 21.18579
635.0562, 22.45435
635.5383, 22.14844
636.0204, 19.23267
636.5026, 16.30029
636.9847, 14.02417
637.4668, 12.54175
637.9489, 12.28931
638.4310, 13.49341
638.9131, 14.32935
639.3953, 13.24536
639.8774, 10.78442
640.3595, 9.134277
640.8416, 8.413330
641.3237, 8.235107
641.8058, 8.532715
642.2880, 8.968262
642.7701, 8.852783
643.2522, 7.618896
643.7343, 6.993408
644.2164, 8.666992
644.6985, 11.21143
645.1807, 12.69751
645.6628, 11.44092
646.1449, 10.66357
646.6270, 11.01855
647.1091, 12.08350
647.5912, 12.94141
648.0734, 14.15894
648.5555, 13.58105
649.0376, 9.565430
649.5197, 3.372559
650.0018, 1.182861
650.4839, 2.980225
650.9661, 5.092041
651.4482, 5.053467
651.9303, 3.850342
652.4124, 3.078857
652.8945, 2.818848
653.3766, 3.010986
653.8588, 4.218262
654.3409, 5.525879
654.8230, 6.220703
655.3051, 6.095703
655.7872, 5.510254
656.2693, 3.327393
656.7515, 1.395264
657.2336, 1.490234
657.7158, 4.366211
658.1979, 7.759277
658.6800, 12.21606
659.1621, 16.18457
659.6442, 16.14404
660.1263, 11.99365
660.6085, 9.059570
661.0906, 9.478760
661.5727, 11.30298
662.0548, 10.88892
662.5369, 8.823975
663.0190, 7.382324
663.5012, 9.041260
663.9833, 10.86206
664.4654, 10.65674
664.9475, 8.532959
665.4296, 5.767578
665.9117, 1.437256
666.3939, 2.201416
666.8760, 3.697510
667.3581, 2.640381
667.8402, 1.925537
668.3223, 1.859131
668.8044, 1.542236
669.2866, 9.3750000E-02
669.7687, 3.190430
670.2508, 3.955811
670.7329, 1.642578
671.2150, 0.7631840
671.6971, 1.151367
672.1793, 5.671875
672.6614, 8.164551
673.1435, 7.227295
673.6256, 4.770020
674.1077, 0.8549800
674.5898, 3.127441
675.0720, 5.052490
675.5541, 1.727539
676.0362, 0.9206540
676.5183, 1.125488
677.0004, 0.4948730
677.4825, 2.226563
677.9647, 4.148438
678.4468, 6.001953
678.9289, 7.881104
679.4110, 9.536377
679.8931, 9.682617
680.3752, 8.276123
680.8574, 6.645508
681.3395, 5.067871
681.8216, 3.846436
682.3037, 4.026367
682.7858, 5.541504
683.2679, 7.575684
683.7501, 10.45996
684.2322, 13.13257
684.7143, 14.62769
685.1964, 14.77271
685.6785, 14.38965
686.1606, 13.37671
686.6428, 12.14648
687.1249, 10.98120
687.6070, 10.21411
688.0891, 8.401855
688.5712, 4.649658
689.0533, 1.290039
689.5355, 1.919189
690.0176, 6.259521
690.4997, 9.191650
690.9818, 9.769287
691.4639, 8.645752
691.9460, 5.906738
692.4282, 2.200195
692.9103, 0.9406740
693.3924, 3.625488
693.8745, 4.586426
694.3566, 1.203613
694.8387, 4.499512
695.3209, 7.732910
695.8030, 5.836670
696.2851, 2.996094
696.7672, 0.4968260
697.2493, 4.173584
697.7314, 5.148682
698.2136, 2.356689
698.6957, 0.4831540
699.1778, 2.172119
699.6599, 6.476563
700.1420, 9.347412
700.6241, 10.80420
701.1063, 10.52124
701.5884, 6.527832
702.0705, 1.794922
702.5526, 0.3364260
703.0347, 2.387451
703.5168, 4.257080
703.9990, 3.802490
704.4811, 2.814453
704.9632, 2.376709
705.4453, 2.561035
705.9274, 3.608154
706.4095, 6.466797
706.8917, 8.870850
707.3738, 8.224854
707.8560, 4.063965
708.3381, 2.900879
708.8202, 5.850830
709.3023, 9.533447
709.7844, 9.050049
710.2665, 5.888672
710.7487, 4.579590
711.2308, 7.004639
711.7129, 9.692383
712.1950, 9.282715
712.6771, 7.498779
713.1592, 6.964111
713.6414, 9.379883
714.1235, 11.90918
714.6056, 14.13257
715.0877, 16.09497
715.5698, 17.75635
716.0519, 19.30200
716.5341, 19.66284
717.0162, 17.70557
717.4983, 14.75562
717.9804, 14.95093
718.4625, 18.07568
718.9446, 21.52930
719.4268, 24.79590
719.9089, 27.09351
720.3910, 26.73218
720.8731, 24.31299
721.3552, 22.59766
721.8373, 23.40967
722.3195, 24.81055
722.8016, 25.91968
723.2837, 26.59717
723.7658, 26.92432
724.2479, 26.95801
724.7300, 26.61279
725.2122, 25.59595
725.6943, 23.86548
726.1764, 23.82495
726.6585, 25.68408
727.1406, 28.40698
727.6227, 31.97192
728.1049, 35.61914
728.5870, 37.53760
729.0691, 37.53833
729.5512, 36.50879
730.0333, 33.14478
730.5154, 29.92529
730.9976, 29.48096
731.4797, 33.14380
731.9618, 36.68945
732.4439, 40.07129
732.9260, 42.51245
733.4081, 43.21191
733.8903, 40.79199
734.3724, 41.55127
734.8545, 46.81982
735.3366, 52.54541
735.8187, 52.09985
736.3008, 47.15088
736.7830, 45.81982
737.2651, 50.63062
737.7472, 56.74683
738.2293, 59.07983
738.7114, 59.61206
739.1935, 61.27148
739.6757, 67.21191
740.1578, 71.37476
740.6399, 70.07642
741.1220, 66.35815
741.6041, 65.75024
742.0862, 70.29077
742.5684, 73.32593
743.0505, 73.44531
743.5326, 71.98218
744.0147, 71.95166
744.4968, 73.22583
744.9789, 74.41479
745.4611, 74.81592
745.9432, 75.15430
746.4253, 76.90308
746.9074, 79.40942
747.3895, 80.87720
747.8716, 80.07617
748.3538, 78.50610
748.8359, 76.20459
749.3180, 73.75098
749.8001, 73.28442
750.2822, 75.16919
750.7643, 78.70752
751.2465, 84.69141
751.7286, 92.06714
752.2107, 94.59131
752.6928, 92.12427
753.1749, 89.33105
753.6570, 88.10669
754.1392, 88.71118
754.6213, 92.05542
755.1034, 97.77417
755.5855, 103.8474
756.0676, 109.3906
756.5498, 114.7751
757.0319, 120.7305
757.5140, 127.2241
757.9962, 131.5735
758.4783, 131.2793
758.9604, 132.1101
759.4425, 137.5217
759.9246, 147.2363
760.4067, 152.8770
760.8889, 153.9629
761.3710, 154.9402
761.8531, 159.5918
762.3352, 166.2959
762.8173, 172.0574
763.2994, 176.7312
763.7816, 181.2075
764.2637, 187.0625
764.7458, 192.2168
765.2279, 194.5142
765.7100, 192.9492
766.1921, 193.3457
766.6743, 195.9358
767.1564, 200.6860
767.6385, 208.3374
768.1206, 219.5610
768.6027, 227.9705
769.0848, 233.3127
769.5670, 237.1726
770.0491, 239.1572
770.5312, 241.2080
771.0133, 248.3950
771.4954, 261.8071
771.9775, 274.0259
772.4597, 277.7068
772.9418, 279.7332
773.4239, 286.5754
773.9060, 302.6897
774.3881, 314.2969
774.8702, 318.6743
775.3524, 321.0830
775.8345, 325.8506
776.3166, 333.1963
776.7987, 340.5854
777.2808, 347.6255
777.7629, 355.7241
778.2451, 367.4316
778.7272, 381.0708
779.2093, 393.4321
779.6914, 403.7393
780.1735, 412.9004
780.6556, 419.6421
781.1378, 426.2905
781.6199, 435.1748
782.1020, 448.3691
782.5841, 460.5874
783.0662, 470.8955
783.5483, 481.2178
784.0305, 493.6113
784.5126, 508.2227
784.9947, 523.4775
785.4768, 539.4678
785.9589, 554.5420
786.4410, 565.3594
786.9232, 574.1294
787.4053, 585.0229
787.8874, 599.2969
788.3695, 615.3647
788.8516, 634.0708
789.3337, 653.6475
789.8159, 672.3984
790.2980, 689.5566
790.7801, 706.6270
791.2622, 722.9976
791.7443, 740.0239
792.2264, 759.6689
792.7086, 781.9243
793.1907, 801.9580
793.6728, 818.9580
794.1549, 834.4805
794.6370, 849.1279
795.1191, 864.1030
795.6013, 881.7212
796.0834, 904.2100
796.5655, 926.1538
797.0476, 944.4834
797.5297, 962.0288
798.0118, 982.5205
798.4940, 1008.503
798.9761, 1032.049
799.4582, 1052.426
799.9403, 1070.541
800.4224, 1088.680
800.9045, 1106.304
801.3867, 1120.899
801.8688, 1132.004
802.3509, 1139.612
802.8330, 1143.788
803.3151, 1144.242
803.7972, 1140.610
804.2794, 1133.155
804.7615, 1121.062
805.2436, 1105.583
805.7258, 1084.276
806.2079, 1053.119
806.6900, 1009.242
807.1721, 967.0366
807.6542, 929.1143
808.1364, 891.0933
808.6185, 846.2036
809.1006, 796.5469
809.5827, 748.0977
810.0648, 701.9238
810.5469, 658.0620
811.0291, 616.2930
811.5112, 577.0459
811.9933, 540.2622
812.4754, 506.1694
812.9575, 474.3994
813.4396, 444.9375
813.9218, 417.5840
814.4039, 392.5088
814.8860, 369.5537
815.3681, 348.9961
815.8502, 331.1440
816.3323, 314.0527
816.8145, 294.4937
817.2966, 274.4214
817.7787, 257.0200
818.2608, 243.3130
818.7429, 231.2202
819.2250, 219.2393
819.7072, 208.6821
820.1893, 201.2456
820.6714, 199.9155
821.1535, 194.9268
821.6356, 184.7075
822.1177, 173.5459
822.5999, 166.6875
823.0820, 163.3657
823.5641, 158.3560
824.0462, 150.8286
824.5283, 143.0845
825.0104, 136.6216
825.4926, 131.3618
825.9747, 127.7324
826.4568, 126.6567
826.9389, 124.3530
827.4210, 118.2412
827.9031, 111.9048
828.3853, 107.8047
828.8674, 106.5703
829.3495, 104.7559
829.8316, 102.2637
830.3137, 99.63672
830.7958, 97.65088
831.2780, 95.83691
831.7601, 93.76660
832.2422, 91.66553
832.7243, 88.40771
833.2064, 80.06982
833.6885, 71.98535
834.1707, 69.19482
834.6528, 74.60107
835.1349, 75.83740
835.6170, 70.72412
836.0991, 65.09668
836.5812, 63.36279
837.0634, 65.01465
837.5455, 62.87939
838.0276, 56.83984
838.5097, 53.08984
838.9918, 58.81152
839.4739, 67.15039
839.9561, 70.70654
840.4382, 69.26807
840.9203, 67.87012
841.4024, 68.02588
841.8845, 67.67236
842.3666, 66.11035
842.8488, 63.58691
843.3309, 60.36182
843.8130, 56.37256
844.2951, 52.71826
844.7772, 50.21436
845.2593, 48.21387
845.7415, 45.37549
846.2236, 42.04834
846.7057, 39.69482
847.1878, 39.90137
847.6699, 40.48193
848.1520, 40.10596
848.6342, 38.94434
849.1163, 38.56250
849.5984, 39.35986
850.0805, 40.02344
850.5626, 39.75244
851.0447, 39.25146
851.5269, 41.53662
852.0090, 46.06543
852.4911, 49.11133
852.9732, 47.47363
853.4553, 45.12646
853.9374, 45.48730
854.4196, 47.44385
854.9017, 48.92188
855.3839, 49.21924
855.8660, 49.47900
856.3481, 50.27490
856.8302, 50.77686
857.3123, 49.15137
857.7944, 45.23242
858.2766, 41.49854
858.7587, 38.36816
859.2408, 36.12158
859.7229, 35.93799
860.2050, 36.91797
860.6871, 37.24756
861.1693, 36.22949
861.6514, 34.72021
862.1335, 32.14600
862.6156, 29.68848
863.0977, 29.06885
863.5798, 31.19678
864.0620, 32.51709
864.5441, 32.51123
865.0262, 32.12549
865.5083, 32.90479
865.9904, 34.22217
866.4725, 34.02734
866.9547, 31.69189
867.4368, 28.95337
867.9189, 25.87231
868.4010, 23.56396
868.8831, 23.30469
869.3652, 26.84033
869.8474, 28.15259
870.3295, 26.41992
870.8116, 23.80615
871.2937, 21.71924
871.7758, 20.20605
872.2579, 20.21777
872.7401, 21.80762
873.2222, 22.56787
873.7043, 19.03320
874.1864, 14.77686
874.6685, 14.27368
875.1506, 17.89185
875.6328, 18.74756
876.1149, 11.09473
876.5970, 4.819092
877.0791, 4.428223
877.5612, 9.097656
878.0433, 10.17358
878.5255, 7.548096
879.0076, 4.380127
879.4897, 2.184814
879.9718, 0.7968750
880.4539, 0.5607910
880.9360, 1.057129
881.4182, 0.8010250
881.9003, 2.415283
882.3824, 4.714600
882.8645, 4.251709
883.3466, 2.002930
883.8287, 0.2761230
884.3109, 0.8955080
884.7930, 1.561768
885.2751, 1.693359
885.7572, 1.302490
886.2393, 4.7118999E-02
886.7214, 1.722900
887.2036, 3.098877
887.6857, 3.864746
888.1678, 4.031494
888.6499, 1.853027
889.1320, 0.1320800
889.6141, 1.758057
890.0963, 9.978516
890.5784, 15.03369
891.0605, 15.61084
891.5426, 14.68335
892.0247, 15.79248
892.5068, 18.25171
892.9890, 20.25000
893.4711, 21.51514
893.9532, 21.85962
894.4353, 20.26733
894.9174, 18.25195
895.3995, 17.34912
895.8817, 18.34009
896.3638, 17.03931
896.8459, 12.03613
897.3280, 7.765381
897.8101, 8.497559
898.2922, 12.74463
898.7744, 11.14502
899.2565, 4.260498
899.7386, 2.265869
900.2207, 5.273926
900.7028, 6.114502
901.1849, 4.712646
901.6671, 1.596924
902.1492, 0.2270510
902.6313, 2.345459
903.1134, 3.821533
903.5955, 3.356934
904.0776, 1.751709
904.5598, 1.260498
905.0419, 1.776123
905.5240, 2.095947
906.0062, 1.718750
906.4883, 1.193115
906.9704, 1.092285
907.4525, 1.201416
907.9346, 1.120850
908.4167, 0.1735840
908.8989, 3.9306998E-02
909.3810, 1.062744
909.8631, 2.314453
910.3452, 1.367920
910.8273, 1.464355
911.3094, 0.2961430
911.7916, 6.050049
912.2737, 12.30908
912.7558, 12.02832
913.2379, 9.915039
913.7200, 11.82520
914.2021, 19.88525
914.6843, 24.69458
915.1664, 23.09619
915.6485, 20.22705
916.1306, 18.60449
916.6127, 18.17358
917.0948, 17.81641
917.5770, 17.53687
918.0591, 17.39014
918.5412, 16.79834
919.0233, 16.78418
919.5054, 19.02417
919.9875, 22.93750
920.4697, 26.06934
920.9518, 27.84497
921.4339, 28.43164
921.9160, 27.39014
922.3981, 25.43115
922.8802, 24.00586
923.3624, 23.14233
923.8445, 24.10693
924.3266, 27.96655
924.8087, 32.07227
925.2908, 33.22314
925.7729, 32.85083
926.2551, 33.11890
926.7372, 35.52124
927.2193, 36.89941
927.7014, 35.91138
928.1835, 35.02393
928.6656, 37.16528
929.1478, 42.37939
929.6299, 44.93555
930.1120, 44.48877
930.5941, 43.25708
931.0762, 41.92822
931.5583, 41.61768
932.0405, 43.84180
932.5226, 48.68604
933.0047, 53.77661
933.4868, 59.57153
933.9689, 64.06348
934.4510, 65.70898
934.9332, 65.42798
935.4153, 68.38477
935.8974, 74.40698
936.3795, 80.57324
936.8616, 86.16309
937.3438, 90.44116
937.8259, 90.99634
938.3080, 89.91284
938.7901, 91.40674
939.2722, 101.3416
939.7543, 107.1079
940.2365, 105.9519
940.7186, 101.9207
941.2007, 100.6309
941.6828, 101.7969
942.1649, 102.2275
942.6470, 101.5303
943.1292, 99.83423
943.6113, 95.27612
944.0934, 91.05957
944.5755, 91.13916
945.0576, 97.34888
945.5397, 100.0098
946.0219, 96.95190
946.5040, 93.01636
946.9861, 90.57202
947.4682, 89.12939
947.9503, 86.26807
948.4324, 82.34888
948.9146, 79.69751
949.3967, 80.85522
949.8788, 82.55054
950.3609, 81.89551
950.8430, 79.84180
951.3251, 79.38916
951.8073, 82.01440
952.2894, 84.13232
952.7715, 85.24487
953.2536, 85.58496
953.7357, 85.23315
954.2179, 84.51709
954.7000, 84.25122
955.1821, 84.38696
955.6642, 85.50195
956.1464, 89.16162
956.6285, 93.45264
957.1106, 96.62573
957.5927, 98.24731
958.0748, 99.33447
958.5569, 99.23608
959.0391, 99.87793
959.5212, 103.1785
960.0033, 108.0198
960.4854, 111.1733
960.9675, 112.7539
961.4496, 113.7305
961.9318, 115.2532
962.4139, 115.6216
962.8960, 112.8645
963.3781, 108.4448
963.8602, 106.6848
964.3423, 108.7712
964.8245, 108.7717
965.3066, 105.4446
965.7887, 99.97485
966.2708, 92.10815
966.7529, 83.83716
967.2350, 79.89355
967.7172, 83.04370
968.1993, 84.11133
968.6814, 77.99585
969.1635, 69.87573
969.6456, 62.81104
970.1277, 56.56494
970.6099, 53.18555
971.0920, 52.75610
971.5741, 52.95874
972.0562, 52.50439
972.5383, 51.46436
973.0204, 49.80884
973.5026, 47.63330
973.9847, 45.46899
974.4668, 42.10840
974.9489, 40.72754
975.4310, 42.79834
975.9131, 46.53955
976.3953, 48.19482
976.8774, 47.95850
977.3595, 48.41089
977.8416, 50.39209
978.3237, 52.21826
978.8058, 52.29272
979.2880, 51.42749
979.7701, 50.36450
980.2522, 48.97900
980.7343, 48.34985
981.2164, 48.80884
981.6985, 49.43237
982.1807, 49.78589
982.6628, 49.77319
983.1449, 48.70728
983.6270, 46.79907
984.1091, 45.51221
984.5912, 47.05737
985.0734, 47.99121
985.5555, 44.76929
986.0376, 39.64355
986.5197, 39.07715
987.0018, 45.48315
987.4839, 48.12939
987.9661, 44.70532
988.4482, 39.05298
988.9303, 35.83594
989.4124, 34.44507
989.8945, 33.92212
990.3766, 34.24878
990.8588, 34.75879
991.3409, 36.56372
991.8230, 37.17041
992.3051, 34.20752
992.7872, 28.03784
993.2693, 27.27124
993.7515, 32.10864
994.2336, 36.06445
994.7157, 34.22925
995.1978, 30.76978
995.6799, 30.00073
996.1620, 31.33545
996.6442, 33.49146
997.1263, 36.79590
997.6084, 39.88916
998.0905, 42.94434
998.5726, 45.35620
999.0547, 45.72827
999.5369, 44.51001
1000.019, 44.71484
1000.501, 46.82739
1000.983, 48.81909
1001.465, 49.26172
1001.947, 48.85742
1002.430, 47.53882
1002.912, 45.38403
1003.394, 46.07202
1003.876, 50.89917
1004.358, 54.41040
1004.840, 54.12451
1005.322, 51.78687
1005.804, 49.74219
1006.287, 48.46655
1006.769, 49.13672
1007.251, 54.12476
1007.733, 58.14673
1008.215, 58.07544
1008.697, 57.38037
1009.179, 59.52148
1009.661, 64.87646
1010.143, 68.34131
1010.626, 69.66724
1011.108, 70.36230
1011.590, 71.58960
1012.072, 72.84595
1012.554, 73.35156
1013.036, 73.26196
1013.518, 73.97168
1014.000, 76.12378
1014.483, 78.33569
1014.965, 80.16821
1015.447, 82.09009
1015.929, 85.89746
1016.411, 90.73193
1016.893, 93.00171
1017.375, 91.01562
1017.857, 89.20972
1018.339, 90.92944
1018.822, 93.56323
1019.304, 94.61841
1019.786, 93.69727
1020.268, 94.03394
1020.750, 95.83130
1021.232, 97.32031
1021.714, 96.56055
1022.196, 95.24731
1022.679, 97.52417
1023.161, 101.5630
1023.643, 102.1082
1024.125, 92.98267
1024.607, 86.16821
1025.089, 84.53906
1025.571, 85.00830
1026.053, 83.01514
1026.535, 79.05200
1027.018, 76.82642
1027.500, 77.03076
1027.982, 76.51587
1028.464, 71.81909
1028.946, 66.26758
1029.428, 62.30908
1029.910, 60.02222
1030.392, 58.64380
1030.875, 58.78857
1031.357, 57.81714
1031.839, 54.20825
1032.321, 49.71802
1032.803, 47.59619
1033.285, 47.02075
1033.767, 46.39990
1034.249, 45.24609
1034.731, 44.02881
1035.214, 43.75146
1035.696, 42.56201
1036.178, 38.26318
1036.660, 30.99854
1037.142, 27.45703
1037.624, 27.61670
1038.106, 27.25708
1038.588, 22.25366
1039.071, 16.86450
1039.553, 14.28394
1040.035, 14.02759
1040.517, 14.04785
1040.999, 14.75049
1041.481, 13.90234
1041.963, 10.48730
1042.445, 7.086670
1042.927, 7.676270
1043.410, 10.54395
1043.892, 12.17212
1044.374, 11.84668
1044.856, 12.22827
1045.338, 17.04736
1045.820, 19.52759
1046.302, 15.30737
1046.784, 6.378662
1047.266, 4.098145
1047.749, 7.775635
1048.231, 10.22461
1048.713, 7.770996
1049.195, 4.805664
1049.677, 5.428223
1050.159, 7.485596
1050.641, 7.697266
1051.123, 4.323975
1051.606, 2.786133
1052.088, 3.521973
1052.570, 4.820801
1053.052, 5.767334
1053.534, 6.137451
1054.016, 5.232178
1054.498, 3.286133
1054.980, 1.315674
1055.463, 1.397949
1055.945, 2.566406
1056.427, 0.8002930
1056.909, 1.845215
1057.391, 1.382813
1057.873, 1.706543
1058.355, 2.811768
1058.837, 1.086670
1059.319, 0.9602050
1059.802, 1.203125
1060.284, 1.176025
1060.766, 2.270752
1061.248, 4.471436
1061.730, 5.890137
1062.212, 6.292725
1062.694, 6.785400
1063.176, 8.104492
1063.658, 9.278564
1064.141, 8.072754
1064.623, 5.936279
1065.105, 5.419678
1065.587, 8.012451
1066.069, 10.42554
1066.551, 12.29419
1067.033, 13.66089
1067.515, 13.63135
1067.998, 13.02417
1068.480, 15.42595
1068.962, 19.62170
1069.444, 22.29661
1069.926, 23.53275
1070.408, 19.01995
1070.890, 21.93068
1071.372, 21.86630
1071.854, 20.38184
1072.337, 16.87134
1072.819, 14.63159
1073.301, 14.11670
1073.783, 14.16992
1074.265, 14.62012
1074.747, 14.48706
1075.229, 12.19019
1075.711, 7.934814
1076.193, 5.308594
1076.676, 5.134033
1077.158, 5.135498
1077.640, 4.717773
1078.122, 4.177002
1078.604, 4.347900
1079.086, 4.725830
1079.568, 4.100342
1080.051, 1.833252
1080.533, 0.1862790
1081.015, 1.112793
1081.497, 1.759033
1081.979, 2.566895
1082.461, 3.403809
1082.943, 3.522705
1083.425, 2.973145
1083.907, 2.098145
1084.390, 0.2473140
1084.872, 0.7558590
1085.354, 1.413574
1085.836, 4.478027
1086.318, 5.612549
1086.800, 4.511230
1087.282, 2.147949
1087.764, 1.684814
1088.246, 4.526855
1088.729, 3.192139
1089.211, 0.6833500
1089.693, 0.5405270
1090.175, 2.267578
1090.657, 3.675293
1091.139, 4.584473
1091.621, 4.504883
1092.103, 2.726563
1092.586, 1.332275
1093.068, 4.695801
1093.550, 10.26758
1094.032, 11.56006
1094.514, 7.785645
1094.996, 4.046631
1095.478, 2.065674
1095.960, 1.391357
1096.443, 2.406494
1096.925, 4.233643
1097.407, 3.859863
1097.889, 1.646240
1098.371, 0.1960450
1098.853, 0.1059570
1099.335, 1.247559
1099.817, 4.824219
1100.299, 8.423828
1100.781, 9.806152
1101.264, 8.926758
1101.746, 7.566895
1102.228, 5.698975
1102.710, 3.950684
1103.192, 2.657471
1103.674, 1.585205
1104.156, 0.3261720
1104.638, 0.8100590
1105.121, 1.295898
1105.603, 0.2331540
1106.085, 3.4912001E-02
1106.567, 0.5505370
1107.049, 1.719727
1107.531, 4.243164
1108.013, 6.738770
1108.495, 6.183594
1108.978, 3.148926
1109.460, 0.1372070
1109.942, 1.887451
1110.424, 3.900391
1110.906, 6.555176
1111.388, 8.549316
1111.870, 7.294189
1112.352, 3.784912
1112.834, 2.702637
1113.317, 4.292236
1113.799, 5.632813
1114.281, 4.125732
1114.763, 3.114014
1115.245, 4.907471
1115.727, 8.085938
1116.209, 8.948975
1116.691, 7.712646
1117.173, 7.401611
1117.656, 8.981934
1118.138, 9.977295
1118.620, 5.432373
1119.102, 1.571777
1119.584, 3.094324
1120.066, 6.824296
1120.548, 9.033539
1121.030, 9.803895
1121.513, 4.825930
1121.995, 7.270865
1122.477, 6.740860
1122.959, 2.119385
1123.441, 0.8693850
1123.923, 1.652832
1124.405, 5.710449
1124.887, 6.610840
1125.370, 2.969971
1125.852, 0.1611330
1126.334, 0.4536130
1126.816, 3.376221
1127.298, 6.500977
1127.780, 9.343506
1128.262, 10.68872
1128.744, 8.827881
1129.226, 7.229492
1129.709, 6.317139
1130.191, 5.645508
1130.673, 4.389893
1131.155, 3.031006
1131.637, 3.696045
1132.119, 6.114746
1132.601, 8.569580
1133.083, 10.38916
1133.566, 11.78906
1134.048, 12.97241
1134.530, 13.70532
1135.012, 13.62500
1135.494, 12.78027
1135.976, 10.99121
1136.458, 8.270508
1136.940, 6.519775
1137.422, 8.613037
1137.905, 10.55811
1138.387, 9.284668
1138.869, 6.136475
1139.351, 4.557861
1139.833, 4.603271
1140.315, 4.792725
1140.797, 4.910645
1141.279, 5.270264
1141.761, 6.351074
1142.244, 7.637451
1142.726, 8.638672
1143.208, 9.206299
1143.690, 8.779541
1144.172, 7.076172
1144.654, 7.193604
1145.136, 10.76685
1145.618, 14.62207
1146.101, 13.91260
1146.583, 11.50366
1147.065, 10.92505
1147.547, 13.13794
1148.029, 15.35986
1148.511, 17.68945
1148.993, 19.52832
1149.475, 21.03174
1149.958, 21.32104
1150.440, 17.60278
1150.922, 12.05249
1151.404, 8.630859
1151.886, 9.554932
1152.368, 9.695801
1152.850, 8.424561
1153.332, 7.065430
1153.814, 6.678711
1154.297, 6.763184
1154.779, 5.937256
1155.261, 4.397217
1155.743, 2.776123
1156.225, 0.3857420
1156.707, 0.6396480
1157.189, 0.5478520
1157.671, 2.067627
1158.153, 2.205322
1158.636, 1.268066
1159.118, 0.2255860
1159.600, 0.7197270
1160.082, 0.7319340
1160.564, 1.225342
1161.046, 3.369629
1161.528, 5.830811
1162.010, 7.669189
1162.493, 7.182861
1162.975, 4.884033
1163.457, 4.271484
1163.939, 5.361572
1164.421, 6.480225
1164.903, 6.446777
1165.385, 6.311035
1165.867, 6.771240
1166.349, 7.477783
1166.832, 7.489258
1167.314, 6.907715
1167.796, 7.634033
1168.278, 9.850830
1168.760, 11.20508
1169.242, 7.954590
1169.724, 5.378662
1170.206, 8.233154
1170.688, 13.83911
1171.171, 15.23535
1171.653, 12.50146
1172.135, 10.16870
1172.617, 9.038330
1173.099, 8.824951
1173.581, 10.75513
1174.063, 12.29736
1174.545, 10.39185
1175.028, 6.176270
1175.510, 5.937256
1175.992, 9.914063
1176.474, 11.29346
1176.956, 7.723145
1177.438, 3.627441
1177.920, 2.785400
1178.402, 3.440918
1178.885, 4.362305
1179.367, 5.379883
1179.849, 5.038086
1180.331, 3.083740
1180.813, 2.735107
1181.295, 6.088379
1181.777, 9.122559
1182.259, 5.789307
1182.741, 0.9638670
1183.224, 0.7966310
1183.706, 6.404541
1184.188, 9.256104
1184.670, 9.053223
1185.152, 8.039795
1185.634, 6.360596
1186.116, 5.520020
1186.598, 8.662109
1187.081, 13.27051
1187.563, 15.94019
1188.045, 16.10645
1188.527, 14.25684
1189.009, 9.846924
1189.491, 6.606689
1189.973, 6.750244
1190.455, 8.925537
1190.938, 13.24731
1191.420, 17.83252
1191.902, 19.37183
1192.384, 16.06421
1192.866, 13.70068
1193.348, 12.51709
1193.830, 11.28467
1194.312, 8.713379
1194.794, 6.044189
1195.276, 4.306885
1195.759, 3.850830
1196.241, 5.587402
1196.723, 11.37671
1197.205, 15.10498
1197.687, 16.57227
1198.169, 16.59033
1198.651, 14.82617
1199.133, 12.66431
1199.616, 12.20581
1200.098, 12.81763
1200.580, 12.88379
1201.062, 11.70020
1201.544, 11.01343
1202.026, 10.88770
1202.508, 11.23730
1202.990, 12.32544
1203.473, 13.59497
1203.955, 14.35205
1204.437, 14.65698
1204.919, 14.76855
1205.401, 14.73193
1205.883, 14.52954
1206.365, 14.13135
1206.847, 13.66455
1207.329, 13.37354
1207.812, 13.02563
1208.294, 12.07739
1208.776, 10.74585
1209.258, 10.02417
1209.740, 10.09839
1210.222, 10.87646
1210.704, 12.61377
1211.186, 14.00854
1211.668, 13.30078
1212.151, 11.80493
1212.633, 10.76953
1213.115, 10.39160
1213.597, 11.51929
1214.079, 15.03638
1214.561, 17.16284
1215.043, 17.33350
1215.525, 16.69189
1216.008, 16.53223
1216.490, 16.17676
1216.972, 13.96021
1217.454, 10.33862
1217.936, 9.905273
1218.418, 14.46729
1218.900, 16.42407
1219.382, 14.05566
1219.865, 10.78247
1220.347, 10.33765
1220.829, 11.08545
1221.311, 11.30273
1221.793, 10.96387
1222.275, 10.90894
1222.757, 11.27808
1223.239, 11.72021
1223.721, 12.25879
1224.203, 12.51245
1224.686, 11.48560
1225.168, 10.38672
1225.650, 10.66992
1226.132, 12.42529
1226.614, 13.90649
1227.096, 15.18750
1227.578, 15.28857
1228.061, 13.86890
1228.543, 12.02271
1229.025, 9.581055
1229.507, 8.260498
1229.989, 11.08154
1230.471, 17.33618
1230.953, 19.16455
1231.435, 15.91968
1231.917, 13.96167
1232.400, 14.95654
1232.882, 16.39307
1233.364, 16.67041
1233.846, 15.71655
1234.328, 12.68433
1234.810, 8.102051
1235.292, 4.918457
1235.774, 3.213623
1236.256, 3.241455
1236.739, 5.551025
1237.221, 7.292236
1237.703, 5.286621
1238.185, 2.364990
1238.667, 0.8276370
1239.149, 0.5173340
1239.631, 0.6325680
1240.113, 1.114990
1240.596, 0.7402340
1241.078, 0.9021000
1241.560, 2.467041
1242.042, 3.627930
1242.524, 3.814941
1243.006, 2.212891
1243.488, 0.4833980
1243.970, 1.653076
1244.453, 1.518799
1244.935, 2.002686
1245.417, 3.340576
1245.899, 4.843262
1246.381, 6.433838
1246.863, 7.995850
1247.345, 9.638184
1247.827, 10.98779
1248.309, 10.38184
1248.792, 8.377197
1249.274, 7.759766
1249.756, 9.602051
1250.238, 10.99170
1250.720, 10.24072
1251.202, 8.957764
1251.684, 7.739502
1252.166, 6.535400
1252.648, 4.940186
1253.131, 3.291748
1253.613, 2.630371
1254.095, 3.279053
1254.577, 3.977295
1255.059, 4.553467
1255.541, 4.613037
1256.023, 3.660400
1256.505, 2.638428
1256.988, 4.027100
1257.470, 6.616455
1257.952, 7.997070
1258.434, 7.751465
1258.916, 6.687256
1259.398, 4.118164
1259.880, 2.926025
1260.362, 4.647461
1260.844, 7.377930
1261.327, 7.704346
1261.809, 6.944580
1262.291, 7.079834
1262.773, 8.535645
1263.255, 9.343506
1263.737, 9.011475
1264.219, 9.307373
1264.701, 11.07544
1265.183, 12.80249
1265.666, 11.18677
1266.148, 9.258789
1266.630, 11.11890
1267.112, 17.17847
1267.594, 22.28125
1268.076, 26.61890
1268.558, 28.13599
1269.040, 25.65771
1269.523, 22.32983
1270.005, 20.41260
1270.487, 19.42383
1270.969, 19.44434
1271.451, 20.36304
1271.933, 21.53442
1272.415, 22.90161
1272.897, 23.37915
1273.380, 21.95068
1273.862, 20.21021
1274.344, 19.90601
1274.826, 19.46265
1275.308, 17.59302
1275.790, 14.81909
1276.272, 12.95190
1276.754, 11.95410
1277.236, 12.27490
1277.719, 14.23389
1278.201, 15.14795
1278.683, 13.30835
1279.165, 10.43774
1279.647, 6.627441
1280.129, 3.066895
1280.611, 2.001465
1281.093, 2.601807
1281.576, 3.411865
1282.058, 4.164551
1282.540, 3.746826
1283.022, 0.3583980
1283.504, 1.619629
1283.986, 0.8247070
1284.468, 1.291260
1284.950, 2.862061
1285.432, 4.163574
1285.915, 6.091553
1286.397, 8.646240
1286.879, 9.141846
1287.361, 6.805420
1287.843, 4.556885
1288.325, 2.762695
1288.807, 2.267578
1289.289, 5.219971
1289.771, 9.109619
1290.254, 11.46069
1290.736, 12.12061
1291.218, 11.87402
1291.700, 10.55933
1292.182, 9.385986
1292.664, 8.153320
1293.146, 6.072998
1293.628, 7.231445
1294.111, 8.486084
1294.593, 8.288818
1295.075, 6.904297
1295.557, 4.417969
1296.039, 1.431152
1296.521, 6.1035000E-02
1297.003, 0.3647460
1297.485, 1.338379
1297.968, 2.395020
1298.450, 2.693115
1298.932, 1.579346
1299.414, 3.2471001E-02
1299.896, 1.357422
1300.378, 4.505127
1300.860, 4.581299
1301.342, 1.987061
1301.824, 0.0000000E+00
##END=



