##NAMES=Paulingite-Na
##RRUFFID=R060457
##IDEAL CHEMISTRY=(Na_2_,K_2_,Ca,Ba)_5_Al_10_Si_35_O_90_&#183;45H_2_O
##LOCALITY=near Ritter, Grant County, Oregon, USA
##OWNER=RRUFF
##SOURCE=Michael Scott
##DESCRIPTION=Druse of colorless dodecahedral crystals coating vesicles in basalt
##STATUS=The identification of this mineral has been confirmed only by single crystal X-ray diffraction.
##URL=rruff.info/R060457
198.179, 0.000
198.661, 3.441
199.143, 0.026
199.625, 0.708
200.107, 7.571
200.589, 17.955
201.071, 37.428
201.553, 52.763
202.036, 59.587
202.518, 48.672
203.000, 17.007
203.482, 2.111
203.964, 5.230
204.446, 5.396
204.928, 26.756
205.410, 64.368
205.893, 95.812
206.375, 99.943
206.857, 69.125
207.339, 59.229
207.821, 78.176
208.303, 117.229
208.785, 137.087
209.267, 131.991
209.749, 120.607
210.232, 110.052
210.714, 95.510
211.196, 90.605
211.678, 100.703
212.160, 122.758
212.642, 138.496
213.124, 149.757
213.606, 152.583
214.089, 143.604
214.571, 120.189
215.053, 94.174
215.535, 63.508
216.017, 29.004
216.499, 14.714
216.981, 29.072
217.463, 53.444
217.945, 69.216
218.428, 70.185
218.910, 75.564
219.392, 95.759
219.874, 121.686
220.356, 121.258
220.838, 84.875
221.320, 46.719
221.802, 43.657
222.285, 93.191
222.767, 132.595
223.249, 146.345
223.731, 134.446
224.213, 125.157
224.695, 113.283
225.177, 104.013
225.659, 100.908
226.141, 106.496
226.624, 113.071
227.106, 112.157
227.588, 101.547
228.070, 98.008
228.552, 106.012
229.034, 118.208
229.516, 124.985
229.998, 123.377
230.480, 119.398
230.963, 115.465
231.445, 113.220
231.927, 108.065
232.409, 92.756
232.891, 76.356
233.373, 71.096
233.855, 84.163
234.337, 97.689
234.820, 107.155
235.302, 114.240
235.784, 110.744
236.266, 90.001
236.748, 62.723
237.230, 44.884
237.712, 42.076
238.194, 39.009
238.676, 31.982
239.159, 19.193
239.641, 7.096
240.123, 7.362
240.605, 18.598
241.087, 14.912
241.569, 13.075
242.051, 41.414
242.533, 65.496
243.016, 87.232
243.498, 94.976
243.980, 80.719
244.462, 57.429
244.944, 46.366
245.426, 53.534
245.908, 64.395
246.390, 73.389
246.872, 81.195
247.355, 89.576
247.837, 101.899
248.319, 111.887
248.801, 107.399
249.283, 73.272
249.765, 50.591
250.247, 57.795
250.729, 108.466
251.212, 132.170
251.694, 117.730
252.176, 84.430
252.658, 64.200
253.140, 64.889
253.622, 64.310
254.104, 53.427
254.586, 26.774
255.068, 14.970
255.551, 24.223
256.033, 47.792
256.515, 65.890
256.997, 76.679
257.479, 85.952
257.961, 96.004
258.443, 107.809
258.925, 115.412
259.408, 117.075
259.890, 115.780
260.372, 115.076
260.854, 111.958
261.336, 115.190
261.818, 129.447
262.300, 157.729
262.782, 182.946
263.264, 209.311
263.746, 228.056
264.229, 219.970
264.711, 169.928
265.193, 130.896
265.675, 123.927
266.157, 154.731
266.639, 177.291
267.121, 190.388
267.603, 196.716
268.086, 200.272
268.568, 201.706
269.050, 198.527
269.532, 186.469
270.014, 163.919
270.496, 158.475
270.978, 177.438
271.460, 203.493
271.943, 211.287
272.425, 196.216
272.907, 181.164
273.389, 173.365
273.871, 173.121
274.353, 173.827
274.835, 175.672
275.317, 178.896
275.799, 183.651
276.282, 189.790
276.764, 198.159
277.246, 212.454
277.728, 231.951
278.210, 234.175
278.692, 212.835
279.174, 187.292
279.656, 185.585
280.138, 211.044
280.621, 228.385
281.103, 220.134
281.585, 191.293
282.067, 185.222
282.549, 206.945
283.031, 235.631
283.513, 245.156
283.995, 234.906
284.478, 230.650
284.960, 245.736
285.442, 272.902
285.924, 275.852
286.406, 251.290
286.888, 221.730
287.370, 211.395
287.852, 218.864
288.335, 224.061
288.817, 219.255
289.299, 209.413
289.781, 207.847
290.263, 214.190
290.745, 226.276
291.227, 249.465
291.709, 279.937
292.191, 291.474
292.674, 259.958
293.156, 220.882
293.638, 266.856
294.120, 291.458
294.602, 295.946
295.084, 221.845
295.566, 249.237
296.048, 236.326
296.530, 222.092
297.013, 264.493
297.495, 203.012
297.977, 244.196
298.459, 244.700
298.941, 262.638
299.423, 231.702
299.905, 246.932
300.387, 247.362
300.870, 241.206
301.352, 242.992
301.834, 252.178
302.316, 263.841
302.798, 281.229
303.280, 299.698
303.762, 321.411
304.244, 347.618
304.727, 372.244
305.209, 385.273
305.691, 387.117
306.173, 387.787
306.655, 385.175
307.137, 384.571
307.619, 394.231
308.101, 419.698
308.583, 444.107
309.065, 450.797
309.548, 446.270
310.030, 445.629
310.512, 463.587
310.994, 484.245
311.476, 492.196
311.958, 483.524
312.440, 475.667
312.922, 482.856
313.405, 498.743
313.887, 512.257
314.369, 511.034
314.851, 510.310
315.333, 523.115
315.815, 554.177
316.297, 574.979
316.779, 564.952
317.262, 540.313
317.744, 520.351
318.226, 513.255
318.708, 510.666
319.190, 510.176
319.672, 512.512
320.154, 517.059
320.636, 525.766
321.118, 535.498
321.601, 543.015
322.083, 551.516
322.565, 554.992
323.047, 547.125
323.529, 528.955
324.011, 522.167
324.493, 544.440
324.975, 569.448
325.457, 579.286
325.940, 557.665
326.422, 536.633
326.904, 521.066
327.386, 510.238
327.868, 497.681
328.350, 476.367
328.832, 458.490
329.314, 450.646
329.797, 468.869
330.279, 474.270
330.761, 459.990
331.243, 432.208
331.725, 410.865
332.207, 399.396
332.689, 390.355
333.171, 381.832
333.654, 378.133
334.136, 362.930
334.618, 325.363
335.100, 282.344
335.582, 270.982
336.064, 309.258
336.546, 340.081
337.028, 336.056
337.510, 288.381
337.992, 271.541
338.475, 300.668
338.957, 340.066
339.439, 334.502
339.921, 273.188
340.403, 219.067
340.885, 193.272
341.367, 193.661
341.849, 197.098
342.332, 204.935
342.814, 211.842
343.296, 212.668
343.778, 207.372
344.260, 196.784
344.742, 180.451
345.224, 159.509
345.706, 135.016
346.189, 106.309
346.671, 82.478
347.153, 71.935
347.635, 73.327
348.117, 81.691
348.599, 99.155
349.081, 118.735
349.563, 125.699
350.045, 121.281
350.528, 117.479
351.010, 127.122
351.492, 142.609
351.974, 147.333
352.456, 137.036
352.938, 119.558
353.420, 100.149
353.902, 80.431
354.384, 65.921
354.867, 47.637
355.349, 42.109
355.831, 13.316
356.313, 40.758
356.795, 54.525
357.277, 55.065
357.759, 3.941
358.241, 19.451
358.724, 8.041
359.206, 4.573
359.688, 20.006
360.170, 24.059
360.652, 0.127
361.134, 3.386
361.616, 5.773
362.098, 11.974
362.581, 21.410
363.063, 3.974
363.545, 31.491
364.027, 51.565
364.509, 63.720
364.991, 56.816
365.473, 49.447
365.955, 53.488
366.437, 88.345
366.919, 112.020
367.402, 115.751
367.884, 104.505
368.366, 93.449
368.848, 76.944
369.330, 66.123
369.812, 65.853
370.294, 82.965
370.776, 94.629
371.259, 100.992
371.741, 101.840
372.223, 95.179
372.705, 71.433
373.187, 56.792
373.669, 63.160
374.151, 94.009
374.633, 105.035
375.116, 90.375
375.598, 65.029
376.080, 42.185
376.562, 19.369
377.044, 11.334
377.526, 28.362
378.008, 62.662
378.490, 70.006
378.973, 45.088
379.455, 18.609
379.937, 16.046
380.419, 36.003
380.901, 55.605
381.383, 73.450
381.865, 86.105
382.347, 85.201
382.829, 71.201
383.311, 52.935
383.794, 29.234
384.276, 5.182
384.758, 2.719
385.240, 10.347
385.722, 22.655
386.204, 8.735
386.686, 25.220
387.168, 63.003
387.651, 106.580
388.133, 145.482
388.615, 163.717
389.097, 161.366
389.579, 158.295
390.061, 169.014
390.543, 186.700
391.025, 203.781
391.508, 216.301
391.990, 228.631
392.472, 243.241
392.954, 259.781
393.436, 276.431
393.918, 290.250
394.400, 306.300
394.882, 329.414
395.364, 367.814
395.847, 399.152
396.329, 412.657
396.811, 416.744
397.293, 428.147
397.775, 453.375
398.257, 482.286
398.739, 508.159
399.221, 524.718
399.703, 535.776
400.186, 604.963
400.668, 660.279
401.150, 702.385
401.632, 691.341
402.114, 747.891
402.596, 771.411
403.078, 836.774
403.560, 888.419
404.043, 922.870
404.525, 949.161
405.007, 970.293
405.489, 982.104
405.971, 1014.974
406.453, 1079.164
406.935, 1159.449
407.417, 1220.627
407.900, 1259.538
408.382, 1298.335
408.864, 1346.850
409.346, 1405.248
409.828, 1470.709
410.310, 1543.369
410.792, 1623.062
411.274, 1718.837
411.756, 1824.761
412.238, 1918.871
412.721, 1984.788
413.203, 2038.612
413.685, 2103.444
414.167, 2181.993
414.649, 2273.316
415.131, 2384.709
415.613, 2504.697
416.095, 2623.673
416.578, 2743.137
417.060, 2850.171
417.542, 2932.092
418.024, 2992.016
418.506, 3055.328
418.988, 3130.564
419.470, 3211.174
419.952, 3290.676
420.435, 3370.711
420.917, 3447.688
421.399, 3516.459
421.881, 3579.956
422.363, 3642.138
422.845, 3712.954
423.327, 3776.099
423.809, 3828.606
424.291, 3868.368
424.774, 3891.038
425.256, 3899.774
425.738, 3892.141
426.220, 3864.807
426.702, 3804.211
427.184, 3749.291
427.666, 3705.574
428.148, 3665.267
428.630, 3609.559
429.113, 3533.864
429.595, 3454.631
430.077, 3380.223
430.559, 3313.045
431.041, 3236.616
431.523, 3146.146
432.005, 3050.020
432.487, 2960.690
432.970, 2879.580
433.452, 2802.390
433.934, 2727.111
434.416, 2654.772
434.898, 2583.702
435.380, 2512.816
435.862, 2450.747
436.344, 2416.479
436.827, 2397.998
437.309, 2359.504
437.791, 2285.635
438.273, 2215.115
438.755, 2191.972
439.237, 2204.199
439.719, 2221.902
440.201, 2230.412
440.683, 2239.298
441.165, 2260.729
441.648, 2296.141
442.130, 2320.812
442.612, 2298.086
443.094, 2268.188
443.576, 2270.273
444.058, 2334.141
444.540, 2411.531
445.022, 2491.824
445.505, 2576.270
445.987, 2665.827
446.469, 2759.642
446.951, 2861.065
447.433, 2974.177
447.915, 3107.089
448.397, 3229.265
448.879, 3327.915
449.362, 3423.779
449.844, 3546.715
450.326, 3708.584
450.808, 3870.522
451.290, 4016.945
451.772, 4151.534
452.254, 4314.528
452.736, 4509.327
453.218, 4716.957
453.701, 4923.677
454.183, 5125.948
454.665, 5334.865
455.147, 5548.657
455.629, 5770.236
456.111, 6007.626
456.593, 6257.309
457.075, 6508.792
457.557, 6735.797
458.040, 6964.020
458.522, 7248.071
459.004, 7593.176
459.486, 7956.350
459.968, 8352.993
460.450, 8734.665
460.932, 9013.396
461.414, 9083.965
461.897, 9142.634
462.379, 9325.131
462.861, 9606.231
463.343, 9894.806
463.825, 10166.751
464.307, 10428.131
464.789, 10678.319
465.271, 10913.038
465.754, 11160.591
466.236, 11436.982
466.718, 11726.257
467.200, 12012.693
467.682, 12312.565
468.164, 12586.241
468.646, 12817.287
469.128, 13011.281
469.610, 13218.882
470.093, 13442.078
470.575, 13671.828
471.057, 13900.218
471.539, 14123.456
472.021, 14365.919
472.503, 14644.580
472.985, 14923.210
473.467, 15134.577
473.949, 15274.613
474.432, 15401.736
474.914, 15531.561
475.396, 15666.101
475.878, 15817.157
476.360, 15985.267
476.842, 16151.116
477.324, 16302.395
477.806, 16438.496
478.289, 16554.898
478.771, 16647.715
479.253, 16729.744
479.735, 16825.676
480.217, 16921.752
480.699, 16983.791
481.181, 16974.295
481.663, 16941.430
482.146, 16915.723
482.628, 16900.064
483.110, 16875.926
483.592, 16844.225
484.074, 16795.760
484.556, 16723.100
485.038, 16645.072
485.520, 16516.258
486.002, 16303.636
486.484, 16033.105
486.967, 15765.260
487.449, 15420.071
487.931, 15190.211
488.413, 14879.251
488.895, 14568.424
489.377, 14258.626
489.859, 13949.691
490.341, 13639.680
490.824, 13329.328
491.306, 13019.312
491.788, 12324.864
492.270, 11800.583
492.752, 11383.505
493.234, 10936.699
493.716, 10470.600
494.198, 10018.523
494.681, 9628.264
495.163, 9265.413
495.645, 8861.050
496.127, 8400.050
496.609, 7946.908
497.091, 7566.276
497.573, 7230.124
498.055, 6890.473
498.537, 6520.871
499.020, 6157.404
499.502, 5816.944
499.984, 5496.656
500.466, 5177.317
500.948, 4833.682
501.430, 4513.761
501.912, 4238.022
502.394, 4024.163
502.876, 3814.345
503.359, 3601.285
503.841, 3389.067
504.323, 3181.521
504.805, 2970.039
505.287, 2775.944
505.769, 2602.149
506.251, 2446.350
506.733, 2299.215
507.216, 2158.131
507.698, 2024.987
508.180, 1902.022
508.662, 1789.427
509.144, 1685.979
509.626, 1592.224
510.108, 1501.136
510.590, 1403.331
511.073, 1301.679
511.555, 1209.162
512.037, 1139.000
512.519, 1071.844
513.001, 970.060
513.483, 844.570
513.965, 744.355
514.447, 718.250
514.929, 717.289
515.412, 702.679
515.894, 668.405
516.376, 625.278
516.858, 565.280
517.340, 505.367
517.822, 462.703
518.304, 446.961
518.786, 437.213
519.268, 439.789
519.751, 449.195
520.233, 436.509
520.715, 386.313
521.197, 334.673
521.679, 296.638
522.161, 274.700
522.643, 251.133
523.125, 223.469
523.607, 198.427
524.090, 184.328
524.572, 181.439
525.054, 185.878
525.536, 204.240
526.018, 219.868
526.500, 183.528
526.982, 105.398
527.464, 49.681
527.947, 76.436
528.429, 137.786
528.911, 158.654
529.393, 131.625
529.875, 104.563
530.357, 125.115
530.839, 134.616
531.321, 133.297
531.804, 87.866
532.286, 98.292
532.768, 86.248
533.250, 73.307
533.732, 91.682
534.214, 52.399
534.696, 67.241
535.178, 48.614
535.661, 61.226
536.143, 72.555
536.625, 84.900
537.107, 93.337
537.589, 92.133
538.071, 79.453
538.553, 68.689
539.035, 61.231
539.517, 56.447
540.000, 53.459
540.482, 51.889
540.964, 48.316
541.446, 42.821
541.928, 33.398
542.410, 10.869
542.892, 23.357
543.374, 49.188
543.856, 48.981
544.339, 34.359
544.821, 15.474
545.303, 11.356
545.785, 25.047
546.267, 1.148
546.749, 42.655
547.231, 64.204
547.713, 26.513
548.195, 0.066
548.678, 13.016
549.160, 59.039
549.642, 81.146
550.124, 65.123
550.606, 43.348
551.088, 29.181
551.570, 22.350
552.052, 26.967
552.534, 47.857
553.017, 69.844
553.499, 69.491
553.981, 48.022
554.463, 37.752
554.945, 49.068
555.427, 71.647
555.909, 92.169
556.391, 109.319
556.874, 115.973
557.356, 94.215
557.838, 67.610
558.320, 65.464
558.802, 89.519
559.284, 111.675
559.766, 116.645
560.248, 112.232
560.731, 104.511
561.213, 89.410
561.695, 78.977
562.177, 78.855
562.659, 84.387
563.141, 86.569
563.623, 87.253
564.105, 81.606
564.588, 65.473
565.070, 40.575
565.552, 26.828
566.034, 27.494
566.516, 29.770
566.998, 25.578
567.480, 15.215
567.962, 1.234
568.444, 17.326
568.927, 33.915
569.409, 38.444
569.891, 34.601
570.373, 32.252
570.855, 34.903
571.337, 39.820
571.819, 46.002
572.301, 52.578
572.783, 56.850
573.266, 59.894
573.748, 58.414
574.230, 45.691
574.712, 18.419
575.194, 6.642
575.676, 28.867
576.158, 59.262
576.640, 80.724
577.122, 88.312
577.605, 97.568
578.087, 111.017
578.569, 124.767
579.051, 130.904
579.533, 128.350
580.015, 126.864
580.497, 130.229
580.979, 136.564
581.461, 140.180
581.944, 141.225
582.426, 141.928
582.908, 145.189
583.390, 148.489
583.872, 144.570
584.354, 131.268
584.836, 126.051
585.318, 148.567
585.801, 181.992
586.283, 208.303
586.765, 222.448
587.247, 228.372
587.729, 215.603
588.211, 195.412
588.693, 196.793
589.175, 242.249
589.657, 280.654
590.140, 296.795
590.622, 291.739
591.104, 293.853
591.586, 306.254
592.068, 316.791
592.550, 315.933
593.032, 304.451
593.515, 291.113
593.997, 274.837
594.479, 264.725
594.961, 280.769
595.443, 311.231
595.925, 326.234
596.407, 303.417
596.889, 280.311
597.371, 295.261
597.854, 334.877
598.336, 364.040
598.818, 359.511
599.300, 348.969
599.782, 343.532
600.264, 344.081
600.746, 346.531
601.228, 347.650
601.710, 353.250
602.193, 366.875
602.675, 390.452
603.157, 418.453
603.639, 455.137
604.121, 488.118
604.603, 496.173
605.085, 479.868
605.567, 465.610
606.049, 458.062
606.532, 455.648
607.014, 446.989
607.496, 438.791
607.978, 410.224
608.460, 457.789
608.942, 487.522
609.424, 500.092
609.906, 443.291
610.388, 474.716
610.871, 469.173
611.353, 461.998
611.835, 505.497
612.317, 457.572
612.799, 499.846
613.281, 504.409
613.763, 499.188
614.245, 494.256
614.728, 528.113
615.210, 551.937
615.692, 555.918
616.174, 545.084
616.656, 533.876
617.138, 522.551
617.620, 507.986
618.102, 482.058
618.584, 454.479
619.067, 446.378
619.549, 456.372
620.031, 471.218
620.513, 492.328
620.995, 510.569
621.477, 511.556
621.959, 484.635
622.442, 462.452
622.924, 460.613
623.406, 468.408
623.888, 474.832
624.370, 486.765
624.852, 488.416
625.334, 472.760
625.816, 446.862
626.298, 428.545
626.781, 417.364
627.263, 414.920
627.745, 425.394
628.227, 443.845
628.709, 452.657
629.191, 451.975
629.673, 445.577
630.155, 434.159
630.638, 419.533
631.120, 402.216
631.602, 381.710
632.084, 367.438
632.566, 371.527
633.048, 381.122
633.530, 385.030
634.012, 375.377
634.494, 367.616
634.977, 367.669
635.459, 369.737
635.941, 364.374
636.423, 345.666
636.905, 330.369
637.387, 323.585
637.869, 321.931
638.351, 310.754
638.833, 288.822
639.316, 271.854
639.798, 272.024
640.280, 282.989
640.762, 287.741
641.244, 286.201
641.726, 281.448
642.208, 269.743
642.690, 259.121
643.172, 263.831
643.655, 294.903
644.137, 308.756
644.619, 262.659
645.101, 200.898
645.583, 171.455
646.065, 222.583
646.547, 250.896
647.029, 239.928
647.511, 207.120
647.994, 190.961
648.476, 193.623
648.958, 204.713
649.440, 226.015
649.922, 250.667
650.404, 249.744
650.886, 224.829
651.369, 203.494
651.851, 206.039
652.333, 221.941
652.815, 240.885
653.297, 262.208
653.779, 275.298
654.261, 270.186
654.743, 256.448
655.225, 242.573
655.708, 231.854
656.190, 217.626
656.672, 191.971
657.154, 166.509
657.636, 153.958
658.118, 158.382
658.600, 165.438
659.082, 174.494
659.565, 183.672
660.047, 188.335
660.529, 188.461
661.011, 185.907
661.493, 181.905
661.975, 175.349
662.457, 159.637
662.939, 137.615
663.421, 124.592
663.904, 143.634
664.386, 165.428
664.868, 165.110
665.350, 138.585
665.832, 116.349
666.314, 107.408
666.796, 104.509
667.278, 102.820
667.760, 102.777
668.243, 102.632
668.725, 101.610
669.207, 101.084
669.689, 102.530
670.171, 105.700
670.653, 111.708
671.135, 123.405
671.617, 131.696
672.099, 115.294
672.582, 83.251
673.064, 61.876
673.546, 76.717
674.028, 95.352
674.510, 94.393
674.992, 77.770
675.474, 62.296
675.956, 55.335
676.439, 49.080
676.921, 43.607
677.403, 39.970
677.885, 19.027
678.367, 32.121
678.849, 75.986
679.331, 83.258
679.813, 53.645
680.295, 29.981
680.778, 13.239
681.260, 3.359
681.742, 9.610
682.224, 22.028
682.706, 15.468
683.188, 23.527
683.670, 60.277
684.153, 69.077
684.635, 60.350
685.117, 49.067
685.599, 30.707
686.081, 20.015
686.563, 24.244
687.045, 38.193
687.527, 50.932
688.009, 66.360
688.492, 70.200
688.974, 48.635
689.456, 13.751
689.938, 33.221
690.420, 107.493
690.902, 169.959
691.384, 171.748
691.866, 137.003
692.348, 96.728
692.831, 53.210
693.313, 24.502
693.795, 29.042
694.277, 48.773
694.759, 71.696
695.241, 100.286
695.723, 118.594
696.205, 121.154
696.688, 115.202
697.170, 105.047
697.652, 87.472
698.134, 76.699
698.616, 75.329
699.098, 78.639
699.580, 81.104
700.062, 82.490
700.544, 79.564
701.027, 69.119
701.509, 58.038
701.991, 56.102
702.473, 60.207
702.955, 62.552
703.437, 55.940
703.919, 50.532
704.401, 50.991
704.883, 56.785
705.366, 59.143
705.848, 33.158
706.330, 63.441
706.812, 80.067
707.294, 83.770
707.776, 35.846
708.258, 54.619
708.740, 46.681
709.222, 37.649
709.705, 65.819
710.187, 25.444
710.669, 53.044
711.151, 53.530
711.633, 47.735
712.115, 38.038
712.597, 45.829
713.080, 85.820
713.562, 109.203
714.044, 82.151
714.526, 42.158
715.008, 30.537
715.490, 65.273
715.972, 89.283
716.454, 96.427
716.936, 93.323
717.419, 89.490
717.901, 84.950
718.383, 83.239
718.865, 86.474
719.347, 91.136
719.829, 91.209
720.311, 88.584
720.793, 88.440
721.276, 90.777
721.758, 98.811
722.240, 122.029
722.722, 155.185
723.204, 171.046
723.686, 149.438
724.168, 128.569
724.650, 120.198
725.132, 123.696
725.615, 125.507
726.097, 124.935
726.579, 125.875
727.061, 113.712
727.543, 105.332
728.025, 75.240
728.507, 106.335
728.989, 122.638
729.471, 124.901
729.954, 71.045
730.436, 89.526
730.918, 78.853
731.400, 67.102
731.882, 95.868
732.364, 50.146
732.846, 78.221
733.328, 71.359
733.810, 89.961
734.293, 85.287
734.775, 76.762
735.257, 95.913
735.739, 138.576
736.221, 163.230
736.703, 158.079
737.185, 141.798
737.667, 131.991
738.149, 127.947
738.632, 128.725
739.114, 141.332
739.596, 149.167
740.078, 142.319
740.560, 127.295
741.042, 118.227
741.524, 114.380
742.006, 117.277
742.489, 131.080
742.971, 150.857
743.453, 156.208
743.935, 146.309
744.417, 137.483
744.899, 136.802
745.381, 142.391
745.863, 152.064
746.346, 165.234
746.828, 179.409
747.310, 191.817
747.792, 205.732
748.274, 226.839
748.756, 255.480
749.238, 270.676
749.720, 257.116
750.203, 244.302
750.685, 248.815
751.167, 273.096
751.649, 278.062
752.131, 259.933
752.613, 242.045
753.095, 252.117
753.577, 277.072
754.059, 274.956
754.542, 239.559
755.024, 215.537
755.506, 246.202
755.988, 299.818
756.470, 345.476
756.952, 374.878
757.434, 401.229
757.916, 438.023
758.398, 464.240
758.881, 452.412
759.363, 380.484
759.845, 362.388
760.327, 422.210
760.809, 502.790
761.291, 518.693
761.773, 487.040
762.255, 473.441
762.737, 503.601
763.220, 536.530
763.702, 527.689
764.184, 499.285
764.666, 486.840
765.148, 509.847
765.630, 542.985
766.112, 588.938
766.594, 634.390
767.076, 653.442
767.559, 635.271
768.041, 628.796
768.523, 644.463
769.005, 671.550
769.487, 693.557
769.969, 711.135
770.451, 723.964
770.933, 731.890
771.416, 734.618
771.898, 725.146
772.380, 709.180
772.862, 705.112
773.344, 737.767
773.826, 764.087
774.308, 769.403
774.790, 756.073
775.273, 732.707
775.755, 692.594
776.237, 665.301
776.719, 671.252
777.201, 699.135
777.683, 704.342
778.165, 688.412
778.647, 668.734
779.130, 660.506
779.612, 651.794
780.094, 623.602
780.576, 577.250
781.058, 548.729
781.540, 567.034
782.022, 589.674
782.504, 596.405
782.986, 585.873
783.469, 572.661
783.951, 552.818
784.433, 545.509
784.915, 505.669
785.397, 505.523
785.879, 495.588
786.361, 476.435
786.843, 420.408
787.325, 411.921
787.808, 388.734
788.290, 388.329
788.772, 405.579
789.254, 417.427
789.736, 422.209
790.218, 416.579
790.700, 394.366
791.182, 347.280
791.664, 326.599
792.147, 337.386
792.629, 353.794
793.111, 345.318
793.593, 321.196
794.075, 312.250
794.557, 323.899
795.039, 336.803
795.521, 337.250
796.003, 331.881
796.486, 324.970
796.968, 320.395
797.450, 311.375
797.932, 292.582
798.414, 274.784
798.896, 267.363
799.378, 273.788
799.860, 271.695
800.343, 258.535
800.825, 240.042
801.307, 222.309
801.789, 204.697
802.271, 184.071
802.753, 156.490
803.235, 136.358
803.717, 135.339
804.200, 145.296
804.682, 157.171
805.164, 175.626
805.646, 187.298
806.128, 194.118
806.610, 191.830
807.092, 169.597
807.574, 127.006
808.057, 97.146
808.539, 86.837
809.021, 86.889
809.503, 90.188
809.985, 94.700
810.467, 96.389
810.949, 92.277
811.431, 88.273
811.913, 88.229
812.396, 89.217
812.878, 86.803
813.360, 78.210
813.842, 71.736
814.324, 69.090
814.806, 67.464
815.288, 58.069
815.770, 43.353
816.252, 44.523
816.735, 74.715
817.217, 104.219
817.699, 97.404
818.181, 70.179
818.663, 47.356
819.145, 38.147
819.627, 34.466
820.109, 43.031
820.591, 52.902
821.074, 46.807
821.556, 21.474
822.038, 8.189
822.520, 45.728
823.002, 73.712
823.484, 43.665
823.966, 22.696
824.448, 53.946
824.930, 3.500
825.413, 51.030
825.895, 54.472
826.377, 27.707
826.859, 3.678
827.341, 6.916
827.823, 18.824
828.305, 35.075
828.787, 51.891
829.270, 62.299
829.752, 66.157
830.234, 68.135
830.716, 70.219
831.198, 68.851
831.680, 56.265
832.162, 37.265
832.644, 21.253
833.127, 13.722
833.609, 6.862
834.091, 3.806
834.573, 14.622
835.055, 20.023
835.537, 20.104
836.019, 13.167
836.501, 4.255
836.984, 23.618
837.466, 31.139
837.948, 28.474
838.430, 22.987
838.912, 15.458
839.394, 8.633
839.876, 6.354
840.358, 5.762
840.841, 2.470
841.323, 14.221
841.805, 20.255
842.287, 8.268
842.769, 11.111
843.251, 21.100
843.733, 20.721
844.215, 25.560
844.697, 40.618
845.180, 54.785
845.662, 50.212
846.144, 34.651
846.626, 23.392
847.108, 24.646
847.590, 23.831
848.072, 5.685
848.554, 13.627
849.036, 12.060
849.519, 23.604
850.001, 47.588
850.483, 55.449
850.965, 53.053
851.447, 47.012
851.929, 37.609
852.411, 22.862
852.893, 1.037
853.375, 15.559
853.858, 10.312
854.340, 46.657
854.822, 58.191
855.304, 11.332
855.786, 12.680
856.268, 2.164
856.750, 28.709
857.232, 37.724
857.714, 28.490
858.197, 29.517
858.679, 45.549
859.161, 60.347
859.643, 49.371
860.125, 28.865
860.607, 24.969
861.089, 47.641
861.571, 65.285
862.054, 63.438
862.536, 52.758
863.018, 40.269
863.500, 20.176
863.982, 24.834
864.464, 61.060
864.946, 95.340
865.428, 89.198
865.911, 59.247
866.393, 51.792
866.875, 72.240
867.357, 95.051
867.839, 109.589
868.321, 116.036
868.803, 113.542
869.285, 99.989
869.768, 85.148
870.250, 63.433
870.732, 50.782
871.214, 65.802
871.696, 103.348
872.178, 113.626
872.660, 96.584
873.142, 72.604
873.624, 52.225
874.107, 35.455
874.589, 19.189
875.071, 3.539
875.553, 0.721
876.035, 22.902
876.517, 48.896
876.999, 75.153
877.481, 99.934
877.963, 101.299
878.446, 77.798
878.928, 53.636
879.410, 41.888
879.892, 38.465
880.374, 40.048
880.856, 44.704
881.338, 46.913
881.820, 33.241
882.302, 25.729
882.785, 40.919
883.267, 67.262
883.749, 66.305
884.231, 29.834
884.713, 15.480
885.195, 52.830
885.677, 112.267
886.159, 134.917
886.641, 128.443
887.124, 115.830
887.606, 106.177
888.088, 96.157
888.570, 79.356
889.052, 58.353
889.534, 43.507
890.016, 34.358
890.498, 34.972
890.981, 48.205
891.463, 68.836
891.945, 93.257
892.427, 116.995
892.909, 120.388
893.391, 87.037
893.873, 61.067
894.355, 86.867
894.838, 130.932
895.320, 151.675
895.802, 115.301
896.284, 98.509
896.766, 109.465
897.248, 129.720
897.730, 140.976
898.212, 143.017
898.695, 134.925
899.177, 115.373
899.659, 97.180
900.141, 92.601
900.623, 94.664
901.105, 96.821
901.587, 98.662
902.069, 100.633
902.551, 98.303
903.034, 101.953
903.516, 125.243
903.998, 168.332
904.480, 175.236
904.962, 144.983
905.444, 108.472
905.926, 81.642
906.408, 64.532
906.890, 61.822
907.373, 73.695
907.855, 87.053
908.337, 106.597
908.819, 116.908
909.301, 110.639
909.783, 89.988
910.265, 66.936
910.747, 40.694
911.229, 24.548
911.712, 35.629
912.194, 55.440
912.676, 59.571
913.158, 52.707
913.640, 48.060
914.122, 57.820
914.604, 66.342
915.086, 68.943
915.568, 66.901
916.051, 63.333
916.533, 58.382
917.015, 49.909
917.497, 36.212
917.979, 23.213
918.461, 19.075
918.943, 21.988
919.425, 29.459
919.908, 49.127
920.390, 57.801
920.872, 32.948
921.354, 4.226
921.836, 2.553
922.318, 34.531
922.800, 63.395
923.282, 88.502
923.765, 104.303
924.247, 98.067
924.729, 82.879
925.211, 75.377
925.693, 78.577
926.175, 88.384
926.657, 114.479
927.139, 135.891
927.622, 139.688
928.104, 125.278
928.586, 108.728
929.068, 89.604
929.550, 75.125
930.032, 69.662
930.514, 72.222
930.996, 87.353
931.478, 111.847
931.961, 128.364
932.443, 122.106
932.925, 111.298
933.407, 102.516
933.889, 96.740
934.371, 91.888
934.853, 87.536
935.335, 87.255
935.817, 92.812
936.300, 101.141
936.782, 113.082
937.264, 124.106
937.746, 124.348
938.228, 102.894
938.710, 80.323
939.192, 51.696
939.674, 32.360
940.156, 46.217
940.639, 103.882
941.121, 132.174
941.603, 120.946
942.085, 97.796
942.567, 89.542
943.049, 91.589
943.531, 99.952
944.013, 116.330
944.495, 115.679
944.978, 61.116
945.460, 11.075
945.942, 4.428
946.424, 42.350
946.906, 64.175
947.388, 69.202
947.870, 65.431
948.352, 52.762
948.835, 37.506
949.317, 30.816
949.799, 30.433
950.281, 27.072
950.763, 3.830
951.245, 6.737
951.727, 8.287
952.209, 40.496
952.692, 74.207
953.174, 110.251
953.656, 120.739
954.138, 90.995
954.620, 49.820
955.102, 31.805
955.584, 27.307
956.066, 20.297
956.549, 1.979
957.031, 10.649
957.513, 8.648
957.995, 32.865
958.477, 39.123
958.959, 26.761
959.441, 30.937
959.923, 54.673
960.405, 75.802
960.888, 70.725
961.370, 56.584
961.852, 51.400
962.334, 56.692
962.816, 62.162
963.298, 65.493
963.780, 69.020
964.262, 75.562
964.744, 82.073
965.227, 74.980
965.709, 56.364
966.191, 48.796
966.673, 77.649
967.155, 106.542
967.637, 102.079
968.119, 75.912
968.601, 52.829
969.083, 32.672
969.566, 25.719
970.048, 38.628
970.530, 56.256
971.012, 53.790
971.494, 36.350
971.976, 27.742
972.458, 32.836
972.940, 39.028
973.422, 28.928
973.905, 21.657
974.387, 40.864
974.869, 98.229
975.351, 116.766
975.833, 84.366
976.315, 46.754
976.797, 30.007
977.279, 29.737
977.762, 39.255
978.244, 55.135
978.726, 62.008
979.208, 34.590
979.690, 13.705
980.172, 32.355
980.654, 69.614
981.136, 67.782
981.619, 14.342
982.101, 13.868
982.583, 5.379
983.065, 40.798
983.547, 54.043
984.029, 51.488
984.511, 42.138
984.993, 22.715
985.476, 12.352
985.958, 27.870
986.440, 45.770
986.922, 50.802
987.404, 42.623
987.886, 25.299
988.368, 1.788
988.850, 25.002
989.332, 36.313
989.815, 37.491
990.297, 25.121
990.779, 2.195
991.261, 12.973
991.743, 14.504
992.225, 10.016
992.707, 2.206
993.189, 16.463
993.672, 16.492
994.154, 5.077
994.636, 2.145
995.118, 2.602
995.600, 8.511
996.082, 2.942
996.564, 4.283
997.046, 0.818
997.528, 30.167
998.011, 42.546
998.493, 34.612
998.975, 19.380
999.457, 6.860
999.939, 4.506
1000.421, 24.263
1000.903, 50.918
1001.385, 62.484
1001.867, 20.462
1002.350, 10.714
1002.832, 13.192
1003.314, 70.729
1003.796, 83.513
1004.278, 47.057
1004.760, 22.155
1005.242, 30.478
1005.724, 52.948
1006.207, 74.509
1006.689, 89.487
1007.171, 87.049
1007.653, 49.053
1008.135, 23.364
1008.617, 16.791
1009.099, 23.640
1009.581, 45.882
1010.063, 79.673
1010.546, 87.256
1011.028, 67.502
1011.510, 45.080
1011.992, 33.183
1012.474, 29.044
1012.956, 33.246
1013.438, 44.715
1013.920, 53.186
1014.403, 57.797
1014.885, 57.622
1015.367, 52.987
1015.849, 46.105
1016.331, 38.928
1016.813, 32.229
1017.295, 29.629
1017.777, 32.100
1018.259, 39.667
1018.742, 60.525
1019.224, 80.689
1019.706, 89.745
1020.188, 88.144
1020.670, 66.348
1021.152, 21.926
1021.634, 11.062
1022.116, 6.844
1022.599, 41.277
1023.081, 55.598
1023.563, 50.288
1024.045, 39.082
1024.527, 13.927
1025.009, 0.665
1025.491, 0.152
1025.973, 14.330
1026.455, 53.209
1026.938, 106.379
1027.420, 127.177
1027.902, 94.087
1028.384, 59.068
1028.866, 59.392
1029.348, 71.338
1029.830, 69.860
1030.312, 48.210
1030.794, 50.961
1031.277, 83.233
1031.759, 111.026
1032.241, 106.259
1032.723, 84.974
1033.205, 68.551
1033.687, 58.722
1034.169, 60.236
1034.651, 98.697
1035.134, 116.078
1035.616, 85.614
1036.098, 40.739
1036.580, 53.712
1037.062, 116.071
1037.544, 145.786
1038.026, 121.606
1038.508, 96.813
1038.990, 121.528
1039.473, 160.825
1039.955, 184.604
1040.437, 193.013
1040.919, 180.403
1041.401, 138.202
1041.883, 100.816
1042.365, 89.342
1042.847, 93.526
1043.329, 100.062
1043.812, 105.923
1044.294, 100.182
1044.776, 65.363
1045.258, 35.741
1045.740, 19.449
1046.222, 11.147
1046.704, 4.904
1047.186, 1.468
1047.669, 4.648
1048.151, 16.158
1048.633, 26.401
1049.115, 20.543
1049.597, 12.865
1050.079, 21.343
1050.561, 46.721
1051.043, 44.339
1051.526, 1.483
1052.008, 27.083
1052.490, 17.107
1052.972, 12.062
1053.454, 25.421
1053.936, 28.756
1054.418, 33.542
1054.900, 42.665
1055.382, 52.118
1055.865, 68.802
1056.347, 80.900
1056.829, 73.771
1057.311, 47.354
1057.793, 37.510
1058.275, 44.336
1058.757, 51.812
1059.239, 52.171
1059.721, 45.601
1060.204, 26.165
1060.686, 0.039
1061.168, 15.044
1061.650, 16.246
1062.132, 11.174
1062.614, 0.887
1063.096, 13.916
1063.578, 20.378
1064.061, 20.918
1064.543, 17.412
1065.025, 11.774
1065.507, 5.613
1065.989, 64.939
1066.471, 105.706
1066.953, 90.590
1067.435, 29.382
1067.917, 14.203
1068.400, 40.792
1068.882, 57.575
1069.364, 58.827
1069.846, 61.904
1070.328, 79.734
1070.810, 106.041
1071.292, 131.117
1071.774, 159.076
1072.256, 164.776
1072.739, 141.929
1073.221, 119.108
1073.703, 121.454
1074.185, 142.188
1074.667, 178.980
1075.149, 229.649
1075.631, 269.095
1076.114, 303.234
1076.596, 303.688
1077.078, 245.493
1077.560, 166.433
1078.042, 163.468
1078.524, 218.308
1079.006, 258.265
1079.488, 260.008
1079.970, 256.387
1080.453, 263.118
1080.935, 272.176
1081.417, 272.420
1081.899, 261.537
1082.381, 292.760
1082.863, 369.355
1083.345, 424.046
1083.827, 385.994
1084.309, 331.214
1084.792, 338.109
1085.274, 386.176
1085.756, 423.380
1086.238, 434.067
1086.720, 451.439
1087.202, 480.061
1087.684, 511.289
1088.166, 540.431
1088.649, 563.067
1089.131, 562.343
1089.613, 537.617
1090.095, 530.312
1090.577, 567.434
1091.059, 615.053
1091.541, 672.432
1092.023, 726.056
1092.505, 725.232
1092.988, 678.140
1093.470, 636.157
1093.952, 611.767
1094.434, 605.659
1094.916, 635.665
1095.398, 672.477
1095.880, 674.859
1096.362, 627.261
1096.844, 599.428
1097.327, 660.332
1097.809, 699.725
1098.291, 718.792
1098.773, 656.519
1099.255, 699.355
1099.737, 700.112
1100.219, 699.171
1100.701, 756.888
1101.184, 706.632
1101.666, 757.733
1102.148, 755.501
1102.630, 760.568
1103.112, 775.004
1103.594, 811.154
1104.076, 868.351
1104.558, 909.684
1105.041, 910.229
1105.523, 900.774
1106.005, 887.169
1106.487, 874.237
1106.969, 877.018
1107.451, 893.661
1107.933, 913.784
1108.415, 937.694
1108.897, 952.853
1109.380, 944.998
1109.862, 928.465
1110.344, 915.462
1110.826, 906.388
1111.308, 904.094
1111.790, 908.694
1112.272, 922.282
1112.754, 962.491
1113.236, 994.134
1113.719, 962.416
1114.201, 898.382
1114.683, 860.074
1115.165, 868.240
1115.647, 880.750
1116.129, 898.357
1116.611, 913.844
1117.093, 915.888
1117.576, 912.959
1118.058, 927.106
1118.540, 954.498
1119.022, 965.345
1119.504, 929.184
1119.986, 900.184
1120.468, 886.136
1120.950, 888.919
1121.432, 924.987
1121.915, 982.293
1122.397, 1011.507
1122.879, 1002.603
1123.361, 982.595
1123.843, 952.382
1124.325, 927.733
1124.807, 923.319
1125.289, 935.164
1125.771, 926.728
1126.254, 899.134
1126.736, 884.322
1127.218, 896.157
1127.700, 919.092
1128.182, 951.771
1128.664, 981.630
1129.146, 991.050
1129.628, 973.419
1130.111, 970.707
1130.593, 984.635
1131.075, 997.729
1131.557, 994.258
1132.039, 986.389
1132.521, 997.118
1133.003, 1013.965
1133.485, 1002.736
1133.968, 923.420
1134.450, 892.795
1134.932, 933.169
1135.414, 981.720
1135.896, 962.065
1136.378, 910.530
1136.860, 897.486
1137.342, 923.459
1137.824, 945.140
1138.307, 946.782
1138.789, 944.188
1139.271, 939.889
1139.753, 933.842
1140.235, 921.948
1140.717, 908.117
1141.199, 905.070
1141.681, 915.667
1142.163, 932.567
1142.646, 965.096
1143.128, 987.825
1143.610, 986.635
1144.092, 965.262
1144.574, 931.507
1145.056, 888.725
1145.538, 859.374
1146.020, 859.779
1146.503, 858.619
1146.985, 824.826
1147.467, 789.311
1147.949, 782.589
1148.431, 809.065
1148.913, 830.697
1149.395, 848.235
1149.877, 852.143
1150.359, 823.382
1150.842, 790.369
1151.324, 771.845
1151.806, 767.486
1152.288, 779.474
1152.770, 816.061
1153.252, 832.378
1153.734, 824.112
1154.216, 805.910
1154.698, 779.680
1155.181, 758.684
1155.663, 766.094
1156.145, 794.788
1156.627, 802.280
1157.109, 777.503
1157.591, 753.602
1158.073, 734.688
1158.555, 722.694
1159.038, 724.518
1159.520, 733.600
1160.002, 739.969
1160.484, 743.125
1160.966, 740.558
1161.448, 717.354
1161.930, 709.262
1162.412, 644.426
1162.895, 683.732
1163.377, 697.950
1163.859, 688.451
1164.341, 584.294
1164.823, 603.271
1165.305, 573.899
1165.787, 543.093
1166.269, 580.854
1166.751, 492.161
1167.234, 526.947
1167.716, 501.319
1168.198, 515.675
1168.680, 522.737
1169.162, 495.683
1169.644, 468.527
1170.126, 455.863
1170.608, 445.152
1171.090, 421.952
1171.573, 387.730
1172.055, 374.263
1172.537, 379.428
1173.019, 393.856
1173.501, 427.874
1173.983, 455.715
1174.465, 460.975
1174.947, 455.398
1175.430, 453.259
1175.912, 454.365
1176.394, 425.276
1176.876, 366.066
1177.358, 305.225
1177.840, 344.464
1178.322, 359.327
1178.804, 351.137
1179.286, 250.809
1179.769, 269.419
1180.251, 240.394
1180.733, 209.412
1181.215, 244.815
1181.697, 202.224
1182.179, 252.043
1182.661, 305.162
1183.143, 281.616
1183.625, 198.028
1184.108, 172.032
1184.590, 209.476
1185.072, 234.631
1185.554, 224.430
1186.036, 205.082
1186.518, 195.259
1187.000, 194.477
1187.482, 212.033
1187.965, 249.498
1188.447, 236.354
1188.929, 165.611
1189.411, 94.176
1189.893, 36.478
1190.375, 3.563
1190.857, 30.521
1191.339, 80.406
1191.822, 101.931
1192.304, 82.325
1192.786, 63.105
1193.268, 42.809
1193.750, 31.278
1194.232, 42.183
1194.714, 57.018
1195.196, 45.554
1195.678, 22.310
1196.161, 16.036
1196.643, 40.893
1197.125, 60.009
1197.607, 73.596
1198.089, 74.495
1198.571, 49.184
1199.053, 14.139
1199.535, 14.684
1200.017, 34.861
1200.500, 39.662
1200.982, 16.304
1201.464, 6.907
1201.946, 17.362
1202.428, 30.822
1202.910, 28.104
1203.392, 19.502
1203.874, 22.478
1204.357, 34.187
1204.839, 33.466
1205.321, 7.134
1205.803, 6.084
1206.285, 1.725
1206.767, 15.556
1207.249, 14.883
1207.731, 3.966
1208.214, 17.290
1208.696, 45.954
1209.178, 58.026
1209.660, 43.750
1210.142, 31.401
1210.624, 29.228
1211.106, 29.198
1211.588, 17.279
1212.070, 1.420
1212.552, 7.012
1213.035, 6.688
1213.517, 0.961
1213.999, 11.593
1214.481, 24.876
1214.963, 39.419
1215.445, 48.901
1215.927, 34.050
1216.409, 10.208
1216.892, 3.354
1217.374, 23.064
1217.856, 41.020
1218.338, 59.271
1218.820, 63.429
1219.302, 41.024
1219.784, 9.031
1220.266, 2.585
1220.749, 1.695
1221.231, 1.977
1221.713, 6.367
1222.195, 13.539
1222.677, 25.678
1223.159, 34.213
1223.641, 35.874
1224.123, 29.512
1224.605, 5.286
1225.088, 26.674
1225.570, 46.537
1226.052, 44.177
1226.534, 36.287
1227.016, 21.851
1227.498, 5.053
1227.980, 17.062
1228.462, 36.009
1228.944, 39.681
1229.427, 28.442
1229.909, 1.525
1230.391, 67.909
1230.873, 96.780
1231.355, 71.792
1231.837, 44.289
1232.319, 72.434
1232.801, 113.682
1233.284, 95.238
1233.766, 37.951
1234.248, 12.729
1234.730, 45.369
1235.212, 71.977
1235.694, 88.172
1236.176, 95.408
1236.658, 86.392
1237.141, 75.159
1237.623, 86.799
1238.105, 113.635
1238.587, 114.305
1239.069, 69.491
1239.551, 58.435
1240.033, 97.533
1240.515, 139.573
1240.997, 125.442
1241.480, 91.159
1241.962, 71.875
1242.444, 69.399
1242.926, 76.014
1243.408, 95.179
1243.890, 103.905
1244.372, 96.157
1244.854, 90.419
1245.337, 116.916
1245.819, 146.129
1246.301, 143.939
1246.783, 113.247
1247.265, 97.758
1247.747, 97.229
1248.229, 115.419
1248.711, 156.572
1249.193, 188.730
1249.676, 184.983
1250.158, 166.241
1250.640, 155.785
1251.122, 153.112
1251.604, 156.238
1252.086, 167.843
1252.568, 173.235
1253.050, 177.357
1253.532, 168.977
1254.015, 110.540
1254.497, 60.386
1254.979, 77.068
1255.461, 143.906
1255.943, 182.996
1256.425, 195.132
1256.907, 190.755
1257.389, 165.430
1257.872, 147.775
1258.354, 162.915
1258.836, 179.958
1259.318, 173.441
1259.800, 151.393
1260.282, 145.538
1260.764, 152.330
1261.246, 156.878
1261.729, 157.870
1262.211, 150.362
1262.693, 89.913
1263.175, 62.523
1263.657, 1.051
1264.139, 58.290
1264.621, 92.219
1265.103, 100.620
1265.585, 9.444
1266.068, 44.168
1266.550, 29.658
1267.032, 13.602
1267.514, 41.069
1267.996, 41.855
1268.478, 66.525
1268.960, 59.685
1269.442, 35.023
1269.924, 28.280
1270.407, 59.859
1270.889, 89.922
1271.371, 112.702
1271.853, 128.701
1272.335, 133.196
1272.817, 132.512
1273.299, 144.685
1273.781, 164.408
1274.264, 181.919
1274.746, 197.337
1275.228, 200.938
1275.710, 188.203
1276.192, 176.242
1276.674, 189.030
1277.156, 203.875
1277.638, 173.259
1278.120, 120.850
1278.603, 91.976
1279.085, 102.976
1279.567, 113.546
1280.049, 123.648
1280.531, 131.860
1281.013, 137.322
1281.495, 143.377
1281.977, 128.218
1282.459, 108.043
1282.942, 107.305
1283.424, 130.868
1283.906, 141.653
1284.388, 144.676
1284.870, 140.624
1285.352, 127.161
1285.834, 110.729
1286.316, 98.322
1286.799, 83.352
1287.281, 50.669
1287.763, 1.652
1288.245, 1.681
1288.727, 46.312
1289.209, 89.747
1289.691, 96.748
1290.173, 95.603
1290.656, 90.139
1291.138, 89.373
1291.620, 107.085
1292.102, 138.374
1292.584, 151.468
1293.066, 138.371
1293.548, 123.315
1294.030, 95.643
1294.512, 66.055
1294.995, 25.075
1295.477, 1.218
1295.959, 26.646
1296.441, 79.789
1296.923, 58.509
1297.405, 0.000
##END=



