##NAMES=Penfieldite
##RRUFFID=R050163
##IDEAL CHEMISTRY=Pb_2_Cl_3_(OH)
##LOCALITY=Margarita mine, Sierra Gorda, Antofagasta, Chile
##OWNER=RRUFF
##SOURCE=Jim McGlasson
##DESCRIPTION=Colorless pyramidal crystals, associated with blue pseudobol√©ite, R050162
##STATUS=The identification of this mineral has been confirmed by single-crystal X-ray diffraction.
##URL=rruff.info/R050163
149.1895, 0.0000000E+00
149.6716, 2.315918
150.1537, 2.440063
150.6358, 0.8648680
151.1180, 5.5298001E-02
151.6001, 2.853516
152.0822, 5.881714
152.5643, 8.073608
153.0464, 11.04126
153.5285, 15.33386
154.0107, 21.38599
154.4928, 26.93311
154.9749, 31.58813
155.4570, 35.63806
155.9391, 39.47437
156.4212, 42.29248
156.9034, 45.65637
157.3855, 49.88794
157.8676, 54.81641
158.3497, 61.38635
158.8318, 70.09473
159.3139, 80.46741
159.7961, 91.69934
160.2782, 103.4650
160.7603, 116.1411
161.2424, 129.9594
161.7245, 145.1237
162.2066, 161.0786
162.6888, 178.1204
163.1709, 195.9108
163.6530, 213.8934
164.1351, 233.1506
164.6172, 250.9790
165.0993, 265.6957
165.5815, 276.8204
166.0636, 284.6829
166.5457, 289.2391
167.0278, 290.5206
167.5099, 288.8311
167.9920, 284.3407
168.4742, 276.9833
168.9563, 266.5723
169.4384, 252.0840
169.9205, 235.6986
170.4026, 218.4576
170.8847, 200.4203
171.3669, 182.2069
171.8490, 163.4470
172.3311, 145.0518
172.8132, 128.0859
173.2953, 112.8628
173.7774, 99.07178
174.2596, 86.27832
174.7417, 74.41370
175.2238, 63.86768
175.7059, 56.01343
176.1880, 49.74622
176.6701, 43.28345
177.1523, 34.68054
177.6344, 26.46216
178.1165, 22.31494
178.5986, 22.07349
179.0807, 22.87976
179.5628, 21.99182
180.0450, 20.10303
180.5271, 18.97803
181.0092, 19.17163
181.4913, 20.16937
181.9734, 21.45062
182.4555, 23.24731
182.9377, 25.61237
183.4198, 27.61053
183.9019, 29.06177
184.3840, 30.63403
184.8661, 32.79059
185.3482, 35.40369
185.8304, 38.00714
186.3125, 40.69476
186.7946, 42.96106
187.2767, 44.31348
187.7588, 44.85272
188.2409, 45.30060
188.7231, 45.97656
189.2052, 46.84351
189.6873, 47.66779
190.1694, 48.45593
190.6515, 49.25177
191.1336, 50.22351
191.6158, 51.36639
192.0979, 52.28418
192.5800, 52.75031
193.0621, 52.84991
193.5442, 52.94250
194.0263, 52.93182
194.5085, 52.91016
194.9906, 53.46576
195.4727, 54.59100
195.9548, 55.86157
196.4369, 56.99695
196.9190, 57.90411
197.4012, 58.99774
197.8833, 60.30798
198.3654, 61.24371
198.8475, 61.81598
199.3296, 61.96161
199.8117, 61.97455
200.2939, 62.36292
200.7760, 63.17816
201.2581, 63.30005
201.7402, 62.80670
202.2223, 61.62225
202.7044, 59.48859
203.1866, 56.37518
203.6687, 53.06024
204.1508, 49.83069
204.6329, 46.69153
205.1150, 43.73877
205.5971, 41.14917
206.0793, 38.52301
206.5614, 35.08942
207.0435, 32.78516
207.5256, 29.95355
208.0077, 26.47418
208.4898, 22.12006
208.9720, 18.46448
209.4541, 15.58374
209.9362, 13.21832
210.4183, 10.75220
210.9004, 8.062683
211.3825, 5.761841
211.8647, 4.124939
212.3468, 3.268677
212.8289, 2.528687
213.3110, 1.959534
213.7931, 1.423584
214.2752, 0.7100830
214.7574, 0.2968140
215.2395, 1.328064
215.7216, 2.471375
216.2037, 3.904358
216.6858, 4.511230
217.1679, 4.101990
217.6500, 2.980835
218.1322, 1.819885
218.6143, 0.8118900
219.0964, 0.5615230
219.5785, 2.660522
220.0606, 5.657135
220.5427, 8.717133
221.0249, 11.87103
221.5070, 15.07425
221.9891, 18.21292
222.4712, 21.04764
222.9533, 24.22131
223.4354, 28.12680
223.9176, 33.08237
224.3997, 37.79965
224.8818, 42.20334
225.3639, 46.40320
225.8460, 50.75284
226.3281, 55.71976
226.8103, 60.03922
227.2924, 63.11209
227.7745, 64.51004
228.2566, 65.80756
228.7387, 67.25699
229.2208, 68.50244
229.7030, 68.77942
230.1851, 67.80115
230.6672, 66.25372
231.1493, 64.42920
231.6314, 62.46942
232.1135, 59.83865
232.5957, 56.42816
233.0778, 52.37906
233.5599, 48.12558
234.0420, 43.54684
234.5241, 38.97150
235.0062, 34.54761
235.4884, 30.41104
235.9705, 26.20520
236.4526, 21.65723
236.9347, 17.11121
237.4168, 13.18878
237.8989, 9.994110
238.3811, 7.251434
238.8632, 5.013336
239.3453, 3.534180
239.8274, 1.705994
240.3095, 0.7906800
240.7916, 3.508484
241.2738, 5.607574
241.7559, 6.937561
242.2380, 7.866760
242.7201, 8.439362
243.2022, 8.579590
243.6843, 8.605865
244.1665, 8.451813
244.6486, 8.236755
245.1307, 8.240387
245.6128, 8.845032
246.0949, 9.027069
246.5770, 8.362122
247.0592, 6.587738
247.5413, 5.032349
248.0234, 3.814423
248.5055, 2.730957
248.9876, 1.425171
249.4697, 0.1756900
249.9519, 1.834656
250.4340, 3.429810
250.9161, 4.877197
251.3982, 6.722534
251.8803, 9.201599
252.3624, 11.89307
252.8446, 14.14992
253.3267, 15.57196
253.8088, 17.35022
254.2909, 19.88721
254.7730, 23.29544
255.2551, 26.61108
255.7373, 29.80270
256.2194, 32.93970
256.7015, 36.03491
257.1836, 38.91580
257.6657, 42.14818
258.1478, 45.94272
258.6299, 50.31989
259.1121, 54.67316
259.5942, 58.97296
260.0763, 63.27031
260.5584, 67.64053
261.0405, 71.95535
261.5226, 76.59859
262.0048, 81.70636
262.4869, 87.24741
262.9690, 92.94800
263.4511, 98.85089
263.9332, 104.8261
264.4153, 110.6831
264.8975, 116.3273
265.3796, 122.2373
265.8617, 128.5692
266.3438, 135.2563
266.8259, 142.0910
267.3080, 149.0597
267.7902, 156.1798
268.2723, 163.2696
268.7544, 170.3391
269.2365, 177.6669
269.7186, 185.3346
270.2007, 193.3467
270.6829, 201.3720
271.1650, 209.4262
271.6471, 217.4512
272.1292, 225.1101
272.6113, 232.2153
273.0934, 239.8579
273.5756, 248.3413
274.0577, 257.2756
274.5398, 265.5482
275.0219, 273.0297
275.5040, 280.3925
275.9861, 288.0335
276.4683, 295.9639
276.9504, 304.0180
277.4325, 312.3402
277.9146, 320.5856
278.3967, 327.7977
278.8788, 333.8318
279.3610, 339.4568
279.8431, 345.0902
280.3252, 350.7112
280.8073, 355.9925
281.2894, 360.9293
281.7715, 365.5593
282.2537, 369.9767
282.7358, 374.1977
283.2179, 377.9608
283.7000, 381.2180
284.1821, 383.9664
284.6642, 385.8821
285.1464, 386.8838
285.6285, 387.2147
286.1106, 387.2097
286.5927, 386.8600
287.0748, 386.1405
287.5569, 385.2126
288.0391, 383.9452
288.5212, 381.4969
289.0033, 377.7153
289.4854, 373.3221
289.9675, 369.1127
290.4496, 365.0522
290.9318, 361.0383
291.4139, 357.1329
291.8960, 353.1875
292.3781, 348.6389
292.8602, 343.3575
293.3423, 338.1609
293.8245, 333.7641
294.3066, 330.0911
294.7887, 326.8017
295.2708, 323.9637
295.7529, 321.3725
296.2350, 318.5119
296.7172, 315.3995
297.1993, 312.4779
297.6814, 310.1023
298.1635, 308.0742
298.6456, 306.0934
299.1277, 304.2043
299.6099, 302.2999
300.0920, 300.0796
300.5741, 297.6156
301.0562, 295.4380
301.5383, 294.0192
302.0204, 293.1207
302.5026, 292.3580
302.9847, 291.7738
303.4668, 290.9775
303.9489, 289.3575
304.4310, 287.1893
304.9131, 285.2954
305.3953, 284.5722
305.8774, 284.1873
306.3595, 283.1032
306.8416, 281.1611
307.3237, 278.6622
307.8058, 275.7788
308.2880, 272.4835
308.7701, 268.7909
309.2522, 264.6175
309.7343, 260.0740
310.2164, 255.2504
310.6985, 250.1050
311.1807, 244.6772
311.6628, 238.8511
312.1449, 232.7464
312.6270, 226.7375
313.1091, 221.1486
313.5912, 215.5281
314.0734, 209.5000
314.5555, 203.0804
315.0376, 196.5268
315.5197, 189.3352
316.0018, 182.2745
316.4839, 176.3336
316.9661, 172.8064
317.4482, 169.4453
317.9303, 165.2070
318.4124, 160.2431
318.8945, 155.4066
319.3766, 150.8803
319.8588, 146.7109
320.3409, 143.0091
320.8230, 140.1645
321.3051, 137.2526
321.7872, 133.7568
322.2693, 129.9511
322.7515, 126.6881
323.2336, 124.7097
323.7157, 122.9409
324.1978, 120.8231
324.6799, 118.0098
325.1620, 115.3905
325.6442, 113.1150
326.1263, 111.1100
326.6084, 109.2366
327.0905, 107.6863
327.5726, 106.0714
328.0547, 104.2583
328.5369, 102.2236
329.0190, 100.1654
329.5011, 98.05620
329.9832, 95.94639
330.4653, 93.90589
330.9474, 91.89286
331.4296, 90.00948
331.9117, 88.36002
332.3938, 86.99023
332.8759, 85.37914
333.3580, 83.38680
333.8401, 81.25236
334.3223, 79.16312
334.8044, 76.98003
335.2865, 75.04654
335.7686, 73.53442
336.2507, 72.33941
336.7328, 70.92480
337.2150, 69.14066
337.6971, 67.37942
338.1792, 65.88054
338.6613, 64.75757
339.1434, 63.48773
339.6255, 61.97168
340.1077, 60.32666
340.5898, 58.80087
341.0719, 57.46852
341.5540, 56.13585
342.0361, 54.76574
342.5182, 53.35015
343.0003, 51.70317
343.4825, 49.75900
343.9646, 47.78864
344.4467, 46.26134
344.9288, 45.20761
345.4109, 44.16754
345.8930, 43.02443
346.3752, 41.77016
346.8573, 40.43342
347.3394, 38.99941
347.8215, 37.51053
348.3036, 35.90602
348.7857, 34.22448
349.2679, 32.70252
349.7500, 31.44603
350.2321, 30.32641
350.7142, 29.20412
351.1963, 28.08410
351.6784, 26.89741
352.1606, 25.48338
352.6427, 23.99754
353.1248, 22.76170
353.6069, 21.88444
354.0890, 21.08040
354.5711, 19.91578
355.0533, 18.54211
355.5354, 17.37919
356.0175, 16.93949
356.4996, 16.71127
356.9817, 16.06658
357.4638, 14.90284
357.9460, 13.78791
358.4281, 13.20426
358.9102, 12.90766
359.3923, 12.55804
359.8744, 11.87385
360.3565, 11.20713
360.8387, 10.85229
361.3208, 10.77779
361.8029, 10.61203
362.2850, 10.20892
362.7671, 9.629906
363.2492, 8.912796
363.7314, 7.791000
364.2135, 6.859291
364.6956, 6.416931
365.1777, 6.332375
365.6598, 6.214005
366.1419, 5.954300
366.6241, 5.644066
367.1062, 5.321495
367.5883, 4.949196
368.0704, 4.648453
368.5525, 4.414146
369.0346, 4.263222
369.5168, 4.213638
369.9989, 4.545998
370.4810, 4.684105
370.9631, 4.410172
371.4452, 3.639381
371.9273, 3.122307
372.4095, 3.056229
372.8916, 3.083549
373.3737, 2.873665
373.8558, 2.224190
374.3379, 1.750351
374.8200, 1.584587
375.3022, 1.661888
375.7843, 1.635994
376.2664, 1.490974
376.7485, 1.271286
377.2306, 0.9901500
377.7127, 0.6332240
378.1949, 0.2660370
378.6770, 0.1529620
379.1591, 0.5101170
379.6412, 0.4560930
380.1233, 7.2959997E-02
380.6054, 0.3844450
381.0876, 4.9210000E-03
381.5697, 0.9171140
382.0518, 1.342033
382.5339, 1.208023
383.0160, 0.8967130
383.4981, 0.8226700
383.9803, 0.9433520
384.4624, 1.007004
384.9445, 0.8901060
385.4266, 0.7256620
385.9087, 0.8138890
386.3908, 1.126541
386.8730, 1.379768
387.3551, 1.334488
387.8372, 1.105873
388.3193, 0.8605730
388.8014, 0.5835110
389.2835, 0.4276050
389.7657, 0.6372150
390.2478, 1.085312
390.7299, 1.465408
391.2120, 1.687004
391.6941, 1.739235
392.1762, 1.523026
392.6584, 1.015671
393.1405, 0.5889130
393.6226, 0.4473340
394.1047, 0.4865720
394.5868, 0.5944750
395.0689, 0.8087620
395.5511, 1.013428
396.0332, 1.205872
396.5153, 1.368874
396.9974, 1.412987
397.4795, 1.160477
397.9616, 0.8950880
398.4438, 0.7810670
398.9259, 0.9689870
399.4080, 1.072964
399.8901, 1.017330
400.3722, 0.8604160
400.8543, 0.7116810
401.3365, 0.5386540
401.8186, 0.4149550
402.3007, 0.3701820
402.7828, 0.4145130
403.2649, 0.4416730
403.7470, 0.4262080
404.2292, 0.4222950
404.7113, 0.5020940
405.1934, 0.7458840
405.6755, 0.8462260
406.1576, 0.7416990
406.6397, 0.4738730
407.1219, 0.1415670
407.6040, 0.2997930
408.0861, 0.6411900
408.5682, 0.6926690
409.0503, 0.4614980
409.5324, 0.3768010
410.0146, 0.4876750
410.4967, 0.6533390
410.9788, 0.6366200
411.4609, 0.4652600
411.9430, 0.3817560
412.4251, 0.5538220
412.9073, 0.8440020
413.3894, 0.9016000
413.8715, 0.7403340
414.3536, 0.5898210
414.8357, 0.6486090
415.3178, 0.8353580
415.8000, 1.009304
416.2821, 1.168167
416.7642, 1.267197
417.2463, 1.186237
417.7284, 0.9982830
418.2105, 0.9066430
418.6927, 1.154564
419.1748, 1.440781
419.6569, 1.505455
420.1390, 1.296982
420.6211, 1.099274
421.1032, 1.017441
421.5854, 1.021744
422.0675, 1.083454
422.5496, 1.193253
423.0317, 1.366108
423.5138, 1.650723
423.9959, 2.016518
424.4781, 2.302513
424.9602, 2.413094
425.4423, 2.496540
425.9244, 2.630993
426.4065, 2.861797
426.8886, 3.060497
427.3708, 3.201839
427.8529, 3.317551
428.3350, 3.446030
428.8171, 3.547504
429.2992, 3.732662
429.7813, 4.070770
430.2635, 4.558842
430.7456, 4.909470
431.2277, 5.060181
431.7098, 5.224789
432.1919, 5.574017
432.6740, 6.130562
433.1562, 6.677261
433.6383, 7.173668
434.1204, 7.665710
434.6025, 8.290909
435.0846, 9.047039
435.5667, 9.740971
436.0489, 10.20364
436.5310, 10.52903
437.0131, 11.11432
437.4952, 12.00500
437.9773, 12.74474
438.4594, 12.80215
438.9416, 12.37283
439.4236, 11.85546
439.9058, 11.38062
440.3879, 10.90718
440.8700, 10.38755
441.3521, 9.816559
441.8342, 9.189320
442.3163, 8.321129
442.7985, 7.524696
443.2806, 7.060757
443.7627, 7.008480
444.2448, 7.071369
444.7269, 7.223099
445.2090, 7.407173
445.6912, 7.550430
446.1733, 7.644676
446.6554, 7.683418
447.1375, 7.546947
447.6196, 7.254425
448.1017, 7.222248
448.5839, 7.816727
449.0660, 8.418064
449.5481, 8.748676
450.0302, 8.783138
450.5123, 8.630104
450.9944, 8.178383
451.4766, 7.594727
451.9587, 7.206135
452.4408, 7.146950
452.9229, 6.909012
453.4050, 6.296547
453.8871, 5.365177
454.3693, 4.492077
454.8514, 3.652561
455.3335, 2.998142
455.8156, 2.740242
456.2977, 2.819511
456.7798, 2.695553
457.2620, 2.247879
457.7441, 1.731243
458.2262, 1.524055
458.7083, 1.574883
459.1904, 1.653267
459.6725, 1.662468
460.1547, 1.617874
460.6368, 1.519997
461.1189, 1.374077
461.6010, 1.266754
462.0831, 1.238838
462.5652, 1.263107
463.0474, 1.345142
463.5295, 1.614300
464.0116, 1.777340
464.4937, 1.580566
464.9758, 1.174557
465.4579, 0.8736760
465.9401, 0.8357890
466.4222, 0.8450580
466.9043, 0.8242650
467.3864, 0.7672310
467.8685, 0.6969680
468.3506, 0.5326350
468.8328, 0.4136160
469.3149, 0.4530180
469.7970, 0.8689310
470.2791, 1.063297
470.7612, 0.8609390
471.2433, 0.4450420
471.7255, 0.3569030
472.2076, 0.7522620
472.6897, 1.072842
473.1718, 1.074593
473.6539, 0.7578090
474.1360, 0.4969410
474.6182, 0.2875140
475.1003, 0.1351130
475.5824, 6.3404001E-02
476.0645, 6.7432001E-02
476.5466, 9.8384999E-02
477.0287, 0.1525420
477.5109, 0.2153780
477.9930, 0.2805250
478.4751, 0.3402750
478.9572, 0.3566320
479.4393, 0.2577860
479.9214, 0.1274490
480.4036, 6.1962001E-02
480.8857, 6.6832997E-02
481.3678, 0.1539760
481.8499, 0.4466400
482.3320, 0.7662240
482.8141, 0.9074940
483.2963, 0.6865350
483.7784, 0.4507290
484.2605, 0.3061180
484.7426, 0.2488060
485.2247, 0.2712360
485.7068, 0.4324340
486.1890, 0.6176950
486.6711, 0.8412020
487.1532, 1.166954
487.6353, 1.205441
488.1174, 0.6980970
488.5995, 0.1203920
489.0817, 0.1293140
489.5638, 0.1035190
490.0459, 0.2877500
490.5280, 0.3476720
491.0101, 0.3476600
491.4922, 0.4823420
491.9744, 0.7930340
492.4565, 1.003876
492.9386, 0.9562070
493.4207, 0.6954190
493.9028, 0.5071070
494.3849, 0.3893620
494.8671, 0.3350410
495.3492, 0.3769760
495.8313, 0.4777340
496.3134, 0.5411570
496.7955, 0.5636100
497.2776, 0.5162010
497.7598, 0.2683030
498.2419, 8.9263998E-02
498.7240, 0.3173940
499.2061, 0.2279210
499.6882, 2.6634000E-02
500.1703, 0.1817630
500.6525, 0.3933140
501.1346, 0.5347820
501.6167, 0.5474930
502.0988, 0.4882510
502.5809, 0.3991170
503.0630, 0.2643010
503.5452, 0.1650090
504.0273, 4.4716001E-02
504.5094, 6.1165001E-02
504.9915, 5.2471001E-02
505.4736, 0.1936110
505.9557, 0.3843040
506.4379, 0.4268760
506.9200, 0.3282780
507.4021, 0.2649000
507.8842, 0.2195400
508.3663, 0.2476840
508.8484, 0.4604910
509.3306, 0.8672140
509.8127, 1.013927
510.2948, 0.8223340
510.7769, 0.4972840
511.2590, 0.3055840
511.7411, 0.2379950
512.2233, 0.2416610
512.7054, 0.3031080
513.1875, 0.4186520
513.6696, 0.6560290
514.1517, 0.9771500
514.6339, 1.171543
515.1160, 0.9780620
515.5981, 0.6717110
516.0802, 0.5164410
516.5623, 0.5622220
517.0444, 0.6388090
517.5266, 0.7608720
518.0087, 0.8407210
518.4908, 0.7775420
518.9729, 0.2369080
519.4550, 0.1092340
519.9371, 1.7136000E-02
520.4193, 0.4915890
520.9014, 0.7534940
521.3835, 0.6562390
521.8656, 0.5345080
522.3477, 0.4968380
522.8298, 0.5460470
523.3120, 0.6568950
523.7941, 0.8466910
524.2762, 1.064896
524.7583, 1.312908
525.2404, 1.598465
525.7225, 1.641247
526.2047, 1.324566
526.6868, 0.8839910
527.1689, 0.7634740
527.6510, 0.9285050
528.1331, 1.103497
528.6152, 1.132629
529.0974, 1.093906
529.5795, 1.139729
530.0616, 1.271500
530.5437, 1.351604
531.0258, 1.197571
531.5079, 0.9903260
531.9901, 0.9152530
532.4722, 1.057629
532.9543, 1.190506
533.4364, 1.228123
533.9185, 1.211643
534.4006, 1.194523
534.8828, 1.183113
535.3649, 1.177727
535.8470, 1.174603
536.3291, 1.175579
536.8112, 1.201817
537.2933, 1.312141
537.7755, 1.341713
538.2576, 1.166889
538.7397, 0.7363430
539.2218, 0.5591660
539.7039, 0.6902730
540.1860, 0.9451480
540.6682, 1.148422
541.1503, 1.292873
541.6324, 1.372822
542.1145, 1.375736
542.5966, 1.340191
543.0787, 1.351345
543.5609, 1.387451
544.0430, 1.351574
544.5251, 1.091194
545.0072, 0.8007510
545.4893, 0.6886600
545.9714, 0.7406120
546.4536, 0.7973060
546.9357, 0.8063700
547.4178, 0.7998580
547.8999, 0.7650600
548.3820, 0.6482200
548.8641, 0.6058770
549.3463, 0.7624020
549.8284, 0.9840580
550.3105, 1.086899
550.7926, 0.9701730
551.2747, 0.8673860
551.7568, 0.8142850
552.2390, 0.8012280
552.7211, 0.8010290
553.2032, 0.8424570
553.6853, 0.8213080
554.1674, 0.6408350
554.6495, 0.3181690
555.1317, 0.1238860
555.6138, 6.0233999E-02
556.0959, 7.6110996E-02
556.5780, 0.2254180
557.0601, 0.4459460
557.5422, 0.4999540
558.0244, 0.2840770
558.5065, 3.2639001E-02
558.9886, 3.6040999E-02
559.4707, 0.1721500
559.9528, 0.2010230
560.4349, 0.2405660
560.9171, 0.5817150
561.3992, 0.3744430
561.8813, 0.2859650
562.3634, 0.7091750
562.8455, 0.5181430
563.3276, 0.2328720
563.8098, 9.6455000E-02
564.2919, 0.1576810
564.7740, 0.2015500
565.2561, 0.2328610
565.7382, 0.2429080
566.2203, 0.2072640
566.7025, 9.7446002E-02
567.1846, 9.5886000E-02
567.6667, 0.2522890
568.1488, 0.4745220
568.6309, 0.5729370
569.1130, 0.5554770
569.5952, 0.5251160
570.0773, 0.5208510
570.5594, 0.5398030
571.0415, 0.6284100
571.5236, 0.7716030
572.0057, 0.8027950
572.4879, 0.4519160
572.9700, 7.4649998E-03
573.4521, 0.2053950
573.9342, 0.1005330
574.4163, 1.3779000E-02
574.8984, 8.4679000E-02
575.3806, 0.2089770
575.8627, 0.1708950
576.3448, 0.3489840
576.8269, 0.6730120
577.3090, 0.6075860
577.7911, 0.3317600
578.2733, 0.2160220
578.7554, 0.3081470
579.2375, 0.4365650
579.7196, 0.5497670
580.2017, 0.6559980
580.6838, 0.8233640
581.1660, 1.064976
581.6481, 1.293957
582.1302, 1.477947
582.6123, 1.599636
583.0944, 1.542576
583.5765, 1.278091
584.0587, 0.9996150
584.5408, 0.9139330
585.0229, 0.9507750
585.5050, 0.9831430
585.9871, 0.9199710
586.4692, 0.9222870
586.9514, 1.147789
587.4335, 1.508060
587.9155, 1.813030
588.3976, 1.940262
588.8798, 2.061935
589.3619, 2.247280
589.8440, 2.498795
590.3261, 2.709061
590.8082, 2.858437
591.2903, 2.985771
591.7725, 3.099724
592.2546, 3.190033
592.7367, 3.337078
593.2188, 3.562157
593.7009, 3.788239
594.1830, 3.899658
594.6652, 3.915867
595.1473, 4.016354
595.6294, 4.255726
596.1115, 4.535149
596.5936, 4.688457
597.0757, 4.773476
597.5579, 4.939697
598.0400, 5.266628
598.5221, 5.684963
599.0042, 6.209763
599.4863, 6.804573
599.9684, 7.301205
600.4506, 7.543339
600.9327, 7.743141
601.4148, 8.029095
601.8969, 8.461082
602.3790, 8.727879
602.8611, 8.718803
603.3433, 8.656090
603.8254, 8.687542
604.3075, 8.797508
604.7896, 9.105621
605.2717, 9.701920
605.7538, 10.35815
606.2360, 10.64437
606.7181, 10.60130
607.2002, 10.60997
607.6823, 10.79561
608.1644, 11.08538
608.6465, 11.40326
609.1287, 11.73571
609.6108, 12.01912
610.0929, 12.18100
610.5750, 12.30821
611.0571, 12.46350
611.5392, 12.64804
612.0214, 12.84183
612.5035, 13.07954
612.9856, 13.29222
613.4677, 13.42693
613.9498, 13.39597
614.4319, 13.49132
614.9141, 13.78529
615.3962, 14.13934
615.8783, 14.42641
616.3604, 14.66393
616.8425, 14.73412
617.3246, 14.54546
617.8068, 14.30070
618.2889, 14.45152
618.7710, 14.94460
619.2531, 15.40922
619.7352, 15.74790
620.2173, 15.91949
620.6995, 15.78058
621.1816, 15.39321
621.6637, 15.07455
622.1458, 14.93669
622.6279, 14.98090
623.1100, 15.30324
623.5922, 15.94418
624.0743, 16.39131
624.5564, 16.42234
625.0385, 16.27073
625.5206, 16.09183
626.0027, 15.88393
626.4849, 15.65556
626.9670, 15.38350
627.4491, 15.11096
627.9312, 14.89531
628.4133, 14.74428
628.8954, 14.65699
629.3776, 14.65753
629.8597, 14.66048
630.3418, 14.49144
630.8239, 14.18513
631.3060, 13.88520
631.7881, 13.65356
632.2703, 13.47334
632.7524, 13.31578
633.2345, 13.18895
633.7166, 13.12886
634.1987, 13.30428
634.6808, 13.42712
635.1630, 13.31199
635.6451, 12.91413
636.1272, 12.50298
636.6093, 12.04953
637.0914, 11.64941
637.5735, 11.38351
638.0557, 11.29995
638.5378, 11.21462
639.0199, 11.11156
639.5020, 10.97387
639.9841, 10.76011
640.4662, 10.50085
640.9484, 10.33757
641.4305, 10.33220
641.9126, 10.31994
642.3947, 10.02988
642.8768, 9.555397
643.3589, 9.134808
643.8411, 8.878700
644.3232, 8.703232
644.8053, 8.579861
645.2874, 8.496025
645.7695, 8.386047
646.2516, 8.190418
646.7338, 7.988098
647.2159, 7.829861
647.6980, 7.726048
648.1801, 7.583763
648.6622, 7.369331
649.1443, 7.173454
649.6265, 7.041485
650.1086, 6.976524
650.5907, 7.012009
651.0728, 7.180031
651.5549, 7.322262
652.0370, 7.191738
652.5192, 6.885471
653.0013, 6.721039
653.4834, 6.826523
653.9655, 6.934242
654.4476, 6.714943
654.9297, 6.349915
655.4119, 6.139824
655.8940, 6.418507
656.3761, 6.636578
656.8582, 6.569759
657.3403, 6.283382
657.8224, 6.010212
658.3046, 5.635399
658.7867, 5.463013
659.2688, 5.673820
659.7509, 6.204971
660.2330, 6.415573
660.7151, 6.266685
661.1973, 5.991577
661.6794, 5.654320
662.1615, 5.304085
662.6436, 5.184856
663.1257, 5.308636
663.6078, 5.392345
664.0900, 5.096542
664.5721, 4.673580
665.0542, 4.451599
665.5363, 4.549828
666.0184, 4.624809
666.5005, 4.493103
666.9827, 4.281006
667.4648, 4.119495
667.9469, 4.056877
668.4290, 4.010475
668.9111, 3.987045
669.3932, 3.972569
669.8754, 3.949860
670.3575, 3.925503
670.8396, 3.850124
671.3217, 3.692337
671.8038, 3.493488
672.2859, 3.375874
672.7681, 3.322487
673.2502, 3.212921
673.7323, 2.916073
674.2144, 2.572021
674.6965, 2.338474
675.1786, 2.203285
675.6608, 2.096966
676.1429, 2.023056
676.6250, 1.939415
677.1071, 1.818157
677.5892, 1.650448
678.0714, 1.482735
678.5535, 1.280899
679.0356, 1.118244
679.5177, 1.080658
679.9998, 1.234142
680.4819, 1.113335
680.9641, 0.6330950
681.4462, 0.1471670
681.9283, 0.1247480
682.4104, 0.4405630
682.8925, 0.5632930
683.3746, 0.3555640
683.8568, 8.6594000E-02
684.3389, 2.4886999E-02
684.8210, 7.3021002E-02
685.3031, 7.5901002E-02
685.7852, 8.7233998E-02
686.2673, 0.2249070
686.7495, 0.2422870
687.2316, 0.1923100
687.7137, 0.1995240
688.1958, 0.3216400
688.6779, 0.4220500
689.1600, 0.4723430
689.6422, 0.4824030
690.1243, 0.4990650
690.6064, 0.5293240
691.0885, 0.5158840
691.5706, 0.4178310
692.0527, 0.2619900
692.5349, 7.2258003E-02
693.0170, 0.1384740
693.4991, 0.2637060
693.9812, 0.1951560
694.4633, 3.5693999E-02
694.9454, 0.1666410
695.4276, 0.4082790
695.9097, 0.5313990
696.3918, 0.3170240
696.8739, 9.3558997E-02
697.3560, 0.1026650
697.8381, 0.4990770
698.3203, 0.6119650
698.8024, 0.2972640
699.2845, 7.7331997E-02
699.7666, 0.1287310
700.2487, 0.1398050
700.7308, 0.3563390
701.2130, 0.4804950
701.6951, 0.5482480
702.1772, 0.6164090
702.6593, 0.6597520
703.1414, 0.6136130
703.6235, 0.4182090
704.1057, 0.2099110
704.5878, 4.1088000E-02
705.0699, 7.6603003E-02
705.5520, 0.1238750
706.0341, 3.7266001E-02
706.5162, 0.1056710
706.9984, 1.9295000E-02
707.4805, 0.2580030
707.9626, 0.4041820
708.4447, 0.4223860
708.9268, 0.4697000
709.4089, 0.6092760
709.8911, 0.8016360
710.3732, 0.9056280
710.8553, 0.9333080
711.3374, 1.008953
711.8195, 1.267147
712.3016, 1.570847
712.7838, 1.774990
713.2659, 1.880001
713.7480, 1.926247
714.2301, 1.896580
714.7122, 1.843628
715.1943, 1.793789
715.6765, 1.749928
716.1586, 1.694912
716.6407, 1.581734
717.1228, 1.522076
717.6049, 1.581543
718.0870, 1.765358
718.5692, 2.025410
719.0513, 2.368008
719.5334, 2.745403
720.0155, 3.166050
720.4976, 3.581085
720.9797, 3.879978
721.4619, 4.033813
721.9440, 4.144989
722.4261, 4.209126
722.9082, 4.305481
723.3903, 4.525410
723.8724, 4.988823
724.3546, 5.401058
724.8367, 5.682423
725.3188, 5.912785
725.8009, 6.188484
726.2830, 6.538490
726.7651, 6.833759
727.2473, 7.065514
727.7294, 7.230614
728.2115, 7.253372
728.6936, 7.178074
729.1757, 7.261284
729.6578, 7.639374
730.1400, 8.123295
730.6221, 8.565907
731.1042, 8.966854
731.5863, 9.316143
732.0684, 9.536217
732.5505, 9.784988
733.0327, 10.11495
733.5148, 10.52240
733.9969, 10.98286
734.4790, 11.58213
734.9611, 12.05088
735.4432, 12.25771
735.9254, 12.28825
736.4075, 12.48891
736.8896, 12.85924
737.3717, 13.33640
737.8538, 13.98757
738.3359, 14.66790
738.8181, 15.14750
739.3002, 15.44157
739.7823, 15.65428
740.2644, 15.64349
740.7465, 15.73260
741.2286, 16.13382
741.7108, 16.86990
742.1929, 17.70345
742.6750, 18.79953
743.1571, 19.75394
743.6392, 20.31821
744.1213, 20.47346
744.6035, 20.82133
745.0856, 21.39244
745.5677, 21.99078
746.0498, 22.40237
746.5319, 22.72219
747.0140, 23.17023
747.4962, 23.77383
747.9783, 24.36054
748.4604, 24.68623
748.9425, 25.02992
749.4246, 25.69313
749.9067, 26.90257
750.3889, 27.85982
750.8710, 28.25208
751.3531, 28.53444
751.8352, 29.07950
752.3173, 29.97868
752.7994, 30.69482
753.2816, 31.17304
753.7637, 31.57019
754.2458, 32.10710
754.7279, 32.73339
755.2100, 33.27197
755.6921, 33.62864
756.1743, 34.04752
756.6564, 34.81315
757.1385, 35.73667
757.6206, 36.57083
758.1027, 37.16872
758.5848, 37.80375
759.0670, 38.51553
759.5491, 39.30605
760.0312, 40.25869
760.5133, 41.52317
760.9954, 42.38625
761.4775, 42.71721
761.9597, 42.70767
762.4418, 42.49379
762.9239, 42.16202
763.4060, 42.10814
763.8881, 42.51539
764.3702, 43.11697
764.8524, 43.75267
765.3345, 44.39178
765.8166, 44.98106
766.2987, 45.59779
766.7808, 46.05474
767.2629, 46.23130
767.7451, 46.24056
768.2272, 46.28324
768.7093, 46.34697
769.1914, 46.49425
769.6735, 46.76781
770.1556, 47.09974
770.6378, 47.39135
771.1199, 47.62449
771.6020, 47.69807
772.0841, 47.45173
772.5662, 47.15028
773.0483, 47.09566
773.5305, 47.17780
774.0126, 47.11367
774.4947, 46.64957
774.9768, 46.20446
775.4589, 45.97780
775.9410, 45.86580
776.4232, 45.48404
776.9053, 44.76120
777.3874, 43.99287
777.8695, 43.23108
778.3516, 42.51885
778.8337, 42.07799
779.3159, 41.84440
779.7980, 41.43768
780.2801, 40.33622
780.7622, 39.22500
781.2443, 38.91617
781.7264, 39.17789
782.2086, 39.03813
782.6907, 37.74537
783.1728, 36.49269
783.6549, 35.74845
784.1370, 35.42357
784.6191, 34.79903
785.1012, 33.77803
785.5833, 32.84799
786.0654, 32.27024
786.5475, 31.93823
787.0297, 31.53893
787.5118, 31.06702
787.9939, 30.53159
788.4760, 29.90685
788.9581, 29.23004
789.4402, 28.50422
789.9224, 27.75406
790.4045, 27.06512
790.8866, 26.50178
791.3687, 25.94638
791.8508, 25.33853
792.3329, 24.69793
792.8151, 24.30322
793.2972, 24.20668
793.7793, 23.97507
794.2614, 23.26006
794.7435, 22.24862
795.2256, 21.38355
795.7078, 20.65387
796.1899, 20.02345
796.6720, 19.54500
797.1541, 19.09877
797.6362, 18.59978
798.1183, 18.04309
798.6005, 17.50008
799.0826, 16.94539
799.5647, 16.43344
800.0468, 15.97681
800.5289, 15.58125
801.0110, 15.18825
801.4932, 14.80336
801.9753, 14.44294
802.4574, 14.11110
802.9395, 13.81125
803.4216, 13.61512
803.9037, 13.49069
804.3859, 13.22383
804.8680, 12.46471
805.3501, 11.73473
805.8322, 11.36646
806.3143, 11.37397
806.7964, 11.16158
807.2786, 10.61429
807.7607, 10.15145
808.2428, 10.02732
808.7249, 10.15420
809.2070, 9.956654
809.6891, 9.445759
810.1713, 8.890835
810.6534, 8.404640
811.1355, 8.015881
811.6176, 7.825031
812.0997, 7.798912
812.5818, 7.694538
813.0640, 7.371571
813.5461, 6.995956
814.0282, 6.622063
814.5103, 6.251312
814.9924, 5.903538
815.4745, 5.548260
815.9567, 5.320217
816.4388, 5.361919
816.9209, 5.557560
817.4030, 5.512135
817.8851, 5.248520
818.3672, 4.950565
818.8494, 4.770538
819.3315, 4.574490
819.8136, 4.202339
820.2957, 3.685074
820.7778, 3.300713
821.2599, 3.174171
821.7421, 3.111835
822.2242, 3.068138
822.7063, 3.043564
823.1884, 3.083599
823.6705, 3.200348
824.1526, 3.255848
824.6348, 3.175644
825.1169, 2.998074
825.5990, 2.727669
826.0811, 2.397285
826.5632, 2.123642
827.0453, 2.052711
827.5275, 1.978619
828.0096, 1.758041
828.4917, 1.432465
828.9738, 1.236073
829.4559, 1.196209
829.9380, 1.250515
830.4202, 1.443676
830.9023, 1.669739
831.3844, 1.557384
831.8665, 1.158035
832.3486, 0.8346900
832.8307, 0.8053400
833.3129, 0.8788760
833.7950, 0.9376370
834.2771, 0.9674450
834.7592, 0.9282800
835.2413, 0.7128640
835.7234, 0.5398220
836.2056, 0.4641570
836.6877, 0.4596820
837.1698, 0.4608500
837.6519, 0.4653740
838.1340, 0.5111080
838.6161, 0.6371880
839.0983, 0.7575150
839.5804, 0.7398950
840.0625, 0.6023060
840.5446, 0.3879620
841.0267, 1.3294000E-02
841.5089, 0.3394430
841.9910, 0.4881940
842.4731, 0.4786830
842.9552, 0.3289450
843.4373, 7.4988998E-02
843.9194, 0.3798940
844.4016, 0.5355910
844.8837, 0.5810010
845.3658, 0.5923610
845.8479, 0.5616000
846.3300, 0.4056660
846.8121, 3.9184999E-02
847.2943, 0.2720030
847.7764, 0.1685300
848.2585, 0.1166230
848.7406, 0.2560200
849.2227, 5.4379001E-02
849.7048, 0.1356160
850.1870, 0.3045230
850.6691, 0.4139900
851.1512, 0.4084400
851.6333, 0.2746770
852.1154, 0.1263960
852.5975, 4.0137999E-02
853.0797, 0.1470490
853.5618, 4.7858998E-02
854.0439, 0.1595990
854.5260, 0.2882800
855.0081, 0.2786710
855.4902, 0.2820510
855.9724, 0.4634250
856.4545, 0.6260870
856.9366, 0.5766300
857.4187, 0.2101590
857.9008, 2.5330000E-03
858.3829, 3.2249000E-02
858.8651, 1.3214000E-02
859.3472, 5.6789000E-02
859.8293, 9.7522996E-02
860.3114, 0.1248820
860.7935, 0.1380270
861.2756, 0.1756820
861.7578, 0.3248980
862.2399, 0.4707220
862.7220, 0.5451200
863.2041, 0.5482220
863.6862, 0.3648760
864.1683, 0.1893460
864.6505, 0.6503750
865.1326, 0.7349740
865.6147, 0.4835400
866.0968, 0.4240680
866.5789, 0.5555310
867.0610, 0.6796340
867.5432, 0.6432380
868.0253, 0.5405960
868.5074, 0.4746360
868.9895, 0.4427490
869.4716, 0.4138030
869.9537, 0.3664860
870.4359, 0.3309290
870.9180, 0.3074040
871.4001, 0.3027080
871.8822, 0.3737030
872.3643, 0.5465660
872.8464, 0.6582260
873.3286, 0.5996090
873.8107, 0.4541660
874.2928, 0.3109050
874.7749, 0.1879770
875.2570, 0.1358380
875.7391, 0.2466620
876.2213, 0.3475340
876.7034, 0.3421520
877.1855, 0.2838550
877.6676, 0.2940290
878.1497, 0.4093280
878.6318, 0.4802170
879.1140, 0.4630810
879.5961, 0.4262540
880.0782, 0.5337940
880.5603, 0.7200050
881.0424, 0.7497140
881.5245, 0.5048940
882.0067, 0.2550010
882.4888, 0.1230930
882.9709, 0.1025580
883.4530, 0.1959610
883.9351, 0.4885220
884.4172, 0.7634120
884.8994, 1.056217
885.3815, 1.263874
885.8636, 1.254162
886.3457, 1.055565
886.8278, 0.8221660
887.3099, 0.5658070
887.7921, 0.3968510
888.2742, 0.5190280
888.7563, 0.7042580
889.2384, 0.6860580
889.7205, 0.3893930
890.2026, 0.2708780
890.6848, 0.5084380
891.1669, 0.7834970
891.6490, 0.9482040
892.1311, 1.009418
892.6132, 1.043243
893.0953, 1.049831
893.5775, 1.041061
894.0596, 1.038811
894.5417, 1.016823
895.0238, 0.8950420
895.5059, 0.7074200
895.9880, 0.6242940
896.4702, 0.8216900
896.9523, 0.9923250
897.4344, 1.048489
897.9165, 1.015224
898.3986, 0.9518240
898.8807, 0.8499980
899.3629, 0.8353580
899.8450, 1.031952
900.3271, 1.231236
900.8092, 1.063324
901.2913, 0.6949880
901.7734, 0.4313130
902.2556, 0.4091420
902.7377, 0.4761540
903.2198, 0.6161270
903.7019, 0.8150180
904.1840, 1.107811
904.6661, 1.557392
905.1483, 1.690117
905.6304, 1.424686
906.1125, 1.096462
906.5946, 1.126789
907.0767, 1.333958
907.5588, 1.364277
908.0410, 1.134464
908.5231, 0.9165150
909.0052, 0.8402560
909.4873, 0.8374400
909.9694, 0.8533670
910.4515, 0.8849370
910.9337, 0.9759560
911.4158, 1.151756
911.8979, 1.241917
912.3800, 1.097866
912.8621, 0.8178140
913.3442, 0.5454100
913.8264, 0.2888410
914.3085, 0.1619030
914.7906, 0.3576770
915.2727, 0.6113130
915.7548, 0.7889980
916.2369, 0.8869400
916.7191, 0.9512900
917.2012, 0.9931760
917.6833, 0.9516180
918.1654, 0.7798880
918.6475, 0.5606000
919.1296, 0.4444310
919.6118, 0.4007300
920.0939, 0.3634190
920.5760, 0.2930410
921.0581, 0.2629320
921.5402, 0.3480830
922.0223, 0.5095370
922.5045, 0.6512110
922.9866, 0.7960240
923.4687, 0.8105510
923.9508, 0.6536710
924.4329, 0.4618300
924.9150, 0.3943180
925.3972, 0.4097630
925.8793, 0.4185260
926.3614, 0.4095650
926.8435, 0.3914530
927.3256, 0.3658910
927.8077, 0.3355450
928.2899, 0.3164480
928.7720, 0.3143230
929.2541, 0.2004170
929.7362, 9.8964997E-02
930.2183, 0.2460480
930.7004, 7.2723001E-02
931.1826, 0.6151010
931.6647, 0.6855050
932.1468, 0.3850330
932.6289, 0.1460690
933.1110, 0.2869640
933.5931, 0.4442330
934.0753, 0.4076540
934.5574, 0.2542080
935.0395, 0.2155650
935.5216, 0.3265380
936.0037, 0.4599080
936.4858, 0.6142540
936.9680, 0.7289510
937.4501, 0.7037470
937.9322, 0.5699730
938.4143, 0.3774910
938.8964, 9.3108997E-02
939.3785, 0.1153600
939.8607, 9.4058998E-02
940.3428, 6.0459999E-03
940.8249, 2.6740001E-03
941.3070, 9.5927998E-02
941.7891, 0.1277280
942.2712, 8.3755001E-02
942.7534, 3.0857000E-02
943.2355, 5.5633999E-02
943.7176, 9.8536998E-02
944.1997, 2.2280000E-03
944.6818, 0.2280540
945.1639, 0.3903160
945.6461, 0.3184550
946.1282, 0.2399180
946.6103, 0.2620930
947.0924, 0.3626020
947.5745, 0.4891820
948.0566, 0.6667980
948.5388, 0.7205920
949.0209, 0.5328710
949.5030, 0.2873500
949.9851, 0.3405460
950.4672, 0.5515980
950.9493, 0.6115760
951.4315, 0.2674520
951.9136, 1.9069999E-02
952.3957, 5.8894999E-02
952.8778, 0.2347640
953.3599, 0.4242740
953.8420, 0.6340370
954.3242, 0.8268320
954.8063, 1.001122
955.2884, 1.137230
955.7705, 1.161888
956.2526, 1.165577
956.7347, 1.280800
957.2169, 1.517277
957.6990, 1.769039
958.1811, 2.003304
958.6632, 2.239174
959.1453, 2.479755
959.6274, 2.727264
960.1096, 3.006584
960.5917, 3.320286
961.0738, 3.663891
961.5559, 4.038486
962.0380, 4.442848
962.5201, 4.823273
963.0023, 5.245838
963.4844, 5.839859
963.9665, 6.862083
964.4486, 7.736015
964.9307, 8.317165
965.4128, 8.867050
965.8950, 9.738125
966.3771, 10.88519
966.8592, 11.88844
967.3413, 12.69447
967.8234, 13.45069
968.3055, 14.15001
968.7877, 14.92292
969.2698, 15.92194
969.7519, 17.17612
970.2340, 18.43533
970.7161, 19.63921
971.1982, 20.95758
971.6804, 22.50541
972.1625, 24.21038
972.6446, 25.87323
973.1267, 27.49793
973.6088, 29.17281
974.0909, 30.90204
974.5731, 32.73846
975.0552, 34.89441
975.5373, 37.12085
976.0194, 39.05756
976.5015, 40.68609
976.9836, 42.07821
977.4658, 43.29753
977.9479, 44.05616
978.4300, 43.93724
978.9121, 43.11308
979.3942, 41.91984
979.8763, 40.39923
980.3585, 38.49138
980.8406, 35.87973
981.3227, 33.17055
981.8048, 30.61893
982.2869, 28.23747
982.7690, 26.06094
983.2511, 24.10784
983.7332, 22.17375
984.2153, 20.11266
984.6974, 18.09247
985.1796, 16.23998
985.6617, 14.58695
986.1438, 13.23560
986.6259, 12.45311
987.1080, 11.66174
987.5901, 10.71539
988.0723, 9.770435
988.5544, 9.093189
989.0365, 8.651283
989.5186, 7.989861
990.0007, 7.050945
990.4828, 6.196495
990.9650, 5.781071
991.4471, 5.539734
991.9292, 5.268559
992.4113, 4.948402
992.8934, 4.537434
993.3755, 3.930611
993.8577, 3.450737
994.3398, 3.231678
994.8219, 3.199303
995.3040, 3.259239
995.7861, 3.355644
996.2682, 3.263824
996.7504, 2.708920
997.2325, 2.262627
997.7146, 2.364113
998.1967, 2.689014
998.6788, 2.827465
999.1609, 2.718746
999.6431, 2.584064
1000.125, 2.423492
1000.607, 2.295723
1001.089, 2.239288
1001.572, 2.254162
1002.054, 2.399811
1002.536, 2.653156
1003.018, 2.819443
1003.500, 2.671608
1003.982, 2.595886
1004.464, 2.741653
1004.946, 3.035378
1005.428, 3.225063
1005.911, 3.319881
1006.393, 3.525791
1006.875, 3.951710
1007.357, 4.385521
1007.839, 4.627712
1008.321, 4.765282
1008.803, 4.931644
1009.285, 5.293869
1009.768, 5.288456
1010.250, 4.812973
1010.732, 4.170681
1011.214, 3.489388
1011.696, 2.825287
1012.178, 2.519394
1012.660, 2.508720
1013.142, 2.374706
1013.624, 1.713345
1014.107, 1.046337
1014.589, 0.6409870
1015.071, 0.4217910
1015.553, 0.2204550
1016.035, 1.9203000E-02
1016.517, 3.1021001E-02
1016.999, 0.1307180
1017.481, 0.3206980
1017.964, 0.2634200
1018.446, 0.1110120
1018.928, 0.1074370
1019.410, 0.3332210
1019.892, 0.4526100
1020.374, 0.2827340
1020.856, 0.1442260
1021.338, 0.2272990
1021.820, 0.4673920
1022.303, 0.4500620
1022.785, 0.2164460
1023.267, 6.2683001E-02
1023.749, 0.2758030
1024.231, 0.4612540
1024.713, 0.2491110
1025.195, 0.1339300
1025.677, 0.2757800
1026.160, 5.8102001E-02
1026.642, 0.1185380
1027.124, 0.2377510
1027.606, 0.2937580
1028.088, 0.2683940
1028.570, 0.1771580
1029.052, 1.7235000E-02
1029.534, 0.1759800
1030.016, 0.2850380
1030.499, 0.2117420
1030.981, 9.2712000E-02
1031.463, 4.3228000E-02
1031.945, 0.1758610
1032.427, 0.2047310
1032.909, 0.1365970
1033.391, 0.1406170
1033.873, 0.3105740
1034.355, 0.4567450
1034.838, 0.3659250
1035.320, 0.1803550
1035.802, 6.9316998E-02
1036.284, 7.5737000E-02
1036.766, 0.1051480
1037.248, 0.1652410
1037.730, 0.2283860
1038.212, 0.2883800
1038.695, 0.3339420
1039.177, 0.3109250
1039.659, 0.2397770
1040.141, 0.2049830
1040.623, 0.2524070
1041.105, 0.3373340
1041.587, 0.4940490
1042.069, 0.6486820
1042.552, 0.6689610
1043.034, 0.5521430
1043.516, 0.4638860
1043.998, 0.4198840
1044.480, 0.4457360
1044.962, 0.6096650
1045.444, 0.8215070
1045.926, 1.022972
1046.408, 1.208820
1046.891, 1.251877
1047.373, 1.068905
1047.855, 0.9554330
1048.337, 1.044029
1048.819, 1.246017
1049.301, 1.368477
1049.783, 1.426712
1050.265, 1.492970
1050.747, 1.618378
1051.230, 1.695900
1051.712, 1.642117
1052.194, 1.562656
1052.676, 1.530903
1053.158, 1.547455
1053.640, 1.607597
1054.122, 1.710083
1054.604, 1.776047
1055.087, 1.703609
1055.569, 1.613461
1056.051, 1.589340
1056.533, 1.629112
1057.015, 1.731300
1057.497, 1.970688
1057.979, 2.055222
1058.461, 1.907093
1058.943, 1.695442
1059.426, 1.616238
1059.908, 1.642166
1060.390, 1.726475
1060.872, 1.858616
1061.354, 2.039555
1061.836, 2.498173
1062.318, 2.750286
1062.800, 2.495922
1063.282, 1.913643
1063.765, 1.822186
1064.247, 2.151745
1064.729, 2.266743
1065.211, 1.830360
1065.693, 1.351555
1066.175, 1.232758
1066.657, 1.273827
1067.139, 1.233456
1067.622, 1.077412
1068.104, 0.9117620
1068.586, 0.7190930
1069.068, 0.6176220
1069.550, 0.7752270
1070.032, 1.037712
1070.514, 1.218361
1070.996, 1.300468
1071.479, 1.242729
1071.961, 0.8519480
1072.443, 0.5711290
1072.925, 0.4857670
1073.407, 0.4930420
1073.889, 0.4556200
1074.371, 0.3890800
1074.853, 0.3621940
1075.335, 0.3824010
1075.818, 0.4095880
1076.300, 0.3725400
1076.782, 0.3819660
1077.264, 0.5762860
1077.746, 0.8770870
1078.228, 0.9014400
1078.710, 0.6380200
1079.192, 0.3858720
1079.674, 0.2179070
1080.157, 0.1411400
1080.639, 0.2038730
1081.121, 0.3407940
1081.603, 0.4913640
1082.085, 0.6940000
1082.567, 0.7006840
1083.049, 0.4343070
1083.531, 0.1679840
1084.013, 0.1023750
1084.496, 0.1335330
1084.978, 6.3464999E-02
1085.460, 0.3583680
1085.942, 0.3884160
1086.424, 0.4347340
1086.906, 0.9242520
1087.388, 0.6902690
1087.870, 0.2123150
1088.353, 2.4223000E-02
1088.835, 4.1664001E-02
1089.317, 8.6250000E-02
1089.799, 0.1698760
1090.281, 0.2172660
1090.763, 0.1624570
1091.245, 7.1773998E-02
1091.727, 1.2615000E-02
1092.209, 0.1020580
1092.692, 0.2436220
1093.174, 0.4517480
1093.656, 0.5996170
1094.138, 0.6603470
1094.620, 0.6729390
1095.102, 0.6299320
1095.584, 0.5925710
1096.066, 0.6835020
1096.548, 0.9355010
1097.031, 0.9295010
1097.513, 0.5208510
1097.995, 0.1723330
1098.477, 6.3114002E-02
1098.959, 0.1093060
1099.441, 0.1814160
1099.923, 0.2664450
1100.405, 0.3357320
1100.888, 0.3711050
1101.370, 0.4163090
1101.852, 0.4874500
1102.334, 0.5669330
1102.816, 0.6534270
1103.298, 0.7410430
1103.780, 0.8134880
1104.262, 0.8580930
1104.745, 0.7905920
1105.227, 0.4250030
1105.709, 9.2159003E-02
1106.191, 0.1003420
1106.673, 0.1235810
1107.155, 0.1119730
1107.637, 0.6729010
1108.119, 0.9243550
1108.601, 0.8209880
1109.083, 0.6007460
1109.566, 0.3711970
1110.048, 0.1863140
1110.530, 0.1064000
1111.012, 0.1202130
1111.494, 0.1502530
1111.976, 0.1898500
1112.458, 0.2492330
1112.940, 0.3348690
1113.423, 0.4286770
1113.905, 0.5505640
1114.387, 0.6471980
1114.869, 0.5854490
1115.351, 0.3348810
1115.833, 0.2423170
1116.315, 0.5801770
1116.797, 0.7414280
1117.280, 0.4321370
1117.762, 8.2253002E-02
1118.244, 0.1134910
1118.726, 0.1926120
1119.208, 0.4040260
1119.690, 0.3595010
1120.172, 0.3308530
1120.654, 0.4585380
1121.136, 0.6155400
1121.619, 0.7486110
1122.101, 0.8492550
1122.583, 0.7907560
1123.065, 0.6032450
1123.547, 0.4734500
1124.029, 0.5806540
1124.511, 0.6459240
1124.993, 0.3649980
1125.475, 1.6581999E-02
1125.958, 2.4513001E-02
1126.440, 0.3115810
1126.922, 0.5624770
1127.404, 0.7198140
1127.886, 0.8377570
1128.368, 0.9513050
1128.850, 1.047722
1129.332, 1.096176
1129.815, 1.117893
1130.297, 1.180256
1130.779, 1.301556
1131.261, 1.419670
1131.743, 1.529274
1132.225, 1.632858
1132.707, 1.808346
1133.189, 1.936558
1133.672, 1.767948
1134.154, 1.333530
1134.636, 1.086102
1135.118, 1.184383
1135.600, 1.365986
1136.082, 1.623158
1136.564, 1.857811
1137.046, 1.903843
1137.528, 1.807560
1138.010, 1.652653
1138.493, 1.444504
1138.975, 1.276157
1139.457, 1.202557
1139.939, 1.156639
1140.421, 1.122608
1140.903, 1.094093
1141.385, 0.9987870
1141.867, 0.8836330
1142.350, 0.9634210
1142.832, 1.380653
1143.314, 1.713215
1143.796, 1.725449
1144.278, 1.659534
1144.760, 1.634129
1145.242, 1.643181
1145.724, 1.617611
1146.207, 1.560265
1146.689, 1.510708
1147.171, 1.465206
1147.653, 1.461811
1148.135, 1.582748
1148.617, 1.736320
1149.099, 1.803341
1149.581, 1.759663
1150.063, 1.780178
1150.546, 1.865417
1151.028, 1.973434
1151.510, 2.177917
1151.992, 2.294861
1152.474, 2.035320
1152.956, 1.609276
1153.438, 1.468952
1153.920, 1.712807
1154.402, 1.953289
1154.885, 2.180260
1155.367, 2.319473
1155.849, 2.214165
1156.331, 2.053864
1156.813, 2.068642
1157.295, 2.226463
1157.777, 2.350204
1158.259, 2.465775
1158.742, 2.419819
1159.224, 2.155922
1159.706, 1.847408
1160.188, 1.675999
1160.670, 1.602310
1161.152, 1.598274
1161.634, 1.653481
1162.116, 1.663563
1162.599, 1.619392
1163.081, 1.506218
1163.563, 1.295105
1164.045, 1.058804
1164.527, 0.8677440
1165.009, 0.7791750
1165.491, 0.9570390
1165.973, 1.466675
1166.455, 1.731628
1166.938, 1.459538
1167.420, 1.140789
1167.902, 0.9105260
1168.384, 0.7602200
1168.866, 0.6760790
1169.348, 0.6553610
1169.830, 0.7164650
1170.312, 0.9148520
1170.794, 1.007431
1171.277, 0.7630690
1171.759, 0.5283160
1172.241, 0.4732860
1172.723, 0.5653760
1173.205, 0.7114220
1173.687, 0.8904080
1174.169, 1.037388
1174.651, 1.153553
1175.134, 1.180779
1175.616, 1.005043
1176.098, 0.8120990
1176.580, 0.7386400
1177.062, 0.7559320
1177.544, 0.6893810
1178.026, 0.5551640
1178.508, 0.4304120
1178.990, 0.3320010
1179.473, 0.2170720
1179.955, 1.2535000E-02
1180.437, 0.1486210
1180.919, 0.1565060
1181.401, 1.7677000E-02
1181.883, 0.3615260
1182.365, 0.9432950
1182.847, 1.301319
1183.329, 0.9636420
1183.812, 0.5932880
1184.294, 0.6035460
1184.776, 0.7424050
1185.258, 0.6662370
1185.740, 0.3552890
1186.222, 0.2994120
1186.704, 0.5182040
1187.186, 0.7525290
1187.669, 0.8543930
1188.151, 0.8829540
1188.633, 0.8263970
1189.115, 0.7433200
1189.597, 0.7639350
1190.079, 0.8986740
1190.561, 0.8217770
1191.043, 0.4952160
1191.526, 0.2456510
1192.008, 0.4000170
1192.490, 0.6527250
1192.972, 0.8392520
1193.454, 0.9462700
1193.936, 0.9524310
1194.418, 0.8504260
1194.900, 0.7177050
1195.382, 0.5612260
1195.865, 0.4355280
1196.347, 0.3852350
1196.829, 0.3758280
1197.311, 0.4198530
1197.793, 0.4865230
1198.275, 0.4474750
1198.757, 0.2942050
1199.239, 0.1531870
1199.721, 4.4452999E-02
1200.204, 6.8319999E-03
1200.686, 7.2567001E-02
1201.168, 0.1778720
1201.650, 0.2007680
1202.132, 0.1589930
1202.614, 0.2098200
1203.096, 0.3610040
1203.578, 0.4715690
1204.061, 0.5064890
1204.543, 0.4779400
1205.025, 0.3156620
1205.507, 0.1529120
1205.989, 0.1208420
1206.471, 0.2180180
1206.953, 0.4000510
1207.435, 0.6784710
1207.917, 0.8550720
1208.400, 0.8392720
1208.882, 0.7794190
1209.364, 0.8476720
1209.846, 0.9251710
1210.328, 0.8779640
1210.810, 0.7081570
1211.292, 0.4806560
1211.774, 0.1808400
1212.256, 9.6869998E-02
1212.739, 0.4367180
1213.221, 0.8021510
1213.703, 0.7939990
1214.185, 0.6267890
1214.667, 0.5315700
1215.149, 0.5198360
1215.631, 0.5002330
1216.113, 0.4701880
1216.596, 0.5158080
1217.078, 0.7395210
1217.560, 0.9339790
1218.042, 0.8535460
1218.524, 0.6860430
1219.006, 0.6626170
1219.488, 0.8033600
1219.970, 0.8749010
1220.453, 0.8759920
1220.935, 0.8152500
1221.417, 0.6472630
1221.899, 0.4941790
1222.381, 0.4774510
1222.863, 0.5159190
1223.345, 0.4974370
1223.827, 0.4048960
1224.309, 0.4218600
1224.792, 0.5482640
1225.274, 0.6807560
1225.756, 0.8433000
1226.238, 0.8921320
1226.720, 0.6293260
1227.202, 0.2499770
1227.684, 1.8269001E-02
1228.166, 0.1774670
1228.648, 0.1553570
1229.131, 4.0516000E-02
1229.613, 0.2393720
1230.095, 0.3631360
1230.577, 0.4316750
1231.059, 0.4067270
1231.541, 0.3633230
1232.023, 0.4126090
1232.505, 0.5641060
1232.988, 0.5727540
1233.470, 0.4455570
1233.952, 0.3151550
1234.434, 0.2978590
1234.916, 0.2573550
1235.398, 1.1089000E-02
1235.880, 0.2182770
1236.362, 0.1175310
1236.844, 0.3004880
1237.327, 0.3916170
1237.809, 0.1765710
1238.291, 9.6359998E-03
1238.773, 0.1925280
1239.255, 0.3991470
1239.737, 0.5346720
1240.219, 0.5599520
1240.701, 0.3676570
1241.183, 2.4760000E-03
1241.666, 0.2217100
1242.148, 0.2851600
1242.630, 0.2531660
1243.112, 4.3368999E-02
1243.594, 0.1039850
1244.076, 7.9650998E-02
1244.558, 2.8880001E-03
1245.040, 6.8089999E-03
1245.523, 7.7141002E-02
1246.005, 0.1266670
1246.487, 0.1578710
1246.969, 0.1981930
1247.451, 0.3022960
1247.933, 0.3489720
1248.415, 0.2673070
1248.897, 0.1958500
1249.380, 0.3547210
1249.862, 0.6323090
1250.344, 0.6142960
1250.826, 0.3505970
1251.308, 0.2183760
1251.790, 0.6187400
1252.272, 0.7688710
1252.754, 0.4565120
1253.236, 6.5257996E-02
1253.719, 9.3941003E-02
1254.201, 0.3542020
1254.683, 0.4605030
1255.165, 0.4313470
1255.647, 0.4615860
1256.129, 0.6904260
1256.611, 0.8269120
1257.093, 0.8246540
1257.575, 0.7681660
1258.058, 0.7630420
1258.540, 0.7530020
1259.022, 0.5936240
1259.504, 0.3376920
1259.986, 0.2647320
1260.468, 0.4678150
1260.950, 0.6810460
1261.432, 0.8960490
1261.915, 1.013817
1262.397, 0.8462220
1262.879, 0.5999600
1263.361, 0.4617270
1263.843, 0.4499090
1264.325, 0.6033940
1264.807, 1.001446
1265.289, 1.167850
1265.771, 1.039951
1266.254, 0.8347360
1266.736, 0.6879010
1267.218, 0.5634350
1267.700, 0.5017360
1268.182, 0.5226750
1268.664, 0.6092720
1269.146, 0.7694550
1269.628, 0.8373600
1270.110, 0.7949870
1270.593, 0.7168960
1271.075, 0.5933230
1271.557, 0.5007670
1272.039, 0.4673270
1272.521, 0.4479290
1273.003, 0.4124340
1273.485, 0.3599930
1273.967, 0.3769870
1274.450, 0.4736790
1274.932, 0.6324920
1275.414, 0.8230510
1275.896, 0.8736420
1276.378, 0.6695210
1276.860, 0.3820650
1277.342, 0.2436940
1277.824, 0.2233470
1278.307, 0.1919980
1278.789, 0.1465070
1279.271, 0.1892700
1279.753, 0.4798770
1280.235, 0.6818010
1280.717, 0.7203980
1281.199, 0.6776890
1281.681, 0.6475790
1282.163, 0.6177250
1282.646, 0.5425490
1283.128, 0.4327960
1283.610, 0.3762590
1284.092, 0.4420280
1284.574, 0.4460030
1285.056, 0.3421480
1285.538, 0.2660940
1286.020, 0.4454730
1286.502, 0.6705590
1286.984, 0.5980680
1287.467, 0.3240740
1287.949, 0.2552600
1288.431, 0.5019720
1288.913, 0.6226770
1289.395, 0.5681080
1289.877, 0.4933740
1290.359, 0.5722390
1290.841, 0.6543540
1291.324, 0.5941730
1291.806, 0.4423370
1292.288, 0.3240930
1292.770, 0.2398570
1293.252, 0.1772270
1293.734, 0.1339570
1294.216, 0.1124500
1294.698, 8.9263998E-02
1295.181, 0.1163790
1295.663, 0.2667430
1296.145, 0.4561390
1296.627, 0.6218030
1297.109, 0.7492490
1297.591, 0.6492500
1298.073, 0.3582230
1298.555, 0.1593700
1299.037, 0.3344880
1299.520, 0.4095800
1300.002, 0.1815220
1300.484, 5.7600002E-04
1300.966, 0.3700560
1301.448, 0.9754980
1301.930, 0.8658330
1302.412, 0.2551500
1302.894, 2.3491001E-02
1303.376, 0.7326090
1303.859, 1.096741
1304.341, 0.8962170
1304.823, 0.4338190
1305.305, 0.1079710
1305.787, 0.0000000E+00
##END=



