##NAMES=Penikisite
##RRUFFID=R060270
##IDEAL CHEMISTRY=BaMg_2_Al_2_(PO_4_)_3_(OH)_3_
##LOCALITY=16 miles north of Hess River, Yukon Territory, Canada
##OWNER=RRUFF
##SOURCE=Michael Scott
##DESCRIPTION=Pale bluish green massive associated with quartz
##STATUS=The identification of this mineral is confirmed by single-crystal X-ray diffraction and chemical analysis.
##URL=rruff.info/R060270
##MEASURED CHEMISTRY=Ba_1.00_(Mg_1.90_Mn_0.05_Sr_0.02_[box]_0.02_Ca_0.01_)_Σ=2_(Al_1.97_Ti_0.03_)_Σ=2_(P_1.00_O_4_)_3_(OH)_3_ ; H not measured but estimated by difference and charge balance
168.1130, 0.0000000E+00
168.5951, 1.133057
169.0772, 0.2884520
169.5593, 1.079590
170.0414, 3.875610
170.5236, 8.680481
171.0057, 12.55328
171.4878, 12.52966
171.9699, 9.664856
172.4520, 7.185730
172.9341, 7.595215
173.4163, 9.117004
173.8984, 9.586243
174.3805, 8.104126
174.8626, 6.130615
175.3447, 4.935242
175.8268, 4.425110
176.3090, 4.256714
176.7911, 3.156860
177.2732, 2.372375
177.7553, 4.275330
178.2374, 11.09326
178.7195, 18.99036
179.2017, 22.86395
179.6838, 23.06140
180.1659, 22.30597
180.6480, 21.00262
181.1301, 20.28912
181.6122, 23.13177
182.0944, 32.15027
182.5765, 43.82916
183.0586, 53.31885
183.5407, 60.45471
184.0228, 64.76007
184.5049, 64.00146
184.9871, 59.51062
185.4692, 56.11102
185.9513, 56.09296
186.4334, 57.85474
186.9155, 57.37714
187.3976, 54.50269
187.8798, 51.20013
188.3619, 49.60126
188.8440, 49.45837
189.3261, 49.20697
189.8082, 48.22192
190.2903, 46.72748
190.7725, 45.64941
191.2546, 45.08344
191.7367, 44.43207
192.2188, 42.27960
192.7009, 38.76990
193.1830, 36.99719
193.6652, 38.97656
194.1473, 43.99670
194.6294, 47.17944
195.1115, 48.17474
195.5936, 48.46735
196.0757, 49.62329
196.5579, 51.61554
197.0400, 55.03577
197.5221, 61.16986
198.0042, 69.66956
198.4863, 75.22510
198.9684, 77.29834
199.4506, 77.56604
199.9327, 77.66077
200.4148, 77.31891
200.8969, 79.08392
201.3790, 84.98724
201.8611, 95.19672
202.3433, 103.3669
202.8254, 109.0690
203.3075, 113.4198
203.7896, 118.4319
204.2717, 123.8471
204.7538, 129.0043
205.2360, 134.0038
205.7181, 138.9446
206.2002, 142.1591
206.6823, 142.3761
207.1644, 142.3658
207.6465, 147.9379
208.1287, 160.3896
208.6108, 173.6109
209.0929, 184.5518
209.5750, 192.4693
210.0571, 203.0634
210.5392, 218.2229
211.0214, 234.5300
211.5035, 244.9117
211.9856, 248.5776
212.4677, 248.4093
212.9498, 245.0354
213.4319, 237.6888
213.9140, 230.5305
214.3962, 223.6497
214.8783, 216.9051
215.3604, 209.4598
215.8425, 199.6478
216.3246, 192.6693
216.8067, 190.9178
217.2889, 195.0560
217.7710, 202.4154
218.2531, 214.7079
218.7352, 229.6190
219.2173, 240.4387
219.6994, 245.8552
220.1816, 251.4070
220.6637, 260.2252
221.1458, 277.3954
221.6279, 285.2919
222.1100, 281.9459
222.5921, 269.8569
223.0743, 254.8054
223.5564, 237.1667
224.0385, 216.1205
224.5206, 190.6108
225.0027, 156.4604
225.4848, 128.2556
225.9670, 106.8942
226.4491, 91.49243
226.9312, 79.39368
227.4133, 72.09979
227.8954, 65.77954
228.3775, 58.78503
228.8597, 50.45886
229.3418, 42.63867
229.8239, 34.76562
230.3060, 27.48499
230.7881, 23.13586
231.2702, 23.53186
231.7524, 23.97327
232.2345, 22.07178
232.7166, 15.97986
233.1987, 11.80420
233.6808, 10.07751
234.1629, 10.14429
234.6451, 10.41772
235.1272, 11.40820
235.6093, 11.87842
236.0914, 11.21838
236.5735, 8.891724
237.0556, 6.762573
237.5378, 4.994507
238.0199, 3.424561
238.5020, 1.403320
238.9841, 2.254150
239.4662, 4.591309
239.9483, 3.995483
240.4305, 1.492432
240.9126, 5.203369
241.3947, 6.434448
241.8768, 6.091553
242.3589, 6.415649
242.8410, 7.783813
243.3232, 9.186523
243.8053, 10.10120
244.2874, 10.05640
244.7695, 10.69714
245.2516, 12.48462
245.7337, 14.78137
246.2159, 16.02063
246.6980, 15.21619
247.1801, 14.92908
247.6622, 16.40039
248.1443, 20.72278
248.6264, 23.68445
249.1086, 24.52222
249.5907, 24.41504
250.0728, 25.84607
250.5549, 29.49121
251.0370, 33.52515
251.5191, 37.13806
252.0013, 39.77966
252.4834, 43.88110
252.9655, 50.57715
253.4476, 57.97974
253.9297, 62.22205
254.4118, 61.34973
254.8940, 60.84619
255.3761, 62.93506
255.8582, 68.60669
256.3403, 73.03174
256.8224, 76.34546
257.3046, 78.33875
257.7867, 78.85461
258.2688, 78.71106
258.7509, 75.38916
259.2330, 67.19470
259.7151, 52.85791
260.1973, 41.00256
260.6794, 32.17590
261.1615, 25.54565
261.6436, 20.19312
262.1257, 16.16565
262.6078, 13.25342
263.0900, 11.85144
263.5721, 12.24341
264.0542, 10.93835
264.5363, 6.921997
265.0184, 2.380493
265.5005, 0.2623290
265.9827, 1.441528
266.4648, 2.510254
266.9469, 2.560547
267.4290, 1.574463
267.9111, 1.5747000E-02
268.3932, 2.713989
268.8754, 5.235229
269.3575, 5.651123
269.8396, 3.026611
270.3217, 1.854736
270.8038, 4.064941
271.2859, 9.345947
271.7681, 11.02612
272.2502, 8.039673
272.7323, 3.654419
273.2144, 1.307251
273.6965, 1.333618
274.1786, 1.575439
274.6608, 2.035156
275.1429, 2.419800
275.6250, 3.6377002E-02
276.1071, 6.012085
276.5892, 12.25879
277.0714, 14.92322
277.5535, 13.53894
278.0356, 13.13782
278.5177, 14.87329
278.9998, 18.25110
279.4819, 21.51355
279.9641, 24.88416
280.4462, 27.41028
280.9283, 28.28003
281.4104, 27.46704
281.8925, 25.59009
282.3746, 22.09717
282.8568, 18.08936
283.3389, 17.41101
283.8210, 20.52673
284.3031, 23.32043
284.7852, 21.70227
285.2673, 16.05652
285.7495, 13.64856
286.2316, 16.02014
286.7137, 21.05530
287.1958, 24.39990
287.6779, 25.98779
288.1600, 27.48132
288.6422, 30.42383
289.1243, 34.46094
289.6064, 36.47314
290.0885, 35.64941
290.5706, 34.22388
291.0527, 36.11877
291.5349, 41.15051
292.0170, 46.52734
292.4991, 50.60010
292.9812, 53.77783
293.4633, 57.55762
293.9454, 62.26025
294.4276, 66.71997
294.9097, 69.67542
295.3918, 71.13574
295.8739, 70.97986
296.3560, 68.19287
296.8381, 63.78003
297.3203, 60.50989
297.8024, 58.68469
298.2845, 56.72766
298.7666, 52.06128
299.2487, 45.60864
299.7308, 40.09863
300.2130, 37.70728
300.6951, 36.55249
301.1772, 33.23218
301.6593, 27.77771
302.1414, 22.25061
302.6235, 18.55017
303.1057, 16.12207
303.5878, 13.86560
304.0699, 10.69556
304.5520, 8.085938
305.0341, 8.505859
305.5162, 11.59314
305.9984, 14.27991
306.4805, 13.75696
306.9626, 11.59937
307.4447, 9.993164
307.9268, 9.678223
308.4089, 9.853760
308.8911, 9.854492
309.3732, 9.733521
309.8553, 9.747803
310.3374, 9.004395
310.8195, 8.935059
311.3016, 11.48218
311.7838, 18.59546
312.2659, 25.04480
312.7480, 26.31238
313.2301, 24.14209
313.7122, 22.89392
314.1943, 25.84998
314.6765, 29.67908
315.1586, 32.16443
315.6407, 32.95581
316.1228, 32.53906
316.6049, 29.67554
317.0870, 25.92603
317.5692, 23.88745
318.0513, 25.87048
318.5334, 28.61926
319.0155, 30.73401
319.4976, 32.10718
319.9797, 32.83960
320.4619, 31.72058
320.9440, 30.38245
321.4261, 30.67236
321.9082, 34.59094
322.3903, 38.25964
322.8724, 40.23901
323.3546, 40.52539
323.8367, 42.10156
324.3188, 46.54956
324.8009, 52.20264
325.2830, 57.59851
325.7651, 62.02502
326.2473, 66.85913
326.7294, 73.18457
327.2115, 80.42688
327.6936, 85.20496
328.1757, 87.10266
328.6578, 87.00769
329.1400, 85.40857
329.6221, 78.71667
330.1042, 75.22510
330.5863, 76.92090
331.0684, 81.71631
331.5505, 83.68225
332.0327, 81.01648
332.5148, 77.85071
332.9969, 75.70593
333.4790, 74.98792
333.9611, 74.71375
334.4432, 75.00171
334.9254, 75.55737
335.4075, 75.84912
335.8896, 75.51807
336.3717, 75.43994
336.8538, 75.92236
337.3359, 77.09448
337.8180, 79.11072
338.3001, 82.77917
338.7823, 86.00024
339.2644, 85.89197
339.7465, 81.54297
340.2286, 78.05713
340.7107, 77.20776
341.1928, 78.37402
341.6750, 76.54602
342.1571, 70.76099
342.6392, 65.44482
343.1213, 65.81641
343.6034, 72.00281
344.0855, 73.60596
344.5677, 67.51477
345.0498, 57.27051
345.5319, 51.73804
346.0140, 51.04138
346.4961, 51.54712
346.9782, 51.31372
347.4604, 50.40100
347.9425, 48.45605
348.4246, 44.77576
348.9067, 42.10803
349.3888, 45.99707
349.8709, 55.24463
350.3531, 63.12170
350.8352, 65.54272
351.3173, 64.46094
351.7994, 63.34497
352.2815, 62.28735
352.7636, 61.49255
353.2458, 61.50818
353.7279, 61.92639
354.2100, 61.88513
354.6921, 61.39258
355.1742, 60.03503
355.6563, 57.10657
356.1385, 52.69556
356.6206, 47.78296
357.1027, 41.60193
357.5848, 35.82434
358.0669, 32.62915
358.5490, 34.50940
359.0312, 36.23206
359.5133, 33.85632
359.9954, 28.47974
360.4775, 23.52478
360.9596, 20.18408
361.4417, 18.11597
361.9239, 17.30103
362.4060, 18.24353
362.8881, 18.93335
363.3702, 18.45349
363.8523, 17.27820
364.3344, 16.13306
364.8166, 14.59119
365.2987, 13.68494
365.7808, 14.27771
366.2629, 16.70581
366.7450, 18.06335
367.2271, 17.63831
367.7093, 16.10034
368.1914, 14.03967
368.6735, 8.542358
369.1556, 5.858398
369.6377, 8.776733
370.1198, 16.39124
370.6020, 20.52417
371.0841, 18.99231
371.5662, 16.00586
372.0483, 13.79077
372.5304, 12.81494
373.0125, 11.68152
373.4947, 10.28540
373.9768, 8.744751
374.4589, 7.320435
374.9410, 6.024292
375.4231, 4.814697
375.9052, 3.693237
376.3874, 2.678833
376.8695, 1.564209
377.3516, 0.2382810
377.8337, 1.001709
378.3158, 2.148193
378.7979, 3.395142
379.2801, 2.796631
379.7622, 1.360352
380.2443, 7.653564
380.7264, 9.282227
381.2085, 5.738159
381.6906, 0.9533690
382.1728, 1.926147
382.6549, 3.162598
383.1370, 4.422974
383.6191, 6.372559
384.1012, 7.818237
384.5833, 5.384277
385.0655, 0.2377930
385.5476, 3.883301
386.0297, 0.3742680
386.5118, 6.552246
386.9939, 10.00562
387.4760, 9.163452
387.9582, 6.594604
388.4403, 3.648926
388.9224, 0.7636720
389.4045, 1.141357
389.8866, 1.385986
390.3687, 0.7379150
390.8509, 0.5527340
391.3330, 2.391357
391.8151, 3.852295
392.2972, 4.524170
392.7793, 4.488159
393.2614, 3.733643
393.7436, 1.521851
394.2257, 0.3293460
394.7078, 0.6735840
395.1899, 2.4658000E-02
395.6720, 0.2733150
396.1541, 0.3878170
396.6363, 1.367432
397.1184, 2.355713
397.6005, 3.256836
398.0826, 4.403198
398.5647, 6.550781
399.0468, 8.740601
399.5290, 9.812622
400.0111, 7.576050
400.4932, 6.528687
400.9753, 8.321777
401.4574, 12.94336
401.9395, 14.92810
402.4217, 12.11230
402.9038, 8.947876
403.3859, 8.424805
403.8680, 11.40613
404.3501, 15.16504
404.8322, 20.26099
405.3144, 25.64343
405.7965, 27.86633
406.2786, 25.86548
406.7607, 24.30237
407.2428, 26.00842
407.7249, 31.16687
408.2071, 33.06580
408.6892, 30.97913
409.1713, 27.80908
409.6534, 27.91626
410.1355, 31.05408
410.6176, 32.06030
411.0998, 28.21399
411.5819, 22.05396
412.0640, 19.77966
412.5461, 21.30981
413.0282, 24.15942
413.5103, 27.21655
413.9925, 30.10107
414.4746, 31.93323
414.9567, 32.35095
415.4388, 32.34094
415.9209, 33.00977
416.4030, 34.07190
416.8852, 34.85168
417.3673, 33.82397
417.8494, 33.12988
418.3315, 34.82239
418.8136, 39.01746
419.2957, 43.76721
419.7779, 48.38940
420.2600, 52.82324
420.7421, 56.92676
421.2242, 61.40283
421.7063, 64.83862
422.1884, 66.45691
422.6706, 66.62695
423.1527, 66.81262
423.6348, 66.71606
424.1169, 67.22461
424.5990, 69.03552
425.0811, 73.47546
425.5633, 76.24634
426.0454, 75.78723
426.5275, 74.20374
427.0096, 74.29858
427.4917, 78.11011
427.9738, 80.43958
428.4560, 79.53760
428.9381, 75.61621
429.4202, 74.04614
429.9023, 76.21680
430.3844, 78.17322
430.8665, 76.39233
431.3487, 69.92969
431.8308, 65.71790
432.3129, 65.05579
432.7950, 65.97156
433.2771, 63.47375
433.7592, 57.33594
434.2414, 53.33105
434.7235, 55.08752
435.2056, 61.23950
435.6877, 66.74890
436.1698, 71.60999
436.6519, 75.58899
437.1341, 78.05432
437.6162, 79.66406
438.0983, 81.61255
438.5804, 84.39636
439.0625, 87.28418
439.5446, 88.58447
440.0268, 88.89368
440.5089, 90.68396
440.9910, 95.99182
441.4731, 102.9768
441.9552, 110.4104
442.4373, 118.4146
442.9195, 126.6824
443.4016, 134.9529
443.8837, 142.8285
444.3658, 149.7607
444.8479, 155.4135
445.3300, 161.0682
445.8122, 166.7805
446.2943, 172.6824
446.7764, 180.0878
447.2585, 190.0997
447.7406, 200.7278
448.2227, 211.1677
448.7049, 221.8163
449.1870, 231.0682
449.6691, 238.0927
450.1512, 244.1661
450.6333, 251.2061
451.1154, 260.0128
451.5976, 268.4332
452.0797, 275.7596
452.5618, 281.9791
453.0439, 287.5192
453.5260, 291.9607
454.0081, 296.7566
454.4903, 303.4629
454.9724, 311.9709
455.4545, 319.4667
455.9366, 325.5293
456.4187, 330.4602
456.9008, 334.8888
457.3830, 338.7390
457.8651, 340.9283
458.3472, 340.9033
458.8293, 338.9712
459.3114, 336.2167
459.7935, 332.6390
460.2757, 326.1793
460.7578, 313.6724
461.2399, 297.7502
461.7220, 281.9260
462.2041, 266.3317
462.6862, 252.0723
463.1684, 240.7346
463.6505, 231.2137
464.1326, 221.2200
464.6147, 209.8268
465.0968, 197.6456
465.5789, 184.6576
466.0611, 170.5502
466.5432, 157.9938
467.0253, 147.9222
467.5074, 139.4896
467.9895, 132.0509
468.4716, 127.2772
468.9538, 121.0963
469.4359, 112.4253
469.9180, 102.2584
470.4001, 93.72852
470.8822, 87.35547
471.3643, 81.87451
471.8465, 77.16931
472.3286, 73.46533
472.8107, 68.00513
473.2928, 60.24194
473.7749, 52.27686
474.2570, 46.90771
474.7392, 44.12146
475.2213, 40.82617
475.7034, 36.04504
476.1855, 30.74780
476.6676, 26.65576
477.1497, 23.76367
477.6319, 22.15955
478.1140, 23.07446
478.5961, 24.89954
479.0782, 24.68152
479.5603, 22.09668
480.0424, 19.15381
480.5246, 17.06006
481.0067, 15.75513
481.4888, 15.22266
481.9709, 16.28333
482.4530, 16.93176
482.9352, 15.86230
483.4173, 13.71179
483.8994, 12.13452
484.3815, 10.79590
484.8636, 10.62646
485.3457, 12.57581
485.8279, 17.64026
486.3100, 20.95459
486.7921, 20.22583
487.2742, 18.74451
487.7563, 19.37439
488.2384, 23.62122
488.7206, 26.84058
489.2027, 28.28345
489.6848, 28.62390
490.1669, 29.69067
490.6490, 31.88123
491.1311, 33.57764
491.6133, 33.52979
492.0954, 31.79785
492.5775, 31.84302
493.0596, 33.98169
493.5417, 36.58411
494.0238, 37.29126
494.5060, 36.71582
494.9881, 37.82043
495.4702, 41.75427
495.9523, 47.01587
496.4344, 52.23926
496.9165, 57.11914
497.3987, 60.50842
497.8808, 59.98279
498.3629, 58.76306
498.8450, 60.57520
499.3271, 65.86511
499.8092, 70.20764
500.2914, 70.09485
500.7735, 68.46753
501.2556, 68.14612
501.7377, 71.40100
502.2198, 74.09900
502.7019, 75.82080
503.1841, 76.36865
503.6662, 75.25452
504.1483, 71.45886
504.6304, 67.02539
505.1125, 62.72351
505.5946, 58.69336
506.0768, 53.01550
506.5589, 44.84216
507.0410, 36.36853
507.5231, 29.07837
508.0052, 22.87500
508.4873, 18.88379
508.9695, 17.80371
509.4516, 18.21936
509.9337, 17.48938
510.4158, 15.67737
510.8979, 14.03857
511.3800, 13.29932
511.8622, 13.02795
512.3443, 11.78259
512.8264, 9.665161
513.3085, 8.581543
513.7906, 11.23267
514.2728, 15.31128
514.7549, 17.70959
515.2370, 17.46875
515.7191, 16.63635
516.2012, 15.85059
516.6833, 15.45068
517.1655, 15.94836
517.6476, 18.49268
518.1297, 21.00256
518.6118, 22.75024
519.0939, 23.78052
519.5760, 24.74646
520.0582, 25.16785
520.5403, 26.02405
521.0224, 27.80261
521.5045, 30.93188
521.9866, 33.79895
522.4688, 36.56555
522.9509, 38.86853
523.4330, 40.20532
523.9151, 40.42957
524.3972, 40.37158
524.8793, 39.95801
525.3615, 39.56592
525.8436, 40.74255
526.3257, 43.45386
526.8078, 45.27051
527.2899, 43.89893
527.7720, 40.78271
528.2542, 39.67090
528.7363, 40.81189
529.2184, 41.45435
529.7005, 38.68420
530.1826, 34.18970
530.6647, 30.29272
531.1469, 28.11194
531.6290, 25.91321
532.1111, 22.23608
532.5932, 17.89648
533.0753, 14.56140
533.5574, 12.05359
534.0396, 11.21606
534.5217, 13.78015
535.0038, 20.09045
535.4859, 22.12549
535.9680, 16.67114
536.4501, 9.863892
536.9323, 5.174561
537.4144, 3.250854
537.8965, 1.501587
538.3786, 0.2083740
538.8607, 1.619995
539.3428, 1.916260
539.8250, 0.9291990
540.3071, 1.108521
540.7892, 3.597168
541.2713, 7.312744
541.7534, 9.701782
542.2355, 10.80957
542.7177, 11.16345
543.1998, 10.62256
543.6819, 9.709595
544.1640, 9.583862
544.6461, 10.40784
545.1282, 10.38647
545.6104, 7.562378
546.0925, 3.489624
546.5746, 0.1114500
547.0567, 2.917847
547.5388, 5.186646
548.0209, 6.660767
548.5031, 7.576660
548.9852, 8.133789
549.4673, 6.736694
549.9494, 6.964844
550.4315, 10.24744
550.9136, 16.76050
551.3958, 21.29370
551.8779, 22.83020
552.3600, 24.11987
552.8421, 27.20581
553.3242, 32.39270
553.8063, 36.20984
554.2885, 38.08411
554.7706, 39.76660
555.2527, 43.51038
555.7348, 49.16113
556.2169, 55.90405
556.6990, 63.92102
557.1812, 72.23315
557.6633, 79.34326
558.1454, 85.47937
558.6275, 91.52368
559.1096, 97.10217
559.5917, 103.3534
560.0739, 111.4388
560.5560, 121.4972
561.0381, 131.6156
561.5202, 143.6401
562.0023, 153.7163
562.4844, 158.8246
562.9666, 155.3497
563.4487, 151.6060
563.9308, 147.7440
564.4129, 144.0349
564.8950, 141.0978
565.3771, 139.8026
565.8593, 137.1222
566.3414, 131.2637
566.8235, 123.6331
567.3056, 120.8954
567.7877, 123.5524
568.2698, 127.5283
568.7520, 130.0378
569.2341, 131.8224
569.7162, 136.0828
570.1983, 142.9569
570.6804, 151.0029
571.1625, 159.8629
571.6447, 168.6791
572.1268, 175.8984
572.6089, 180.7042
573.0910, 185.0125
573.5731, 189.9213
574.0552, 195.2478
574.5374, 200.7875
575.0195, 208.5427
575.5016, 214.3787
575.9837, 217.2114
576.4658, 216.9779
576.9479, 213.7455
577.4301, 206.6298
577.9122, 197.6938
578.3943, 187.2139
578.8764, 174.6305
579.3585, 164.0768
579.8406, 155.9851
580.3228, 148.9451
580.8049, 141.6688
581.2870, 134.1813
581.7691, 126.0045
582.2512, 116.2533
582.7333, 107.7820
583.2155, 106.6033
583.6975, 110.5824
584.1796, 113.0050
584.6617, 107.9653
585.1439, 101.9784
585.6260, 100.8600
586.1081, 104.0638
586.5902, 108.7469
587.0723, 115.0793
587.5544, 121.3186
588.0366, 126.2985
588.5187, 129.3346
589.0008, 133.5233
589.4829, 140.6089
589.9650, 148.2399
590.4471, 154.4800
590.9293, 158.2446
591.4114, 162.6293
591.8935, 168.3331
592.3756, 174.5575
592.8577, 180.4908
593.3398, 186.2322
593.8220, 189.5233
594.3041, 189.5963
594.7862, 186.4442
595.2683, 180.3953
595.7504, 171.5110
596.2325, 159.7946
596.7147, 143.4980
597.1968, 125.3290
597.6789, 107.7969
598.1610, 91.01709
598.6431, 75.24133
599.1252, 60.35437
599.6074, 46.94800
600.0895, 35.44275
600.5716, 25.80469
601.0537, 18.20886
601.5358, 13.47302
602.0179, 10.57288
602.5001, 8.385986
602.9822, 7.842529
603.4643, 6.325562
603.9464, 2.602661
604.4285, 2.067749
604.9106, 2.997681
605.3928, 0.2615970
605.8749, 2.824463
606.3570, 0.9970700
606.8391, 3.314941
607.3212, 3.607056
607.8033, 5.3710002E-03
608.2855, 4.908447
608.7676, 9.882080
609.2497, 14.65039
609.7318, 19.00110
610.2139, 23.15479
610.6960, 25.85205
611.1782, 24.05908
611.6603, 21.48865
612.1424, 22.08496
612.6245, 30.24890
613.1066, 37.38330
613.5887, 42.17737
614.0709, 45.30017
614.5530, 48.04932
615.0351, 50.05029
615.5172, 52.28394
615.9993, 54.58923
616.4814, 57.36304
616.9636, 63.53943
617.4457, 73.43542
617.9278, 82.95288
618.4099, 88.03796
618.8920, 90.79138
619.3741, 97.82056
619.8563, 109.4832
620.3384, 121.2292
620.8205, 128.8768
621.3026, 134.6769
621.7847, 141.3505
622.2668, 149.8495
622.7490, 158.4404
623.2311, 167.1127
623.7132, 175.2527
624.1953, 182.0909
624.6774, 188.3107
625.1595, 192.1121
625.6417, 192.4404
626.1238, 190.3689
626.6059, 189.4358
627.0880, 191.1040
627.5701, 189.3647
628.0522, 180.6530
628.5344, 166.8560
629.0165, 157.9081
629.4986, 153.9630
629.9807, 150.8171
630.4628, 145.5151
630.9449, 138.7241
631.4271, 131.6932
631.9092, 124.6555
632.3913, 117.5814
632.8734, 109.4814
633.3555, 101.8195
633.8376, 96.23157
634.3198, 94.62671
634.8019, 92.11255
635.2840, 86.55078
635.7661, 79.58826
636.2482, 73.47668
636.7303, 68.84705
637.2125, 64.20972
637.6946, 59.69849
638.1767, 54.87671
638.6588, 47.90906
639.1409, 38.26453
639.6230, 30.00488
640.1052, 24.98547
640.5873, 22.40356
641.0694, 20.51440
641.5515, 19.20068
642.0336, 17.09521
642.5157, 11.33069
642.9979, 5.336548
643.4800, 4.047607
643.9621, 8.098999
644.4442, 11.26501
644.9263, 9.899170
645.4084, 6.730103
645.8906, 3.827759
646.3727, 1.262573
646.8548, 0.6590580
647.3369, 2.677612
647.8190, 3.627319
648.3011, 1.443359
648.7833, 5.758545
649.2654, 9.686035
649.7475, 8.249268
650.2296, 3.804443
650.7117, 0.7120360
651.1938, 1.075928
651.6760, 1.340820
652.1581, 0.7192380
652.6402, 3.745850
653.1223, 5.827515
653.6044, 7.095581
654.0865, 8.183960
654.5687, 10.43201
655.0508, 11.80164
655.5329, 10.43665
656.0150, 6.137085
656.4971, 2.563477
656.9792, 0.3489990
657.4614, 0.8299560
657.9435, 1.154419
658.4256, 0.5152590
658.9077, 0.6491700
659.3898, 2.354004
659.8719, 4.546631
660.3541, 7.888794
660.8362, 12.32373
661.3183, 14.10327
661.8004, 11.95740
662.2825, 8.649536
662.7646, 7.915771
663.2468, 9.384033
663.7289, 11.46008
664.2110, 14.15222
664.6931, 16.46533
665.1752, 18.90405
665.6573, 21.04431
666.1395, 20.80603
666.6216, 14.28137
667.1037, 8.960938
667.5858, 7.735474
668.0679, 10.07605
668.5500, 12.50159
669.0322, 14.93335
669.5143, 17.66223
669.9964, 21.47156
670.4785, 26.12183
670.9606, 27.26636
671.4427, 24.61768
671.9249, 21.17407
672.4070, 18.53528
672.8891, 16.98767
673.3712, 17.84863
673.8533, 21.49426
674.3354, 24.45776
674.8176, 23.72974
675.2997, 21.28625
675.7818, 19.09827
676.2639, 17.21716
676.7460, 16.35876
677.2281, 17.53821
677.7103, 19.50781
678.1924, 20.91504
678.6745, 22.50232
679.1566, 21.67163
679.6387, 16.99353
680.1208, 10.74353
680.6030, 8.179443
681.0851, 9.300171
681.5672, 10.17249
682.0493, 8.821045
682.5314, 6.903687
683.0135, 8.049438
683.4957, 11.38989
683.9778, 13.48157
684.4599, 11.85156
684.9420, 8.815186
685.4241, 5.495605
685.9063, 2.050415
686.3884, 0.7982180
686.8705, 3.426880
687.3526, 4.804443
687.8347, 4.424683
688.3168, 2.078491
688.7990, 1.236572
689.2811, 6.526001
689.7632, 10.76355
690.2453, 11.00952
690.7274, 7.609375
691.2095, 4.578979
691.6917, 2.065063
692.1738, 0.7486570
692.6559, 2.682617
693.1380, 5.978394
693.6201, 7.107056
694.1022, 4.314453
694.5844, 1.832520
695.0665, 2.698242
695.5486, 5.069336
696.0307, 6.605347
696.5128, 6.158813
696.9949, 5.585327
697.4771, 4.686890
697.9592, 3.933716
698.4413, 4.495117
698.9234, 6.876465
699.4055, 8.596680
699.8876, 8.917969
700.3698, 8.248169
700.8519, 7.578491
701.3340, 6.875366
701.8161, 5.883789
702.2982, 3.504517
702.7803, 1.398682
703.2625, 2.180908
703.7446, 5.223999
704.2267, 7.261841
704.7088, 6.323608
705.1909, 4.360352
705.6730, 2.186523
706.1552, 9.3989996E-03
706.6373, 1.525146
707.1194, 3.011353
707.6015, 3.346436
708.0836, 1.519897
708.5657, 2.587646
709.0479, 5.597046
709.5300, 7.622192
710.0121, 8.371216
710.4942, 5.990479
710.9763, 2.091187
711.4584, 0.9703370
711.9406, 3.530762
712.4227, 5.869995
712.9048, 4.011841
713.3869, 0.9930420
713.8690, 3.5399999E-02
714.3511, 1.932495
714.8333, 5.411743
715.3154, 13.91223
715.7975, 21.75500
716.2796, 22.22241
716.7617, 12.22412
717.2438, 4.059326
717.7260, 0.8411870
718.2081, 3.090820
718.6902, 3.259888
719.1723, 1.488159
719.6544, 1.169067
720.1365, 5.049805
720.6187, 8.597168
721.1008, 10.23926
721.5829, 10.11511
722.0650, 8.625366
722.5471, 2.769165
723.0292, 1.284790
723.5114, 1.081787
723.9935, 7.963623
724.4756, 10.88831
724.9577, 6.472656
725.4398, 2.914795
725.9219, 2.896729
726.4041, 5.697510
726.8862, 7.307129
727.3683, 7.695313
727.8504, 7.694824
728.3325, 8.045898
728.8146, 8.302734
729.2968, 6.856934
729.7789, 3.997559
730.2610, 2.232666
730.7431, 4.256958
731.2252, 7.168579
731.7073, 8.627319
732.1895, 8.234009
732.6716, 8.573730
733.1537, 11.92346
733.6358, 14.41907
734.1179, 13.44116
734.6000, 7.726318
735.0822, 6.708740
735.5643, 11.78784
736.0464, 16.64954
736.5285, 13.93311
737.0106, 6.012695
737.4927, 2.446411
737.9749, 4.531860
738.4570, 7.576538
738.9391, 7.669800
739.4212, 6.377930
739.9033, 5.361084
740.3854, 4.779053
740.8676, 5.085693
741.3497, 7.342529
741.8318, 10.05432
742.3139, 11.90234
742.7960, 13.35242
743.2781, 12.23254
743.7603, 7.092896
744.2424, 1.370605
744.7245, 0.9438480
745.2066, 5.160889
745.6887, 8.129517
746.1708, 8.149902
746.6530, 7.242798
747.1351, 7.370850
747.6172, 8.232300
748.0993, 9.335815
748.5814, 11.29346
749.0635, 12.49268
749.5457, 12.00964
750.0278, 10.50012
750.5099, 9.291260
750.9920, 7.836792
751.4741, 7.890991
751.9562, 10.83887
752.4384, 14.79846
752.9205, 13.52466
753.4026, 7.108765
753.8847, 2.697876
754.3668, 4.181030
754.8489, 8.068970
755.3311, 9.891968
755.8132, 9.917480
756.2953, 8.837646
756.7774, 5.410522
757.2595, 2.507446
757.7416, 1.737671
758.2238, 2.777954
758.7059, 3.600098
759.1880, 3.048706
759.6701, 4.042603
760.1522, 8.592163
760.6343, 15.37500
761.1165, 16.81824
761.5986, 12.66174
762.0807, 8.196411
762.5628, 6.256348
763.0449, 5.902588
763.5270, 5.840210
764.0092, 5.938354
764.4913, 5.740479
764.9734, 4.457520
765.4555, 3.387207
765.9376, 3.422607
766.4197, 4.627686
766.9019, 6.197876
767.3840, 8.728638
767.8661, 10.72327
768.3482, 11.40088
768.8303, 10.81812
769.3124, 10.24646
769.7946, 9.713257
770.2767, 9.189575
770.7588, 8.871704
771.2409, 8.438721
771.7230, 6.630371
772.2051, 3.619385
772.6873, 2.236450
773.1694, 6.142090
773.6515, 10.70801
774.1336, 12.71960
774.6157, 11.39099
775.0978, 10.27173
775.5800, 9.453613
776.0621, 8.702148
776.5442, 7.954834
777.0263, 7.300903
777.5084, 7.477417
777.9905, 8.431396
778.4727, 9.709839
778.9548, 11.35083
779.4369, 12.89954
779.9190, 13.64722
780.4011, 13.49927
780.8832, 12.38184
781.3654, 9.728149
781.8475, 6.816772
782.3296, 4.353638
782.8117, 1.914307
783.2938, 2.099365
783.7759, 6.728516
784.2581, 11.54834
784.7402, 12.94153
785.2223, 10.90527
785.7044, 9.709595
786.1865, 9.568237
786.6686, 9.834351
787.1508, 10.68091
787.6329, 11.20129
788.1150, 9.280029
788.5971, 3.969727
789.0792, 0.5177000
789.5613, 3.006470
790.0435, 7.271362
790.5256, 10.14307
791.0077, 11.48718
791.4898, 10.82361
791.9719, 7.023560
792.4540, 3.088501
792.9362, 1.800781
793.4183, 3.034668
793.9004, 5.846191
794.3825, 10.50244
794.8646, 14.08557
795.3467, 12.88391
795.8289, 9.410156
796.3110, 7.086792
796.7931, 6.750244
797.2752, 6.445923
797.7573, 4.953247
798.2394, 3.612427
798.7216, 3.588745
799.2037, 5.655151
799.6858, 7.047241
800.1679, 7.638916
800.6500, 7.794434
801.1321, 8.303101
801.6143, 8.796631
802.0964, 7.033813
802.5785, 2.486328
803.0606, 1.534790
803.5427, 1.646729
804.0248, 0.1071780
804.5070, 1.430176
804.9891, 1.462280
805.4712, 2.404541
805.9533, 7.215088
806.4354, 11.23682
806.9175, 10.45264
807.3997, 3.075073
807.8818, 0.7817380
808.3639, 0.1865230
808.8460, 1.539673
809.3281, 0.6926270
809.8102, 1.655884
810.2924, 2.665039
810.7745, 1.857544
811.2566, 0.8431400
811.7387, 0.9617920
812.2208, 1.204956
812.7029, 0.5718990
813.1851, 1.626953
813.6672, 2.989136
814.1493, 2.285034
814.6314, 1.981079
815.1135, 4.786255
815.5956, 10.98816
816.0778, 14.15186
816.5599, 13.83765
817.0420, 12.06287
817.5241, 9.909302
818.0062, 8.012817
818.4883, 7.653320
818.9705, 9.240112
819.4526, 10.23181
819.9347, 8.388428
820.4168, 6.218506
820.8989, 5.878784
821.3810, 8.238770
821.8632, 8.786011
822.3453, 6.689575
822.8274, 4.845093
823.3095, 6.420288
823.7916, 10.30664
824.2737, 10.72668
824.7559, 7.413208
825.2380, 3.916382
825.7201, 2.931641
826.2022, 3.166504
826.6843, 3.727173
827.1664, 4.501465
827.6486, 5.970093
828.1307, 8.884155
828.6128, 12.18579
829.0949, 15.57092
829.5770, 19.10583
830.0591, 21.37720
830.5413, 22.35632
831.0234, 22.74670
831.5055, 22.52881
831.9876, 21.60730
832.4697, 20.22607
832.9518, 18.55396
833.4340, 18.33813
833.9161, 22.82764
834.3982, 27.20532
834.8803, 28.36963
835.3624, 25.86035
835.8445, 22.56311
836.3267, 17.36621
836.8088, 13.58923
837.2909, 13.30115
837.7730, 15.86707
838.2551, 17.89014
838.7372, 19.39392
839.2194, 20.36511
839.7015, 20.49060
840.1836, 20.36597
840.6657, 20.57764
841.1478, 21.01123
841.6299, 21.42932
842.1121, 22.78796
842.5942, 23.13611
843.0763, 21.32007
843.5584, 17.88123
844.0405, 15.89197
844.5226, 15.40417
845.0048, 15.96582
845.4869, 18.17126
845.9690, 20.59998
846.4511, 20.10449
846.9332, 17.33069
847.4153, 14.57629
847.8975, 11.80334
848.3796, 10.54272
848.8617, 13.03833
849.3438, 17.74536
849.8259, 19.28589
850.3080, 15.53088
850.7902, 13.63623
851.2723, 15.91931
851.7544, 19.94934
852.2365, 19.89038
852.7186, 16.61682
853.2007, 14.81470
853.6829, 17.08435
854.1650, 19.26758
854.6471, 17.34204
855.1292, 13.44092
855.6113, 11.12585
856.0934, 12.87439
856.5756, 14.90723
857.0577, 17.26355
857.5398, 18.61682
858.0219, 16.66553
858.5040, 11.27295
858.9861, 8.619141
859.4683, 10.07251
859.9504, 13.18225
860.4325, 16.27173
860.9146, 18.40894
861.3967, 17.67053
861.8788, 12.20679
862.3610, 7.831787
862.8431, 6.734131
863.3252, 7.829590
863.8073, 10.43335
864.2894, 16.31714
864.7715, 17.78369
865.2537, 13.73547
865.7358, 8.378174
866.2179, 5.838623
866.7000, 5.391968
867.1821, 4.857666
867.6642, 3.909790
868.1464, 3.963623
868.6285, 8.106079
869.1106, 12.30005
869.5927, 13.06641
870.0748, 9.187256
870.5569, 6.364624
871.0391, 4.412354
871.5212, 3.850708
872.0033, 5.905029
872.4854, 9.918701
872.9675, 9.910522
873.4496, 6.217163
873.9318, 4.069458
874.4139, 10.03491
874.8960, 16.79907
875.3781, 17.06506
875.8602, 11.45251
876.3423, 6.866943
876.8245, 4.789673
877.3066, 4.374634
877.7887, 6.409302
878.2708, 9.801147
878.7529, 9.376221
879.2350, 5.166748
879.7172, 1.402954
880.1993, 0.4522710
880.6814, 0.4549560
881.1635, 3.273071
881.6456, 8.764526
882.1277, 11.36218
882.6099, 4.606689
883.0920, 0.3961180
883.5741, 5.243164
884.0562, 13.06372
884.5383, 13.38940
885.0204, 4.639648
885.5026, 1.457031
885.9847, 2.526245
886.4668, 1.167358
886.9489, 0.1278080
887.4310, 0.5170900
887.9131, 0.1816410
888.3953, 2.379150
888.8774, 2.769897
889.3595, 4.208252
889.8416, 12.22803
890.3237, 14.98975
890.8058, 9.904297
891.2880, 6.906494
891.7701, 6.411621
892.2522, 6.731445
892.7343, 6.429077
893.2164, 5.728394
893.6985, 4.832397
894.1807, 3.777100
894.6628, 4.118530
895.1449, 9.613770
895.6270, 14.58276
896.1091, 14.64685
896.5912, 9.119751
897.0734, 4.603882
897.5555, 0.8975830
898.0376, 1.231323
898.5197, 1.002808
899.0018, 0.9692380
899.4839, 2.645630
899.9661, 4.061768
900.4482, 5.409790
900.9303, 7.594604
901.4124, 9.051392
901.8945, 8.497314
902.3766, 6.389404
902.8588, 4.193604
903.3409, 1.577515
903.8230, 9.9730998E-02
904.3051, 0.3704830
904.7872, 0.1767580
905.2693, 0.4654540
905.7515, 0.5228270
906.2336, 0.6662600
906.7157, 1.165894
907.1978, 1.256470
907.6799, 0.2517090
908.1620, 2.330444
908.6442, 3.697754
909.1263, 3.432251
909.6084, 3.742798
910.0905, 5.522705
910.5726, 6.714600
911.0547, 4.569092
911.5369, 0.4696040
912.0190, 3.071533
912.5011, 2.910645
912.9832, 1.174927
913.4653, 3.296265
913.9474, 7.400513
914.4296, 7.778564
914.9117, 3.991577
915.3938, 0.2786870
915.8759, 3.483398
916.3580, 5.866455
916.8401, 5.536133
917.3223, 3.302612
917.8044, 4.573730
918.2865, 9.068970
918.7686, 12.76379
919.2507, 12.83301
919.7328, 11.67249
920.2150, 11.30566
920.6971, 11.60449
921.1792, 12.23584
921.6613, 13.84229
922.1434, 14.86719
922.6255, 14.96521
923.1077, 14.53918
923.5898, 14.31982
924.0719, 14.33508
924.5540, 14.16016
925.0361, 13.34094
925.5182, 13.83459
926.0004, 18.84045
926.4825, 25.74670
926.9646, 31.26318
927.4467, 33.88342
927.9288, 37.62341
928.4109, 44.54810
928.8931, 50.71594
929.3752, 52.66040
929.8573, 50.52039
930.3394, 51.56299
930.8215, 55.76392
931.3036, 58.81262
931.7858, 54.13379
932.2679, 49.38037
932.7500, 54.00085
933.2321, 66.68860
933.7142, 75.75476
934.1964, 76.41699
934.6785, 76.00818
935.1606, 76.11035
935.6427, 76.47351
936.1248, 75.70764
936.6069, 74.00452
937.0891, 74.21570
937.5712, 78.48145
938.0533, 82.52161
938.5354, 81.98132
939.0175, 78.89001
939.4996, 75.84558
939.9818, 74.37512
940.4639, 71.31543
940.9460, 65.74377
941.4281, 59.75244
941.9102, 55.41272
942.3923, 52.45374
942.8745, 48.34009
943.3566, 42.64075
943.8387, 37.02649
944.3208, 32.18188
944.8029, 28.65759
945.2850, 28.11865
945.7672, 30.76196
946.2493, 28.88403
946.7314, 18.00623
947.2135, 10.80066
947.6956, 13.12610
948.1777, 21.81226
948.6599, 25.64709
949.1420, 25.16821
949.6241, 23.11426
950.1062, 18.50232
950.5883, 15.44922
951.0704, 18.80481
951.5526, 25.29297
952.0347, 28.39001
952.5168, 24.88306
952.9989, 23.72461
953.4810, 26.03772
953.9631, 29.88367
954.4453, 33.15771
954.9274, 35.93237
955.4095, 38.14258
955.8916, 39.57959
956.3737, 41.98071
956.8558, 47.59888
957.3380, 53.71948
957.8201, 58.32373
958.3022, 61.20752
958.7843, 63.97827
959.2664, 66.17285
959.7485, 69.77881
960.2307, 76.50220
960.7128, 84.79565
961.1949, 90.39404
961.6770, 94.16235
962.1591, 99.23462
962.6412, 108.7964
963.1234, 118.2068
963.6055, 125.7139
964.0876, 131.9287
964.5697, 138.6575
965.0518, 146.9568
965.5339, 150.2000
966.0161, 146.9932
966.4982, 140.6216
966.9803, 134.0889
967.4624, 127.4614
967.9445, 121.4888
968.4266, 116.6431
968.9088, 109.4165
969.3909, 95.45996
969.8730, 81.52637
970.3551, 71.59424
970.8372, 65.42749
971.3193, 55.53149
971.8015, 41.71436
972.2836, 30.16724
972.7657, 25.84570
973.2478, 24.67188
973.7299, 22.48389
974.2120, 19.32935
974.6942, 15.39355
975.1763, 8.835449
975.6584, 4.140625
976.1405, 2.012451
976.6226, 1.766113
977.1047, 3.116943
977.5869, 5.838867
978.0690, 7.161865
978.5511, 6.665771
979.0332, 4.981201
979.5153, 0.3166500
979.9974, 3.717285
980.4796, 2.877441
980.9617, 4.209961
981.4438, 8.180664
981.9259, 8.002441
982.4080, 6.356445
982.8901, 3.918457
983.3723, 1.223145
983.8544, 0.2102050
984.3365, 0.4384770
984.8186, 0.3137210
985.3007, 1.799316
985.7828, 4.359375
986.2650, 9.439453
986.7471, 15.21069
987.2292, 18.74341
987.7113, 19.72021
988.1934, 18.94995
988.6755, 15.88086
989.1577, 13.40332
989.6398, 15.68848
990.1219, 20.37720
990.6040, 23.74683
991.0861, 25.37231
991.5682, 25.60107
992.0504, 22.67700
992.5325, 20.44604
993.0146, 21.07935
993.4967, 23.89478
993.9788, 24.76660
994.4609, 23.73633
994.9431, 23.73267
995.4252, 26.53149
995.9073, 30.10498
996.3894, 31.85571
996.8715, 33.02783
997.3536, 35.71313
997.8358, 42.48242
998.3179, 47.37500
998.8000, 48.45728
999.2821, 50.41406
999.7642, 58.84546
1000.246, 72.53320
1000.728, 84.29395
1001.211, 93.93115
1001.693, 103.0659
1002.175, 113.1204
1002.657, 122.8589
1003.139, 131.1746
1003.621, 138.2695
1004.103, 145.6943
1004.585, 154.0623
1005.068, 160.0754
1005.550, 162.0757
1006.032, 162.9202
1006.514, 166.6216
1006.996, 172.8342
1007.478, 181.0811
1007.960, 191.5886
1008.442, 203.1492
1008.924, 213.8232
1009.407, 227.1394
1009.889, 245.9426
1010.371, 270.2915
1010.853, 296.8423
1011.335, 325.9399
1011.817, 355.5862
1012.299, 384.0647
1012.781, 413.1628
1013.263, 448.1663
1013.746, 485.7488
1014.228, 514.5159
1014.710, 529.5889
1015.192, 542.6133
1015.674, 556.6309
1016.156, 566.6970
1016.638, 562.9414
1017.120, 549.2712
1017.603, 536.7705
1018.085, 527.0894
1018.567, 520.7507
1019.049, 515.4497
1019.531, 515.9446
1020.013, 526.7290
1020.495, 547.1868
1020.977, 567.1938
1021.459, 586.5659
1021.942, 607.2549
1022.424, 629.0930
1022.906, 654.5476
1023.388, 688.1472
1023.870, 727.9900
1024.352, 769.9304
1024.834, 810.2673
1025.316, 856.5249
1025.799, 910.3171
1026.281, 968.8276
1026.763, 1032.216
1027.245, 1098.085
1027.727, 1159.830
1028.209, 1216.753
1028.691, 1262.041
1029.173, 1293.435
1029.656, 1309.309
1030.138, 1309.435
1030.620, 1292.371
1031.102, 1253.274
1031.584, 1189.234
1032.066, 1111.428
1032.548, 1019.568
1033.030, 921.0713
1033.512, 823.6555
1033.995, 728.8623
1034.477, 640.6030
1034.959, 559.3672
1035.441, 487.1772
1035.923, 425.7476
1036.405, 372.1987
1036.887, 324.8188
1037.369, 283.9656
1037.851, 250.2476
1038.334, 223.7268
1038.816, 199.2305
1039.298, 171.5508
1039.780, 147.4104
1040.262, 132.8479
1040.744, 124.5095
1041.226, 115.3604
1041.708, 104.1992
1042.191, 94.23364
1042.673, 85.28320
1043.155, 78.67383
1043.637, 77.44189
1044.119, 78.68970
1044.601, 77.40527
1045.083, 73.25073
1045.565, 68.64478
1046.047, 62.41211
1046.530, 58.41943
1047.012, 58.58350
1047.494, 61.33057
1047.976, 62.70898
1048.458, 62.75488
1048.940, 61.28223
1049.422, 57.67871
1049.904, 54.42993
1050.386, 54.59839
1050.869, 55.32080
1051.351, 52.94336
1051.833, 46.16162
1052.315, 44.11206
1052.797, 47.82715
1053.279, 51.54883
1053.761, 52.54150
1054.243, 51.00269
1054.726, 45.37744
1055.208, 37.54321
1055.690, 32.48877
1056.172, 36.12720
1056.654, 36.73608
1057.136, 31.25757
1057.618, 24.21704
1058.100, 21.25854
1058.583, 21.68164
1059.065, 20.17383
1059.547, 16.42773
1060.029, 14.59009
1060.511, 18.77734
1060.993, 24.62573
1061.475, 29.98828
1061.957, 34.76587
1062.439, 38.94312
1062.922, 42.56079
1063.404, 45.49805
1063.886, 47.85571
1064.368, 49.00366
1064.850, 47.69604
1065.332, 44.93091
1065.814, 42.04272
1066.296, 39.36743
1066.778, 36.18042
1067.261, 32.52002
1067.743, 28.15576
1068.225, 22.50635
1068.707, 16.27100
1069.189, 11.80566
1069.671, 8.911133
1070.153, 6.952881
1070.635, 6.145996
1071.118, 5.594727
1071.600, 5.012207
1072.082, 4.474365
1072.564, 4.155762
1073.046, 4.111084
1073.528, 3.034424
1074.010, 0.8164060
1074.492, 0.5051270
1074.974, 2.385742
1075.457, 5.372314
1075.939, 3.619629
1076.421, 4.770996
1076.903, 4.794922
1077.385, 1.366699
1077.867, 2.304688
1078.349, 3.108154
1078.831, 9.023438
1079.313, 5.268555
1079.796, 2.571533
1080.278, 3.303223
1080.760, 5.031006
1081.242, 10.91040
1081.724, 9.108398
1082.206, 5.460938
1082.688, 0.8903810
1083.170, 3.445557
1083.652, 2.557617
1084.135, 2.414063
1084.617, 5.521484
1085.099, 4.069092
1085.581, 2.269287
1086.063, 3.001709
1086.545, 4.292480
1087.027, 3.937988
1087.509, 1.499268
1087.992, 2.247803
1088.474, 6.472168
1088.956, 9.005859
1089.438, 5.325439
1089.920, 0.4255370
1090.402, 4.281006
1090.884, 6.841064
1091.366, 9.449951
1091.849, 13.69067
1092.331, 14.49390
1092.813, 10.17554
1093.295, 6.062988
1093.777, 7.974609
1094.259, 13.71533
1094.741, 20.25195
1095.223, 26.86499
1095.705, 30.31738
1096.188, 26.43042
1096.670, 22.72729
1097.152, 21.11768
1097.634, 20.85913
1098.116, 20.65283
1098.598, 20.60669
1099.080, 20.81592
1099.562, 21.23438
1100.044, 23.14917
1100.527, 30.80664
1101.009, 37.17798
1101.491, 36.60181
1101.973, 30.40039
1102.455, 25.88013
1102.937, 23.00684
1103.419, 21.73486
1103.901, 22.50928
1104.384, 23.62280
1104.866, 23.42529
1105.348, 22.42212
1105.830, 21.21387
1106.312, 19.89233
1106.794, 17.92261
1107.276, 14.86426
1107.758, 12.64795
1108.240, 12.54785
1108.723, 13.82861
1109.205, 15.85962
1109.687, 18.20752
1110.169, 19.88989
1110.651, 18.91919
1111.133, 20.16016
1111.615, 25.52881
1112.097, 30.63452
1112.579, 29.87256
1113.062, 25.60913
1113.544, 27.10132
1114.026, 33.91406
1114.508, 41.17554
1114.990, 46.99463
1115.472, 52.06592
1115.954, 55.57031
1116.436, 59.14795
1116.919, 65.96240
1117.401, 75.74585
1117.883, 82.36304
1118.365, 84.95898
1118.847, 89.22290
1119.329, 100.4685
1119.811, 113.8953
1120.293, 125.9766
1120.776, 137.3125
1121.258, 150.8401
1121.740, 166.6301
1122.222, 184.2214
1122.704, 204.0774
1123.186, 223.5608
1123.668, 241.1421
1124.150, 256.6426
1124.632, 270.3367
1125.115, 282.2935
1125.597, 290.0867
1126.079, 293.7534
1126.561, 293.2151
1127.043, 287.8635
1127.525, 279.2046
1128.007, 269.7903
1128.489, 258.8586
1128.971, 244.1514
1129.454, 221.0757
1129.936, 206.6377
1130.418, 206.1763
1130.900, 206.4709
1131.382, 198.9250
1131.864, 186.5298
1132.346, 178.5503
1132.828, 173.5374
1133.311, 166.0261
1133.793, 151.0320
1134.275, 136.5251
1134.757, 123.7097
1135.239, 112.4353
1135.721, 102.9233
1136.203, 94.69897
1136.685, 85.66528
1137.167, 76.43652
1137.650, 67.68726
1138.132, 56.65723
1138.614, 48.33447
1139.096, 47.94971
1139.578, 50.85034
1140.060, 50.12451
1140.542, 45.79370
1141.024, 41.78198
1141.506, 38.28662
1141.989, 36.27246
1142.471, 38.81812
1142.953, 41.98145
1143.435, 42.57227
1143.917, 41.16479
1144.399, 40.47681
1144.881, 40.55542
1145.363, 42.09668
1145.846, 45.09546
1146.328, 48.36328
1146.810, 53.49561
1147.292, 56.99512
1147.774, 52.83643
1148.256, 40.95532
1148.738, 37.35205
1149.220, 44.55127
1149.703, 51.07153
1150.185, 53.94067
1150.667, 54.30054
1151.149, 52.51758
1151.631, 49.79395
1152.113, 47.61816
1152.595, 46.16943
1153.077, 45.71680
1153.559, 46.44214
1154.042, 47.50171
1154.524, 48.89014
1155.006, 49.92456
1155.488, 48.92236
1155.970, 46.73535
1156.452, 45.15503
1156.934, 45.25635
1157.416, 43.82739
1157.898, 39.77246
1158.381, 35.65479
1158.863, 32.58716
1159.345, 30.70801
1159.827, 30.24487
1160.309, 31.37012
1160.791, 34.39893
1161.273, 42.67529
1161.755, 47.32886
1162.238, 44.75464
1162.720, 40.85938
1163.202, 40.17310
1163.684, 41.95850
1164.166, 42.63721
1164.648, 42.15820
1165.130, 40.19580
1165.612, 34.31226
1166.094, 30.01929
1166.577, 28.82520
1167.059, 29.25903
1167.541, 31.68188
1168.023, 35.52197
1168.505, 34.26318
1168.987, 28.38428
1169.469, 24.09155
1169.951, 26.65161
1170.433, 28.71069
1170.916, 26.77173
1171.398, 23.12061
1171.880, 20.22852
1172.362, 18.13062
1172.844, 17.62573
1173.326, 18.73755
1173.808, 19.15210
1174.290, 15.73364
1174.773, 12.79980
1175.255, 13.57593
1175.737, 16.42456
1176.219, 18.61426
1176.701, 20.17407
1177.183, 19.76929
1177.665, 17.16650
1178.147, 14.29150
1178.630, 12.96118
1179.112, 11.64893
1179.594, 8.407715
1180.076, 4.260742
1180.558, 2.605469
1181.040, 3.481689
1181.522, 6.773193
1182.004, 12.96460
1182.486, 17.53369
1182.969, 14.41479
1183.451, 9.628418
1183.933, 8.179199
1184.415, 9.797119
1184.897, 11.27002
1185.379, 12.64819
1185.861, 12.58960
1186.343, 10.45020
1186.825, 8.055664
1187.308, 7.015137
1187.790, 6.764893
1188.272, 7.410400
1188.754, 8.833984
1189.236, 7.323730
1189.718, 2.476563
1190.200, 1.715820
1190.682, 4.164795
1191.165, 4.895508
1191.647, 2.819092
1192.129, 0.2312010
1192.611, 1.884277
1193.093, 1.688477
1193.575, 4.562744
1194.057, 11.08057
1194.539, 15.88745
1195.021, 16.42871
1195.504, 15.27954
1195.986, 15.39624
1196.468, 15.50024
1196.950, 13.71094
1197.432, 9.511475
1197.914, 5.189209
1198.396, 0.2761230
1198.878, 1.438477
1199.360, 3.728027
1199.843, 10.06421
1200.325, 10.72559
1200.807, 8.302734
1201.289, 6.098389
1201.771, 4.175293
1202.253, 4.955322
1202.735, 9.169922
1203.217, 11.50928
1203.700, 7.312012
1204.182, 1.795898
1204.664, 1.033691
1205.146, 3.046387
1205.628, 4.771240
1206.110, 6.014893
1206.592, 6.074463
1207.074, 4.674561
1207.557, 3.730713
1208.039, 4.668945
1208.521, 6.409424
1209.003, 8.312256
1209.485, 9.986572
1209.967, 10.40063
1210.449, 7.882324
1210.931, 9.590088
1211.413, 16.39502
1211.896, 22.08521
1212.378, 21.50562
1212.860, 18.43652
1213.342, 16.07202
1213.824, 14.43091
1214.306, 13.59497
1214.788, 13.70605
1215.270, 14.55054
1215.752, 16.47314
1216.235, 16.32593
1216.717, 9.055420
1217.199, 0.9672850
1217.681, 1.325684
1218.163, 0.3876950
1218.645, 1.865234
1219.127, 2.564941
1219.609, 4.465332
1220.092, 7.931641
1220.574, 10.58276
1221.056, 10.44995
1221.538, 8.520020
1222.020, 4.576172
1222.502, 0.2534180
1222.984, 3.879883
1223.466, 6.709473
1223.948, 5.215088
1224.431, 1.194580
1224.913, 7.229492
1225.395, 9.715576
1225.877, 9.652588
1226.359, 4.146240
1226.841, 3.186768
1227.323, 5.135986
1227.805, 0.8034670
1228.287, 3.194336
1228.770, 6.409180
1229.252, 8.859131
1229.734, 9.939697
1230.216, 10.79810
1230.698, 12.83081
1231.180, 15.00024
1231.662, 14.79468
1232.144, 12.00684
1232.627, 9.057861
1233.109, 6.084473
1233.591, 4.918213
1234.073, 8.757324
1234.555, 13.04517
1235.037, 15.59058
1235.519, 16.19067
1236.001, 13.31079
1236.484, 7.000000
1236.966, 6.814209
1237.448, 13.56299
1237.930, 18.41870
1238.412, 12.08911
1238.894, 5.726318
1239.376, 6.539795
1239.858, 10.93066
1240.340, 13.98706
1240.823, 15.52954
1241.305, 13.24048
1241.787, 7.093018
1242.269, 2.766357
1242.751, 4.994141
1243.233, 8.634766
1243.715, 12.72437
1244.197, 15.73169
1244.679, 14.49487
1245.162, 9.901611
1245.644, 5.542236
1246.126, 2.139893
1246.608, 2.495361
1247.090, 13.72778
1247.572, 20.91675
1248.054, 18.02319
1248.536, 11.74902
1249.019, 14.95874
1249.501, 23.59668
1249.983, 23.00317
1250.465, 12.93481
1250.947, 6.862061
1251.429, 13.93994
1251.911, 21.70361
1252.393, 28.15845
1252.875, 32.28320
1253.358, 31.96484
1253.840, 28.54370
1254.322, 24.74438
1254.804, 21.05029
1255.286, 18.58008
1255.768, 17.59473
1256.250, 18.49048
1256.732, 22.24976
1257.214, 25.59814
1257.697, 23.31396
1258.179, 18.75610
1258.661, 17.04761
1259.143, 18.35059
1259.625, 21.47192
1260.107, 27.90967
1260.589, 31.02295
1261.071, 30.08789
1261.554, 27.17090
1262.036, 22.98511
1262.518, 19.18896
1263.000, 18.48120
1263.482, 14.50977
1263.964, 12.03442
1264.446, 12.45654
1264.928, 10.30884
1265.411, 11.14478
1265.893, 14.03638
1266.375, 16.76343
1266.857, 18.90063
1267.339, 20.41626
1267.821, 21.06055
1268.303, 19.70850
1268.785, 15.98901
1269.267, 17.24634
1269.750, 24.36597
1270.232, 29.04321
1270.714, 21.65649
1271.196, 13.75513
1271.678, 13.60815
1272.160, 17.82495
1272.642, 22.23315
1273.124, 26.41699
1273.606, 24.59399
1274.089, 16.63574
1274.571, 9.840820
1275.053, 9.740234
1275.535, 10.73804
1276.017, 11.06055
1276.499, 10.24292
1276.981, 6.289795
1277.463, 0.6411130
1277.946, 0.4257810
1278.428, 2.919434
1278.910, 6.954590
1279.392, 12.96729
1279.874, 14.43921
1280.356, 8.005127
1280.838, 1.404297
1281.320, 6.616699
1281.802, 16.34814
1282.285, 12.26611
1282.767, 2.244873
1283.249, 8.983887
1283.731, 3.280029
1284.213, 10.53931
1284.695, 10.30811
1285.177, 7.708496
1285.659, 7.312988
1286.141, 7.446777
1286.624, 5.343018
1287.106, 2.077148
1287.588, 0.9982910
1288.070, 3.036865
1288.552, 4.050049
1289.034, 3.753906
1289.516, 3.322998
1289.998, 3.180176
1290.481, 3.353271
1290.963, 4.396240
1291.445, 6.786621
1291.927, 9.000488
1292.409, 10.67188
1292.891, 13.50342
1293.373, 11.85010
1293.855, 13.24609
1294.338, 9.813477
1294.820, 6.218506
1295.302, 4.455811
1295.784, 3.329102
1296.266, 2.564697
1296.748, 1.781006
1297.230, 1.303467
1297.712, 1.815430
1298.194, 4.204102
1298.677, 12.62451
1299.159, 15.96167
1299.641, 10.55127
1300.123, 4.506836
1300.605, 4.279053
1301.087, 7.507813
1301.569, 9.048828
1302.051, 8.762939
1302.533, 6.645508
1303.016, 0.0000000E+00
##END=



