##NAMES=Penkvilksite
##RRUFFID=R130027
##IDEAL CHEMISTRY=Na_4_Ti_2_Si_8_O_22_&#183;4H_2_O
##LOCALITY=Lovozero Massif, Kola Peninsula, Murmanskaja Oblast', Northern Region, Russia
##OWNER=RRUFF
##SOURCE=Don Doell
##DESCRIPTION=Powdery white aggregate
##STATUS=The identification of this mineral is not yet confirmed.
##URL=rruff.info/R130027
206.9981, 0.0000000E+00
207.4802, 1.303345
207.9623, 1.476074
208.4445, 1.532593
208.9266, 3.129517
209.4087, 8.380615
209.8908, 15.36377
210.3729, 21.80664
210.8550, 28.84497
211.3372, 36.78491
211.8193, 36.97949
212.3014, 37.88245
212.7835, 41.60645
213.2656, 38.89307
213.7477, 26.67810
214.2299, 11.27759
214.7120, 1.047852
215.1941, 2.584229
215.6762, 0.9359130
216.1583, 5.172241
216.6404, 16.11829
217.1226, 24.63220
217.6047, 32.28589
218.0868, 37.25000
218.5689, 36.26270
219.0510, 26.25537
219.5331, 18.90076
220.0153, 17.95667
220.4974, 24.95959
220.9795, 30.24292
221.4616, 36.53711
221.9437, 40.48767
222.4258, 37.17822
222.9080, 23.00537
223.3901, 11.18005
223.8722, 5.522583
224.3543, 6.499878
224.8364, 8.453735
225.3185, 11.31055
225.8007, 15.14453
226.2828, 20.56641
226.7649, 29.46094
227.2470, 36.05432
227.7291, 38.25525
228.2112, 35.43250
228.6934, 33.23645
229.1755, 32.56909
229.6576, 31.72900
230.1397, 28.32532
230.6218, 20.68103
231.1039, 13.46179
231.5861, 7.996948
232.0682, 4.407227
232.5503, 1.096436
233.0324, 2.378174
233.5145, 5.148071
233.9966, 5.979126
234.4788, 3.708252
234.9609, 1.544067
235.4430, 0.8325200
235.9251, 2.200073
236.4072, 0.3387450
236.8893, 5.929443
237.3715, 14.40674
237.8536, 22.59912
238.3357, 31.32190
238.8178, 38.34863
239.2999, 42.63000
239.7820, 43.61401
240.2642, 45.61328
240.7463, 48.47937
241.2284, 52.44482
241.7105, 57.93286
242.1926, 65.64441
242.6747, 73.51941
243.1569, 81.00098
243.6390, 88.03589
244.1211, 95.31653
244.6032, 103.3357
245.0853, 111.2052
245.5674, 117.7518
246.0496, 122.0355
246.5317, 126.8087
247.0138, 132.9867
247.4959, 140.8124
247.9780, 147.6611
248.4601, 153.3926
248.9423, 158.3947
249.4244, 162.7721
249.9065, 165.2467
250.3886, 169.7845
250.8707, 178.0923
251.3528, 190.3856
251.8350, 200.0148
252.3171, 204.1775
252.7992, 208.6030
253.2813, 219.7548
253.7634, 240.9323
254.2455, 261.4366
254.7277, 279.2534
255.2098, 294.4032
255.6919, 307.9153
256.1740, 318.3917
256.6561, 328.9055
257.1382, 342.4735
257.6204, 360.5458
258.1025, 378.4229
258.5846, 395.6111
259.0667, 412.0931
259.5488, 426.0670
260.0309, 437.8094
260.5131, 446.3361
260.9952, 450.9868
261.4773, 452.5581
261.9594, 448.0275
262.4415, 435.6085
262.9236, 416.0078
263.4058, 398.0646
263.8879, 383.4248
264.3700, 367.9397
264.8521, 347.2003
265.3342, 319.2821
265.8163, 293.0068
266.2985, 270.4783
266.7806, 250.9633
267.2627, 229.0076
267.7448, 203.3434
268.2269, 178.2501
268.7090, 156.7881
269.1912, 138.9805
269.6733, 123.9210
270.1554, 112.3303
270.6375, 103.1532
271.1196, 92.15149
271.6017, 78.20898
272.0839, 65.42529
272.5660, 57.03754
273.0481, 53.40759
273.5302, 51.55402
274.0123, 52.17273
274.4944, 53.76691
274.9766, 51.20929
275.4587, 43.13892
275.9408, 36.21082
276.4229, 35.65326
276.9050, 42.10352
277.3871, 46.14307
277.8693, 46.34949
278.3514, 44.74622
278.8335, 46.06702
279.3156, 50.77869
279.7977, 55.71466
280.2798, 58.94550
280.7620, 60.38739
281.2441, 62.43195
281.7262, 65.17993
282.2083, 68.66418
282.6904, 73.13513
283.1725, 78.66895
283.6547, 83.99481
284.1368, 87.53278
284.6189, 89.65002
285.1010, 95.49524
285.5831, 105.9805
286.0652, 117.8521
286.5474, 126.3770
287.0295, 131.6078
287.5116, 136.0266
287.9937, 140.2181
288.4758, 144.3601
288.9579, 149.9286
289.4401, 157.3572
289.9222, 164.2346
290.4043, 166.8438
290.8864, 165.5808
291.3685, 164.6432
291.8506, 166.6208
292.3328, 170.3246
292.8149, 171.7431
293.2970, 170.7467
293.7791, 167.8583
294.2612, 162.9401
294.7433, 156.5688
295.2255, 151.3262
295.7076, 149.0009
296.1897, 147.8383
296.6718, 143.8462
297.1539, 137.1306
297.6360, 130.7603
298.1182, 127.2603
298.6003, 126.1567
299.0824, 126.2493
299.5645, 127.6509
300.0466, 129.6207
300.5287, 131.9216
301.0109, 134.2944
301.4930, 134.8463
301.9751, 130.1962
302.4572, 123.1631
302.9393, 118.6279
303.4214, 117.7498
303.9036, 119.3406
304.3857, 123.6313
304.8678, 129.7589
305.3499, 134.5942
305.8320, 135.8345
306.3141, 134.8386
306.7963, 132.9726
307.2784, 130.1113
307.7605, 127.3489
308.2426, 125.6472
308.7247, 124.7296
309.2068, 123.9375
309.6890, 123.4624
310.1711, 122.6289
310.6532, 121.3341
311.1353, 119.9148
311.6174, 116.1304
312.0995, 107.1573
312.5817, 95.10266
313.0638, 83.25433
313.5459, 71.43689
314.0280, 61.24274
314.5101, 54.27582
314.9922, 50.86353
315.4744, 47.42419
315.9565, 42.06531
316.4386, 35.88202
316.9207, 30.21014
317.4028, 26.07343
317.8849, 21.93329
318.3671, 16.96417
318.8492, 11.17157
319.3313, 5.904297
319.8134, 1.066101
320.2955, 2.817200
320.7776, 5.267334
321.2598, 5.301270
321.7419, 4.918091
322.2240, 4.443176
322.7061, 3.901855
323.1882, 3.364929
323.6703, 3.269531
324.1525, 2.909973
324.6346, 1.921082
325.1167, 0.7718510
325.5988, 1.685242
326.0809, 6.491333
326.5630, 12.77356
327.0452, 18.14667
327.5273, 21.24866
328.0094, 24.44751
328.4915, 28.65009
328.9736, 34.37073
329.4557, 39.89337
329.9379, 44.64771
330.4200, 49.39661
330.9021, 55.40540
331.3842, 64.27747
331.8663, 72.29462
332.3484, 77.95276
332.8306, 80.47662
333.3127, 85.23499
333.7948, 92.89624
334.2769, 102.2120
334.7590, 111.8752
335.2411, 122.2625
335.7233, 132.4116
336.2054, 142.0129
336.6875, 151.0555
337.1696, 159.6311
337.6517, 167.5418
338.1339, 175.6002
338.6160, 184.4982
339.0981, 194.5360
339.5802, 203.8877
340.0623, 212.4117
340.5444, 220.1511
341.0266, 226.4208
341.5087, 231.0221
341.9908, 234.8134
342.4729, 238.9012
342.9550, 243.3351
343.4371, 245.6674
343.9193, 245.3666
344.4014, 243.3365
344.8835, 241.0720
345.3656, 238.5140
345.8477, 235.4814
346.3298, 231.9785
346.8120, 228.0181
347.2941, 223.6224
347.7762, 218.7286
348.2583, 214.1207
348.7404, 211.1699
349.2225, 209.2264
349.7047, 205.8588
350.1868, 199.0406
350.6689, 190.9961
351.1510, 185.4875
351.6331, 182.4448
352.1152, 180.2717
352.5974, 177.5211
353.0795, 174.7621
353.5616, 172.9927
354.0437, 172.2894
354.5258, 172.9218
355.0079, 176.0076
355.4901, 181.0159
355.9722, 185.5682
356.4543, 187.0625
356.9364, 187.8928
357.4185, 190.7509
357.9006, 196.7673
358.3828, 203.1241
358.8649, 207.5759
359.3470, 211.1345
359.8291, 215.8722
360.3112, 223.0863
360.7933, 231.4501
361.2755, 240.1041
361.7576, 248.8354
362.2397, 258.7910
362.7218, 271.7645
363.2039, 285.6985
363.6860, 298.2995
364.1682, 308.8229
364.6503, 318.1334
365.1324, 326.4655
365.6145, 333.8795
366.0966, 339.6110
366.5787, 343.3532
367.0609, 345.4990
367.5430, 346.3004
368.0251, 345.8104
368.5072, 343.9210
368.9893, 340.1261
369.4714, 334.8820
369.9536, 329.7502
370.4357, 325.2151
370.9178, 320.2596
371.3999, 314.4417
371.8820, 307.1831
372.3641, 300.4061
372.8463, 294.1158
373.3284, 288.3770
373.8105, 283.4466
374.2926, 280.0450
374.7747, 275.7029
375.2568, 269.3862
375.7390, 261.0308
376.2211, 253.5550
376.7032, 247.2593
377.1853, 240.9993
377.6674, 233.7329
378.1495, 225.3996
378.6317, 215.2028
379.1138, 202.6392
379.5959, 188.5445
380.0780, 174.9532
380.5601, 161.9822
381.0422, 149.0624
381.5244, 135.2886
382.0065, 120.9621
382.4886, 108.6210
382.9707, 98.67438
383.4528, 89.93848
383.9349, 80.29156
384.4171, 70.02802
384.8992, 60.86127
385.3813, 53.94098
385.8634, 48.40698
386.3455, 42.53748
386.8276, 36.28729
387.3098, 30.45087
387.7919, 25.82098
388.2740, 21.95959
388.7561, 18.10327
389.2382, 13.44885
389.7203, 9.156982
390.2025, 6.409363
390.6846, 5.002869
391.1667, 3.928223
391.6488, 2.872620
392.1309, 1.787292
392.6130, 0.5267330
393.0952, 1.233887
393.5773, 2.449585
394.0594, 2.072205
394.5415, 0.8757930
395.0236, 0.2982790
395.5057, 1.445374
395.9879, 2.691650
396.4700, 3.229614
396.9521, 2.808777
397.4342, 2.913147
397.9163, 4.579895
398.3984, 6.479309
398.8806, 7.398376
399.3627, 5.764771
399.8448, 4.866211
400.3269, 5.444763
400.8090, 7.261353
401.2911, 8.496155
401.7733, 9.280212
402.2554, 9.356628
402.7375, 8.452820
403.2196, 5.956848
403.7017, 3.961792
404.1838, 2.410767
404.6660, 1.440308
405.1481, 1.667297
405.6302, 3.626526
406.1123, 4.789856
406.5944, 3.888062
407.0765, 1.052917
407.5587, 0.5444340
408.0408, 0.6210940
408.5229, 0.5574950
409.0050, 1.793945
409.4871, 4.261169
409.9692, 7.056030
410.4514, 10.03711
410.9335, 13.17560
411.4156, 16.66418
411.8977, 20.40979
412.3798, 23.71704
412.8619, 25.73315
413.3441, 27.01776
413.8262, 28.85327
414.3083, 31.55914
414.7904, 33.97919
415.2725, 34.60571
415.7546, 34.14221
416.2368, 34.05743
416.7189, 35.17719
417.2010, 36.82019
417.6831, 38.27014
418.1652, 39.56525
418.6473, 41.65820
419.1295, 46.03552
419.6116, 50.96167
420.0937, 54.73798
420.5758, 56.12549
421.0579, 57.65173
421.5400, 60.00555
422.0222, 63.14935
422.5043, 66.93091
422.9864, 72.32190
423.4685, 77.42169
423.9506, 81.39368
424.4327, 83.67920
424.9149, 86.51868
425.3970, 90.68054
425.8791, 95.04688
426.3612, 98.53558
426.8433, 100.5998
427.3254, 102.6870
427.8076, 105.6828
428.2897, 109.1128
428.7718, 109.3953
429.2539, 106.0567
429.7360, 100.5362
430.2181, 93.13086
430.7003, 83.37030
431.1824, 74.71088
431.6645, 67.21045
432.1466, 61.01709
432.6287, 56.89728
433.1108, 54.92517
433.5930, 53.22333
434.0751, 51.15063
434.5572, 48.81354
435.0393, 46.21558
435.5214, 43.34320
436.0035, 41.27307
436.4857, 41.49139
436.9678, 43.26495
437.4499, 44.97308
437.9320, 46.56934
438.4141, 47.34644
438.8962, 45.68665
439.3784, 42.40924
439.8605, 39.92822
440.3426, 39.73773
440.8247, 40.76270
441.3068, 42.40332
441.7889, 44.66144
442.2711, 46.57990
442.7532, 47.10828
443.2353, 47.27051
443.7174, 48.11261
444.1995, 50.07617
444.6816, 52.58905
445.1638, 55.98456
445.6459, 59.95355
446.1280, 63.23499
446.6101, 66.14966
447.0922, 67.89844
447.5743, 67.82172
448.0565, 64.60999
448.5386, 62.92651
449.0207, 63.69934
449.5028, 65.42499
449.9849, 66.14136
450.4670, 65.48853
450.9492, 64.56555
451.4313, 63.60571
451.9134, 62.71844
452.3955, 62.06372
452.8776, 61.71594
453.3597, 61.10144
453.8419, 59.55957
454.3240, 57.18567
454.8061, 56.00116
455.2882, 56.38446
455.7703, 57.22266
456.2524, 56.90338
456.7346, 55.63098
457.2167, 54.46814
457.6988, 53.97321
458.1809, 53.58710
458.6630, 52.59436
459.1451, 51.00861
459.6273, 48.59979
460.1094, 44.51453
460.5915, 39.84070
461.0736, 36.02356
461.5557, 33.41089
462.0378, 31.39563
462.5200, 29.88428
463.0021, 28.56921
463.4842, 26.90063
463.9663, 24.29895
464.4484, 21.89197
464.9305, 20.24677
465.4127, 19.31500
465.8948, 18.90649
466.3769, 20.20038
466.8590, 21.36005
467.3411, 20.99243
467.8232, 17.00446
468.3054, 14.04492
468.7875, 12.83459
469.2696, 12.65710
469.7517, 11.67401
470.2338, 9.323120
470.7159, 7.199890
471.1981, 5.981140
471.6802, 5.716248
472.1623, 4.886108
472.6444, 3.220825
473.1265, 1.718140
473.6086, 1.727539
474.0908, 3.211609
474.5729, 4.021240
475.0550, 3.708069
475.5371, 2.613403
476.0192, 0.7081300
476.5013, 1.780090
476.9835, 3.004456
477.4656, 0.1691280
477.9477, 3.948853
478.4298, 4.035461
478.9119, 0.2467650
479.3940, 4.235229
479.8762, 3.918884
480.3583, 1.202942
480.8404, 1.401062
481.3225, 3.106323
481.8046, 4.665161
482.2867, 6.355713
482.7689, 8.206238
483.2510, 10.27307
483.7331, 12.87671
484.2152, 15.47949
484.6973, 17.58600
485.1794, 18.85114
485.6616, 21.34351
486.1437, 26.27881
486.6258, 31.88147
487.1079, 36.85010
487.5900, 40.87170
488.0721, 44.81812
488.5543, 48.73883
489.0364, 52.62421
489.5185, 56.27094
490.0006, 59.35254
490.4827, 63.09137
490.9648, 68.25409
491.4470, 74.75812
491.9291, 80.57770
492.4112, 85.60742
492.8933, 90.30609
493.3754, 95.23914
493.8575, 100.2926
494.3397, 104.7859
494.8218, 108.3638
495.3039, 111.6694
495.7860, 115.5999
496.2681, 119.9808
496.7502, 124.1819
497.2324, 128.2794
497.7145, 131.8323
498.1966, 134.6471
498.6787, 136.7306
499.1608, 137.3947
499.6429, 135.5933
500.1251, 132.5698
500.6072, 129.3429
501.0893, 125.7871
501.5714, 122.5601
502.0535, 120.4818
502.5356, 118.7809
503.0178, 115.6937
503.4999, 109.5982
503.9820, 103.6546
504.4641, 98.64032
504.9462, 94.57300
505.4283, 91.01410
505.9105, 88.16211
506.3926, 85.58661
506.8747, 82.87567
507.3568, 79.93463
507.8389, 77.61267
508.3210, 76.04340
508.8032, 75.10938
509.2853, 74.53210
509.7674, 74.33203
510.2495, 74.96057
510.7316, 77.16797
511.2137, 80.07251
511.6959, 81.78717
512.1780, 82.34174
512.6601, 82.43036
513.1422, 81.74103
513.6243, 81.19775
514.1064, 82.15027
514.5886, 85.13208
515.0707, 88.52448
515.5528, 91.28528
516.0349, 93.83868
516.5170, 96.83575
516.9991, 100.8660
517.4813, 105.0072
517.9634, 109.0560
518.4455, 113.0046
518.9276, 116.8014
519.4097, 119.8001
519.8918, 123.1957
520.3740, 127.4036
520.8561, 132.4900
521.3382, 138.3002
521.8203, 145.2570
522.3024, 152.4240
522.7845, 158.5835
523.2667, 163.4029
523.7488, 169.0536
524.2309, 176.0710
524.7130, 183.9829
525.1951, 191.8381
525.6772, 199.6659
526.1594, 207.3677
526.6415, 215.1053
527.1236, 222.7452
527.6057, 229.8055
528.0878, 236.2517
528.5699, 242.5725
529.0521, 249.0359
529.5342, 255.5968
530.0163, 262.1401
530.4984, 268.3800
530.9805, 274.9820
531.4626, 282.3869
531.9448, 290.3549
532.4269, 298.3907
532.9090, 307.0506
533.3911, 315.1223
533.8732, 321.9168
534.3553, 327.2731
534.8375, 333.3958
535.3196, 340.8613
535.8017, 348.5376
536.2838, 355.8434
536.7659, 362.8679
537.2480, 369.2755
537.7302, 374.9290
538.2123, 380.2209
538.6944, 385.5380
539.1765, 390.9407
539.6586, 396.2837
540.1407, 401.5775
540.6229, 406.6938
541.1050, 411.1377
541.5871, 414.9559
542.0692, 418.3746
542.5513, 421.9698
543.0334, 425.2656
543.5156, 427.3335
543.9977, 428.0645
544.4798, 428.3342
544.9619, 428.7393
545.4440, 429.0845
545.9261, 429.1025
546.4083, 428.1460
546.8904, 427.6088
547.3725, 429.2012
547.8546, 431.4093
548.3367, 431.0874
548.8188, 426.2283
549.3010, 420.3662
549.7831, 414.1527
550.2652, 407.5562
550.7473, 400.5942
551.2294, 393.3439
551.7115, 385.6367
552.1937, 377.1637
552.6758, 367.8014
553.1579, 358.8502
553.6400, 350.5450
554.1221, 342.1654
554.6042, 332.6666
555.0864, 322.1817
555.5685, 311.5576
556.0506, 301.1517
556.5327, 290.8018
557.0148, 280.6133
557.4969, 270.3927
557.9791, 259.4147
558.4612, 246.2288
558.9433, 232.9601
559.4254, 221.5661
559.9075, 212.1333
560.3896, 203.3551
560.8718, 195.2285
561.3539, 187.3325
561.8360, 179.3837
562.3181, 171.1910
562.8002, 163.1440
563.2823, 155.1000
563.7645, 147.3044
564.2466, 140.2878
564.7287, 134.7758
565.2108, 128.5635
565.6929, 120.8307
566.1750, 112.0883
566.6572, 104.1721
567.1393, 97.12317
567.6214, 90.90063
568.1035, 85.40131
568.5856, 80.67615
569.0677, 77.03131
569.5499, 74.58154
570.0320, 71.99957
570.5141, 67.94342
570.9962, 62.98682
571.4783, 58.04547
571.9604, 53.20209
572.4426, 48.61047
572.9247, 44.17902
573.4068, 40.06641
573.8889, 36.44122
574.3710, 33.52948
574.8531, 31.01361
575.3353, 28.88757
575.8174, 27.14661
576.2995, 25.48730
576.7816, 24.04803
577.2637, 22.55249
577.7458, 20.75928
578.2280, 18.51514
578.7101, 16.95667
579.1922, 16.32733
579.6743, 15.84314
580.1564, 14.40826
580.6385, 12.11884
581.1207, 10.70349
581.6028, 10.65082
582.0849, 11.20093
582.5670, 11.43396
583.0491, 11.34882
583.5313, 10.91278
584.0134, 9.842896
584.4955, 8.614807
584.9776, 7.531738
585.4597, 6.628845
585.9418, 6.082764
586.4240, 6.546265
586.9061, 6.955322
587.3882, 6.520447
587.8703, 4.816589
588.3524, 3.626343
588.8345, 3.503845
589.3167, 3.748291
589.7988, 3.859863
590.2809, 3.893066
590.7630, 3.638428
591.2451, 2.991699
591.7272, 2.135925
592.2094, 1.380310
592.6915, 0.7382810
593.1736, 0.1925050
593.6557, 0.3316040
594.1378, 0.7109380
594.6199, 0.4650880
595.1021, 0.3249510
595.5842, 0.9477540
596.0663, 0.7166750
596.5484, 0.1859130
597.0305, 1.8066000E-02
597.5126, 0.2771000
597.9948, 0.5396120
598.4769, 0.9553220
598.9590, 1.061096
599.4411, 0.3538210
599.9232, 2.409851
600.4053, 4.101440
600.8875, 3.372070
601.3696, 1.605835
601.8517, 0.6966550
602.3338, 0.9487300
602.8159, 1.501221
603.2980, 2.426453
603.7802, 3.472595
604.2623, 3.490051
604.7444, 2.299316
605.2265, 1.597595
605.7086, 2.827148
606.1907, 5.267334
606.6729, 6.313416
607.1550, 5.982666
607.6371, 5.264160
608.1192, 4.622742
608.6013, 4.172424
609.0834, 4.255371
609.5656, 5.195007
610.0477, 5.795349
610.5298, 4.838623
611.0119, 3.332153
611.4940, 2.416321
611.9761, 3.363037
612.4583, 3.690491
612.9404, 2.428711
613.4225, 0.3931270
613.9046, 0.4997560
614.3867, 0.5512700
614.8688, 0.9883420
615.3510, 0.1344600
615.8331, 2.482910
616.3152, 3.997986
616.7973, 4.610229
617.2794, 5.106201
617.7615, 6.093506
618.2437, 7.356079
618.7258, 8.257019
619.2079, 8.714539
619.6900, 8.936218
620.1721, 8.915649
620.6542, 8.868469
621.1364, 9.065125
621.6185, 9.623840
622.1006, 10.31873
622.5827, 11.10870
623.0648, 11.91760
623.5469, 12.67285
624.0291, 13.12781
624.5112, 13.90521
624.9933, 15.37799
625.4754, 17.24005
625.9575, 18.32251
626.4396, 18.32422
626.9218, 18.49915
627.4039, 19.45435
627.8860, 21.00195
628.3681, 21.92511
628.8502, 22.22668
629.3323, 22.62000
629.8145, 23.68585
630.2966, 25.13550
630.7787, 26.46191
631.2608, 27.59619
631.7429, 28.96161
632.2250, 31.10040
632.7072, 33.48969
633.1893, 35.54846
633.6714, 36.58734
634.1535, 38.19824
634.6356, 41.22412
635.1177, 44.94922
635.5999, 48.29736
636.0820, 51.38025
636.5641, 53.84473
637.0462, 55.39172
637.5283, 56.33606
638.0104, 57.70905
638.4926, 59.55164
638.9747, 61.75812
639.4568, 64.28229
639.9389, 67.13690
640.4210, 70.47784
640.9031, 74.31262
641.3853, 78.13721
641.8674, 81.55627
642.3495, 84.79718
642.8316, 88.08337
643.3137, 91.47595
643.7958, 94.78156
644.2780, 97.78888
644.7601, 100.7542
645.2422, 103.9149
645.7243, 107.9620
646.2064, 111.1823
646.6885, 113.5175
647.1707, 114.9899
647.6528, 115.5999
648.1349, 115.3215
648.6170, 114.2433
649.0991, 112.3725
649.5812, 109.6818
650.0634, 105.7477
650.5455, 100.6201
651.0276, 95.58380
651.5097, 91.51636
651.9918, 87.64294
652.4739, 82.37848
652.9561, 76.10596
653.4382, 70.28198
653.9203, 66.06732
654.4024, 62.46521
654.8845, 58.92157
655.3666, 55.45111
655.8488, 51.63153
656.3309, 46.66095
656.8130, 41.85809
657.2951, 38.03143
657.7772, 35.44324
658.2593, 32.76031
658.7415, 30.05334
659.2236, 27.51007
659.7057, 25.28705
660.1878, 23.32947
660.6699, 21.24658
661.1520, 18.90607
661.6342, 16.61591
662.1163, 14.73260
662.5984, 13.38422
663.0805, 12.74011
663.5626, 13.52307
664.0447, 14.09106
664.5269, 13.34442
665.0090, 11.63434
665.4911, 9.779175
665.9732, 6.962708
666.4553, 5.069092
666.9374, 5.457642
667.4196, 7.837463
667.9017, 8.579773
668.3838, 7.159851
668.8659, 5.426636
669.3480, 4.151978
669.8301, 3.230408
670.3123, 2.597839
670.7944, 2.387024
671.2765, 2.347351
671.7586, 2.004517
672.2407, 1.486267
672.7228, 1.454346
673.2050, 2.162781
673.6871, 2.900696
674.1692, 3.034668
674.6513, 2.787354
675.1334, 2.414978
675.6155, 1.531006
676.0977, 1.174988
676.5798, 2.142029
677.0619, 3.592834
677.5440, 4.273804
678.0261, 3.899963
678.5082, 3.307129
678.9904, 2.426331
679.4725, 1.577332
679.9546, 1.768066
680.4367, 3.017639
680.9188, 4.078552
681.4009, 4.348694
681.8831, 4.155701
682.3652, 4.056335
682.8473, 4.028748
683.3294, 3.969604
683.8115, 3.691833
684.2936, 3.444214
684.7758, 3.606812
685.2579, 4.193787
685.7400, 4.136963
686.2221, 2.319153
686.7042, 0.4814450
687.1863, 0.4746700
687.6685, 0.3216550
688.1506, 0.2456670
688.6327, 0.3726810
689.1148, 0.3301390
689.5969, 0.3378300
690.0790, 1.576355
690.5612, 2.583923
691.0433, 3.260010
691.5254, 3.759949
692.0075, 4.277405
692.4896, 4.728394
692.9717, 4.920654
693.4539, 4.623230
693.9360, 4.405151
694.4181, 4.885437
694.9002, 5.595825
695.3823, 5.807861
695.8644, 4.351196
696.3466, 3.684448
696.8287, 4.541565
697.3108, 6.284546
697.7929, 7.273560
698.2750, 7.392517
698.7571, 7.334961
699.2393, 7.194885
699.7214, 7.106506
700.2035, 7.420654
700.6856, 8.154480
701.1677, 9.416626
701.6498, 11.84906
702.1320, 14.47217
702.6141, 16.02606
703.0962, 16.59088
703.5783, 17.17511
704.0604, 18.40906
704.5425, 19.65558
705.0247, 20.56091
705.5068, 21.06250
705.9889, 21.32428
706.4710, 21.06726
706.9531, 20.92383
707.4352, 21.47028
707.9174, 22.82709
708.3995, 23.41418
708.8816, 23.11212
709.3637, 22.51031
709.8458, 22.18579
710.3279, 22.05096
710.8101, 21.85394
711.2922, 21.53772
711.7743, 21.27875
712.2564, 21.28369
712.7385, 21.39716
713.2206, 21.42993
713.7028, 21.21643
714.1849, 21.10175
714.6670, 21.33441
715.1491, 21.62268
715.6312, 21.55658
716.1133, 20.99841
716.5955, 20.48413
717.0776, 20.16046
717.5597, 19.85510
718.0418, 19.06122
718.5239, 17.84113
719.0060, 16.92542
719.4882, 16.61829
719.9703, 16.70123
720.4524, 17.14203
720.9345, 17.77106
721.4166, 18.11035
721.8987, 17.57867
722.3809, 17.02557
722.8630, 16.86151
723.3451, 17.05933
723.8272, 17.26813
724.3093, 17.46283
724.7914, 17.74695
725.2736, 18.28693
725.7557, 19.00104
726.2378, 19.14246
726.7199, 18.68329
727.2020, 17.85236
727.6841, 16.46326
728.1663, 14.90588
728.6484, 14.30560
729.1305, 14.65320
729.6126, 14.70233
730.0947, 13.03876
730.5768, 11.12103
731.0590, 10.23303
731.5411, 10.74591
732.0232, 11.08325
732.5053, 10.81036
732.9874, 10.37091
733.4695, 9.991028
733.9517, 9.665039
734.4338, 9.448792
734.9159, 9.299133
735.3980, 9.359619
735.8801, 10.02325
736.3622, 11.07288
736.8444, 11.53516
737.3265, 11.18024
737.8086, 10.68176
738.2907, 10.83588
738.7728, 11.18066
739.2549, 11.08356
739.7371, 10.11670
740.2192, 9.154663
740.7013, 8.215637
741.1834, 7.525879
741.6655, 7.425903
742.1476, 8.398560
742.6298, 8.704224
743.1119, 7.803833
743.5940, 6.571289
744.0761, 6.885254
744.5582, 8.530029
745.0403, 9.495728
745.5225, 8.953003
746.0046, 7.973145
746.4867, 7.770142
746.9688, 8.146606
747.4509, 8.692017
747.9330, 9.694031
748.4152, 10.33600
748.8973, 10.13611
749.3794, 9.307251
749.8615, 8.577026
750.3436, 7.994934
750.8257, 7.496521
751.3079, 7.174988
751.7900, 6.895203
752.2721, 6.033081
752.7542, 4.596008
753.2363, 3.319336
753.7184, 2.421753
754.2006, 2.108948
754.6827, 3.101929
755.1648, 4.965027
755.6469, 6.151917
756.1290, 5.079590
756.6111, 3.846924
757.0933, 3.615417
757.5754, 4.315491
758.0575, 4.697876
758.5396, 4.535645
759.0217, 4.434570
759.5038, 4.545593
759.9860, 4.850952
760.4681, 5.454468
760.9502, 6.363037
761.4323, 7.451050
761.9144, 8.832031
762.3965, 10.27014
762.8787, 11.31238
763.3608, 11.94122
763.8429, 12.38477
764.3250, 12.70270
764.8071, 12.95392
765.2892, 13.10870
765.7714, 13.12256
766.2535, 13.21643
766.7356, 13.49554
767.2177, 13.80420
767.6998, 14.11090
768.1819, 14.44861
768.6641, 14.33942
769.1462, 13.74408
769.6283, 13.33313
770.1104, 13.81628
770.5925, 14.77820
771.0746, 15.34412
771.5568, 15.44983
772.0389, 15.92847
772.5210, 17.82056
773.0031, 19.89429
773.4852, 20.98499
773.9673, 20.39240
774.4495, 20.52563
774.9316, 22.00110
775.4137, 23.76740
775.8958, 25.04614
776.3779, 25.79510
776.8600, 26.18512
777.3422, 26.17896
777.8243, 25.90881
778.3064, 25.13940
778.7885, 24.33728
779.2706, 24.63611
779.7527, 26.45697
780.2349, 27.75690
780.7170, 26.61749
781.1991, 24.79926
781.6812, 23.85248
782.1633, 24.44586
782.6454, 25.20630
783.1276, 26.43921
783.6097, 27.51691
784.0918, 27.60211
784.5739, 26.67377
785.0560, 26.51514
785.5381, 27.44641
786.0203, 28.31512
786.5024, 27.30615
786.9845, 25.50525
787.4666, 24.94299
787.9487, 26.49780
788.4308, 27.86597
788.9130, 27.30725
789.3951, 26.34033
789.8772, 26.60797
790.3593, 29.68494
790.8414, 31.23651
791.3235, 30.70740
791.8057, 29.33594
792.2878, 28.42041
792.7699, 27.94977
793.2520, 28.03320
793.7341, 28.79150
794.2162, 29.62476
794.6984, 30.01721
795.1805, 30.01428
795.6626, 29.67291
796.1447, 28.93427
796.6268, 28.06659
797.1089, 27.00470
797.5911, 25.94861
798.0732, 25.16351
798.5553, 24.98975
799.0374, 24.21454
799.5195, 22.54034
800.0016, 20.73444
800.4838, 19.80194
800.9659, 19.61224
801.4480, 19.47711
801.9301, 19.33148
802.4122, 19.05322
802.8943, 18.32068
803.3765, 17.43073
803.8586, 16.77972
804.3407, 16.57428
804.8228, 16.43597
805.3049, 16.52191
805.7870, 16.48877
806.2692, 15.89496
806.7513, 14.48242
807.2334, 13.55206
807.7155, 13.34094
808.1976, 13.25885
808.6797, 12.53845
809.1619, 11.32214
809.6440, 10.07404
810.1261, 8.952209
810.6082, 7.518494
811.0903, 4.906372
811.5724, 2.084229
812.0546, 0.1422730
812.5367, 0.1608280
813.0188, 0.3591310
813.5009, 0.7351680
813.9830, 0.8814700
814.4651, 5.2062999E-02
814.9473, 1.907959
815.4294, 2.745117
815.9115, 2.092529
816.3936, 0.9702760
816.8757, 0.4756470
817.3578, 0.3674930
817.8400, 0.2373660
818.3221, 6.7750001E-03
818.8042, 0.2749020
819.2863, 0.7069090
819.7684, 1.127441
820.2505, 1.374084
820.7327, 1.343201
821.2148, 1.473511
821.6969, 1.915039
822.1790, 2.275635
822.6611, 2.014954
823.1432, 1.254395
823.6254, 0.8023680
824.1075, 0.7534790
824.5896, 0.9171140
825.0717, 1.067749
825.5538, 1.361145
826.0359, 2.065857
826.5181, 3.420288
827.0002, 4.467285
827.4823, 4.512695
827.9644, 4.528198
828.4465, 5.195862
828.9286, 6.695801
829.4108, 8.022766
829.8929, 9.262329
830.3750, 9.841003
830.8571, 8.523376
831.3392, 6.321594
831.8214, 5.583252
832.3035, 6.599976
832.7856, 7.707520
833.2677, 8.107361
833.7498, 8.033997
834.2319, 7.528381
834.7141, 6.377686
835.1962, 5.844727
835.6783, 6.208618
836.1604, 6.756592
836.6425, 7.122070
837.1246, 7.302002
837.6068, 7.177063
838.0889, 6.747986
838.5710, 6.036804
839.0531, 4.864624
839.5352, 3.533936
840.0173, 2.436951
840.4995, 1.573486
840.9816, 0.5104980
841.4637, 1.105835
841.9458, 2.756653
842.4279, 4.149841
842.9100, 5.294312
843.3922, 6.964722
843.8743, 9.286438
844.3564, 11.41351
844.8385, 12.78186
845.3206, 13.60754
845.8027, 14.30865
846.2849, 14.89465
846.7670, 15.39807
847.2491, 15.56042
847.7312, 15.90710
848.2133, 17.01306
848.6954, 18.75128
849.1776, 19.73248
849.6597, 19.58160
850.1418, 19.37744
850.6239, 19.20129
851.1060, 19.37872
851.5881, 21.43353
852.0703, 25.13531
852.5524, 28.51605
853.0345, 30.25061
853.5166, 31.49677
853.9987, 33.49176
854.4808, 35.84662
854.9630, 37.59399
855.4451, 37.62799
855.9272, 37.97375
856.4093, 39.24969
856.8914, 40.95355
857.3735, 42.21252
857.8557, 43.07391
858.3378, 42.70636
858.8199, 40.50092
859.3020, 37.78448
859.7841, 36.73779
860.2662, 36.65546
860.7484, 36.05591
861.2305, 33.80725
861.7126, 31.91022
862.1947, 31.72076
862.6768, 32.06604
863.1589, 31.18103
863.6411, 28.29913
864.1232, 26.44189
864.6053, 26.06262
865.0874, 26.32611
865.5695, 26.27649
866.0516, 25.96295
866.5338, 25.48431
867.0159, 24.79230
867.4980, 24.27960
867.9801, 23.93665
868.4622, 24.07123
868.9443, 25.05420
869.4265, 27.59229
869.9086, 29.22437
870.3907, 29.60498
870.8728, 29.84375
871.3549, 30.96619
871.8370, 32.88361
872.3192, 34.07550
872.8013, 34.54108
873.2834, 35.39301
873.7655, 37.55316
874.2476, 40.49683
874.7297, 44.05902
875.2119, 48.29053
875.6940, 51.81421
876.1761, 52.91772
876.6582, 54.67944
877.1403, 58.75427
877.6224, 64.85681
878.1046, 68.59186
878.5867, 69.82068
879.0688, 71.77386
879.5509, 76.82117
880.0330, 83.40686
880.5151, 89.38306
880.9973, 94.99561
881.4794, 101.0695
881.9615, 108.0742
882.4436, 115.4317
882.9257, 122.7709
883.4078, 130.2635
883.8900, 138.8417
884.3721, 148.4417
884.8542, 159.3405
885.3363, 171.9580
885.8184, 185.4904
886.3005, 198.0904
886.7827, 210.4321
887.2648, 224.1829
887.7469, 240.0630
888.2290, 257.2529
888.7111, 275.7098
889.1932, 295.3297
889.6754, 315.7480
890.1575, 336.1194
890.6396, 358.6711
891.1217, 383.7277
891.6038, 410.3776
892.0859, 437.2462
892.5681, 465.0217
893.0502, 496.2610
893.5323, 531.4034
894.0144, 567.3926
894.4965, 600.9340
894.9786, 634.6356
895.4608, 671.2926
895.9429, 711.6689
896.4250, 752.2287
896.9071, 791.8577
897.3892, 833.2824
897.8713, 878.4413
898.3535, 926.9885
898.8356, 974.5709
899.3177, 1021.247
899.7998, 1068.260
900.2819, 1118.072
900.7640, 1167.682
901.2462, 1215.572
901.7283, 1261.366
902.2104, 1306.683
902.6925, 1352.521
903.1746, 1395.418
903.6567, 1435.161
904.1389, 1471.026
904.6210, 1502.886
905.1031, 1530.229
905.5852, 1549.736
906.0673, 1558.735
906.5494, 1561.158
907.0316, 1561.036
907.5137, 1556.770
907.9958, 1545.460
908.4779, 1524.609
908.9600, 1498.515
909.4421, 1467.119
909.9243, 1431.473
910.4064, 1390.801
910.8885, 1345.566
911.3706, 1300.928
911.8527, 1257.431
912.3348, 1216.089
912.8170, 1176.958
913.2991, 1141.024
913.7812, 1109.214
914.2633, 1081.461
914.7454, 1059.060
915.2275, 1042.720
915.7097, 1030.825
916.1918, 1022.382
916.6739, 1017.417
917.1560, 1017.577
917.6381, 1022.864
918.1202, 1032.424
918.6024, 1045.916
919.0845, 1063.193
919.5666, 1084.801
920.0487, 1110.200
920.5308, 1137.463
921.0129, 1165.250
921.4951, 1195.929
921.9772, 1230.166
922.4593, 1267.781
922.9414, 1309.096
923.4235, 1353.708
923.9056, 1398.708
924.3878, 1443.150
924.8699, 1487.567
925.3520, 1534.402
925.8341, 1581.570
926.3162, 1626.557
926.7983, 1668.776
927.2805, 1708.584
927.7626, 1748.089
928.2447, 1784.107
928.7268, 1813.917
929.2089, 1837.515
929.6910, 1852.615
930.1732, 1859.014
930.6553, 1856.559
931.1374, 1844.803
931.6195, 1824.238
932.1016, 1794.385
932.5837, 1755.541
933.0659, 1710.532
933.5480, 1659.862
934.0301, 1603.281
934.5122, 1539.956
934.9943, 1470.327
935.4764, 1400.975
935.9586, 1331.073
936.4407, 1263.045
936.9228, 1196.445
937.4049, 1131.770
937.8870, 1068.969
938.3691, 1008.107
938.8513, 950.9440
939.3334, 897.4110
939.8155, 847.5228
940.2976, 802.0844
940.7797, 760.0054
941.2618, 721.2363
941.7440, 685.6435
942.2261, 650.6899
942.7082, 615.3320
943.1903, 581.5573
943.6724, 551.4575
944.1545, 524.4546
944.6367, 499.7760
945.1188, 477.5906
945.6009, 456.8950
946.0830, 437.7526
946.5651, 419.6130
947.0472, 402.2015
947.5294, 385.3392
948.0115, 369.4478
948.4936, 354.5064
948.9757, 340.8975
949.4578, 329.5709
949.9399, 319.0323
950.4221, 307.9818
950.9042, 296.6593
951.3863, 286.4247
951.8684, 277.4735
952.3505, 269.3450
952.8326, 261.9933
953.3148, 255.3950
953.7969, 249.6498
954.2790, 244.6567
954.7611, 239.9510
955.2432, 235.4575
955.7253, 231.6368
956.2075, 229.3912
956.6896, 227.3682
957.1717, 224.1699
957.6538, 219.0306
958.1359, 215.1588
958.6180, 213.1958
959.1002, 210.8975
959.5823, 206.3165
960.0644, 199.9772
960.5465, 193.6082
961.0286, 187.2610
961.5107, 181.0157
961.9929, 175.6537
962.4750, 169.4986
962.9571, 160.7616
963.4392, 150.4739
963.9213, 142.1584
964.4034, 136.3766
964.8856, 130.6356
965.3677, 124.2735
965.8498, 117.7956
966.3319, 111.7689
966.8140, 106.2100
967.2961, 101.3732
967.7783, 97.51086
968.2604, 93.71405
968.7425, 89.34058
969.2246, 85.08667
969.7067, 81.45349
970.1888, 78.59839
970.6710, 75.64343
971.1531, 72.57831
971.6352, 69.72791
972.1173, 67.45166
972.5994, 65.51770
973.0815, 63.70367
973.5637, 61.95844
974.0458, 60.04626
974.5279, 57.76752
975.0100, 55.45758
975.4921, 53.19220
975.9742, 50.94092
976.4564, 48.64197
976.9385, 46.27563
977.4206, 43.63788
977.9027, 40.52142
978.3848, 37.76428
978.8669, 36.45844
979.3491, 35.83179
979.8312, 34.98853
980.3133, 33.84424
980.7954, 32.22314
981.2775, 29.90381
981.7596, 27.45685
982.2418, 25.19104
982.7239, 23.09479
983.2060, 21.00494
983.6881, 18.96722
984.1702, 17.46277
984.6523, 17.39667
985.1345, 17.34137
985.6166, 16.53223
986.0987, 14.98108
986.5808, 12.90082
987.0629, 9.975403
987.5450, 7.562134
988.0272, 5.991760
988.5093, 4.881226
988.9914, 3.994751
989.4735, 3.086365
989.9556, 1.483826
990.4377, 1.234436
990.9199, 3.408936
991.4020, 4.103027
991.8841, 4.187256
992.3662, 4.218506
992.8483, 4.185974
993.3304, 4.069336
993.8126, 3.864258
994.2947, 3.661926
994.7768, 3.425232
995.2589, 3.297852
995.7410, 3.558105
996.2231, 4.081970
996.7053, 4.525818
997.1874, 4.628723
997.6695, 4.860046
998.1516, 5.281799
998.6337, 5.867920
999.1158, 6.865112
999.5980, 8.123108
1000.080, 8.229858
1000.562, 6.832947
1001.044, 5.742981
1001.526, 6.958252
1002.009, 8.623657
1002.491, 9.113159
1002.973, 8.166626
1003.455, 7.356750
1003.937, 6.675476
1004.419, 6.125610
1004.901, 5.679504
1005.383, 5.385132
1005.865, 5.477356
1006.348, 5.818665
1006.830, 6.034241
1007.312, 6.024780
1007.794, 5.788940
1008.276, 5.211609
1008.758, 4.495728
1009.240, 3.872742
1009.722, 3.376282
1010.205, 2.656006
1010.687, 1.669312
1011.169, 0.6464840
1011.651, 0.5595090
1012.133, 1.466370
1012.615, 1.165039
1013.097, 0.2796630
1013.579, 0.6923830
1014.061, 1.022156
1014.544, 2.563049
1015.026, 3.339539
1015.508, 3.465515
1015.990, 2.836487
1016.472, 1.735596
1016.954, 1.406677
1017.436, 2.529663
1017.918, 3.724426
1018.401, 3.855347
1018.883, 3.811218
1019.365, 4.574341
1019.847, 6.438660
1020.329, 7.726746
1020.811, 8.378052
1021.293, 8.808105
1021.775, 9.379761
1022.257, 9.884155
1022.740, 9.824585
1023.222, 9.371338
1023.704, 9.184387
1024.186, 9.065308
1024.668, 9.883301
1025.150, 12.14252
1025.632, 15.03540
1026.114, 17.35858
1026.596, 19.08832
1027.079, 20.26733
1027.561, 20.85803
1028.043, 21.23242
1028.525, 21.24622
1029.007, 21.50433
1029.489, 22.91125
1029.971, 25.63300
1030.453, 26.62897
1030.936, 25.21289
1031.418, 24.40607
1031.900, 25.69965
1032.382, 28.15479
1032.864, 30.13043
1033.346, 31.75049
1033.828, 33.25549
1034.310, 34.41711
1034.792, 35.96466
1035.275, 38.47870
1035.757, 41.09064
1036.239, 43.04572
1036.721, 44.33563
1037.203, 45.43134
1037.685, 46.34430
1038.167, 47.84961
1038.649, 51.01703
1039.132, 54.59070
1039.614, 57.65674
1040.096, 60.24603
1040.578, 62.76770
1041.060, 65.05988
1041.542, 67.80396
1042.024, 71.15802
1042.506, 75.01495
1042.989, 79.35529
1043.471, 84.09039
1043.953, 89.02850
1044.435, 94.15143
1044.917, 99.66376
1045.399, 106.6364
1045.881, 112.9940
1046.363, 117.0790
1046.845, 119.4399
1047.328, 124.9150
1047.810, 133.3865
1048.292, 141.5574
1048.774, 147.8353
1049.256, 153.4050
1049.738, 158.8365
1050.220, 164.3929
1050.702, 170.5587
1051.184, 177.5220
1051.667, 184.7296
1052.149, 192.2525
1052.631, 199.7696
1053.113, 207.1168
1053.595, 214.3464
1054.077, 221.7022
1054.559, 229.1502
1055.041, 236.4161
1055.523, 243.8702
1056.006, 250.4323
1056.488, 255.6393
1056.970, 260.0388
1057.452, 264.8434
1057.934, 270.0341
1058.416, 274.8346
1058.898, 279.0382
1059.380, 282.8994
1059.863, 286.8143
1060.345, 290.3708
1060.827, 293.0856
1061.309, 294.9125
1061.791, 296.8874
1062.273, 299.1081
1062.755, 300.9526
1063.237, 302.2845
1063.719, 302.8134
1064.202, 302.0843
1064.684, 300.2497
1065.166, 297.5915
1065.648, 294.1623
1066.130, 290.0096
1066.612, 285.2562
1067.094, 279.7332
1067.576, 273.2585
1068.059, 265.8586
1068.541, 257.9213
1069.023, 249.4321
1069.505, 240.3962
1069.987, 230.4648
1070.469, 220.2886
1070.951, 210.2316
1071.433, 200.3395
1071.916, 190.8390
1072.398, 181.7827
1072.880, 172.8734
1073.362, 164.0602
1073.844, 155.8098
1074.326, 148.8083
1074.808, 142.6498
1075.290, 137.0442
1075.772, 131.9811
1076.255, 127.1240
1076.737, 122.4783
1077.219, 118.0216
1077.701, 113.6733
1078.183, 109.7094
1078.665, 106.9366
1079.147, 104.9686
1079.629, 102.9548
1080.111, 100.6646
1080.594, 98.22266
1081.076, 95.13043
1081.558, 92.41925
1082.040, 91.01556
1082.522, 90.67743
1083.004, 89.38660
1083.486, 87.19324
1083.968, 84.78589
1084.450, 82.39728
1084.933, 80.07202
1085.415, 78.07153
1085.897, 76.06757
1086.379, 73.42719
1086.861, 69.87250
1087.343, 66.61377
1087.825, 63.68713
1088.307, 61.26056
1088.790, 60.15601
1089.272, 59.18665
1089.754, 56.57776
1090.236, 52.62048
1090.718, 49.24420
1091.200, 46.85425
1091.682, 44.99042
1092.164, 43.69025
1092.646, 42.66919
1093.129, 41.85712
1093.611, 40.96167
1094.093, 38.73132
1094.575, 34.77271
1095.057, 31.71643
1095.539, 31.30804
1096.021, 31.58966
1096.503, 31.91357
1096.986, 32.18573
1097.468, 31.99377
1097.950, 31.36230
1098.432, 30.36456
1098.914, 28.72607
1099.396, 27.53564
1099.878, 27.97345
1100.360, 28.99524
1100.843, 29.55792
1101.325, 29.57904
1101.807, 29.82922
1102.289, 30.36938
1102.771, 30.52051
1103.253, 29.73413
1103.735, 28.56512
1104.217, 27.35419
1104.699, 26.25256
1105.182, 25.59283
1105.664, 25.68561
1106.146, 25.85046
1106.628, 26.19928
1107.110, 26.35724
1107.592, 25.43945
1108.074, 24.21893
1108.556, 24.62091
1109.038, 26.32892
1109.521, 27.56024
1110.003, 27.04425
1110.485, 26.80682
1110.967, 27.53705
1111.449, 28.47064
1111.931, 28.19775
1112.413, 27.03094
1112.895, 26.10986
1113.377, 25.56012
1113.860, 25.41608
1114.342, 26.13037
1114.824, 26.82593
1115.306, 27.03345
1115.788, 26.84790
1116.270, 26.52228
1116.752, 26.05768
1117.234, 25.54620
1117.717, 24.99561
1118.199, 24.46753
1118.681, 24.16595
1119.163, 23.80237
1119.645, 23.06586
1120.127, 21.92914
1120.609, 20.70630
1121.091, 19.37299
1121.573, 18.05731
1122.056, 16.77533
1122.538, 15.59302
1123.020, 14.57861
1123.502, 13.69281
1123.984, 12.88074
1124.466, 12.20154
1124.948, 11.41791
1125.430, 10.45496
1125.913, 9.592041
1126.395, 8.952087
1126.877, 8.586426
1127.359, 9.050415
1127.841, 9.886780
1128.323, 9.799988
1128.805, 7.007446
1129.287, 5.169250
1129.770, 5.089172
1130.252, 5.540405
1130.734, 5.410767
1131.216, 4.816589
1131.698, 3.803589
1132.180, 2.488342
1132.662, 1.888062
1133.144, 3.760132
1133.626, 5.034180
1134.109, 4.153687
1134.591, 2.388794
1135.073, 1.698669
1135.555, 1.991089
1136.037, 2.096130
1136.519, 1.879639
1137.001, 1.812134
1137.483, 2.926697
1137.965, 3.660400
1138.448, 2.494629
1138.930, 0.1805420
1139.412, 0.9443360
1139.894, 0.8217160
1140.376, 0.5731810
1140.858, 0.4270020
1141.340, 0.1927490
1141.822, 0.6929930
1142.304, 1.471558
1142.787, 1.222351
1143.269, 8.4778003E-02
1143.751, 0.7355350
1144.233, 0.6500850
1144.715, 0.3217160
1145.197, 0.1530760
1145.679, 0.5866090
1146.161, 0.7432860
1146.644, 0.7105710
1147.126, 0.5257570
1147.608, 4.6021000E-02
1148.090, 0.1624760
1148.572, 1.158203
1149.054, 1.882263
1149.536, 1.721497
1150.018, 1.020935
1150.500, 5.1270001E-02
1150.983, 0.9238280
1151.465, 1.367065
1151.947, 0.7892460
1152.429, 0.3428340
1152.911, 9.3079001E-02
1153.393, 3.2960000E-03
1153.875, 0.2059330
1154.357, 0.4891970
1154.840, 0.1265870
1155.322, 0.6698610
1155.804, 1.213745
1156.286, 0.9795530
1156.768, 0.8287960
1157.250, 0.8822630
1157.732, 1.056580
1158.214, 1.409302
1158.697, 1.819275
1159.179, 1.705627
1159.661, 1.120361
1160.143, 0.4607540
1160.625, 0.4682620
1161.107, 0.9286500
1161.589, 0.5960080
1162.071, 0.1704100
1162.553, 1.268250
1163.036, 2.502502
1163.518, 2.303955
1164.000, 0.6455080
1164.482, 0.9909060
1164.964, 2.109192
1165.446, 2.510925
1165.928, 1.732178
1166.410, 0.3854370
1166.892, 0.5442500
1167.375, 1.062134
1167.857, 0.8380130
1168.339, 0.2216190
1168.821, 0.7440800
1169.303, 0.8736570
1169.785, 2.771729
1170.267, 3.935913
1170.749, 4.383728
1171.231, 3.914673
1171.714, 2.531006
1172.196, 1.608276
1172.678, 1.449280
1173.160, 1.666138
1173.642, 2.301575
1174.124, 2.874207
1174.606, 2.827759
1175.088, 2.318420
1175.571, 2.329407
1176.053, 2.901733
1176.535, 3.304565
1177.017, 3.255127
1177.499, 3.178223
1177.981, 3.901306
1178.463, 4.591125
1178.945, 4.213318
1179.427, 2.741943
1179.910, 1.978882
1180.392, 1.996521
1180.874, 1.861633
1181.356, 1.087708
1181.838, 0.3286130
1182.320, 0.3901370
1182.802, 0.8244630
1183.284, 1.059631
1183.767, 0.9301150
1184.249, 1.086487
1184.731, 1.610596
1185.213, 1.927307
1185.695, 1.687744
1186.177, 1.235535
1186.659, 0.9545900
1187.141, 0.7416380
1187.624, 0.4541630
1188.106, 7.8795999E-02
1188.588, 0.5556640
1189.070, 1.551941
1189.552, 1.994934
1190.034, 1.049194
1190.516, 0.2919920
1190.998, 0.8204960
1191.480, 0.8235470
1191.963, 0.7526860
1192.445, 0.5244140
1192.927, 0.6693730
1193.409, 1.260681
1193.891, 1.853760
1194.373, 2.209534
1194.855, 2.326904
1195.337, 1.761353
1195.819, 1.027527
1196.302, 1.386902
1196.784, 4.103027
1197.266, 5.145203
1197.748, 4.185913
1198.230, 3.038025
1198.712, 3.153503
1199.194, 3.826782
1199.676, 4.471130
1200.158, 4.919312
1200.641, 4.708069
1201.123, 3.397827
1201.605, 2.252625
1202.087, 1.290833
1202.569, 0.8967290
1203.051, 1.686462
1203.533, 3.039734
1204.015, 4.358459
1204.498, 5.533936
1204.980, 6.322510
1205.462, 6.743164
1205.944, 6.589111
1206.426, 5.689575
1206.908, 4.805969
1207.390, 4.791016
1207.872, 5.168457
1208.354, 5.395935
1208.837, 5.410278
1209.319, 5.226807
1209.801, 4.625366
1210.283, 4.703369
1210.765, 5.727417
1211.247, 6.826843
1211.729, 7.223694
1212.211, 7.072815
1212.694, 6.425354
1213.176, 5.384094
1213.658, 4.502319
1214.140, 3.752258
1214.622, 3.384155
1215.104, 3.459229
1215.586, 3.857788
1216.068, 4.913452
1216.551, 5.921387
1217.033, 5.934570
1217.515, 5.010925
1217.997, 4.013428
1218.479, 2.849121
1218.961, 2.047180
1219.443, 1.730652
1219.925, 1.907349
1220.407, 2.956177
1220.890, 4.162720
1221.372, 4.669434
1221.854, 4.453735
1222.336, 4.173950
1222.818, 3.830750
1223.300, 3.522766
1223.782, 3.346008
1224.264, 3.250427
1224.746, 2.904114
1225.229, 2.640015
1225.711, 3.012573
1226.193, 3.934631
1226.675, 4.173523
1227.157, 3.670776
1227.639, 3.293396
1228.121, 3.297485
1228.603, 3.268616
1229.085, 2.534851
1229.568, 1.666443
1230.050, 1.102478
1230.532, 0.8980710
1231.014, 1.167053
1231.496, 1.987488
1231.978, 2.641846
1232.460, 3.016724
1232.942, 2.914368
1233.425, 1.498779
1233.907, 4.5959000E-02
1234.389, 0.1634520
1234.871, 0.6965940
1235.353, 1.380066
1235.835, 1.888550
1236.317, 2.126099
1236.799, 2.045593
1237.281, 1.823669
1237.764, 1.453796
1238.246, 1.140259
1238.728, 1.204529
1239.210, 1.493347
1239.692, 1.061707
1240.174, 5.4319999E-03
1240.656, 0.3521730
1241.138, 0.4537960
1241.621, 1.350586
1242.103, 1.472778
1242.585, 1.498352
1243.067, 2.057434
1243.549, 2.836731
1244.031, 2.419861
1244.513, 0.9973750
1244.995, 0.2477420
1245.478, 0.5666500
1245.960, 0.6870730
1246.442, 6.5796003E-02
1246.924, 0.4982300
1247.406, 0.1455080
1247.888, 1.404907
1248.370, 1.689148
1248.852, 1.255371
1249.334, 1.260071
1249.817, 2.038696
1250.299, 2.957764
1250.781, 4.130066
1251.263, 4.887390
1251.745, 4.964355
1252.227, 4.471497
1252.709, 3.428345
1253.191, 2.098450
1253.673, 1.191223
1254.156, 0.9066160
1254.638, 0.5919800
1255.120, 0.2360840
1255.602, 0.7030030
1256.084, 0.4470830
1256.566, 0.2384640
1257.048, 0.9688720
1257.530, 1.621033
1258.012, 1.793152
1258.495, 1.321411
1258.977, 1.467896
1259.459, 2.789001
1259.941, 3.799011
1260.423, 3.953247
1260.905, 3.703674
1261.387, 3.706055
1261.869, 3.848694
1262.352, 3.987366
1262.834, 4.108521
1263.316, 4.098694
1263.798, 3.859619
1264.280, 3.898987
1264.762, 4.485229
1265.244, 5.049072
1265.726, 4.796570
1266.208, 4.196899
1266.691, 3.609070
1267.173, 3.151062
1267.655, 3.820618
1268.137, 5.848083
1268.619, 6.517822
1269.101, 4.933044
1269.583, 3.060852
1270.065, 2.594543
1270.548, 2.842468
1271.030, 3.565491
1271.512, 4.367126
1271.994, 4.308167
1272.476, 3.317017
1272.958, 2.275513
1273.440, 1.231384
1273.922, 1.088806
1274.405, 3.983154
1274.887, 6.490662
1275.369, 6.777039
1275.851, 5.347412
1276.333, 3.356873
1276.815, 1.128296
1277.297, 0.7108760
1277.779, 2.623047
1278.261, 4.133118
1278.744, 3.239441
1279.226, 2.121399
1279.708, 1.924683
1280.190, 2.286987
1280.672, 3.257813
1281.154, 4.428406
1281.636, 4.486938
1282.118, 3.253845
1282.600, 2.361511
1283.083, 2.408020
1283.565, 2.729858
1284.047, 3.412537
1284.529, 3.778809
1285.011, 2.156860
1285.493, 3.9246000E-02
1285.975, 0.3690800
1286.457, 1.249084
1286.939, 2.359436
1287.422, 2.751221
1287.904, 2.560425
1288.386, 1.708679
1288.868, 0.8903200
1289.350, 0.7435910
1289.832, 0.9886470
1290.314, 1.704102
1290.796, 2.664551
1291.279, 3.017151
1291.761, 2.654297
1292.243, 2.722656
1292.725, 3.418762
1293.207, 3.855042
1293.689, 2.733276
1294.171, 1.291443
1294.653, 1.915833
1295.135, 3.091614
1295.618, 2.410767
1296.100, 0.1743770
1296.582, 0.1998900
1297.064, 1.494995
1297.546, 2.830383
1298.028, 1.507996
1298.510, 0.5893550
1298.992, 1.210205
1299.475, 1.719299
1299.957, 2.157471
1300.439, 1.976196
1300.921, 1.223633
1301.403, 0.1652830
1301.885, 0.0000000E+00
##END=



