##NAMES=Pentahydrite
##RRUFFID=R100022
##IDEAL CHEMISTRY=MgSO_4_&#183;5H_2_O
##LOCALITY=Leopoldshall, Stassfurt, Stassfurt Deposit, Saxony-Anhalt, Germany
##OWNER=RRUFF
##SOURCE=Michael Scott 
##DESCRIPTION=Colorless well-formed tabular crystals associated with carnallite R070291 and kainite R100021.
##STATUS=The identification of this mineral has been confirmed by single-crystal X-ray diffraction.
##URL=rruff.info/R100022
92.62732, 0.0000000E+00
93.10944, 3.369781
93.59155, 5.543732
94.07367, 8.957520
94.55579, 14.19049
95.03790, 18.30832
95.52002, 16.46078
96.00214, 7.401581
96.48425, 1.047638
96.96637, 1.175507
97.44849, 4.867584
97.93060, 7.126740
98.41272, 7.597977
98.89484, 6.524017
99.37695, 5.437363
99.85907, 5.219177
100.3412, 4.665344
100.8233, 3.026596
101.3054, 0.9332730
101.7875, 0.5094450
102.2697, 0.8100890
102.7518, 3.6559999E-02
103.2339, 1.068604
103.7160, 1.955933
104.1981, 3.148575
104.6802, 5.158279
105.1624, 7.961441
105.6445, 11.01117
106.1266, 13.89627
106.6087, 16.38959
107.0908, 17.56537
107.5729, 16.47804
108.0551, 14.49091
108.5372, 13.27493
109.0193, 13.19453
109.5014, 13.52696
109.9835, 13.38773
110.4656, 12.66864
110.9478, 12.07724
111.4299, 12.51044
111.9120, 14.02893
112.3941, 15.01273
112.8762, 15.02222
113.3583, 15.94313
113.8405, 18.19997
114.3226, 20.09880
114.8047, 22.22803
115.2868, 23.83284
115.7689, 24.63509
116.2510, 24.91673
116.7332, 24.85715
117.2153, 24.63385
117.6974, 23.69354
118.1795, 21.45743
118.6616, 18.94299
119.1437, 17.39981
119.6259, 17.70811
120.1080, 17.99815
120.5901, 18.24689
121.0722, 18.25812
121.5543, 17.94255
122.0364, 17.26151
122.5186, 16.21773
123.0007, 14.87163
123.4828, 12.97466
123.9649, 11.13931
124.4470, 9.650116
124.9291, 8.424759
125.4113, 7.135910
125.8934, 5.405014
126.3755, 3.466248
126.8576, 2.191833
127.3397, 1.894562
127.8218, 2.094406
128.3040, 2.550079
128.7861, 3.368240
129.2682, 3.836273
129.7503, 2.971054
130.2324, 1.418991
130.7145, 0.2179260
131.1967, 1.7639000E-02
131.6788, 0.4821470
132.1609, 0.5989070
132.6430, 0.2987820
133.1251, 0.3190000
133.6072, 1.637924
134.0894, 3.214874
134.5715, 4.137558
135.0536, 3.378265
135.5357, 0.6847530
136.0178, 0.9595950
136.4999, 0.2615660
136.9821, 0.5213320
137.4642, 0.5330810
137.9463, 0.2035680
138.4284, 1.136932
138.9105, 1.653152
139.3926, 1.661774
139.8748, 1.462387
140.3569, 0.8727420
140.8390, 0.2171780
141.3211, 0.4509430
141.8032, 1.052094
142.2853, 1.288818
142.7675, 0.5765230
143.2496, 2.083725
143.7317, 3.824738
144.2138, 3.792542
144.6959, 2.980347
145.1780, 2.740891
145.6602, 3.642883
146.1423, 5.015381
146.6244, 5.290665
147.1065, 4.077682
147.5886, 3.207184
148.0707, 3.572281
148.5529, 4.903564
149.0350, 6.292374
149.5171, 7.522186
149.9992, 8.490402
150.4813, 9.672028
150.9634, 10.29167
151.4456, 10.90689
151.9277, 12.07611
152.4098, 13.86127
152.8919, 15.55637
153.3740, 16.94342
153.8561, 18.08183
154.3383, 18.92953
154.8204, 19.44562
155.3025, 19.81616
155.7846, 20.37119
156.2667, 21.23311
156.7488, 21.99989
157.2310, 22.34910
157.7131, 22.65029
158.1952, 23.35435
158.6773, 24.72805
159.1594, 26.49025
159.6415, 27.55842
160.1237, 27.17484
160.6058, 27.08063
161.0879, 27.59212
161.5700, 28.51008
162.0521, 29.62166
162.5342, 30.83719
163.0164, 32.11369
163.4985, 32.77116
163.9806, 32.20195
164.4627, 31.69064
164.9448, 31.52696
165.4269, 31.69485
165.9091, 32.16689
166.3912, 33.03157
166.8733, 34.28773
167.3554, 34.66985
167.8375, 33.74643
168.3196, 32.46577
168.8018, 31.24786
169.2839, 30.13765
169.7660, 29.13249
170.2481, 28.21111
170.7302, 27.39588
171.2123, 26.76941
171.6945, 26.48001
172.1766, 26.32185
172.6587, 26.21812
173.1408, 26.21091
173.6229, 25.87890
174.1050, 24.45127
174.5872, 22.30768
175.0693, 20.48907
175.5514, 19.21556
176.0335, 18.47107
176.5156, 18.44786
176.9977, 19.66889
177.4799, 20.56091
177.9620, 19.68707
178.4441, 17.62502
178.9262, 15.78587
179.4083, 15.07659
179.8904, 15.33129
180.3726, 15.51907
180.8547, 15.53518
181.3368, 15.58961
181.8189, 15.75375
182.3010, 16.02744
182.7831, 16.40980
183.2653, 16.96098
183.7474, 17.70139
184.2295, 18.23934
184.7116, 18.53227
185.1937, 18.65970
185.6758, 18.53320
186.1580, 18.23236
186.6401, 17.96588
187.1222, 17.92359
187.6043, 18.10442
188.0864, 18.42928
188.5685, 18.95616
189.0507, 19.55853
189.5328, 20.27198
190.0149, 21.03490
190.4970, 21.71721
190.9791, 22.18442
191.4612, 22.41259
191.9434, 22.19800
192.4255, 20.81807
192.9076, 19.71857
193.3897, 20.16936
193.8718, 22.17426
194.3539, 24.60870
194.8361, 26.19373
195.3182, 26.68761
195.8003, 26.97978
196.2824, 26.61411
196.7645, 26.23414
197.2466, 26.53153
197.7288, 27.66733
198.2109, 29.14352
198.6930, 30.31981
199.1751, 31.13662
199.6572, 31.94850
200.1393, 33.13766
200.6215, 34.34544
201.1036, 34.97287
201.5857, 34.74769
202.0678, 34.08128
202.5499, 33.21870
203.0320, 32.16267
203.5142, 31.74338
203.9963, 32.84006
204.4784, 34.77469
204.9605, 35.86134
205.4426, 35.53899
205.9247, 34.73712
206.4069, 34.25185
206.8890, 34.06755
207.3711, 34.22467
207.8532, 35.29456
208.3353, 36.92938
208.8174, 37.13715
209.2996, 34.33537
209.7817, 31.55389
210.2638, 31.23972
210.7459, 33.07640
211.2280, 35.08466
211.7101, 35.49367
212.1923, 34.36742
212.6744, 34.29222
213.1565, 36.77729
213.6386, 39.14828
214.1207, 39.78928
214.6028, 38.94221
215.0850, 37.98885
215.5671, 38.56538
216.0492, 41.04202
216.5313, 42.09502
217.0134, 39.83149
217.4955, 37.59157
217.9777, 36.49449
218.4598, 36.60091
218.9419, 37.50356
219.4240, 38.99593
219.9061, 41.35347
220.3882, 42.90491
220.8704, 43.19510
221.3525, 43.18436
221.8346, 43.20529
222.3167, 43.25521
222.7988, 43.14484
223.2809, 42.64175
223.7631, 41.54317
224.2452, 41.43433
224.7273, 43.08600
225.2094, 44.65639
225.6915, 45.17329
226.1736, 44.74131
226.6558, 44.11743
227.1379, 44.13350
227.6200, 45.06190
228.1021, 45.70612
228.5842, 45.76817
229.0663, 45.62700
229.5485, 45.62785
230.0306, 45.76542
230.5127, 45.80554
230.9948, 45.46851
231.4769, 44.62720
231.9590, 44.16798
232.4412, 44.19791
232.9233, 44.47553
233.4054, 45.17981
233.8875, 46.18163
234.3696, 46.65778
234.8517, 45.60690
235.3339, 42.78929
235.8160, 41.28512
236.2981, 42.19588
236.7802, 43.57434
237.2623, 44.06242
237.7444, 43.56873
238.2266, 42.64182
238.7087, 41.61104
239.1908, 40.49641
239.6729, 39.56473
240.1550, 39.06542
240.6371, 38.60323
241.1193, 37.81083
241.6014, 36.67057
242.0835, 35.48736
242.5656, 34.40707
243.0477, 33.46853
243.5298, 32.76797
244.0120, 32.56258
244.4941, 32.45134
244.9762, 32.09435
245.4583, 31.48219
245.9404, 30.65980
246.4225, 29.56898
246.9047, 28.29359
247.3868, 27.00844
247.8689, 25.60284
248.3510, 24.30154
248.8331, 23.43777
249.3152, 23.05972
249.7974, 22.63304
250.2795, 21.97413
250.7616, 21.03724
251.2437, 19.67058
251.7258, 17.54761
252.2079, 15.40802
252.6901, 14.22555
253.1722, 14.14742
253.6543, 13.97808
254.1364, 13.06027
254.6185, 11.84014
255.1006, 10.68108
255.5828, 9.625221
256.0649, 8.765251
256.5470, 8.335609
257.0291, 8.433212
257.5112, 8.361343
257.9933, 7.531708
258.4755, 6.620895
258.9576, 6.186485
259.4397, 6.386032
259.9218, 6.776062
260.4039, 6.899017
260.8860, 6.760445
261.3682, 6.325150
261.8503, 5.097153
262.3324, 3.861412
262.8145, 3.209969
263.2966, 3.227081
263.7787, 3.351303
264.2609, 2.873871
264.7430, 1.654373
265.2251, 0.6172790
265.7072, 0.2702710
266.1893, 0.8021620
266.6714, 0.6617660
267.1536, 9.5435999E-02
267.6357, 0.9336620
268.1178, 1.259621
268.5999, 0.9760590
269.0820, 0.7479020
269.5641, 0.6588360
270.0463, 0.5901180
270.5284, 0.4309840
271.0105, 0.2212600
271.4926, 0.1365890
271.9747, 0.4558940
272.4568, 1.279671
272.9390, 1.627258
273.4211, 0.9452590
273.9032, 0.2446060
274.3853, 0.2301100
274.8674, 0.4400020
275.3495, 0.3652420
275.8317, 0.1065140
276.3138, 0.9852070
276.7959, 1.409103
277.2780, 1.033623
277.7601, 0.4790340
278.2422, 0.3248060
278.7244, 1.187088
279.2065, 1.738426
279.6886, 1.652977
280.1707, 1.031342
280.6528, 0.9446030
281.1349, 2.507973
281.6171, 3.412788
282.0992, 2.708244
282.5813, 1.162132
283.0634, 0.1176830
283.5455, 0.4904790
284.0276, 9.4460003E-02
284.5098, 0.4788970
284.9919, 2.072044
285.4740, 2.748322
285.9561, 1.559364
286.4382, 0.4016570
286.9203, 1.879868
287.4025, 2.295692
287.8846, 1.977379
288.3667, 1.786751
288.8488, 1.915207
289.3309, 1.898926
289.8130, 1.488129
290.2952, 1.041809
290.7773, 0.8985670
291.2594, 1.167618
291.7415, 1.705246
292.2236, 2.260902
292.7057, 2.831161
293.1879, 3.426590
293.6700, 4.455048
294.1521, 5.245323
294.6342, 5.058006
295.1163, 3.866844
295.5984, 2.468269
296.0806, 1.944069
296.5627, 2.700577
297.0448, 3.197502
297.5269, 3.361664
298.0090, 3.377098
298.4911, 3.244011
298.9733, 3.029976
299.4554, 2.935951
299.9375, 3.210541
300.4196, 3.975517
300.9017, 4.276703
301.3839, 3.666039
301.8660, 3.107193
302.3481, 2.967674
302.8302, 3.224739
303.3123, 3.716263
303.7944, 4.353325
304.2766, 5.125565
304.7587, 5.704826
305.2408, 6.312042
305.7229, 6.509224
306.2050, 5.768478
306.6871, 4.577522
307.1693, 3.845894
307.6514, 4.132393
308.1335, 5.123291
308.6156, 5.388802
309.0977, 3.662407
309.5798, 2.681328
310.0620, 3.258911
310.5441, 4.545181
311.0262, 5.484283
311.5083, 5.650978
311.9904, 5.368752
312.4725, 5.353851
312.9547, 6.010162
313.4368, 6.383179
313.9189, 6.152885
314.4010, 5.836456
314.8831, 6.023552
315.3652, 6.797592
315.8474, 7.605110
316.3295, 7.624954
316.8116, 6.408142
317.2937, 5.564842
317.7758, 4.922287
318.2579, 4.722565
318.7401, 5.365395
319.2222, 6.714211
319.7043, 8.113487
320.1864, 8.949905
320.6685, 9.043182
321.1506, 9.354004
321.6328, 10.11826
322.1149, 10.89786
322.5970, 11.71034
323.0791, 12.40963
323.5612, 12.67290
324.0433, 12.23172
324.5255, 11.23978
325.0076, 10.81324
325.4897, 11.21382
325.9718, 11.74648
326.4539, 12.65601
326.9360, 13.57574
327.4182, 13.88443
327.9003, 13.26712
328.3824, 12.15715
328.8645, 11.78230
329.3466, 12.82534
329.8287, 13.74838
330.3109, 14.64885
330.7930, 15.32626
331.2751, 15.52714
331.7572, 15.20623
332.2393, 14.58783
332.7214, 13.99676
333.2036, 13.22031
333.6857, 13.12920
334.1678, 14.13171
334.6499, 15.22963
335.1320, 15.78632
335.6141, 15.83578
336.0963, 15.92202
336.5784, 16.66645
337.0605, 18.25774
337.5426, 19.05096
338.0247, 18.48161
338.5068, 17.72640
338.9890, 16.79163
339.4711, 15.92905
339.9532, 15.64410
340.4353, 16.32580
340.9174, 17.74738
341.3995, 18.57722
341.8817, 18.27176
342.3638, 17.94379
342.8459, 17.80484
343.3280, 17.68427
343.8101, 17.30752
344.2922, 16.52484
344.7744, 15.67094
345.2565, 15.78049
345.7386, 17.86964
346.2207, 18.89901
346.7028, 17.97388
347.1849, 16.56258
347.6671, 15.72435
348.1492, 15.64091
348.6313, 15.82603
349.1134, 15.66809
349.5955, 15.05109
350.0776, 14.61393
350.5598, 14.34076
351.0419, 14.26814
351.5240, 14.54385
352.0061, 15.05676
352.4882, 15.55252
352.9703, 15.87537
353.4525, 16.01050
353.9346, 15.81351
354.4167, 15.10624
354.8988, 14.28677
355.3809, 13.23184
355.8630, 12.21040
356.3452, 11.61140
356.8273, 11.64391
357.3094, 12.08678
357.7915, 12.49438
358.2736, 12.89732
358.7557, 13.17942
359.2379, 13.48647
359.7200, 13.56433
360.2021, 13.11369
360.6842, 12.08751
361.1663, 10.89094
361.6484, 9.888641
362.1306, 9.080391
362.6127, 8.531883
363.0948, 8.329147
363.5769, 8.338089
364.0590, 8.684212
364.5411, 9.228180
365.0233, 9.481255
365.5054, 8.845772
365.9875, 7.599640
366.4696, 7.020317
366.9517, 7.421394
367.4338, 7.880417
367.9160, 8.084030
368.3981, 8.012451
368.8802, 7.559471
369.3623, 6.519089
369.8444, 5.324150
370.3265, 4.663528
370.8087, 4.603119
371.2908, 4.477776
371.7729, 3.894714
372.2550, 3.231224
372.7371, 2.905968
373.2192, 2.992172
373.7014, 3.185051
374.1835, 3.342308
374.6656, 3.441109
375.1477, 3.400314
375.6298, 3.270409
376.1119, 2.868507
376.5941, 1.694206
377.0762, 6.0013000E-02
377.5583, 1.215599
378.0404, 0.8484190
378.5225, 0.1704640
379.0046, 0.5130920
379.4868, 4.7736999E-02
379.9689, 0.4873050
380.4510, 0.5591960
380.9331, 0.3213880
381.4152, 0.2799220
381.8973, 0.7556990
382.3795, 1.115051
382.8616, 0.8443070
383.3437, 7.3265001E-02
383.8258, 0.7047350
384.3079, 1.346550
384.7900, 1.809753
385.2722, 1.910606
385.7543, 1.484573
386.2364, 1.346634
386.7185, 2.078629
387.2006, 3.075478
387.6827, 3.580849
388.1649, 3.440643
388.6470, 2.847992
389.1291, 1.902542
389.6112, 0.5370860
390.0933, 0.5029140
390.5754, 1.377502
391.0576, 1.797852
391.5397, 1.301308
392.0218, 0.1393660
392.5039, 0.9071660
392.9860, 1.373619
393.4681, 1.339241
393.9503, 1.157356
394.4324, 0.1391680
394.9145, 0.1615680
395.3966, 1.269020
395.8787, 3.212883
396.3608, 4.197433
396.8430, 3.780716
397.3251, 2.609398
397.8072, 1.594215
398.2893, 0.6084440
398.7714, 0.1765060
399.2535, 0.5461880
399.7357, 1.162277
400.2178, 1.836838
400.6999, 2.489578
401.1820, 3.020386
401.6641, 3.337410
402.1462, 3.461128
402.6284, 3.688103
403.1105, 4.448853
403.5926, 4.776505
404.0747, 3.885292
404.5568, 2.719978
405.0389, 2.535667
405.5211, 3.813087
406.0032, 5.700249
406.4853, 6.610649
406.9674, 6.094398
407.4495, 6.003288
407.9316, 6.598412
408.4138, 7.597839
408.8959, 9.370102
409.3780, 11.60868
409.8601, 13.08762
410.3422, 12.37063
410.8243, 9.816307
411.3065, 8.334846
411.7886, 8.124397
412.2707, 8.720406
412.7528, 10.52507
413.2349, 12.73474
413.7170, 14.17128
414.1992, 14.32362
414.6813, 13.78703
415.1634, 12.99759
415.6455, 11.89436
416.1276, 11.78596
416.6097, 13.67741
417.0919, 16.21723
417.5740, 18.04684
418.0561, 19.13162
418.5382, 19.91110
419.0203, 20.15128
419.5024, 20.32397
419.9846, 21.58599
420.4667, 24.21858
420.9488, 27.21613
421.4309, 29.97490
421.9130, 32.45379
422.3951, 34.52658
422.8773, 35.83659
423.3594, 37.03316
423.8415, 38.59573
424.3236, 40.43911
424.8057, 42.21521
425.2878, 43.73785
425.7700, 45.20188
426.2521, 47.02793
426.7342, 49.20039
427.2163, 51.67367
427.6984, 54.74634
428.1805, 57.95731
428.6627, 60.90620
429.1448, 63.51608
429.6269, 65.75336
430.1090, 67.51375
430.5911, 68.75963
431.0732, 70.53338
431.5554, 73.34570
432.0375, 76.03501
432.5196, 78.15687
433.0017, 79.91916
433.4838, 81.60034
433.9659, 83.29418
434.4481, 85.12378
434.9302, 87.43862
435.4123, 90.95068
435.8944, 93.52653
436.3765, 94.81092
436.8586, 95.60024
437.3408, 96.04115
437.8229, 96.25314
438.3050, 96.82125
438.7871, 98.59820
439.2692, 101.4890
439.7513, 103.2579
440.2335, 103.2314
440.7156, 102.9526
441.1977, 102.9779
441.6798, 103.0012
442.1619, 102.5822
442.6440, 101.5278
443.1262, 100.3509
443.6083, 99.92287
444.0904, 100.3291
444.5725, 100.2575
445.0546, 99.20854
445.5367, 97.85007
446.0189, 96.93555
446.5010, 96.29977
446.9831, 94.98666
447.4652, 91.68596
447.9473, 87.69887
448.4294, 85.61079
448.9116, 85.67448
449.3937, 85.72961
449.8758, 84.62772
450.3579, 82.61658
450.8400, 80.28218
451.3221, 77.30455
451.8043, 74.79719
452.2864, 73.59840
452.7685, 73.08479
453.2506, 72.14499
453.7327, 70.47330
454.2148, 68.40518
454.6970, 66.25358
455.1791, 63.97867
455.6612, 61.96321
456.1433, 60.83586
456.6254, 59.40855
457.1075, 56.31988
457.5897, 52.24315
458.0718, 49.28055
458.5539, 48.70368
459.0360, 49.61516
459.5181, 49.21336
460.0002, 46.08827
460.4824, 43.45514
460.9645, 41.61336
461.4466, 40.11442
461.9287, 38.71190
462.4108, 37.28482
462.8929, 35.72868
463.3751, 33.88837
463.8572, 31.76460
464.3393, 30.02557
464.8214, 28.87151
465.3035, 27.87411
465.7856, 26.96752
466.2678, 26.12091
466.7499, 25.30938
467.2320, 24.52679
467.7141, 23.72490
468.1962, 22.88216
468.6783, 22.01214
469.1605, 20.87016
469.6426, 19.08238
470.1247, 17.38171
470.6068, 16.34919
471.0889, 15.86866
471.5710, 15.43035
472.0532, 14.66396
472.5353, 13.85175
473.0174, 13.63927
473.4995, 14.06752
473.9816, 14.05605
474.4637, 12.88609
474.9459, 11.09196
475.4280, 9.727463
475.9101, 8.824322
476.3922, 8.227932
476.8743, 7.984943
477.3564, 7.967690
477.8386, 8.069389
478.3207, 8.262005
478.8028, 8.362335
479.2849, 8.212978
479.7670, 7.807304
480.2491, 7.223476
480.7313, 6.178898
481.2134, 5.295605
481.6955, 4.797173
482.1776, 4.597069
482.6597, 4.638107
483.1418, 4.884174
483.6240, 5.127956
484.1061, 5.003242
484.5882, 4.353607
485.0703, 3.771412
485.5524, 3.143295
486.0345, 2.680275
486.5167, 2.740044
486.9988, 3.041061
487.4809, 2.913841
487.9630, 1.864697
488.4451, 0.3391150
488.9272, 0.5204890
489.4094, 0.5400430
489.8915, 0.4285050
490.3736, 0.4632260
490.8557, 0.3536000
491.3378, 0.2896540
491.8199, 1.432320
492.3021, 2.354076
492.7842, 2.637760
493.2663, 2.346180
493.7484, 1.363510
494.2305, 0.5333940
494.7126, 1.892532
495.1948, 1.493881
495.6769, 8.4300004E-03
496.1590, 0.7747000
496.6411, 0.3789410
497.1232, 8.2732998E-02
497.6053, 0.8588220
498.0875, 2.046185
498.5696, 2.375118
499.0517, 1.553200
499.5338, 0.4194300
500.0159, 0.1795160
500.4980, 0.2018930
500.9802, 3.1000000E-05
501.4623, 0.6928140
501.9444, 1.293209
502.4265, 1.631252
502.9086, 1.713928
503.3907, 1.565102
503.8729, 1.196415
504.3550, 0.6406630
504.8371, 0.1305390
505.3192, 1.424877
505.8013, 2.083031
506.2834, 1.823311
506.7656, 1.204086
507.2477, 4.7091998E-02
507.7298, 1.457672
508.2119, 1.966526
508.6940, 0.7476040
509.1761, 1.259174
509.6583, 2.098675
510.1404, 1.591599
510.6225, 0.9160190
511.1046, 0.2006420
511.5867, 0.3853570
512.0688, 0.6709250
512.5510, 0.6608960
513.0331, 0.5825880
513.5152, 0.5210190
513.9973, 0.4629330
514.4794, 0.3621860
514.9615, 0.2195700
515.4437, 0.1583940
515.9258, 0.2673300
516.4079, 0.4917070
516.8900, 0.6870800
517.3721, 0.9621470
517.8542, 1.008305
518.3364, 0.5388830
518.8185, 6.2316999E-02
519.3006, 0.3937000
519.7827, 0.4179190
520.2648, 0.3566320
520.7469, 0.4182780
521.2291, 0.5771560
521.7112, 0.4421540
522.1933, 0.5549550
522.6754, 1.150635
523.1575, 0.7507170
523.6396, 0.1130520
524.1218, 4.6013001E-02
524.6039, 0.6971890
525.0860, 1.544544
525.5681, 2.067600
526.0502, 2.268276
526.5323, 2.376122
527.0145, 2.245667
527.4966, 2.279560
527.9787, 3.070862
528.4608, 4.003231
528.9429, 4.081696
529.4250, 2.828945
529.9072, 1.507683
530.3893, 1.224541
530.8714, 1.718517
531.3535, 2.139111
531.8356, 2.321697
532.3177, 2.411804
532.7999, 2.494236
533.2820, 2.584568
533.7641, 2.836117
534.2462, 3.488586
534.7283, 4.049736
535.2104, 4.276138
535.6926, 4.262047
536.1747, 4.179695
536.6568, 4.086399
537.1389, 3.909271
537.6210, 3.515091
538.1031, 2.790756
538.5853, 2.344158
539.0674, 2.261570
539.5495, 2.348816
540.0316, 2.651920
540.5137, 3.053967
540.9958, 3.336147
541.4780, 3.394665
541.9601, 3.487709
542.4422, 4.098263
542.9243, 5.277950
543.4064, 6.226822
543.8885, 6.744068
544.3707, 7.133118
544.8528, 7.837723
545.3349, 8.598934
545.8170, 8.662781
546.2991, 7.181652
546.7813, 5.535595
547.2634, 5.370182
547.7455, 6.298615
548.2276, 6.652885
548.7097, 5.838608
549.1918, 4.627220
549.6740, 3.875755
550.1561, 3.601532
550.6382, 3.806980
551.1203, 4.790054
551.6024, 5.961208
552.0845, 7.380657
552.5667, 8.603294
553.0488, 8.739655
553.5309, 7.430317
554.0130, 5.688175
554.4951, 5.553001
554.9772, 7.782051
555.4594, 9.330605
555.9415, 10.07964
556.4236, 10.17823
556.9057, 9.155766
557.3878, 7.567463
557.8699, 6.424606
558.3521, 6.234024
558.8342, 6.634918
559.3163, 7.352436
559.7984, 8.335842
560.2805, 8.749985
560.7626, 8.095558
561.2448, 7.366764
561.7269, 7.771523
562.2090, 9.027561
562.6911, 9.812019
563.1732, 9.488258
563.6553, 8.938751
564.1375, 8.588600
564.6196, 8.532848
565.1017, 9.088799
565.5838, 10.31565
566.0659, 11.64999
566.5480, 12.30980
567.0302, 12.05679
567.5123, 11.70622
567.9944, 10.95376
568.4765, 10.62202
568.9586, 11.37592
569.4407, 12.61963
569.9229, 13.40312
570.4050, 13.37098
570.8871, 13.02281
571.3692, 13.11849
571.8513, 13.69039
572.3334, 13.93111
572.8156, 13.43293
573.2977, 13.13501
573.7798, 13.62430
574.2619, 14.67812
574.7440, 15.97835
575.2261, 17.68628
575.7083, 19.14643
576.1904, 19.58520
576.6725, 19.41705
577.1546, 19.65739
577.6367, 20.55398
578.1188, 21.82846
578.6010, 23.30835
579.0831, 24.98255
579.5652, 26.23588
580.0473, 26.74100
580.5294, 27.30153
581.0115, 28.17202
581.4937, 29.19447
581.9758, 30.14474
582.4579, 30.99588
582.9400, 31.94018
583.4221, 33.24258
583.9042, 34.87755
584.3864, 36.25578
584.8685, 37.20995
585.3506, 38.22338
585.8327, 39.84777
586.3148, 41.40396
586.7969, 41.97204
587.2791, 41.37521
587.7612, 40.95431
588.2433, 41.93060
588.7254, 43.59879
589.2075, 44.45377
589.6896, 44.38046
590.1718, 44.42245
590.6539, 45.21155
591.1360, 46.53786
591.6181, 47.86297
592.1002, 49.68330
592.5823, 50.54793
593.0645, 49.56068
593.5466, 48.08809
594.0287, 47.18674
594.5108, 46.84982
594.9929, 46.49791
595.4750, 45.71474
595.9572, 44.78690
596.4393, 44.70036
596.9214, 45.98684
597.4035, 46.63525
597.8856, 46.12518
598.3677, 45.05991
598.8499, 43.41957
599.3320, 41.44390
599.8141, 39.85116
600.2962, 39.07725
600.7783, 38.70617
601.2604, 38.39833
601.7426, 38.09662
602.2247, 37.43795
602.7068, 36.28546
603.1889, 34.82396
603.6710, 33.15558
604.1531, 31.21502
604.6353, 29.80909
605.1174, 29.46222
605.5995, 29.06142
606.0816, 27.85627
606.5637, 26.41529
607.0458, 25.78532
607.5280, 26.23523
608.0101, 26.72000
608.4922, 25.80373
608.9743, 23.41511
609.4564, 21.77722
609.9385, 21.24936
610.4207, 20.90932
610.9028, 20.46200
611.3849, 19.98536
611.8670, 19.61954
612.3491, 19.40787
612.8312, 19.02864
613.3134, 17.98354
613.7955, 16.72779
614.2776, 16.20818
614.7597, 16.47536
615.2418, 16.74493
615.7239, 16.58804
616.2061, 16.11616
616.6882, 15.62449
617.1703, 15.01002
617.6524, 14.56939
618.1345, 14.36892
618.6166, 14.29789
619.0988, 14.43447
619.5809, 14.63438
620.0630, 14.53521
620.5451, 13.91012
621.0272, 13.06813
621.5093, 12.64842
621.9915, 12.71281
622.4736, 12.81174
622.9557, 12.99027
623.4378, 13.10385
623.9199, 13.05926
624.4020, 12.88318
624.8842, 12.67371
625.3663, 12.42842
625.8484, 12.08420
626.3305, 11.60173
626.8126, 11.04665
627.2947, 10.45421
627.7769, 9.834343
628.2590, 9.295460
628.7411, 8.921932
629.2232, 8.713821
629.7053, 8.674900
630.1874, 9.335804
630.6696, 9.478176
631.1517, 8.392891
631.6338, 7.200695
632.1159, 6.895573
632.5980, 7.416004
633.0801, 8.071308
633.5623, 8.470299
634.0444, 8.547417
634.5265, 7.960968
635.0086, 6.599609
635.4907, 5.705406
635.9728, 5.878502
636.4550, 6.420712
636.9371, 6.568321
637.4192, 6.355366
637.9013, 5.986694
638.3834, 5.254078
638.8655, 4.535400
639.3477, 4.175880
639.8298, 4.046047
640.3119, 3.791267
640.7940, 3.331333
641.2761, 3.081745
641.7582, 3.662724
642.2404, 5.089920
642.7225, 5.363377
643.2046, 3.308422
643.6867, 1.864452
644.1688, 2.346905
644.6509, 3.414288
645.1331, 3.694420
645.6152, 3.042000
646.0973, 2.467751
646.5794, 2.871960
647.0615, 3.592957
647.5436, 3.374950
648.0258, 2.322136
648.5079, 1.724461
648.9900, 2.212852
649.4721, 3.171661
649.9542, 3.619450
650.4363, 3.441036
650.9185, 3.153648
651.4006, 2.526413
651.8827, 1.952465
652.3648, 1.710697
652.8469, 1.643566
653.3290, 1.431087
653.8112, 1.010254
654.2933, 0.8192060
654.7754, 1.511734
655.2575, 2.935345
655.7396, 4.042400
656.2217, 4.910095
656.7039, 5.166340
657.1860, 4.273407
657.6681, 2.875950
658.1502, 2.045769
658.6323, 1.870266
659.1144, 1.803268
659.5966, 1.744957
660.0787, 1.692616
660.5608, 1.683472
661.0429, 1.678471
661.5250, 1.594879
662.0071, 1.394875
662.4893, 1.048771
662.9714, 0.3769950
663.4535, 0.8492430
663.9356, 1.155231
664.4177, 0.4280780
664.8998, 1.663166
665.3820, 1.433903
665.8641, 0.5378990
666.3462, 2.0718001E-02
666.8283, 0.1113170
667.3104, 0.2813610
667.7925, 0.1497120
668.2747, 0.1050610
668.7568, 0.1969410
669.2389, 0.1031490
669.7210, 9.2189997E-02
670.2031, 0.3440550
670.6852, 0.5607600
671.1674, 0.4893650
671.6495, 4.3288998E-02
672.1316, 0.2425840
672.6137, 8.7050004E-03
673.0958, 0.3114740
673.5779, 0.4823340
674.0601, 0.6330070
674.5422, 1.026318
675.0243, 1.759899
675.5064, 2.379681
675.9885, 2.262505
676.4706, 1.660786
676.9528, 1.562592
677.4349, 2.116520
677.9170, 2.290100
678.3991, 1.283764
678.8812, 0.2015840
679.3633, 0.5402570
679.8455, 0.7004890
680.3276, 1.452152
680.8097, 1.306225
681.2918, 0.8097610
681.7739, 3.6410999E-02
682.2560, 0.9103390
682.7382, 1.224262
683.2203, 0.7655830
683.7024, 4.4628002E-02
684.1845, 0.7629320
684.6666, 1.386494
685.1487, 1.693230
685.6309, 1.608597
686.1130, 1.389107
686.5951, 1.119816
687.0772, 0.8230550
687.5593, 0.4561690
688.0414, 2.3281001E-02
688.5236, 0.2994270
689.0057, 0.6006930
689.4878, 0.6541940
689.9699, 7.4538998E-02
690.4520, 1.176239
690.9341, 1.509026
691.4163, 0.6514320
691.8984, 0.4527890
692.3805, 0.3919490
692.8626, 0.9350810
693.3447, 1.874603
693.8268, 2.542732
694.3090, 2.603905
694.7911, 1.214191
695.2732, 0.4165650
695.7553, 0.9380150
696.2374, 0.2036320
696.7195, 0.5294080
697.2017, 0.7794230
697.6838, 0.7196160
698.1659, 0.3805620
698.6480, 0.1230430
699.1301, 0.5247570
699.6122, 0.7243350
700.0944, 0.6397400
700.5765, 5.8846001E-02
701.0586, 1.085495
701.5407, 1.576565
702.0228, 0.7705650
702.5049, 0.2540050
702.9871, 0.7241400
703.4692, 1.412830
703.9513, 1.505424
704.4334, 1.002232
704.9155, 0.7039070
705.3976, 1.321564
705.8798, 2.169083
706.3619, 2.519333
706.8440, 2.410809
707.3261, 1.844673
707.8082, 0.7865830
708.2903, 0.1241230
708.7725, 0.1017000
709.2546, 0.8385850
709.7367, 1.218533
710.2188, 0.6132810
710.7009, 1.6922001E-02
711.1830, 0.6109120
711.6652, 1.044418
712.1473, 1.033577
712.6294, 0.6376650
713.1115, 0.1846920
713.5936, 0.1190150
714.0757, 0.4495930
714.5579, 1.241508
715.0400, 2.266869
715.5221, 2.551052
716.0042, 1.834354
716.4863, 1.070545
716.9684, 1.115627
717.4506, 1.826992
717.9327, 2.203278
718.4148, 1.712322
718.8969, 1.649971
719.3790, 2.589317
719.8611, 3.516014
720.3433, 3.740963
720.8254, 3.391972
721.3075, 2.906643
721.7896, 2.445141
722.2717, 2.121525
722.7538, 2.056206
723.2360, 2.168518
723.7181, 2.216637
724.2002, 2.168613
724.6823, 2.022869
725.1644, 1.766102
725.6465, 1.419270
726.1287, 1.030003
726.6108, 0.3623390
727.0929, 0.1140170
727.5750, 0.8689120
728.0571, 1.413734
728.5392, 0.8472020
729.0214, 0.2490270
729.5035, 0.8477590
729.9856, 0.6161160
730.4677, 0.1070250
730.9498, 0.2833020
731.4319, 0.5379450
731.9141, 0.4484710
732.3962, 3.9696001E-02
732.8783, 0.1599540
733.3604, 1.365479
733.8425, 2.826447
734.3246, 3.098118
734.8068, 1.779896
735.2889, 1.046993
735.7710, 1.213764
736.2531, 1.532593
736.7352, 1.817139
737.2173, 2.142902
737.6995, 2.764820
738.1816, 3.536705
738.6637, 3.908310
739.1458, 3.356956
739.6279, 2.427006
740.1100, 2.009552
740.5922, 2.016075
741.0743, 1.834923
741.5564, 1.245392
742.0385, 0.7158010
742.5206, 0.8354530
743.0027, 1.556011
743.4849, 1.769390
743.9670, 0.5742870
744.4491, 0.1272960
744.9312, 1.252892
745.4133, 2.654446
745.8954, 3.467937
746.3776, 3.711262
746.8597, 3.786144
747.3418, 3.924473
747.8239, 3.918785
748.3060, 3.174572
748.7881, 2.096527
749.2703, 1.874500
749.7524, 2.595810
750.2345, 3.259365
750.7166, 3.206871
751.1987, 2.655678
751.6808, 2.249599
752.1630, 1.993855
752.6451, 1.877182
753.1272, 1.828602
753.6093, 1.930889
754.0914, 2.568428
754.5735, 3.320488
755.0557, 3.597389
755.5378, 3.267178
756.0199, 2.670807
756.5020, 1.615242
756.9841, 0.6409950
757.4662, 0.7139890
757.9484, 1.591236
758.4305, 2.202011
758.9126, 2.110046
759.3947, 1.745430
759.8768, 1.690926
760.3589, 1.947163
760.8411, 1.884644
761.3232, 1.079105
761.8053, 0.7182350
762.2874, 1.426823
762.7695, 2.423725
763.2516, 3.337852
763.7338, 4.068569
764.2159, 4.260509
764.6980, 3.523567
765.1801, 2.562405
765.6622, 1.587315
766.1443, 0.7693560
766.6265, 0.4289890
767.1086, 0.6320840
767.5907, 1.381866
768.0728, 2.802181
768.5549, 4.320145
769.0370, 4.378590
769.5192, 2.690567
770.0013, 1.455009
770.4834, 0.8864250
770.9655, 0.7737540
771.4476, 1.097622
771.9297, 1.754341
772.4119, 2.673717
772.8940, 4.014229
773.3761, 4.911182
773.8582, 5.066936
774.3403, 4.764412
774.8224, 3.870800
775.3046, 2.760254
775.7867, 2.109825
776.2688, 2.103836
776.7509, 2.312572
777.2330, 2.272457
777.7151, 2.087345
778.1973, 2.251698
778.6794, 2.815620
779.1615, 3.098076
779.6436, 2.694866
780.1257, 2.415867
780.6078, 3.365612
781.0900, 5.438236
781.5721, 6.289886
782.0542, 5.113934
782.5363, 3.894035
783.0184, 2.725452
783.5005, 1.838703
783.9827, 1.511471
784.4648, 1.597691
784.9469, 1.737381
785.4290, 1.819126
785.9111, 1.836376
786.3932, 1.762154
786.8754, 1.590950
787.3575, 1.356850
787.8396, 1.130405
788.3217, 1.340786
788.8038, 2.285683
789.2859, 3.419952
789.7681, 3.737110
790.2502, 3.001068
790.7323, 2.568226
791.2144, 2.537876
791.6965, 2.722355
792.1786, 3.606682
792.6608, 4.328121
793.1429, 3.908733
793.6250, 2.388878
794.1071, 0.8104630
794.5892, 0.8449820
795.0714, 1.898460
795.5535, 1.529919
796.0356, 0.2642670
796.5177, 1.162136
796.9998, 2.518284
797.4819, 3.495911
797.9641, 3.870869
798.4462, 3.750820
798.9283, 3.358326
799.4104, 2.644817
799.8925, 1.920773
800.3746, 0.9992710
800.8568, 0.5222590
801.3389, 1.114643
801.8210, 2.245758
802.3031, 2.913143
802.7852, 3.080559
803.2673, 3.182224
803.7495, 3.254498
804.2316, 3.329548
804.7137, 3.563622
805.1958, 3.749512
805.6779, 3.525562
806.1600, 2.865227
806.6422, 2.124733
807.1243, 1.417900
807.6064, 0.9920010
808.0885, 1.689102
808.5706, 3.305073
809.0527, 4.113579
809.5349, 3.734848
810.0170, 3.117443
810.4991, 2.964794
810.9812, 3.201347
811.4633, 3.529957
811.9454, 4.171604
812.4276, 4.492828
812.9097, 4.375027
813.3918, 4.071972
813.8739, 3.488762
814.3560, 2.874115
814.8381, 2.665882
815.3203, 2.980854
815.8024, 3.150261
816.2845, 2.269047
816.7666, 1.526955
817.2487, 2.752613
817.7308, 4.960300
818.2130, 5.583260
818.6951, 4.077454
819.1772, 2.292461
819.6593, 1.952236
820.1414, 2.672981
820.6235, 3.074291
821.1057, 3.148869
821.5878, 2.890820
822.0699, 2.056705
822.5520, 1.408821
823.0341, 1.640560
823.5162, 2.442871
823.9984, 2.798927
824.4805, 2.469395
824.9626, 2.283043
825.4447, 2.433662
825.9268, 2.637794
826.4089, 2.695087
826.8911, 2.725513
827.3732, 3.015118
827.8553, 3.589748
828.3374, 3.979294
828.8195, 3.520420
829.3016, 2.867371
829.7838, 3.309948
830.2659, 4.436211
830.7480, 4.523640
831.2301, 3.201393
831.7122, 2.220135
832.1943, 3.200935
832.6765, 5.360970
833.1586, 5.537079
833.6407, 2.756264
834.1228, 1.296288
834.6049, 2.137890
835.0870, 3.373848
835.5692, 4.378208
836.0513, 4.972404
836.5334, 4.676727
837.0155, 3.252594
837.4976, 2.292301
837.9797, 2.315540
838.4619, 2.768356
838.9440, 3.688591
839.4261, 4.658722
839.9082, 5.108177
840.3903, 4.985535
840.8724, 4.696892
841.3546, 4.488678
841.8367, 4.341625
842.3188, 4.325943
842.8009, 4.362049
843.2830, 3.941086
843.7651, 2.981033
844.2473, 2.290588
844.7294, 2.381813
845.2115, 3.040104
845.6936, 3.867043
846.1757, 5.081604
846.6578, 5.645309
847.1400, 4.945713
847.6221, 4.450584
848.1042, 5.110104
848.5863, 5.856537
849.0684, 5.400303
849.5505, 3.832680
850.0327, 2.792244
850.5148, 3.014755
850.9969, 3.500198
851.4790, 4.142544
851.9611, 4.548409
852.4432, 3.948803
852.9254, 2.611706
853.4075, 1.738018
853.8896, 1.957233
854.3717, 2.599087
854.8538, 2.965614
855.3359, 3.111820
855.8181, 3.183559
856.3002, 3.194069
856.7823, 3.346298
857.2644, 3.777355
857.7465, 4.079025
858.2286, 3.581642
858.7108, 2.312401
859.1929, 1.837299
859.6750, 2.507900
860.1571, 3.309605
860.6392, 4.600971
861.1213, 5.451572
861.6035, 5.017422
862.0856, 3.754700
862.5677, 2.731792
863.0498, 2.126484
863.5319, 1.704487
864.0140, 1.679115
864.4962, 1.528641
864.9783, 0.4728240
865.4604, 0.7790870
865.9425, 0.9667630
866.4246, 8.9465998E-02
866.9067, 1.391937
867.3889, 2.271580
867.8710, 2.764431
868.3531, 2.666733
868.8352, 2.193966
869.3173, 2.497276
869.7994, 3.777218
870.2816, 4.891239
870.7637, 5.047161
871.2458, 4.513325
871.7279, 3.916965
872.2100, 3.243778
872.6921, 2.521603
873.1743, 1.531990
873.6564, 0.9040640
874.1385, 1.063957
874.6206, 1.575539
875.1027, 2.038113
875.5848, 2.454735
876.0670, 2.619438
876.5491, 2.220833
877.0312, 1.990925
877.5133, 2.406178
877.9954, 2.872147
878.4775, 2.725967
878.9597, 2.194016
879.4418, 2.016357
879.9239, 2.512840
880.4060, 3.049309
880.8881, 3.172951
881.3702, 2.914589
881.8524, 1.960625
882.3345, 0.6356050
882.8166, 0.2641790
883.2987, 1.206932
883.7808, 2.328018
884.2629, 2.492409
884.7451, 2.039982
885.2272, 2.507240
885.7093, 4.131260
886.1914, 4.484066
886.6735, 2.785404
887.1556, 1.044315
887.6378, 0.3737980
888.1199, 0.5262260
888.6020, 1.092361
889.0841, 2.213890
889.5662, 3.097706
890.0483, 4.061367
890.5305, 4.501484
891.0126, 3.591900
891.4947, 2.569172
891.9768, 2.851692
892.4589, 4.165562
892.9410, 4.857235
893.4232, 4.067520
893.9053, 3.136116
894.3874, 2.812469
894.8695, 2.803474
895.3516, 2.832745
895.8337, 2.883202
896.3159, 3.098377
896.7980, 3.500343
897.2801, 3.673389
897.7622, 3.016273
898.2443, 1.918007
898.7264, 1.403038
899.2086, 1.403061
899.6907, 1.377689
900.1728, 1.209175
900.6549, 1.048855
901.1370, 1.022846
901.6191, 1.052109
902.1013, 0.9033660
902.5834, 0.5085950
903.0655, 0.1583140
903.5476, 0.4110180
904.0297, 0.3949740
904.5118, 1.095966
904.9940, 2.859013
905.4761, 3.285004
905.9582, 2.468571
906.4403, 2.063904
906.9224, 2.754467
907.4045, 3.083363
907.8867, 2.316063
908.3688, 1.465149
908.8509, 1.335579
909.3330, 1.674355
909.8151, 1.873520
910.2972, 1.760727
910.7794, 1.486332
911.2615, 0.8943630
911.7436, 0.4009510
912.2257, 0.6364020
912.7078, 1.236439
913.1899, 1.485916
913.6721, 1.257584
914.1542, 0.7862550
914.6363, 0.1956100
915.1184, 0.3831020
915.6005, 0.8571510
916.0826, 1.148731
916.5648, 0.5692560
917.0469, 0.9326630
917.5290, 1.917599
918.0111, 1.713261
918.4932, 1.080376
918.9753, 1.004536
919.4575, 1.433121
919.9396, 1.413132
920.4217, 0.7085950
920.9038, 0.2191010
921.3859, 0.2699430
921.8680, 0.2786710
922.3502, 0.3389400
922.8323, 1.194954
923.3144, 1.396606
923.7965, 0.7186890
924.2786, 0.1622390
924.7607, 4.6551000E-02
925.2429, 0.1081240
925.7250, 0.3479420
926.2071, 0.8064650
926.6892, 1.954948
927.1713, 3.480473
927.6534, 4.148628
928.1356, 3.211063
928.6177, 2.115582
929.0998, 1.801712
929.5819, 1.777870
930.0640, 1.544132
930.5461, 1.148891
931.0283, 0.8236540
931.5104, 0.6201060
931.9925, 0.3177410
932.4746, 0.4759180
932.9567, 1.213623
933.4388, 0.5587080
933.9210, 1.045132
934.4031, 1.825344
934.8852, 1.572693
935.3673, 1.047585
935.8494, 0.6386220
936.3315, 0.3687250
936.8137, 0.2911910
937.2958, 0.4021990
937.7779, 0.5873370
938.2600, 0.8520160
938.7421, 1.200665
939.2242, 1.749805
939.7064, 2.106762
940.1885, 1.866341
940.6706, 1.211330
941.1527, 0.8237080
941.6348, 0.8079910
942.1169, 0.8168910
942.5991, 0.7479250
943.0812, 0.8317790
943.5633, 1.426868
944.0454, 2.006649
944.5275, 2.036572
945.0096, 1.531826
945.4918, 0.7955060
945.9739, 0.7688060
946.4560, 1.567638
946.9381, 0.4387440
947.4202, 1.005730
947.9023, 1.541912
948.3845, 1.513752
948.8666, 1.809021
949.3487, 2.599594
949.8308, 3.050468
950.3129, 2.369835
950.7950, 1.376614
951.2772, 0.6859930
951.7593, 0.2920190
952.2414, 0.3121260
952.7235, 0.6418990
953.2056, 0.7598920
953.6877, 0.4033580
954.1699, 0.4068870
954.6520, 2.539524
955.1341, 5.637623
955.6162, 6.025055
956.0983, 4.122543
956.5804, 2.800034
957.0626, 2.733673
957.5447, 3.007942
958.0268, 2.960083
958.5089, 2.710434
958.9910, 2.483337
959.4731, 2.261723
959.9553, 2.468159
960.4374, 3.276554
960.9195, 3.644714
961.4016, 2.891273
961.8837, 2.259956
962.3658, 3.299000
962.8480, 5.623444
963.3301, 6.533852
963.8122, 5.125298
964.2943, 4.240108
964.7764, 4.335991
965.2585, 4.515907
965.7407, 4.100243
966.2228, 3.718330
966.7049, 4.438282
967.1870, 6.254570
967.6691, 7.131374
968.1512, 5.768097
968.6334, 4.963642
969.1155, 5.725990
969.5976, 6.873428
970.0797, 7.728550
970.5618, 8.333950
971.0439, 8.925362
971.5261, 9.549934
972.0082, 9.957581
972.4903, 9.626595
972.9724, 9.468708
973.4545, 10.26940
973.9366, 11.46465
974.4188, 12.57310
974.9009, 13.48653
975.3830, 14.06526
975.8651, 14.24778
976.3472, 14.54081
976.8293, 15.52004
977.3115, 16.76466
977.7936, 17.69297
978.2757, 18.42963
978.7578, 19.20354
979.2399, 20.11676
979.7220, 21.37539
980.2042, 23.07599
980.6863, 24.93588
981.1684, 26.48303
981.6505, 27.95642
982.1326, 30.12324
982.6147, 32.86731
983.0969, 35.30874
983.5790, 37.17899
984.0611, 38.85455
984.5432, 40.56910
985.0253, 42.59027
985.5074, 45.58347
985.9896, 49.54794
986.4717, 54.62072
986.9538, 60.91775
987.4359, 67.51853
987.9180, 73.70599
988.4001, 81.25747
988.8823, 92.05366
989.3644, 106.0151
989.8465, 122.0465
990.3286, 139.8470
990.8107, 160.7627
991.2928, 185.5714
991.7750, 212.6252
992.2571, 242.3241
992.7392, 272.9009
993.2213, 302.9402
993.7034, 332.3564
994.1855, 357.4955
994.6677, 376.6817
995.1498, 393.8379
995.6319, 407.8771
996.1140, 421.3654
996.5961, 434.9249
997.0782, 449.1337
997.5604, 465.2585
998.0425, 483.3320
998.5246, 500.3832
999.0067, 516.1631
999.4888, 530.7176
999.9709, 545.4653
1000.453, 557.7328
1000.935, 565.9084
1001.417, 570.0307
1001.899, 570.0572
1002.382, 565.9898
1002.864, 559.1820
1003.346, 552.1030
1003.828, 540.1100
1004.310, 520.9727
1004.792, 495.5473
1005.274, 463.3769
1005.756, 425.9779
1006.238, 386.2702
1006.721, 345.1339
1007.203, 304.0168
1007.685, 262.3695
1008.167, 223.0721
1008.649, 188.3008
1009.131, 158.2189
1009.613, 133.7285
1010.095, 114.2682
1010.578, 98.23684
1011.060, 85.08057
1011.542, 73.95457
1012.024, 64.17278
1012.506, 55.93539
1012.988, 49.99840
1013.470, 45.66896
1013.952, 41.01956
1014.434, 35.96864
1014.917, 32.06157
1015.399, 30.19398
1015.881, 28.98163
1016.363, 26.51907
1016.845, 23.33610
1017.327, 20.80323
1017.809, 18.91036
1018.291, 17.66190
1018.773, 16.99521
1019.256, 16.16681
1019.738, 14.69360
1020.220, 12.96357
1020.702, 11.60116
1021.184, 10.56760
1021.666, 9.395710
1022.148, 8.118378
1022.630, 7.701073
1023.113, 8.408779
1023.595, 9.137367
1024.077, 9.134758
1024.559, 8.561832
1025.041, 7.551292
1025.523, 6.092636
1026.005, 5.669689
1026.487, 6.466076
1026.969, 6.702065
1027.452, 5.854374
1027.934, 4.679085
1028.416, 3.645546
1028.898, 2.863209
1029.380, 2.629875
1029.862, 2.995975
1030.344, 3.559772
1030.826, 4.521454
1031.309, 4.951996
1031.791, 4.509846
1032.273, 3.705292
1032.755, 2.834656
1033.237, 1.972618
1033.719, 1.282997
1034.201, 0.6576120
1034.683, 0.8181570
1035.166, 2.517208
1035.648, 3.312946
1036.130, 2.073574
1036.612, 0.5212550
1037.094, 5.1883999E-02
1037.576, 0.1048510
1038.058, 0.2811740
1038.540, 0.4265370
1039.022, 0.7883950
1039.505, 1.782913
1039.987, 2.319427
1040.469, 1.659237
1040.951, 0.9582140
1041.433, 1.376625
1041.915, 2.402313
1042.397, 2.422813
1042.879, 0.8454970
1043.361, 0.2024800
1043.844, 1.393066
1044.326, 2.341743
1044.808, 2.501106
1045.290, 2.318317
1045.772, 1.932850
1046.254, 1.496788
1046.736, 1.411808
1047.218, 1.847332
1047.700, 2.045181
1048.183, 2.105110
1048.665, 1.683067
1049.147, 4.1668002E-02
1049.629, 1.624020
1050.111, 1.772884
1050.593, 0.9571300
1051.075, 0.3286060
1051.557, 4.3414999E-02
1052.040, 0.2033690
1052.522, 0.7340850
1053.004, 0.8820150
1053.486, 8.0196001E-02
1053.968, 0.8702620
1054.450, 1.493378
1054.932, 1.726944
1055.414, 1.478886
1055.896, 0.6867490
1056.379, 0.1090740
1056.861, 1.002750
1057.343, 1.565460
1057.825, 1.395275
1058.307, 1.050072
1058.789, 0.8798410
1059.271, 0.9045720
1059.753, 1.236027
1060.236, 1.917259
1060.718, 2.036484
1061.200, 0.4751130
1061.682, 0.6168210
1062.164, 0.4170950
1062.646, 1.544086
1063.128, 0.6735500
1063.610, 1.153378
1064.093, 1.893799
1064.575, 1.181892
1065.057, 3.8864002E-02
1065.539, 1.830357
1066.021, 3.163826
1066.503, 2.814957
1066.985, 2.289867
1067.467, 3.275993
1067.949, 4.727684
1068.432, 4.489117
1068.914, 2.378845
1069.396, 0.8608090
1069.878, 1.108517
1070.360, 1.838066
1070.842, 2.941517
1071.324, 3.856487
1071.806, 3.920380
1072.288, 3.613625
1072.771, 3.727768
1073.253, 4.329166
1073.735, 4.894512
1074.217, 5.220825
1074.699, 5.480659
1075.181, 5.800137
1075.663, 6.036438
1076.145, 5.805328
1076.627, 5.585472
1077.110, 6.259880
1077.592, 7.689484
1078.074, 8.641430
1078.556, 8.508923
1079.038, 8.303062
1079.520, 8.456646
1080.002, 8.750835
1080.484, 9.255791
1080.967, 9.662708
1081.449, 9.289848
1081.931, 8.444031
1082.413, 8.475155
1082.895, 10.06137
1083.377, 11.46578
1083.859, 11.73512
1084.341, 11.75835
1084.823, 12.24968
1085.306, 12.66438
1085.788, 12.05853
1086.270, 10.85586
1086.752, 10.41832
1087.234, 11.17584
1087.716, 12.10022
1088.198, 12.91226
1088.680, 13.57878
1089.163, 14.15684
1089.645, 14.51749
1090.127, 14.46304
1090.609, 14.11417
1091.091, 13.64323
1091.573, 13.08140
1092.055, 12.89294
1092.537, 13.73714
1093.020, 14.35646
1093.502, 13.88863
1093.984, 13.27864
1094.466, 13.44511
1094.948, 13.92089
1095.430, 13.78902
1095.912, 12.95090
1096.394, 12.24416
1096.876, 11.81189
1097.359, 11.72836
1097.841, 12.45529
1098.323, 13.07105
1098.805, 13.02840
1099.287, 12.47933
1099.769, 11.40536
1100.251, 9.986580
1100.733, 9.141228
1101.215, 9.124798
1101.698, 9.597694
1102.180, 11.36665
1102.662, 12.54091
1103.144, 11.79868
1103.626, 10.28993
1104.108, 9.026077
1104.590, 8.101383
1105.072, 7.417469
1105.554, 6.870350
1106.037, 6.881157
1106.519, 8.049339
1107.001, 9.093990
1107.483, 9.731487
1107.965, 9.843704
1108.447, 8.984982
1108.929, 7.627758
1109.411, 6.870907
1109.894, 6.902458
1110.376, 6.771561
1110.858, 6.087536
1111.340, 5.663349
1111.822, 5.701801
1112.304, 5.892590
1112.786, 6.295990
1113.268, 6.672604
1113.750, 6.596825
1114.233, 6.045143
1114.715, 5.522926
1115.197, 5.131752
1115.679, 4.605091
1116.161, 3.463024
1116.643, 2.830654
1117.125, 3.700565
1117.607, 4.776566
1118.090, 4.379494
1118.572, 2.902134
1119.054, 2.678864
1119.536, 4.698013
1120.018, 5.366127
1120.500, 3.576691
1120.982, 2.563133
1121.464, 3.633083
1121.947, 5.030956
1122.429, 5.644260
1122.911, 5.460636
1123.393, 4.035580
1123.875, 0.9149890
1124.357, 0.2197070
1124.839, 2.800529
1125.321, 5.020512
1125.803, 6.308731
1126.286, 6.752308
1126.768, 6.218315
1127.250, 5.253849
1127.732, 4.705856
1128.214, 4.528194
1128.696, 4.140720
1129.178, 3.464191
1129.660, 3.191692
1130.142, 3.388073
1130.625, 4.136402
1131.107, 5.596127
1131.589, 6.903625
1132.071, 7.150425
1132.553, 6.577263
1133.035, 5.565491
1133.517, 4.195770
1133.999, 4.567799
1134.481, 6.747784
1134.964, 7.777565
1135.446, 6.756607
1135.928, 5.842907
1136.410, 6.530949
1136.892, 7.866905
1137.374, 8.270538
1137.856, 7.961636
1138.338, 7.746826
1138.821, 7.649544
1139.303, 7.721329
1139.785, 8.009331
1140.267, 8.909672
1140.749, 10.58492
1141.231, 12.06002
1141.713, 12.15150
1142.195, 11.69526
1142.677, 12.37755
1143.160, 13.61429
1143.642, 13.94107
1144.124, 13.47603
1144.606, 12.95896
1145.088, 12.74538
1145.570, 13.19865
1146.052, 14.76170
1146.534, 16.32451
1147.017, 16.28716
1147.499, 15.82190
1147.981, 16.53442
1148.463, 17.80326
1148.945, 18.50393
1149.427, 18.61615
1149.909, 18.77134
1150.391, 19.20698
1150.874, 19.69707
1151.356, 19.95425
1151.838, 20.38014
1152.320, 21.59966
1152.802, 22.82508
1153.284, 23.21497
1153.766, 23.02790
1154.248, 22.86285
1154.730, 22.82292
1155.213, 22.67725
1155.695, 22.11608
1156.177, 21.85525
1156.659, 22.59792
1157.141, 23.21868
1157.623, 23.08506
1158.105, 22.51638
1158.587, 21.75700
1159.069, 20.92938
1159.552, 20.29877
1160.034, 20.06454
1160.516, 19.44987
1160.998, 17.66661
1161.480, 16.53091
1161.962, 17.07388
1162.444, 17.62897
1162.926, 17.09762
1163.408, 16.06565
1163.891, 15.42920
1164.373, 15.18319
1164.855, 15.15983
1165.337, 15.68362
1165.819, 15.47511
1166.301, 14.12387
1166.783, 12.94160
1167.265, 12.56238
1167.748, 12.09156
1168.230, 10.52140
1168.712, 8.473888
1169.194, 8.002647
1169.676, 9.210278
1170.158, 8.972046
1170.640, 7.173717
1171.122, 6.646065
1171.604, 8.003815
1172.087, 9.005890
1172.569, 8.401726
1173.051, 7.268826
1173.533, 7.015240
1174.015, 7.272404
1174.497, 6.991859
1174.979, 6.302715
1175.461, 5.549358
1175.944, 4.871639
1176.426, 4.949554
1176.908, 5.811611
1177.390, 6.078094
1177.872, 4.705799
1178.354, 2.993214
1178.836, 2.290569
1179.318, 2.302269
1179.801, 3.124180
1180.283, 4.105881
1180.765, 3.955696
1181.247, 2.889061
1181.729, 2.042583
1182.211, 1.795906
1182.693, 1.765347
1183.175, 1.991837
1183.657, 2.000771
1184.140, 1.201580
1184.622, 0.3564720
1185.104, 1.2123000E-02
1185.586, 0.1044730
1186.068, 0.6716500
1186.550, 1.550617
1187.032, 2.024555
1187.514, 1.710175
1187.996, 1.677761
1188.479, 2.904392
1188.961, 3.415329
1189.443, 1.634678
1189.925, 0.1475600
1190.407, 0.2158430
1190.889, 1.436268
1191.371, 1.113323
1191.853, 0.7692950
1192.335, 1.217316
1192.818, 0.5745390
1193.300, 1.610233
1193.782, 1.512814
1194.264, 1.098557
1194.746, 0.4807970
1195.228, 0.1825140
1195.710, 0.7732390
1196.192, 1.766685
1196.675, 1.984642
1197.157, 1.459740
1197.639, 0.7916870
1198.121, 3.6470001E-03
1198.603, 0.1429250
1199.085, 1.298084
1199.567, 1.766197
1200.049, 0.7829210
1200.531, 0.4887310
1201.014, 0.9661250
1201.496, 0.7737390
1201.978, 0.4033240
1202.460, 1.818932
1202.942, 1.644920
1203.424, 0.3421780
1203.906, 0.9079440
1204.388, 1.730490
1204.871, 1.805658
1205.353, 0.9481770
1205.835, 4.0817000E-02
1206.317, 0.5905650
1206.799, 0.9612580
1207.281, 1.376400
1207.763, 1.693993
1208.245, 1.762142
1208.728, 1.627499
1209.210, 1.279140
1209.692, 0.7900540
1210.174, 0.6062010
1210.656, 1.034508
1211.138, 1.316975
1211.620, 1.326553
1212.102, 1.128628
1212.584, 0.3788380
1213.067, 0.1867030
1213.549, 0.2300450
1214.031, 1.000584
1214.513, 0.8347470
1214.995, 0.2612800
1215.477, 0.2412990
1215.959, 1.441753
1216.441, 2.102940
1216.923, 1.273197
1217.406, 0.6080170
1217.888, 0.7098730
1218.370, 0.8950120
1218.852, 0.5452730
1219.334, 0.1441800
1219.816, 0.8898320
1220.298, 2.422684
1220.780, 2.816788
1221.262, 2.247669
1221.745, 1.420769
1222.227, 0.5345730
1222.709, 7.3660002E-03
1223.191, 3.3629999E-02
1223.673, 9.5425002E-02
1224.155, 0.1950530
1224.637, 0.2316130
1225.119, 5.9188999E-02
1225.602, 9.6427999E-02
1226.084, 1.7246000E-02
1226.566, 0.3282240
1227.048, 0.8860170
1227.530, 1.478670
1228.012, 1.477016
1228.494, 0.7360000
1228.976, 0.3202740
1229.458, 1.020903
1229.941, 1.559818
1230.423, 1.360117
1230.905, 1.107843
1231.387, 1.239147
1231.869, 1.466612
1232.351, 1.510550
1232.833, 1.373398
1233.315, 0.9935210
1233.798, 0.2207160
1234.280, 0.2107120
1234.762, 1.387152
1235.244, 1.751213
1235.726, 0.6637630
1236.208, 0.3199620
1236.690, 1.897797
1237.172, 3.600790
1237.655, 3.526556
1238.137, 2.408134
1238.619, 1.999861
1239.101, 2.040136
1239.583, 2.388046
1240.065, 2.831631
1240.547, 3.134535
1241.029, 3.270741
1241.511, 3.327820
1241.994, 3.342623
1242.476, 3.335983
1242.958, 3.346897
1243.440, 3.161320
1243.922, 2.853535
1244.404, 2.542068
1244.886, 2.024872
1245.368, 1.364395
1245.850, 1.504362
1246.333, 2.090897
1246.815, 2.213245
1247.297, 1.639362
1247.779, 1.192955
1248.261, 0.8541830
1248.743, 0.9611110
1249.225, 2.027674
1249.707, 2.950691
1250.189, 3.390625
1250.672, 3.415522
1251.154, 3.398405
1251.636, 3.150694
1252.118, 2.207724
1252.600, 0.4748610
1253.082, 0.2032600
1253.564, 1.514439
1254.046, 1.910450
1254.529, 1.001936
1255.011, 1.046247
1255.493, 2.868803
1255.975, 4.137484
1256.457, 2.762638
1256.939, 0.6421430
1257.421, 1.021690
1257.903, 2.519047
1258.385, 2.633087
1258.868, 1.992384
1259.350, 1.931589
1259.832, 2.356115
1260.314, 2.503963
1260.796, 2.214108
1261.278, 2.078768
1261.760, 2.782330
1262.242, 2.945311
1262.725, 1.266909
1263.207, 0.1347870
1263.689, 0.1297870
1264.171, 0.8631650
1264.653, 0.9821030
1265.135, 0.7737560
1265.617, 0.9091070
1266.099, 1.382395
1266.582, 1.449978
1267.064, 1.002447
1267.546, 0.5323310
1268.028, 6.7079999E-03
1268.510, 4.7713999E-02
1268.992, 0.6247960
1269.474, 1.186178
1269.956, 1.120079
1270.438, 0.9080890
1270.921, 1.353876
1271.403, 2.068718
1271.885, 2.007320
1272.367, 1.583387
1272.849, 1.838030
1273.331, 2.570971
1273.813, 3.160194
1274.295, 3.410156
1274.777, 3.016386
1275.260, 1.930967
1275.742, 1.192892
1276.224, 1.558153
1276.706, 2.198400
1277.188, 2.982824
1277.670, 3.617449
1278.152, 3.855627
1278.634, 3.663940
1279.116, 2.650827
1279.599, 1.207817
1280.081, 0.8543620
1280.563, 1.902588
1281.045, 2.104446
1281.527, 1.241777
1282.009, 0.5099660
1282.491, 4.8202999E-02
1282.973, 4.7993001E-02
1283.456, 0.2790760
1283.938, 0.8358290
1284.420, 0.7666890
1284.902, 0.5561410
1285.384, 0.0000000E+00
##END=



