##NAMES=Pentahydrite
##RRUFFID=R060990
##IDEAL CHEMISTRY=MgSO_4_&#183;5H_2_O
##LOCALITY=Strassfurt, Prussia
##OWNER=RRUFF
##SOURCE=Michael Scott
##DESCRIPTION=Unconsolidated aggregate of colorless grains, mixed with starkeyite
##STATUS=The identification of this mineral has been made only by X-ray diffraction.
##URL=rruff.info/R060990
166.2601, 0.0000000E+00
166.7422, 0.9165040
167.2243, 0.1470950
167.7064, 0.1514890
168.1885, 2.721436
168.6707, 5.899170
169.1528, 6.758057
169.6349, 5.000732
170.1170, 3.870483
170.5991, 6.476074
171.0812, 11.18616
171.5634, 15.19141
172.0455, 17.11011
172.5276, 17.88806
173.0097, 18.29272
173.4918, 18.33667
173.9739, 18.39404
174.4561, 19.39941
174.9382, 20.09143
175.4203, 21.07996
175.9024, 22.56409
176.3845, 23.77161
176.8666, 22.97815
177.3488, 19.70007
177.8309, 15.60620
178.3130, 11.95996
178.7951, 8.843140
179.2772, 6.697632
179.7593, 6.804565
180.2415, 7.896484
180.7236, 7.205322
181.2057, 3.867310
181.6878, 1.2573000E-02
182.1699, 1.529419
182.6520, 0.9312740
183.1342, 6.3965000E-02
183.6163, 0.3208010
184.0984, 1.267334
184.5805, 1.0620000E-02
185.0626, 4.643677
185.5447, 10.33362
186.0269, 12.81091
186.5090, 12.16724
186.9911, 11.20386
187.4732, 11.89258
187.9553, 13.97693
188.4374, 16.15662
188.9196, 18.07141
189.4017, 20.15503
189.8838, 23.93359
190.3659, 29.58228
190.8480, 34.64941
191.3301, 36.44690
191.8123, 35.43408
192.2944, 36.08618
192.7765, 39.70190
193.2586, 45.30457
193.7407, 49.90100
194.2228, 53.39343
194.7050, 56.54578
195.1871, 59.57617
195.6692, 62.49243
196.1513, 66.97375
196.6334, 74.32349
197.1155, 83.23718
197.5977, 88.10779
198.0798, 88.10327
198.5619, 87.19470
199.0440, 89.22461
199.5261, 94.36511
200.0082, 99.56262
200.4904, 104.3717
200.9725, 108.7018
201.4546, 112.2891
201.9367, 115.2344
202.4188, 117.1311
202.9009, 116.9750
203.3831, 114.3114
203.8652, 112.7269
204.3473, 113.4994
204.8294, 116.3354
205.3115, 117.9753
205.7936, 118.3180
206.2758, 117.7004
206.7579, 116.3098
207.2400, 114.0009
207.7221, 111.5919
208.2042, 108.8951
208.6863, 105.9645
209.1685, 105.6147
209.6506, 109.1293
210.1327, 113.0768
210.6148, 112.9955
211.0969, 107.4805
211.5790, 102.7954
212.0612, 100.7367
212.5433, 101.3712
213.0254, 101.6039
213.5075, 100.6879
213.9896, 100.3641
214.4717, 103.4626
214.9538, 112.0524
215.4360, 118.4052
215.9181, 120.0333
216.4002, 116.5970
216.8823, 113.3933
217.3644, 109.9468
217.8465, 107.2457
218.3287, 106.8260
218.8108, 109.9199
219.2929, 112.5510
219.7750, 113.3934
220.2571, 112.4204
220.7392, 112.9352
221.2214, 115.0668
221.7035, 117.1735
222.1856, 117.9771
222.6677, 117.1356
223.1498, 116.6396
223.6319, 116.6708
224.1141, 117.1826
224.5962, 117.6757
225.0783, 118.0428
225.5604, 118.3490
226.0425, 118.8441
226.5246, 119.8250
227.0068, 120.6698
227.4889, 120.9857
227.9710, 120.5525
228.4531, 120.5879
228.9352, 121.1824
229.4173, 122.0297
229.8995, 122.9594
230.3816, 124.6157
230.8637, 125.6434
231.3458, 125.2562
231.8279, 122.9752
232.3100, 121.0713
232.7922, 119.3561
233.2743, 118.4431
233.7564, 119.2552
234.2385, 123.0552
234.7206, 126.1469
235.2027, 127.2571
235.6849, 125.9091
236.1670, 126.0382
236.6491, 128.7247
237.1312, 132.0372
237.6133, 133.4921
238.0954, 132.5037
238.5776, 130.6996
239.0597, 128.3375
239.5418, 125.3472
240.0239, 122.3147
240.5060, 119.2856
240.9881, 116.3374
241.4703, 113.5486
241.9524, 110.9241
242.4345, 108.4397
242.9166, 105.9568
243.3987, 103.3955
243.8808, 101.5211
244.3630, 100.7913
244.8451, 100.3542
245.3272, 99.10400
245.8093, 96.37146
246.2914, 94.10657
246.7735, 93.18750
247.2557, 93.93298
247.7378, 92.45422
248.2199, 87.33032
248.7020, 81.33594
249.1841, 77.68909
249.6662, 77.75220
250.1484, 77.40991
250.6305, 75.44446
251.1126, 71.69458
251.5947, 69.23608
252.0768, 68.78735
252.5589, 68.84387
253.0411, 67.87695
253.5232, 65.70740
254.0053, 62.86914
254.4874, 59.31433
254.9695, 55.01880
255.4516, 50.83862
255.9338, 46.63782
256.4159, 42.76318
256.8980, 39.63696
257.3801, 37.44482
257.8622, 35.65039
258.3444, 34.49902
258.8265, 33.94482
259.3086, 32.11829
259.7907, 28.51550
260.2728, 24.45959
260.7549, 21.02209
261.2371, 18.04224
261.7192, 16.18469
262.2013, 16.14282
262.6834, 17.59924
263.1655, 16.84827
263.6476, 12.41272
264.1298, 8.216309
264.6119, 7.929443
265.0940, 13.26917
265.5761, 16.54028
266.0582, 15.87097
266.5403, 12.10522
267.0225, 10.26074
267.5046, 10.94409
267.9867, 12.26477
268.4688, 12.89026
268.9509, 12.70752
269.4330, 12.36145
269.9152, 12.02979
270.3973, 11.56799
270.8794, 10.21790
271.3615, 7.658203
271.8436, 5.101318
272.3257, 3.564941
272.8079, 3.288940
273.2900, 2.405396
273.7721, 0.4559330
274.2542, 2.007446
274.7363, 3.453735
275.2184, 3.809937
275.7006, 3.364380
276.1827, 1.905762
276.6648, 0.7412110
277.1469, 2.466919
277.6290, 3.045166
278.1111, 2.725830
278.5933, 1.805908
279.0754, 0.1322020
279.5575, 1.271484
280.0396, 1.708008
280.5217, 1.186035
281.0038, 0.9176030
281.4860, 1.073120
281.9681, 1.346069
282.4502, 0.9873050
282.9323, 6.1400998E-02
283.4144, 0.6853030
283.8965, 4.3701001E-02
284.3787, 1.959473
284.8608, 3.023804
285.3429, 3.132080
285.8250, 2.577759
286.3071, 1.281982
286.7892, 0.7285160
287.2714, 1.794067
287.7535, 0.3499760
288.2356, 2.926147
288.7177, 3.938110
289.1998, 2.398315
289.6819, 0.1470950
290.1641, 0.5179440
290.6462, 0.1999510
291.1283, 0.7308350
291.6104, 0.4023440
292.0925, 0.5441890
292.5746, 1.465942
293.0568, 2.386475
293.5389, 3.111694
294.0210, 2.906250
294.5031, 2.168823
294.9852, 2.518555
295.4673, 4.811401
295.9495, 8.302368
296.4316, 12.18542
296.9137, 16.38367
297.3958, 19.16699
297.8779, 17.79089
298.3600, 13.79102
298.8422, 11.07629
299.3243, 11.21790
299.8064, 12.49487
300.2885, 12.38403
300.7706, 11.07458
301.2527, 9.898438
301.7349, 9.553467
302.2170, 10.03394
302.6991, 11.61658
303.1812, 15.13464
303.6633, 18.33093
304.1454, 18.31165
304.6276, 15.77173
305.1097, 13.19934
305.5918, 12.20825
306.0739, 11.98950
306.5560, 11.39233
307.0381, 9.900513
307.5203, 9.053223
308.0024, 10.74316
308.4845, 14.10303
308.9666, 17.09497
309.4487, 19.91272
309.9308, 21.21985
310.4130, 18.93567
310.8951, 12.17712
311.3772, 6.050903
311.8593, 4.415405
312.3414, 5.498535
312.8235, 6.459473
313.3057, 5.824951
313.7878, 4.977173
314.2699, 4.660034
314.7520, 4.924561
315.2341, 5.670898
315.7162, 6.779053
316.1984, 8.361816
316.6805, 10.55127
317.1626, 15.59387
317.6447, 19.19080
318.1268, 19.00061
318.6089, 15.24512
319.0911, 11.31091
319.5732, 6.922119
320.0553, 3.520630
320.5374, 2.286987
321.0195, 6.272339
321.5016, 9.445679
321.9838, 9.537964
322.4659, 7.348389
322.9480, 6.752563
323.4301, 10.62573
323.9122, 14.79321
324.3943, 16.88245
324.8765, 13.95691
325.3586, 12.87195
325.8407, 15.81995
326.3228, 21.09143
326.8049, 24.40125
327.2870, 24.28162
327.7692, 23.15942
328.2513, 21.53345
328.7334, 18.24927
329.2155, 17.12537
329.6976, 19.96191
330.1797, 24.33215
330.6619, 26.38147
331.1440, 24.29980
331.6261, 22.23535
332.1082, 21.17505
332.5903, 21.27905
333.0724, 21.85193
333.5546, 23.35706
334.0367, 25.08484
334.5188, 26.07397
335.0009, 25.44788
335.4830, 25.82935
335.9651, 28.18018
336.4473, 32.24023
336.9294, 34.46533
337.4115, 34.31238
337.8936, 33.44629
338.3757, 33.05908
338.8578, 33.14819
339.3399, 33.89624
339.8221, 35.88147
340.3042, 38.31311
340.7863, 37.72144
341.2684, 33.31958
341.7505, 29.66211
342.2326, 30.10730
342.7148, 34.65991
343.1969, 38.26685
343.6790, 40.47900
344.1611, 41.86902
344.6432, 43.24536
345.1253, 44.51013
345.6075, 45.39380
346.0896, 46.00854
346.5717, 46.21362
347.0538, 44.25647
347.5359, 39.66565
348.0180, 35.46484
348.5002, 36.32446
348.9823, 40.99292
349.4644, 44.34668
349.9465, 44.53674
350.4286, 42.29517
350.9107, 37.91968
351.3929, 31.52490
351.8750, 25.85889
352.3571, 23.43237
352.8392, 23.32593
353.3213, 24.08215
353.8034, 26.31396
354.2856, 27.91772
354.7677, 25.46033
355.2498, 20.07764
355.7319, 16.32690
356.2140, 18.26685
356.6961, 22.55371
357.1783, 25.92761
357.6604, 27.75439
358.1425, 28.71997
358.6246, 29.02551
359.1067, 28.75012
359.5888, 28.08655
360.0710, 26.61194
360.5531, 25.10742
361.0352, 23.86182
361.5173, 22.84631
361.9994, 22.54565
362.4815, 23.96924
362.9637, 25.89771
363.4458, 27.02649
363.9279, 27.16016
364.4100, 26.33691
364.8921, 24.25781
365.3742, 21.02087
365.8564, 17.80408
366.3385, 13.70630
366.8206, 10.40979
367.3027, 8.928223
367.7848, 12.44714
368.2669, 14.07922
368.7491, 11.79639
369.2312, 7.256714
369.7133, 5.368286
370.1954, 9.604004
370.6775, 12.76318
371.1596, 11.64856
371.6418, 3.773193
372.1239, 0.9851070
372.6060, 0.9868160
373.0881, 1.024292
373.5702, 0.8608400
374.0523, 2.884399
374.5345, 5.552612
375.0166, 5.584595
375.4987, 3.038330
375.9808, 1.560913
376.4629, 1.698364
376.9450, 1.791870
377.4272, 0.2589110
377.9093, 4.845093
378.3914, 7.553833
378.8735, 7.124878
379.3556, 4.694458
379.8377, 3.582520
380.3199, 3.891602
380.8020, 4.220825
381.2841, 3.593384
381.7662, 2.178589
382.2483, 0.7391360
382.7304, 0.7413330
383.2126, 1.886108
383.6947, 1.916626
384.1768, 1.016968
384.6589, 0.2117920
385.1410, 0.5655520
385.6231, 1.083740
386.1053, 0.5496830
386.5874, 4.424194
387.0695, 7.712769
387.5516, 7.161133
388.0337, 4.545898
388.5158, 3.013062
388.9980, 4.483521
389.4801, 6.348877
389.9622, 5.864746
390.4443, 3.669556
390.9264, 2.436890
391.4085, 4.956421
391.8907, 8.294556
392.3728, 9.878906
392.8549, 8.447266
393.3370, 7.249634
393.8191, 7.703857
394.3012, 9.283936
394.7834, 11.10620
395.2655, 13.45032
395.7476, 15.48474
396.2297, 16.63000
396.7118, 16.67651
397.1939, 17.30896
397.6761, 19.62244
398.1582, 22.18665
398.6403, 23.80640
399.1224, 22.91138
399.6045, 22.82471
400.0866, 24.47107
400.5688, 27.43262
401.0509, 29.05103
401.5330, 28.18396
402.0151, 27.44287
402.4972, 28.13123
402.9793, 30.80725
403.4615, 33.67761
403.9436, 37.15906
404.4257, 40.47327
404.9078, 41.70508
405.3899, 39.99426
405.8720, 39.55139
406.3542, 42.34167
406.8363, 48.01807
407.3184, 51.85571
407.8005, 53.71436
408.2826, 54.33887
408.7647, 54.08167
409.2469, 53.00476
409.7290, 51.92908
410.2111, 50.59363
410.6932, 49.88745
411.1753, 52.34949
411.6574, 57.63708
412.1396, 62.60620
412.6217, 64.80774
413.1038, 65.37683
413.5859, 66.12244
414.0680, 67.06335
414.5501, 69.24878
415.0323, 75.26660
415.5144, 83.16089
415.9965, 89.25342
416.4786, 90.32849
416.9607, 90.07971
417.4428, 91.01428
417.9250, 93.10144
418.4071, 96.03284
418.8892, 100.8296
419.3713, 105.7157
419.8534, 108.9611
420.3355, 108.7548
420.8177, 109.3038
421.2998, 112.1711
421.7819, 116.7848
422.2640, 121.9767
422.7461, 128.9689
423.2282, 135.1642
423.7104, 139.5558
424.1925, 141.6665
424.6746, 143.6785
425.1567, 143.6947
425.6388, 144.8439
426.1209, 150.3315
426.6031, 164.8954
427.0852, 175.8341
427.5673, 179.8513
428.0494, 178.6084
428.5315, 181.3826
429.0136, 189.5389
429.4958, 198.5924
429.9779, 206.0859
430.4600, 211.8345
430.9421, 216.9843
431.4242, 221.1780
431.9063, 225.3728
432.3885, 231.4536
432.8706, 239.4668
433.3527, 247.0129
433.8348, 253.2098
434.3169, 258.2587
434.7990, 262.3468
435.2812, 265.4927
435.7633, 269.2297
436.2454, 275.2725
436.7275, 282.8051
437.2096, 290.3506
437.6917, 298.2711
438.1739, 304.7889
438.6560, 307.2051
439.1381, 306.5846
439.6202, 305.7908
440.1023, 305.0157
440.5844, 305.4310
441.0666, 309.1768
441.5487, 316.5840
442.0308, 322.3685
442.5129, 321.4530
442.9950, 318.8690
443.4771, 319.3547
443.9593, 329.2334
444.4414, 336.8993
444.9235, 338.3177
445.4056, 334.8781
445.8877, 331.6992
446.3698, 328.6980
446.8520, 326.7394
447.3341, 326.4512
447.8162, 328.7887
448.2983, 330.3370
448.7804, 331.2847
449.2625, 330.9836
449.7447, 328.4237
450.2268, 322.6836
450.7089, 317.7899
451.1910, 315.0155
451.6731, 313.7711
452.1552, 311.6171
452.6374, 308.6934
453.1195, 304.8425
453.6016, 299.6156
454.0837, 293.1089
454.5658, 286.6775
455.0479, 280.1980
455.5301, 274.6940
456.0122, 272.7926
456.4943, 273.7769
456.9764, 273.4598
457.4585, 270.2440
457.9406, 264.8060
458.4228, 257.4349
458.9049, 248.3846
459.3870, 239.5447
459.8691, 231.5750
460.3512, 224.8573
460.8333, 220.4027
461.3155, 219.3821
461.7976, 217.7283
462.2797, 212.8114
462.7618, 205.4678
463.2439, 197.2238
463.7260, 187.9690
464.2082, 178.4958
464.6903, 168.8900
465.1724, 159.2031
465.6545, 150.9169
466.1366, 145.2446
466.6187, 140.6293
467.1009, 136.0822
467.5830, 131.5200
468.0651, 127.0320
468.5472, 122.6553
469.0293, 118.1277
469.5114, 113.1865
469.9936, 108.0376
470.4757, 102.7188
470.9578, 97.04907
471.4399, 91.03540
471.9220, 85.90381
472.4041, 81.89819
472.8863, 78.18481
473.3684, 73.75317
473.8505, 68.64282
474.3326, 65.07617
474.8147, 63.91968
475.2968, 63.39404
475.7790, 59.67529
476.2611, 53.31958
476.7432, 48.15784
477.2253, 47.38110
477.7074, 48.50818
478.1895, 47.52405
478.6717, 44.36768
479.1538, 40.75134
479.6359, 37.39392
480.1180, 34.55298
480.6001, 32.70825
481.0822, 33.00403
481.5644, 32.61682
482.0465, 28.75415
482.5286, 23.17542
483.0107, 19.67737
483.4928, 21.93115
483.9749, 24.33252
484.4571, 24.56274
484.9392, 22.25549
485.4213, 19.58313
485.9034, 15.62830
486.3855, 12.06616
486.8676, 9.978760
487.3498, 9.575806
487.8319, 10.32471
488.3140, 12.87231
488.7961, 16.17737
489.2782, 17.65027
489.7603, 16.84070
490.2425, 15.61646
490.7246, 14.97400
491.2067, 14.73242
491.6888, 12.24146
492.1709, 7.106201
492.6530, 2.218628
493.1352, 0.8875730
493.6173, 2.266724
494.0994, 2.674194
494.5815, 1.175171
495.0636, 0.8283690
495.5457, 1.512695
496.0279, 1.164185
496.5100, 0.6816410
496.9921, 0.7293700
497.4742, 0.6851810
497.9563, 0.4803470
498.4384, 2.701782
498.9206, 3.910767
499.4027, 2.140259
499.8848, 0.5928960
500.3669, 2.683960
500.8490, 3.584839
501.3311, 4.203613
501.8133, 4.928467
502.2954, 5.500122
502.7775, 5.422119
503.2596, 4.132202
503.7417, 2.770020
504.2238, 1.293945
504.7060, 0.2738040
505.1881, 0.2102050
505.6702, 2.808105
506.1523, 5.294312
506.6344, 4.110962
507.1165, 1.630737
507.5987, 4.174316
508.0808, 2.217407
508.5629, 1.425781
509.0450, 2.222290
509.5271, 0.3824460
510.0092, 1.170532
510.4914, 1.227173
510.9735, 0.4825440
511.4556, 0.2864990
511.9377, 0.6018070
512.4199, 1.063843
512.9020, 1.560425
513.3841, 2.001099
513.8662, 2.336548
514.3483, 2.614014
514.8304, 2.474731
515.3126, 1.306519
515.7947, 0.3068850
516.2768, 1.632080
516.7589, 2.789917
517.2410, 3.305664
517.7231, 2.822998
518.2053, 1.514282
518.6874, 0.1840820
519.1695, 0.9062500
519.6516, 2.174438
520.1337, 4.051514
520.6158, 7.123047
521.0980, 8.166626
521.5801, 6.408447
522.0622, 3.661621
522.5443, 1.703003
523.0264, 0.6743160
523.5085, 0.3295900
523.9907, 1.452271
524.4728, 2.591431
524.9549, 3.942261
525.4370, 5.444702
525.9191, 5.691406
526.4012, 2.867432
526.8834, 1.480713
527.3655, 3.863770
527.8476, 4.277100
528.3297, 4.086914
528.8118, 3.877808
529.2939, 3.849121
529.7761, 4.283813
530.2582, 5.326660
530.7403, 6.586060
531.2224, 8.086670
531.7045, 9.584595
532.1866, 10.68176
532.6688, 11.44141
533.1509, 11.58923
533.6330, 10.31348
534.1151, 7.746094
534.5972, 7.167114
535.0793, 11.03259
535.5615, 14.31848
536.0436, 14.36658
536.5257, 9.995117
537.0078, 6.447144
537.4899, 3.405518
537.9720, 1.740356
538.4542, 3.522705
538.9363, 9.106323
539.4184, 12.68225
539.9005, 12.41785
540.3826, 10.02881
540.8647, 8.896118
541.3469, 8.926147
541.8290, 9.305542
542.3111, 10.19739
542.7932, 10.90173
543.2753, 9.708496
543.7574, 6.599609
544.2396, 4.528564
544.7217, 6.797974
545.2038, 10.48267
545.6859, 12.45728
546.1680, 10.63232
546.6501, 9.502686
547.1323, 11.06482
547.6144, 14.19934
548.0965, 16.99365
548.5786, 19.45349
549.0607, 21.20386
549.5428, 21.99365
550.0250, 21.91431
550.5071, 21.82642
550.9892, 21.51990
551.4713, 21.60742
551.9534, 22.85852
552.4355, 25.57239
552.9177, 25.81238
553.3998, 23.06628
553.8819, 19.76819
554.3640, 19.33325
554.8461, 21.08752
555.3282, 21.11743
555.8104, 17.60913
556.2925, 13.58398
556.7746, 13.15759
557.2567, 15.60229
557.7388, 18.55737
558.2209, 22.19104
558.7031, 24.91760
559.1852, 24.85413
559.6673, 22.09802
560.1494, 19.61011
560.6315, 19.66797
561.1136, 19.83899
561.5958, 18.16516
562.0779, 11.69104
562.5600, 8.707153
563.0421, 11.76599
563.5242, 16.96460
564.0063, 19.63855
564.4885, 18.83655
564.9706, 18.50024
565.4527, 18.73962
565.9348, 19.62891
566.4169, 21.78821
566.8990, 25.48926
567.3812, 29.17310
567.8633, 31.99939
568.3454, 33.97327
568.8275, 35.52588
569.3096, 36.66394
569.7917, 37.26624
570.2739, 36.85840
570.7560, 35.93372
571.2381, 35.18555
571.7202, 34.70728
572.2023, 34.61365
572.6844, 35.01001
573.1666, 35.81909
573.6487, 36.93042
574.1308, 39.20825
574.6129, 40.88684
575.0950, 41.41956
575.5771, 40.95874
576.0593, 40.15967
576.5414, 37.26709
577.0235, 36.25586
577.5056, 39.40894
577.9877, 47.40283
578.4698, 52.03552
578.9520, 52.27625
579.4341, 51.65527
579.9162, 53.78125
580.3983, 58.35547
580.8804, 61.23621
581.3625, 61.33105
581.8447, 60.98706
582.3268, 64.39233
582.8089, 70.08850
583.2910, 74.06714
583.7731, 73.15479
584.2552, 71.50427
584.7373, 72.53064
585.2194, 75.67505
585.7015, 79.55005
586.1837, 84.27148
586.6658, 88.93274
587.1479, 93.20801
587.6300, 97.04431
588.1121, 100.3746
588.5942, 102.2582
589.0764, 104.3048
589.5585, 107.6796
590.0406, 113.3383
590.5227, 117.9044
591.0048, 120.7267
591.4869, 123.1149
591.9691, 127.6674
592.4512, 134.5092
592.9333, 140.0679
593.4154, 143.1200
593.8975, 144.5720
594.3796, 145.9166
594.8618, 147.2324
595.3439, 149.0264
595.8260, 152.1893
596.3081, 155.6436
596.7902, 158.4182
597.2723, 160.4490
597.7545, 161.5659
598.2366, 161.5171
598.7187, 160.5775
599.2008, 158.8013
599.6829, 155.5122
600.1650, 152.8453
600.6472, 152.7247
601.1293, 152.6276
601.6114, 149.5396
602.0935, 141.7130
602.5756, 134.5208
603.0577, 128.4977
603.5399, 123.6740
604.0220, 120.4535
604.5041, 119.0945
604.9862, 117.0236
605.4683, 112.0702
605.9504, 105.8431
606.4326, 104.2067
606.9147, 106.7511
607.3968, 107.9358
607.8789, 101.4098
608.3610, 92.25378
608.8431, 86.85303
609.3253, 86.23694
609.8074, 87.09216
610.2895, 89.27441
610.7716, 91.19226
611.2537, 91.34351
611.7358, 88.39307
612.2180, 84.93701
612.7001, 80.15552
613.1822, 75.38477
613.6643, 72.99402
614.1464, 74.17151
614.6285, 75.37048
615.1107, 76.20544
615.5928, 76.38538
616.0749, 73.87793
616.5570, 68.41821
617.0391, 63.95337
617.5212, 63.45483
618.0034, 65.69739
618.4855, 67.67871
618.9676, 69.17480
619.4497, 69.69446
619.9318, 68.35437
620.4139, 66.02502
620.8961, 63.37634
621.3782, 59.92480
621.8603, 58.05164
622.3424, 60.20569
622.8245, 63.98572
623.3066, 66.53699
623.7888, 67.06958
624.2709, 66.47559
624.7530, 64.17725
625.2351, 61.05286
625.7172, 59.33533
626.1993, 59.38159
626.6815, 59.44800
627.1636, 59.13745
627.6457, 58.42151
628.1278, 56.62988
628.6099, 53.74622
629.0920, 51.80127
629.5742, 53.24377
630.0563, 56.23376
630.5384, 57.42822
631.0205, 56.64832
631.5026, 55.10547
631.9847, 53.87610
632.4669, 52.22827
632.9490, 49.09314
633.4311, 42.99146
633.9132, 38.58118
634.3953, 38.51990
634.8774, 40.26440
635.3596, 40.61230
635.8417, 38.44385
636.3238, 36.64355
636.8059, 35.46497
637.2880, 34.85376
637.7701, 35.24377
638.2523, 37.02344
638.7344, 36.70288
639.2165, 31.61914
639.6986, 24.16858
640.1807, 21.41956
640.6628, 23.04199
641.1450, 25.67725
641.6271, 28.29248
642.1092, 30.03516
642.5913, 29.09216
643.0734, 25.33167
643.5555, 22.48657
644.0377, 23.69165
644.5198, 25.68909
645.0019, 25.88098
645.4840, 22.47009
645.9661, 20.36182
646.4482, 20.18359
646.9304, 21.14185
647.4125, 22.66077
647.8946, 25.05054
648.3767, 26.26062
648.8588, 25.69141
649.3409, 24.21936
649.8231, 23.79016
650.3052, 24.23328
650.7873, 23.72400
651.2694, 20.54504
651.7515, 16.99585
652.2336, 17.15991
652.7158, 20.11816
653.1979, 22.48975
653.6800, 21.48254
654.1621, 20.06335
654.6442, 20.54663
655.1263, 23.03198
655.6085, 24.24133
656.0906, 22.48096
656.5727, 20.04565
657.0548, 17.85437
657.5369, 15.58557
658.0190, 15.24670
658.5012, 17.85620
658.9833, 20.50659
659.4654, 19.89404
659.9475, 16.16760
660.4296, 13.60132
660.9117, 12.97314
661.3939, 12.83386
661.8760, 10.98193
662.3581, 8.224731
662.8402, 6.521851
663.3223, 7.139160
663.8044, 8.123779
664.2866, 8.091675
664.7687, 7.631714
665.2508, 7.715942
665.7329, 9.253662
666.2150, 10.70837
666.6971, 11.87415
667.1793, 12.77246
667.6614, 12.70337
668.1435, 10.88220
668.6256, 9.597290
669.1077, 10.10168
669.5898, 12.11646
670.0720, 13.56787
670.5541, 14.70959
671.0362, 14.65100
671.5183, 11.43225
672.0004, 6.708008
672.4825, 4.334839
672.9647, 4.848511
673.4468, 5.576538
673.9289, 4.760620
674.4110, 3.149414
674.8931, 1.095703
675.3752, 2.324829
675.8574, 4.088745
676.3395, 1.641235
676.8216, 1.986572
677.3037, 3.275146
677.7858, 0.9449460
678.2679, 0.7528080
678.7501, 1.018555
679.2322, 0.6303710
679.7143, 1.439087
680.1964, 3.349487
680.6785, 3.992188
681.1606, 1.747803
681.6428, 1.353882
682.1249, 1.530396
682.6070, 0.5360110
683.0891, 2.359863
683.5712, 2.325806
684.0533, 1.743042
684.5355, 1.658691
685.0176, 1.872437
685.4997, 1.647949
685.9818, 1.291260
686.4639, 8.4229996E-03
686.9460, 3.139160
687.4282, 8.566284
687.9103, 11.26465
688.3924, 10.65918
688.8745, 8.709106
689.3566, 6.303467
689.8387, 3.553833
690.3209, 2.384644
690.8030, 3.022705
691.2851, 4.155029
691.7672, 4.495483
692.2493, 4.409912
692.7314, 4.451172
693.2136, 4.664917
693.6957, 5.251831
694.1778, 7.412720
694.6599, 9.623901
695.1420, 10.00293
695.6241, 5.937134
696.1063, 2.905151
696.5884, 1.819580
697.0705, 1.809204
697.5526, 0.9947510
698.0347, 1.216553
698.5168, 1.624634
698.9990, 1.343628
699.4811, 5.768799
699.9632, 6.714966
700.4453, 4.650024
700.9274, 2.492065
701.4095, 1.245117
701.8917, 0.9582520
702.3738, 2.742065
702.8559, 5.915039
703.3380, 7.300659
703.8201, 3.558105
704.3022, 0.5324710
704.7844, 2.563721
705.2665, 2.279541
705.7486, 1.707031
706.2307, 0.5424800
706.7128, 0.4852290
707.1949, 0.9266360
707.6771, 0.7597660
708.1592, 0.5106200
708.6413, 4.4312000E-02
709.1234, 0.3242190
709.6055, 3.389038
710.0876, 7.611328
710.5698, 8.925171
711.0519, 6.525024
711.5340, 3.904297
712.0161, 3.269409
712.4982, 3.841187
712.9803, 4.865601
713.4625, 6.260986
713.9446, 7.867798
714.4267, 10.29309
714.9088, 12.52124
715.3909, 13.43384
715.8730, 12.56616
716.3552, 11.86621
716.8373, 11.79260
717.3194, 11.64087
717.8015, 9.830688
718.2836, 6.639038
718.7657, 4.172729
719.2479, 3.286133
719.7300, 3.109985
720.2121, 3.209473
720.6942, 3.252686
721.1763, 2.450928
721.6584, 1.716187
722.1406, 4.722656
722.6227, 3.351563
723.1048, 1.049194
723.5869, 3.062500
724.0690, 0.7132570
724.5511, 1.244263
725.0333, 1.132324
725.5154, 0.5162350
725.9975, 0.1036380
726.4796, 2.675781
726.9617, 3.934937
727.4438, 0.3870850
727.9260, 7.166748
728.4081, 9.574829
728.8902, 7.946289
729.3723, 5.170044
729.8544, 1.045044
730.3365, 2.055908
730.8187, 1.600708
731.3008, 2.774780
731.7829, 5.736694
732.2650, 4.625000
732.7471, 3.410522
733.2292, 4.140503
733.7114, 7.327271
734.1935, 9.218628
734.6756, 9.710327
735.1577, 9.001587
735.6398, 5.807007
736.1219, 1.413574
736.6041, 1.675293
737.0862, 7.626343
737.5683, 13.41650
738.0504, 13.51648
738.5325, 10.84912
739.0146, 8.806763
739.4968, 8.502075
739.9789, 7.616943
740.4610, 3.497314
740.9431, 0.5246580
741.4252, 0.7954100
741.9073, 4.916382
742.3895, 8.809204
742.8716, 9.723511
743.3537, 9.326660
743.8358, 10.56897
744.3179, 13.17847
744.8000, 14.56921
745.2822, 13.89404
745.7643, 12.52234
746.2464, 12.17090
746.7285, 12.21411
747.2106, 11.59192
747.6927, 9.109009
748.1749, 6.890991
748.6570, 5.572998
749.1391, 5.028320
749.6212, 4.854492
750.1033, 4.088379
750.5854, 5.815552
751.0676, 12.14380
751.5497, 20.02930
752.0318, 20.45178
752.5139, 13.66760
752.9960, 8.791382
753.4781, 10.56934
753.9603, 14.72986
754.4424, 14.94275
754.9245, 12.25403
755.4066, 9.901733
755.8887, 9.202637
756.3708, 9.301147
756.8530, 10.48218
757.3351, 12.30322
757.8172, 12.95142
758.2993, 11.18921
758.7814, 10.23376
759.2635, 11.42175
759.7457, 14.07593
760.2278, 14.13123
760.7099, 11.43262
761.1920, 9.197144
761.6741, 9.299805
762.1563, 10.91443
762.6384, 13.52991
763.1205, 16.82690
763.6026, 18.50037
764.0847, 16.00049
764.5668, 12.57483
765.0490, 10.01050
765.5311, 8.400269
766.0132, 6.949341
766.4953, 4.792847
766.9774, 4.027100
767.4595, 6.322266
767.9417, 11.46375
768.4238, 12.97583
768.9059, 10.54565
769.3880, 8.197876
769.8701, 9.680176
770.3522, 12.80371
770.8344, 13.05798
771.3165, 10.43225
771.7986, 8.763916
772.2807, 11.54138
772.7628, 15.06226
773.2449, 16.58398
773.7271, 15.31787
774.2092, 15.48132
774.6913, 18.99170
775.1734, 21.52698
775.6555, 20.04956
776.1376, 14.33813
776.6198, 10.07312
777.1019, 7.334839
777.5840, 5.386841
778.0661, 3.004883
778.5482, 1.227783
779.0303, 2.863159
779.5125, 8.203003
779.9946, 11.72827
780.4767, 8.558594
780.9588, 4.165649
781.4409, 2.370728
781.9230, 4.790039
782.4052, 5.790771
782.8873, 4.558960
783.3694, 3.325562
783.8515, 3.427612
784.3336, 4.676514
784.8157, 7.524536
785.2979, 12.58936
785.7800, 16.76123
786.2621, 16.91711
786.7442, 14.32227
787.2263, 10.14771
787.7084, 3.957153
788.1906, 0.1571040
788.6727, 1.751465
789.1548, 5.824219
789.6369, 8.630981
790.1190, 9.685181
790.6011, 10.12646
791.0833, 9.661743
791.5654, 9.076782
792.0475, 9.211304
792.5296, 9.979980
793.0117, 10.39917
793.4938, 10.40161
793.9760, 10.04456
794.4581, 9.862427
794.9402, 9.390747
795.4223, 7.623413
795.9044, 3.909912
796.3865, 0.8612060
796.8687, 0.9863280
797.3508, 1.475464
797.8329, 0.2265630
798.3150, 4.676270
798.7971, 5.842529
799.2792, 2.283081
799.7614, 1.578125
800.2435, 1.642090
800.7256, 1.520874
801.2077, 5.975830
801.6898, 11.88611
802.1719, 15.72266
802.6541, 12.18445
803.1362, 5.877441
803.6183, 1.933716
804.1004, 1.971924
804.5825, 2.399414
805.0646, 2.597412
805.5468, 2.765259
806.0289, 2.908081
806.5110, 2.767456
806.9931, 3.683350
807.4752, 5.800171
807.9573, 8.488770
808.4395, 12.09998
808.9216, 15.67859
809.4037, 16.49341
809.8858, 13.96851
810.3679, 10.37793
810.8500, 5.429565
811.3322, 1.332764
811.8143, 0.4066160
812.2964, 4.701782
812.7785, 7.928711
813.2606, 9.641113
813.7427, 10.41919
814.2249, 10.88123
814.7070, 11.08850
815.1891, 8.933228
815.6712, 3.912842
816.1533, 0.1900630
816.6354, 1.521484
817.1176, 6.141357
817.5997, 8.977295
818.0818, 9.077148
818.5639, 9.662598
819.0460, 13.35315
819.5281, 17.33948
820.0103, 19.41040
820.4924, 19.09912
820.9745, 18.38708
821.4566, 17.06042
821.9387, 15.75220
822.4208, 15.28040
822.9030, 15.35095
823.3851, 14.31555
823.8672, 12.05701
824.3493, 9.649780
824.8314, 7.886353
825.3135, 6.507568
825.7957, 5.196533
826.2778, 3.880615
826.7599, 3.049194
827.2420, 2.928833
827.7241, 3.305664
828.2062, 4.345703
828.6884, 6.206055
829.1705, 6.986816
829.6526, 6.614746
830.1347, 5.694092
830.6168, 3.861816
831.0989, 2.071655
831.5811, 2.719971
832.0632, 5.747192
832.5453, 8.502319
833.0274, 8.693848
833.5095, 8.618408
833.9916, 10.10706
834.4738, 13.50720
834.9559, 15.18262
835.4380, 14.75012
835.9201, 13.12720
836.4022, 9.628174
836.8843, 5.245605
837.3665, 6.769409
837.8486, 13.71448
838.3307, 19.90027
838.8128, 21.30042
839.2949, 20.29822
839.7770, 18.67371
840.2592, 16.62524
840.7413, 15.01331
841.2234, 14.22290
841.7055, 13.83765
842.1876, 13.95422
842.6697, 14.26355
843.1519, 14.21631
843.6340, 13.71350
844.1161, 14.16602
844.5982, 17.54187
845.0803, 21.23718
845.5624, 18.50500
846.0446, 11.15820
846.5267, 5.969849
847.0088, 8.661621
847.4909, 11.82825
847.9730, 11.61877
848.4551, 8.775146
848.9373, 7.074463
849.4194, 7.538208
849.9015, 6.969238
850.3836, 3.836792
850.8657, 8.4716998E-02
851.3478, 1.461426
851.8300, 6.991455
852.3121, 10.50989
852.7942, 8.422974
853.2763, 5.418335
853.7584, 6.078979
854.2405, 8.588135
854.7227, 9.747559
855.2048, 8.481079
855.6869, 6.225708
856.1690, 1.828613
856.6511, 2.866699
857.1332, 4.280273
857.6154, 2.347778
858.0975, 0.2327880
858.5796, 1.701172
859.0617, 3.494141
859.5438, 5.379395
860.0259, 7.191162
860.5081, 8.711304
860.9902, 10.23889
861.4723, 10.54858
861.9544, 7.982300
862.4365, 4.702148
862.9186, 2.838135
863.4008, 2.623047
863.8829, 3.242065
864.3650, 4.638550
864.8471, 6.386353
865.3292, 8.948364
865.8113, 11.68591
866.2935, 12.20898
866.7756, 10.09546
867.2577, 8.571289
867.7398, 10.65063
868.2219, 13.62341
868.7040, 15.66382
869.1862, 16.73694
869.6683, 15.37268
870.1504, 9.968384
870.6325, 5.426514
871.1146, 5.753052
871.5967, 9.964233
872.0789, 9.960571
872.5610, 6.037109
873.0431, 2.310303
873.5252, 1.279053
874.0073, 2.176636
874.4894, 5.359253
874.9716, 10.22498
875.4537, 12.85046
875.9358, 10.63452
876.4179, 7.933838
876.9000, 5.571655
877.3821, 3.771118
877.8643, 3.916748
878.3464, 5.690674
878.8285, 6.941895
879.3106, 5.750488
879.7927, 4.291748
880.2748, 6.079956
880.7570, 9.917725
881.2391, 12.82300
881.7212, 13.41260
882.2033, 13.18176
882.6854, 12.21777
883.1675, 10.87756
883.6497, 9.213623
884.1318, 6.898560
884.6139, 6.992310
885.0960, 10.91370
885.5781, 15.28271
886.0602, 13.72424
886.5424, 9.142456
887.0245, 8.236084
887.5066, 15.02429
887.9887, 20.14795
888.4708, 18.35620
888.9529, 13.47095
889.4351, 9.182739
889.9172, 4.949341
890.3993, 3.480469
890.8814, 5.452148
891.3635, 8.268311
891.8456, 9.992065
892.3278, 10.54224
892.8099, 9.347168
893.2920, 6.370605
893.7741, 3.217896
894.2562, 1.2085000E-02
894.7383, 2.226563
895.2205, 2.206665
895.7026, 0.4337160
896.1847, 1.907349
896.6668, 1.420532
897.1489, 1.745361
897.6310, 5.543457
898.1132, 11.07910
898.5953, 10.05762
899.0774, 3.514648
899.5595, 1.643677
900.0416, 0.4407960
900.5237, 2.512695
901.0059, 4.554688
901.4880, 5.717407
901.9701, 6.551636
902.4522, 6.868530
902.9343, 7.326172
903.4164, 8.465210
903.8986, 9.360474
904.3807, 6.876221
904.8628, 1.814697
905.3449, 0.3103030
905.8270, 3.317749
906.3091, 7.593262
906.7913, 7.854370
907.2734, 6.184204
907.7555, 5.272583
908.2376, 6.240967
908.7197, 7.242432
909.2018, 8.662231
909.6840, 9.707397
910.1661, 8.844238
910.6482, 6.408691
911.1303, 7.774780
911.6124, 13.65259
912.0945, 17.43616
912.5767, 9.074097
913.0588, 1.270752
913.5409, 2.162598
914.0230, 8.501831
914.5051, 15.07373
914.9872, 12.74890
915.4694, 9.831299
915.9515, 9.897583
916.4336, 12.33496
916.9157, 13.46802
917.3978, 13.28687
917.8799, 12.07983
918.3621, 8.727295
918.8442, 5.440552
919.3263, 5.344727
919.8084, 7.170898
920.2905, 7.246216
920.7726, 1.801758
921.2548, 1.856445
921.7369, 2.333984
922.2190, 0.6185300
922.7011, 1.592651
923.1832, 4.276611
923.6653, 7.815430
924.1475, 13.06201
924.6296, 16.55359
925.1117, 13.05188
925.5938, 6.457153
926.0759, 1.727173
926.5580, 0.6608890
927.0402, 0.4132080
927.5223, 2.496582
928.0044, 4.074585
928.4865, 3.663086
928.9686, 1.293457
929.4507, 0.3431400
929.9329, 1.200684
930.4150, 1.171997
930.8971, 1.210449
931.3792, 3.588501
931.8613, 3.513306
932.3434, 1.012207
932.8256, 2.274048
933.3077, 9.098267
933.7898, 12.24731
934.2719, 7.905273
934.7540, 0.9635010
935.2361, 3.324219
935.7183, 0.3891600
936.2004, 4.117188
936.6825, 5.720581
937.1646, 6.265869
937.6467, 6.813354
938.1288, 7.045654
938.6110, 6.428955
939.0931, 3.929199
939.5752, 1.809448
940.0573, 0.1231690
940.5394, 1.160034
941.0215, 0.3297120
941.5037, 3.941528
941.9858, 4.838257
942.4679, 2.421509
942.9500, 0.4836430
943.4321, 2.948120
943.9142, 6.848511
944.3964, 9.641479
944.8785, 10.94299
945.3606, 12.41602
945.8427, 15.47302
946.3248, 16.24255
946.8069, 11.37720
947.2891, 3.302979
947.7712, 4.029663
948.2533, 12.12170
948.7354, 18.63623
949.2175, 18.08887
949.6996, 15.24048
950.1818, 11.86584
950.6639, 8.831787
951.1460, 8.271118
951.6281, 12.03186
952.1102, 14.82056
952.5923, 16.40137
953.0745, 16.36084
953.5566, 12.49805
954.0387, 6.288330
954.5208, 3.937622
955.0029, 6.775879
955.4850, 10.51392
955.9672, 13.75293
956.4493, 15.58423
956.9314, 14.63647
957.4135, 10.22668
957.8956, 7.889282
958.3777, 7.984375
958.8599, 9.125610
959.3420, 11.56189
959.8241, 14.09644
960.3062, 12.61304
960.7883, 8.143921
961.2704, 4.914795
961.7526, 6.476074
962.2347, 8.098389
962.7168, 6.641846
963.1989, 4.076538
963.6810, 5.016113
964.1631, 10.53540
964.6453, 14.12769
965.1274, 14.67114
965.6095, 13.40698
966.0916, 9.398682
966.5737, 5.497192
967.0558, 8.026978
967.5380, 19.55981
968.0201, 28.55371
968.5022, 29.45422
968.9843, 27.60571
969.4664, 25.99158
969.9485, 24.63855
970.4307, 21.80396
970.9128, 17.20825
971.3949, 14.97559
971.8770, 19.96240
972.3591, 27.17798
972.8412, 31.26270
973.3234, 32.77490
973.8055, 33.41260
974.2876, 31.92041
974.7697, 32.01270
975.2518, 34.65820
975.7339, 38.72095
976.2161, 42.19995
976.6982, 45.25391
977.1803, 49.75342
977.6624, 56.08545
978.1445, 62.97437
978.6266, 70.38281
979.1088, 77.06177
979.5909, 81.75293
980.0730, 83.92383
980.5551, 86.85864
981.0372, 90.75928
981.5193, 95.19653
982.0015, 100.2371
982.4836, 105.6028
982.9657, 110.3740
983.4478, 114.5952
983.9299, 118.4832
984.4120, 121.3938
984.8942, 124.7661
985.3763, 129.8247
985.8584, 135.6433
986.3405, 140.1904
986.8226, 142.6309
987.3047, 146.9509
987.7869, 153.3411
988.2690, 162.2898
988.7511, 173.8943
989.2332, 188.3733
989.7153, 206.6445
990.1974, 229.0842
990.6796, 253.7634
991.1617, 277.5347
991.6438, 306.0127
992.1259, 341.8699
992.6080, 384.2412
993.0901, 431.6982
993.5723, 484.6016
994.0544, 541.2407
994.5365, 601.4941
995.0186, 664.4561
995.5007, 731.4521
995.9828, 800.4380
996.4650, 869.1821
996.9471, 931.2642
997.4292, 999.6321
997.9113, 1071.974
998.3934, 1154.815
998.8755, 1257.322
999.3577, 1379.047
999.8398, 1508.255
1000.322, 1645.531
1000.804, 1796.442
1001.286, 1973.083
1001.768, 2160.228
1002.250, 2349.842
1002.732, 2541.847
1003.215, 2728.671
1003.697, 2919.592
1004.179, 3075.043
1004.661, 3193.801
1005.143, 3254.453
1005.625, 3225.515
1006.107, 3110.757
1006.589, 2911.099
1007.072, 2591.711
1007.554, 2262.901
1008.036, 1926.672
1008.518, 1615.072
1009.000, 1348.625
1009.482, 1129.614
1009.964, 945.5735
1010.446, 794.7766
1010.928, 669.7051
1011.411, 566.3188
1011.893, 482.3579
1012.375, 419.2974
1012.857, 374.2742
1013.339, 333.6697
1013.821, 294.7822
1014.303, 260.7275
1014.785, 232.5942
1015.268, 209.7939
1015.750, 191.8828
1016.232, 178.0435
1016.714, 163.9470
1017.196, 148.3047
1017.678, 134.2017
1018.160, 123.9348
1018.642, 115.6191
1019.124, 107.6135
1019.607, 99.81421
1020.089, 94.65527
1020.571, 92.66943
1021.053, 89.13892
1021.535, 79.70972
1022.017, 68.99487
1022.499, 63.73218
1022.981, 62.23242
1023.464, 60.67896
1023.946, 58.10864
1024.428, 54.86182
1024.910, 50.33521
1025.392, 45.93750
1025.874, 43.22510
1026.356, 42.12305
1026.838, 42.57202
1027.320, 44.55127
1027.803, 45.28833
1028.285, 42.04980
1028.767, 37.49414
1029.249, 32.84473
1029.731, 28.45898
1030.213, 26.36963
1030.695, 27.74268
1031.177, 26.66016
1031.660, 20.59058
1032.142, 13.06909
1032.624, 9.395020
1033.106, 8.479980
1033.588, 8.618164
1034.070, 10.07471
1034.552, 10.61841
1035.034, 7.841309
1035.516, 6.100342
1035.999, 8.834473
1036.481, 15.56812
1036.963, 20.29028
1037.445, 22.84570
1037.927, 22.45239
1038.409, 14.26831
1038.891, 7.084229
1039.373, 9.311768
1039.855, 16.78662
1040.338, 19.09399
1040.820, 13.27539
1041.302, 9.394531
1041.784, 8.399658
1042.266, 9.485352
1042.748, 13.69971
1043.230, 18.60864
1043.712, 19.30908
1044.195, 15.30640
1044.677, 11.43066
1045.159, 9.598145
1045.641, 8.118652
1046.123, 6.346436
1046.605, 4.546875
1047.087, 3.368652
1047.569, 2.876465
1048.052, 3.957764
1048.534, 7.917480
1049.016, 10.93921
1049.498, 8.997314
1049.980, 5.114746
1050.462, 2.505127
1050.944, 1.148193
1051.426, 2.274170
1051.908, 6.549316
1052.391, 10.47632
1052.873, 12.13892
1053.355, 11.80078
1053.837, 8.509277
1054.319, 3.527832
1054.801, 0.8286130
1055.283, 5.841797
1055.765, 7.750732
1056.247, 3.329834
1056.730, 3.146484
1057.212, 6.064941
1057.694, 5.810547
1058.176, 4.725098
1058.658, 3.036377
1059.140, 1.679932
1059.622, 1.517090
1060.104, 1.809570
1060.587, 2.153564
1061.069, 2.531738
1061.551, 3.113281
1062.033, 4.083496
1062.515, 3.877197
1062.997, 1.333008
1063.479, 0.8710940
1063.961, 2.721191
1064.443, 8.166748
1064.926, 9.168457
1065.408, 2.367432
1065.890, 2.156006
1066.372, 2.709717
1066.854, 2.135986
1067.336, 1.539795
1067.818, 1.246582
1068.300, 3.228760
1068.782, 6.861328
1069.265, 9.505859
1069.747, 8.757080
1070.229, 7.992676
1070.711, 10.52417
1071.193, 12.57227
1071.675, 7.978760
1072.157, 4.515625
1072.639, 7.360840
1073.122, 0.8984380
1073.604, 10.15894
1074.086, 12.13403
1074.568, 11.11206
1075.050, 9.940918
1075.532, 9.140869
1076.014, 10.74023
1076.496, 16.63184
1076.979, 19.88208
1077.461, 18.56836
1077.943, 15.23706
1078.425, 12.80908
1078.907, 11.36914
1079.389, 11.27734
1079.871, 12.71851
1080.353, 14.35791
1080.835, 15.03369
1081.318, 16.75293
1081.800, 21.01367
1082.282, 26.68848
1082.764, 28.86230
1083.246, 28.06982
1083.728, 27.24414
1084.210, 27.10254
1084.692, 28.04224
1085.174, 31.73389
1085.656, 35.72949
1086.139, 37.54956
1086.621, 36.87598
1087.103, 35.64502
1087.585, 33.75049
1088.067, 32.84106
1088.549, 34.70264
1089.031, 37.60620
1089.513, 40.13892
1089.996, 42.18530
1090.478, 43.41724
1090.960, 42.78369
1091.442, 43.38110
1091.924, 45.77222
1092.406, 48.52759
1092.888, 49.60767
1093.370, 49.97681
1093.853, 52.72461
1094.335, 57.64990
1094.817, 59.93140
1095.299, 52.97339
1095.781, 48.83984
1096.263, 52.50366
1096.745, 59.96118
1097.227, 62.35962
1097.709, 60.44995
1098.192, 58.52441
1098.674, 57.38257
1099.156, 56.83569
1099.638, 57.45459
1100.120, 58.05591
1100.602, 57.59473
1101.084, 56.20020
1101.566, 55.36963
1102.048, 55.10840
1102.531, 55.10620
1103.013, 55.27686
1103.495, 55.54419
1103.977, 56.16968
1104.459, 56.67261
1104.941, 56.32690
1105.423, 54.60791
1105.905, 53.29712
1106.388, 52.43286
1106.870, 51.84229
1107.352, 51.08105
1107.834, 50.70703
1108.316, 52.25586
1108.798, 55.07690
1109.280, 57.37842
1109.762, 58.67944
1110.245, 59.15771
1110.727, 58.62646
1111.209, 57.68994
1111.691, 56.85254
1112.173, 56.13843
1112.655, 56.05786
1113.137, 56.46216
1113.619, 55.75952
1114.101, 51.28638
1114.583, 47.43140
1115.066, 46.43970
1115.548, 47.27808
1116.030, 48.47168
1116.512, 49.95312
1116.994, 49.00391
1117.476, 44.96118
1117.958, 40.82544
1118.440, 39.28174
1118.923, 38.29443
1119.405, 36.39062
1119.887, 33.59326
1120.369, 30.32959
1120.851, 26.48071
1121.333, 24.65747
1121.815, 25.93896
1122.297, 27.23364
1122.780, 26.01611
1123.262, 23.42554
1123.744, 19.63940
1124.226, 14.16016
1124.708, 9.642822
1125.190, 5.894043
1125.672, 3.946289
1126.154, 4.948975
1126.636, 7.189453
1127.119, 7.293945
1127.601, 6.377686
1128.083, 6.637695
1128.565, 9.268066
1129.047, 12.04785
1129.529, 15.98291
1130.011, 17.55371
1130.493, 12.90210
1130.975, 5.171387
1131.458, 2.389404
1131.940, 3.814941
1132.422, 6.640869
1132.904, 12.28906
1133.386, 15.52490
1133.868, 13.67627
1134.350, 10.51050
1134.832, 9.822754
1135.315, 11.34009
1135.797, 12.78296
1136.279, 14.03760
1136.761, 14.83740
1137.243, 15.17896
1137.725, 14.85913
1138.207, 12.86694
1138.689, 10.54468
1139.172, 9.787109
1139.654, 10.57300
1140.136, 15.17480
1140.618, 24.16211
1141.100, 31.37329
1141.582, 30.66724
1142.064, 27.36255
1142.546, 24.20068
1143.028, 21.92480
1143.510, 22.98291
1143.993, 28.02295
1144.475, 33.37598
1144.957, 38.20312
1145.439, 41.70679
1145.921, 42.58545
1146.403, 42.83813
1146.885, 44.75049
1147.367, 48.66919
1147.850, 51.87012
1148.332, 54.21045
1148.814, 56.34106
1149.296, 58.74634
1149.778, 60.45996
1150.260, 57.66064
1150.742, 54.32349
1151.224, 57.55640
1151.707, 71.17920
1152.189, 78.98779
1152.671, 78.13989
1153.153, 76.10571
1153.635, 76.11694
1154.117, 77.36670
1154.599, 78.14087
1155.081, 78.89062
1155.563, 80.55713
1156.046, 83.46167
1156.528, 87.56177
1157.010, 94.64990
1157.492, 99.70215
1157.974, 98.17578
1158.456, 92.53760
1158.938, 91.26465
1159.420, 93.08691
1159.902, 94.17847
1160.385, 90.63306
1160.867, 88.49268
1161.349, 90.76611
1161.831, 93.37866
1162.313, 92.38281
1162.795, 88.48242
1163.277, 86.39429
1163.759, 85.66235
1164.242, 83.58813
1164.724, 76.54834
1165.206, 70.23438
1165.688, 66.76489
1166.170, 65.36279
1166.652, 66.45581
1167.134, 69.50952
1167.616, 68.69141
1168.099, 63.87476
1168.581, 57.49316
1169.063, 47.67993
1169.545, 40.59302
1170.027, 41.22388
1170.509, 45.33447
1170.991, 47.21606
1171.473, 46.80664
1171.955, 42.66309
1172.438, 34.56836
1172.920, 28.17749
1173.402, 28.98828
1173.884, 31.59595
1174.366, 33.14771
1174.848, 33.63770
1175.330, 32.98389
1175.812, 31.16821
1176.294, 29.85718
1176.777, 29.05933
1177.259, 28.00317
1177.741, 27.04053
1178.223, 25.39087
1178.705, 20.31152
1179.187, 13.32251
1179.669, 13.54248
1180.151, 21.69653
1180.634, 25.97144
1181.116, 22.95605
1181.598, 18.68652
1182.080, 18.94092
1182.562, 20.44751
1183.044, 20.61670
1183.526, 19.25293
1184.008, 15.46436
1184.490, 8.748047
1184.973, 4.389160
1185.455, 3.373779
1185.937, 5.864990
1186.419, 15.99390
1186.901, 27.14966
1187.383, 31.83594
1187.865, 29.31348
1188.347, 24.29541
1188.829, 16.01294
1189.312, 11.09351
1189.794, 13.57568
1190.276, 17.25610
1190.758, 13.95312
1191.240, 8.428711
1191.722, 6.797852
1192.204, 10.37964
1192.686, 13.12646
1193.169, 14.98169
1193.651, 16.27222
1194.133, 17.37671
1194.615, 17.64062
1195.097, 15.20874
1195.579, 11.93750
1196.061, 10.83765
1196.543, 13.16724
1197.026, 13.42627
1197.508, 11.33691
1197.990, 8.869629
1198.472, 6.708496
1198.954, 5.303467
1199.436, 6.643066
1199.918, 8.624268
1200.400, 7.445557
1200.882, 0.9785160
1201.365, 3.544434
1201.847, 6.287109
1202.329, 6.291016
1202.811, 0.6435550
1203.293, 5.985596
1203.775, 8.056885
1204.257, 6.976563
1204.739, 5.163330
1205.221, 1.269531
1205.704, 1.876221
1206.186, 8.061523
1206.668, 12.95972
1207.150, 8.852783
1207.632, 3.036865
1208.114, 5.679932
1208.596, 12.82349
1209.078, 14.91138
1209.561, 8.614746
1210.043, 4.716309
1210.525, 3.754639
1211.007, 3.935547
1211.489, 3.893066
1211.971, 4.217041
1212.453, 6.147461
1212.935, 8.919189
1213.417, 10.29590
1213.900, 9.386719
1214.382, 9.909668
1214.864, 12.38110
1215.346, 14.02124
1215.828, 12.36084
1216.310, 8.771240
1216.792, 2.447998
1217.274, 4.433838
1217.756, 4.988281
1218.239, 3.347168
1218.721, 8.346191
1219.203, 8.908936
1219.685, 8.161133
1220.167, 9.560547
1220.649, 10.38306
1221.131, 6.102783
1221.613, 0.7963870
1222.096, 2.372803
1222.578, 3.093262
1223.060, 6.862061
1223.542, 8.041748
1224.024, 8.255371
1224.506, 9.213135
1224.988, 9.580078
1225.470, 7.730225
1225.953, 4.241455
1226.435, 1.161865
1226.917, 1.666992
1227.399, 3.136963
1227.881, 3.075195
1228.363, 1.873047
1228.845, 0.9462890
1229.327, 4.272461
1229.809, 8.125732
1230.292, 11.54907
1230.774, 11.65918
1231.256, 8.095947
1231.738, 6.488037
1232.220, 7.708008
1232.702, 8.029053
1233.184, 2.371582
1233.666, 3.213623
1234.148, 3.474854
1234.631, 0.5729980
1235.113, 0.2817380
1235.595, 2.647705
1236.077, 2.562256
1236.559, 0.7084960
1237.041, 3.725830
1237.523, 3.955811
1238.005, 3.188965
1238.488, 2.195068
1238.970, 1.426514
1239.452, 1.436279
1239.934, 2.216553
1240.416, 5.028076
1240.898, 10.03735
1241.380, 12.47168
1241.862, 4.517090
1242.344, 1.420166
1242.827, 2.369873
1243.309, 10.72803
1243.791, 14.35889
1244.273, 13.74634
1244.755, 10.07300
1245.237, 3.739990
1245.719, 1.043457
1246.201, 10.91431
1246.683, 18.41260
1247.166, 17.29248
1247.648, 11.75708
1248.130, 8.421143
1248.612, 7.093506
1249.094, 7.423584
1249.576, 9.332031
1250.058, 11.53247
1250.540, 14.74780
1251.023, 16.30688
1251.505, 15.16064
1251.987, 12.48926
1252.469, 9.624268
1252.951, 8.056152
1253.433, 7.021729
1253.915, 6.521973
1254.397, 7.487305
1254.880, 12.25269
1255.362, 14.80591
1255.844, 13.35278
1256.326, 10.59375
1256.808, 10.50830
1257.290, 11.60352
1257.772, 11.12817
1258.254, 9.029053
1258.736, 7.664551
1259.219, 7.316406
1259.701, 7.847900
1260.183, 8.491455
1260.665, 10.57983
1261.147, 13.22803
1261.629, 15.86133
1262.111, 18.14600
1262.593, 19.70874
1263.075, 19.06934
1263.558, 15.05518
1264.040, 11.80591
1264.522, 9.825439
1265.004, 8.766113
1265.486, 10.82935
1265.968, 13.87061
1266.450, 14.46851
1266.932, 13.02783
1267.415, 12.48022
1267.897, 12.90283
1268.379, 12.18359
1268.861, 11.71753
1269.343, 10.72705
1269.825, 10.66602
1270.307, 10.80444
1270.789, 11.10620
1271.271, 11.52075
1271.754, 11.80493
1272.236, 11.86157
1272.718, 12.42725
1273.200, 14.53540
1273.682, 15.98022
1274.164, 13.48267
1274.646, 12.79028
1275.128, 17.81299
1275.610, 23.72998
1276.093, 21.26172
1276.575, 13.00464
1277.057, 10.12231
1277.539, 13.13232
1278.021, 15.26343
1278.503, 11.36890
1278.985, 9.374023
1279.467, 11.76343
1279.950, 15.08154
1280.432, 14.59937
1280.914, 11.78271
1281.396, 9.731201
1281.878, 8.677002
1282.360, 8.289063
1282.842, 9.139404
1283.324, 9.530518
1283.807, 9.368652
1284.289, 8.339600
1284.771, 3.865234
1285.253, 0.4672850
1285.735, 1.920410
1286.217, 8.975098
1286.699, 11.71411
1287.181, 7.894287
1287.663, 6.575928
1288.146, 8.758545
1288.628, 11.14624
1289.110, 10.13599
1289.592, 8.923828
1290.074, 11.02637
1290.556, 14.66089
1291.038, 15.89795
1291.520, 14.58154
1292.002, 13.39600
1292.485, 12.43652
1292.967, 12.12500
1293.449, 14.92358
1293.931, 14.70166
1294.413, 6.438232
1294.895, 1.799316
1295.377, 7.5438999E-02
1295.859, 10.38184
1296.342, 14.49487
1296.824, 13.15869
1297.306, 12.16772
1297.788, 15.90234
1298.270, 17.75464
1298.752, 11.94580
1299.234, 6.493652
1299.716, 4.234375
1300.198, 2.713379
1300.681, 1.283447
1301.163, 0.8115230
1301.645, 0.5021970
1302.127, 0.0000000E+00
##END=



