##NAMES=Peretaite
##RRUFFID=R060459
##IDEAL CHEMISTRY=CaSb^3+^_4_O_4_(SO_4_)_2_(OH)_2_&#183;2H_2_O
##LOCALITY=Pereta mine, Grosseto, Tuscany, Italy
##OWNER=RRUFF
##SOURCE=Michael Scott
##DESCRIPTION=Colorless thin plates, with red incrustations of valentinite
##STATUS=The identification of this mineral has been confirmed by single-crystal X-ray diffraction.
##URL=rruff.info/R060459
162.9229, 0.0000000E+00
163.4050, 1.390991
163.8871, 2.873474
164.3693, 3.715454
164.8514, 5.936218
165.3335, 5.393982
165.8156, 2.748535
166.2977, 0.5385740
166.7798, 0.5090330
167.2620, 0.7470700
167.7441, 0.7094120
168.2262, 0.6462400
168.7083, 0.4204710
169.1904, 0.3465580
169.6725, 1.510925
170.1547, 3.250793
170.6368, 6.102661
171.1189, 9.701416
171.6010, 12.73077
172.0831, 14.31012
172.5652, 15.15601
173.0474, 16.80737
173.5295, 19.37610
174.0116, 22.50067
174.4937, 26.05927
174.9758, 30.05640
175.4579, 34.06647
175.9401, 38.43555
176.4222, 42.41608
176.9043, 44.97375
177.3864, 45.58191
177.8685, 45.56940
178.3506, 46.78455
178.8328, 49.67578
179.3149, 52.18225
179.7970, 52.74530
180.2791, 53.00867
180.7612, 54.45197
181.2433, 57.68646
181.7255, 62.08130
182.2076, 66.37219
182.6897, 70.64594
183.1718, 74.60284
183.6539, 77.43634
184.1360, 80.26251
184.6181, 84.29547
185.1003, 90.16028
185.5824, 97.39862
186.0645, 104.2718
186.5466, 109.2588
187.0287, 115.9019
187.5108, 125.4260
187.9930, 136.5667
188.4751, 147.7278
188.9572, 157.9495
189.4393, 167.5059
189.9214, 177.8453
190.4035, 190.3576
190.8857, 202.0868
191.3678, 212.3745
191.8499, 221.4677
192.3320, 230.0068
192.8141, 238.4656
193.2962, 246.6219
193.7784, 252.6128
194.2605, 257.7148
194.7426, 260.0176
195.2247, 258.0505
195.7068, 252.6053
196.1889, 245.8061
196.6711, 238.7571
197.1532, 231.3961
197.6353, 223.5813
198.1174, 214.6107
198.5995, 205.8188
199.0816, 197.3458
199.5638, 189.3554
200.0459, 183.0677
200.5280, 179.4114
201.0101, 178.1055
201.4922, 177.5349
201.9743, 177.0237
202.4565, 177.8615
202.9386, 181.1320
203.4207, 186.8467
203.9028, 194.3714
204.3849, 203.7160
204.8670, 214.7021
205.3492, 227.0590
205.8313, 240.8834
206.3134, 255.8966
206.7955, 271.8889
207.2776, 289.0350
207.7597, 306.3533
208.2419, 324.2404
208.7240, 341.7901
209.2061, 357.7868
209.6882, 371.6135
210.1703, 384.2175
210.6524, 397.4704
211.1346, 412.0656
211.6167, 425.2209
212.0988, 435.3668
212.5809, 444.0675
213.0630, 452.8568
213.5451, 462.3292
214.0273, 472.0250
214.5094, 480.7380
214.9915, 487.5925
215.4736, 495.0691
215.9557, 504.1398
216.4378, 513.7609
216.9200, 522.8278
217.4021, 530.7601
217.8842, 538.2242
218.3663, 546.9220
218.8484, 557.1303
219.3305, 568.3613
219.8127, 580.0667
220.2948, 592.8420
220.7769, 607.3708
221.2590, 624.1354
221.7411, 642.4377
222.2232, 660.4559
222.7054, 677.3265
223.1875, 695.2550
223.6696, 715.0165
224.1517, 735.3378
224.6338, 755.3594
225.1159, 774.7878
225.5980, 792.9674
226.0802, 807.9277
226.5623, 822.5394
227.0444, 830.2639
227.5265, 830.7023
228.0086, 823.7402
228.4907, 808.8934
228.9729, 785.9423
229.4550, 755.8378
229.9371, 720.7313
230.4192, 678.7448
230.9013, 635.4590
231.3834, 589.8060
231.8656, 543.7395
232.3477, 499.9482
232.8298, 459.3350
233.3119, 421.7789
233.7940, 387.3632
234.2761, 356.0528
234.7583, 327.8972
235.2404, 303.1662
235.7225, 281.2805
236.2046, 261.3138
236.6867, 242.9454
237.1688, 226.3098
237.6510, 211.7726
238.1331, 199.5099
238.6152, 187.7471
239.0973, 175.5886
239.5794, 163.5221
240.0615, 152.5739
240.5437, 142.8247
241.0258, 134.5802
241.5079, 128.6685
241.9900, 125.0427
242.4721, 121.3752
242.9542, 116.4995
243.4364, 110.7403
243.9185, 105.0330
244.4006, 99.47946
244.8827, 94.33679
245.3648, 89.88907
245.8469, 86.07150
246.3290, 82.60345
246.8112, 79.48566
247.2933, 76.63986
247.7754, 73.72562
248.2575, 70.62952
248.7396, 67.60486
249.2217, 64.80792
249.7039, 62.22028
250.1860, 59.83246
250.6681, 57.84961
251.1502, 56.10449
251.6323, 53.86432
252.1144, 50.78705
252.5966, 47.73962
253.0787, 45.35812
253.5608, 43.39993
254.0429, 41.24774
254.5250, 38.06204
255.0071, 34.39752
255.4893, 32.57187
255.9714, 33.70984
256.4535, 34.97455
256.9356, 35.36890
257.4177, 34.98624
257.8998, 33.88348
258.3820, 31.82660
258.8641, 29.19653
259.3462, 27.39197
259.8283, 26.90234
260.3104, 26.47858
260.7925, 25.50400
261.2747, 24.37665
261.7568, 23.73352
262.2389, 24.02042
262.7210, 24.73480
263.2031, 24.30408
263.6852, 21.84723
264.1674, 19.71835
264.6495, 18.56085
265.1316, 17.92743
265.6137, 17.38300
266.0958, 16.74585
266.5779, 16.06650
267.0601, 15.42899
267.5422, 14.65240
268.0243, 14.29938
268.5064, 15.30212
268.9885, 16.25739
269.4706, 15.55951
269.9528, 12.70337
270.4349, 9.052155
270.9170, 7.367767
271.3991, 9.206207
271.8812, 9.988495
272.3633, 8.693085
272.8455, 6.855499
273.3276, 5.639679
273.8097, 5.322449
274.2918, 5.410950
274.7739, 5.120422
275.2560, 4.050476
275.7382, 3.471375
276.2202, 3.955933
276.7024, 4.398041
277.1845, 3.905640
277.6666, 2.469727
278.1487, 0.9030150
278.6308, 0.2575070
279.1129, 0.9717710
279.5951, 1.079956
280.0772, 1.115326
280.5593, 2.392609
281.0414, 0.1565550
281.5235, 4.994720
282.0056, 10.20145
282.4878, 12.80396
282.9699, 12.65027
283.4520, 10.80927
283.9341, 5.100250
284.4162, 5.1146999E-02
284.8983, 2.362061
285.3805, 2.513977
285.8626, 1.714050
286.3447, 0.8281860
286.8268, 0.1277470
287.3089, 9.0942003E-02
287.7910, 2.100494
288.2732, 3.951782
288.7553, 4.781281
289.2374, 4.742920
289.7195, 3.948730
290.2016, 2.320953
290.6837, 0.2965700
291.1659, 0.4061580
291.6480, 5.726501
292.1301, 9.577362
292.6122, 10.23492
293.0943, 8.934387
293.5764, 7.270233
294.0586, 5.943420
294.5407, 4.962097
295.0228, 4.346985
295.5049, 4.360626
295.9870, 4.443787
296.4691, 4.663055
296.9513, 4.904236
297.4334, 5.048004
297.9155, 5.054199
298.3976, 4.974213
298.8797, 4.936890
299.3618, 5.431122
299.8440, 4.901459
300.3261, 2.388245
300.8082, 0.5205990
301.2903, 2.341492
301.7724, 2.882935
302.2545, 3.308197
302.7367, 5.018250
303.2188, 8.404663
303.7009, 11.70129
304.1830, 15.49667
304.6651, 18.75925
305.1472, 20.25305
305.6294, 20.31882
306.1115, 20.77869
306.5936, 23.26767
307.0757, 27.93509
307.5578, 32.17145
308.0399, 35.73868
308.5221, 39.20160
309.0042, 42.89325
309.4863, 46.69458
309.9684, 50.02832
310.4505, 52.33945
310.9326, 54.00140
311.4148, 57.64651
311.8969, 64.74670
312.3790, 71.81250
312.8611, 77.48816
313.3432, 82.67844
313.8253, 88.94043
314.3075, 96.97253
314.7896, 106.3537
315.2717, 116.1193
315.7538, 126.5800
316.2359, 137.0321
316.7180, 147.2495
317.2001, 157.5127
317.6823, 168.0970
318.1644, 179.1306
318.6465, 190.5089
319.1286, 202.1489
319.6107, 214.1178
320.0928, 226.0504
320.5750, 238.1400
321.0571, 250.1021
321.5392, 261.6377
322.0213, 272.7236
322.5034, 283.8267
322.9855, 295.3467
323.4677, 307.4826
323.9498, 319.1288
324.4319, 329.1874
324.9140, 339.8547
325.3961, 352.7484
325.8782, 367.3110
326.3604, 381.7695
326.8425, 394.7821
327.3246, 406.5636
327.8067, 419.8797
328.2888, 435.9530
328.7709, 451.9584
329.2531, 467.1511
329.7352, 481.7848
330.2173, 496.3032
330.6994, 510.9069
331.1815, 525.5387
331.6636, 540.1653
332.1458, 555.7728
332.6279, 570.0885
333.1100, 583.2658
333.5921, 594.9261
334.0742, 605.4630
334.5563, 614.6892
335.0385, 620.9732
335.5206, 621.9371
336.0027, 616.9503
336.4848, 606.9714
336.9669, 591.1696
337.4490, 571.6716
337.9312, 548.7917
338.4133, 523.1174
338.8954, 496.4431
339.3775, 470.3513
339.8596, 444.8213
340.3417, 417.2316
340.8239, 383.5627
341.3060, 352.3046
341.7881, 327.2105
342.2702, 306.6019
342.7523, 287.2792
343.2344, 267.4941
343.7166, 247.6056
344.1987, 229.2766
344.6808, 212.4057
345.1629, 197.3773
345.6450, 184.9532
346.1271, 174.0567
346.6093, 163.4735
347.0914, 152.8700
347.5735, 142.8423
348.0556, 134.8457
348.5377, 130.7125
349.0198, 125.1912
349.5020, 116.0659
349.9841, 106.8973
350.4662, 100.7980
350.9483, 97.88235
351.4304, 95.70535
351.9125, 91.46881
352.3947, 84.65204
352.8768, 79.12454
353.3589, 75.45923
353.8410, 72.42084
354.3231, 69.95667
354.8052, 67.78156
355.2874, 65.43512
355.7695, 62.59521
356.2516, 59.36725
356.7337, 56.27856
357.2158, 53.47400
357.6979, 50.59375
358.1800, 47.38300
358.6621, 44.33783
359.1443, 41.87915
359.6264, 40.13873
360.1085, 38.90015
360.5906, 37.88037
361.0727, 37.38806
361.5548, 36.28174
362.0370, 33.95935
362.5191, 31.40826
363.0012, 29.06989
363.4833, 27.05280
363.9654, 25.45544
364.4475, 24.53510
364.9297, 24.35205
365.4118, 23.80145
365.8939, 22.59021
366.3760, 21.30188
366.8581, 19.82727
367.3402, 18.46637
367.8224, 17.87689
368.3045, 18.74188
368.7866, 20.39838
369.2687, 20.76483
369.7508, 19.22723
370.2329, 17.73645
370.7151, 17.37579
371.1972, 17.18896
371.6793, 16.02496
372.1614, 13.45624
372.6435, 10.69287
373.1256, 9.166443
373.6078, 8.922180
374.0899, 9.364075
374.5720, 11.44049
375.0541, 13.18964
375.5362, 12.79352
376.0183, 10.44189
376.5005, 8.253967
376.9826, 7.860352
377.4647, 8.776733
377.9468, 9.104370
378.4289, 8.370056
378.9110, 7.848083
379.3932, 8.776978
379.8753, 10.48840
380.3574, 11.73883
380.8395, 12.19470
381.3216, 11.96887
381.8037, 10.83844
382.2859, 8.771545
382.7680, 7.259949
383.2501, 7.198486
383.7322, 7.950378
384.2143, 8.402466
384.6964, 8.436584
385.1786, 8.524231
385.6607, 9.000000
386.1428, 9.737000
386.6249, 10.42035
387.1070, 10.99719
387.5891, 11.45300
388.0713, 11.83282
388.5534, 12.14062
389.0355, 12.05304
389.5176, 10.65234
389.9997, 9.358032
390.4818, 9.771057
390.9640, 11.90546
391.4461, 14.48242
391.9282, 16.72607
392.4103, 18.68591
392.8924, 20.69427
393.3745, 23.03046
393.8567, 25.10675
394.3388, 26.08044
394.8209, 26.69226
395.3030, 28.51831
395.7851, 32.24402
396.2672, 36.92175
396.7494, 40.97668
397.2315, 44.28668
397.7136, 47.18030
398.1957, 49.25403
398.6778, 51.19366
399.1599, 53.63440
399.6420, 56.58759
400.1241, 59.58923
400.6063, 62.22095
401.0884, 64.48883
401.5705, 66.86786
402.0526, 69.14844
402.5347, 71.76044
403.0168, 75.02777
403.4990, 78.68585
403.9811, 82.27405
404.4632, 85.55804
404.9453, 88.71875
405.4274, 92.14758
405.9095, 95.60968
406.3917, 99.78668
406.8738, 105.1959
407.3559, 110.8688
407.8380, 115.7169
408.3201, 119.8813
408.8022, 124.8019
409.2844, 132.2538
409.7665, 142.4186
410.2486, 151.6956
410.7307, 158.9058
411.2128, 166.4529
411.6949, 174.9301
412.1771, 184.2188
412.6592, 194.3071
413.1413, 205.3748
413.6234, 216.5984
414.1055, 226.3322
414.5876, 234.6816
415.0698, 241.3058
415.5519, 246.4479
416.0340, 249.5597
416.5161, 249.3282
416.9982, 245.8430
417.4803, 241.9167
417.9625, 239.6363
418.4446, 238.9105
418.9267, 239.1705
419.4088, 240.8142
419.8909, 242.6786
420.3730, 243.7940
420.8552, 244.5752
421.3373, 245.8453
421.8194, 247.6646
422.3015, 250.3021
422.7836, 254.4488
423.2657, 260.0766
423.7479, 265.4765
424.2300, 269.6333
424.7121, 273.5156
425.1942, 278.7651
425.6763, 285.6375
426.1584, 292.4382
426.6406, 298.3567
427.1227, 303.7719
427.6048, 309.3760
428.0869, 315.3558
428.5690, 321.1104
429.0511, 326.2022
429.5333, 330.5421
430.0154, 333.9165
430.4975, 336.6874
430.9796, 338.1518
431.4617, 337.8408
431.9438, 335.9007
432.4260, 332.6445
432.9081, 328.1974
433.3902, 322.6870
433.8723, 316.4543
434.3544, 310.4693
434.8365, 301.9621
435.3187, 289.7974
435.8008, 275.7554
436.2829, 261.0641
436.7650, 246.0303
437.2471, 230.5951
437.7292, 214.5630
438.2114, 197.8188
438.6935, 182.6627
439.1756, 170.4404
439.6577, 158.3031
440.1398, 145.4191
440.6219, 132.3466
441.1040, 119.8570
441.5862, 108.3743
442.0683, 97.98331
442.5504, 89.09235
443.0325, 82.28351
443.5146, 74.57336
443.9967, 63.85831
444.4789, 53.90762
444.9610, 47.02036
445.4431, 42.86661
445.9252, 39.49551
446.4073, 35.74118
446.8894, 31.68738
447.3716, 27.65494
447.8537, 23.57678
448.3358, 19.74014
448.8179, 16.17322
449.3000, 12.92639
449.7821, 10.03476
450.2643, 7.460693
450.7464, 5.303467
451.2285, 3.777496
451.7106, 2.883301
452.1927, 2.369659
452.6748, 2.254395
453.1570, 2.001984
453.6391, 0.9571530
454.1212, 0.6677250
454.6033, 2.077179
455.0854, 3.195679
455.5675, 3.889343
456.0497, 4.002808
456.5318, 3.633759
457.0139, 3.009705
457.4960, 2.070587
457.9781, 0.9462590
458.4602, 0.1585390
458.9424, 7.5317003E-02
459.4245, 0.4061280
459.9066, 0.7719730
460.3887, 1.069916
460.8708, 1.364380
461.3529, 1.807861
461.8351, 2.500061
462.3172, 3.443359
462.7993, 4.556244
463.2814, 5.561279
463.7635, 6.165710
464.2456, 7.150085
464.7278, 9.132965
465.2099, 11.50327
465.6920, 13.33722
466.1741, 14.27335
466.6562, 14.75861
467.1383, 15.57547
467.6205, 16.89508
468.1026, 18.05032
468.5847, 18.40002
469.0668, 19.15210
469.5489, 21.30377
470.0310, 24.35895
470.5132, 26.91931
470.9953, 27.99066
471.4774, 28.11850
471.9595, 28.72568
472.4416, 29.97638
472.9237, 31.11850
473.4059, 31.56900
473.8880, 31.99326
474.3701, 33.20779
474.8522, 35.33771
475.3343, 37.12448
475.8164, 37.16788
476.2986, 36.31265
476.7807, 36.91635
477.2628, 39.50693
477.7449, 42.11597
478.2270, 43.42584
478.7091, 43.48761
479.1913, 42.81213
479.6734, 41.07324
480.1555, 38.99124
480.6376, 36.49942
481.1197, 33.97708
481.6018, 32.43387
482.0839, 32.25940
482.5660, 32.40332
483.0482, 31.41141
483.5303, 29.01562
484.0124, 26.26331
484.4945, 22.40240
484.9766, 18.91736
485.4587, 16.99551
485.9409, 16.08542
486.4230, 14.56668
486.9051, 11.42548
487.3872, 7.659271
487.8693, 6.401428
488.3514, 9.925568
488.8336, 11.65005
489.3157, 9.580902
489.7978, 7.049255
490.2799, 6.759888
490.7620, 8.409607
491.2441, 9.395233
491.7263, 7.050598
492.2084, 2.351349
492.6905, 0.2722780
493.1726, 1.915070
493.6547, 3.544647
494.1368, 3.430847
494.6190, 2.628448
495.1011, 2.196960
495.5832, 2.368805
496.0653, 2.525391
496.5474, 2.102264
497.0295, 1.291962
497.5117, 0.7489930
497.9938, 0.6468200
498.4759, 0.4438780
498.9580, 0.6495060
499.4401, 2.313019
499.9222, 2.876343
500.4044, 1.390808
500.8865, 0.3335880
501.3686, 1.463104
501.8507, 2.146057
502.3328, 2.781616
502.8149, 3.515564
503.2971, 3.983063
503.7792, 3.614319
504.2613, 2.083984
504.7434, 0.8337400
505.2255, 3.2318000E-02
505.7076, 0.7514340
506.1898, 1.466644
506.6719, 2.119507
507.1540, 2.498993
507.6361, 2.477570
508.1182, 2.310608
508.6003, 2.728485
509.0825, 4.296906
509.5646, 4.930176
510.0467, 3.529999
510.5288, 1.913391
511.0109, 0.9375920
511.4930, 0.6161800
511.9752, 0.6703190
512.4573, 1.114899
512.9394, 1.720856
513.4215, 1.758575
513.9036, 1.034882
514.3857, 0.9140930
514.8679, 2.299469
515.3500, 4.291382
515.8321, 5.995148
516.3142, 7.500824
516.7963, 7.817383
517.2784, 5.292084
517.7606, 1.895386
518.2427, 0.7387390
518.7248, 1.979492
519.2069, 3.089905
519.6890, 2.279755
520.1711, 1.6541000E-02
520.6533, 1.344360
521.1354, 1.422333
521.6175, 1.275879
522.0996, 0.7265320
522.5817, 0.2322080
523.0638, 0.3487240
523.5460, 1.107269
524.0281, 2.030518
524.5102, 2.621124
524.9923, 2.898956
525.4744, 3.694366
525.9565, 5.974854
526.4387, 7.474030
526.9208, 7.182617
527.4029, 6.220184
527.8850, 5.800385
528.3671, 6.215485
528.8492, 6.783203
529.3314, 6.545563
529.8135, 5.660828
530.2956, 5.820953
530.7777, 7.571350
531.2598, 9.434509
531.7419, 10.45728
532.2241, 10.99115
532.7062, 11.57327
533.1883, 12.31085
533.6704, 13.08484
534.1525, 13.87735
534.6346, 14.64020
535.1168, 15.23706
535.5989, 15.62476
536.0810, 15.96289
536.5631, 16.41125
537.0452, 16.97623
537.5273, 17.50473
538.0095, 18.04044
538.4916, 18.49463
538.9737, 18.80914
539.4558, 19.03094
539.9379, 19.16537
540.4200, 19.23376
540.9022, 19.41498
541.3843, 20.02164
541.8664, 21.18732
542.3485, 22.02957
542.8306, 22.30331
543.3127, 22.50116
543.7948, 22.63150
544.2769, 22.82837
544.7590, 23.30441
545.2411, 24.15662
545.7233, 25.16354
546.2054, 26.08957
546.6875, 26.93445
547.1696, 27.63428
547.6517, 28.08344
548.1339, 28.56140
548.6160, 29.26050
549.0981, 30.16464
549.5802, 31.30765
550.0623, 33.02048
550.5444, 34.61313
551.0266, 35.33603
551.5087, 35.64395
551.9908, 36.82104
552.4729, 39.29575
552.9550, 41.86868
553.4371, 42.90549
553.9193, 41.95691
554.4014, 42.26938
554.8835, 44.70621
555.3656, 47.25195
555.8477, 49.19382
556.3298, 50.78412
556.8120, 52.31967
557.2941, 53.90683
557.7762, 55.68677
558.2583, 58.16656
558.7404, 61.53851
559.2225, 63.78305
559.7047, 63.40048
560.1868, 63.70474
560.6689, 66.48984
561.1510, 70.84418
561.6331, 75.29697
562.1152, 79.43945
562.5974, 83.41397
563.0795, 87.33719
563.5616, 91.21381
564.0437, 94.97983
564.5258, 98.58441
565.0079, 102.3524
565.4901, 106.4583
565.9722, 110.9958
566.4543, 116.4436
566.9364, 122.8621
567.4185, 130.0077
567.9006, 137.9269
568.3828, 146.6277
568.8649, 156.1782
569.3470, 166.4868
569.8291, 177.4868
570.3112, 188.9836
570.7933, 201.0246
571.2755, 213.3734
571.7576, 225.6733
572.2397, 238.9318
572.7218, 252.9155
573.2039, 268.0453
573.6860, 284.9728
574.1682, 303.9145
574.6503, 324.1098
575.1324, 344.6420
575.6145, 365.9435
576.0966, 389.7220
576.5787, 416.1402
577.0609, 444.0672
577.5430, 473.5435
578.0251, 503.8672
578.5072, 532.7395
578.9893, 559.0246
579.4714, 586.0886
579.9536, 616.1589
580.4357, 647.1656
580.9178, 677.2090
581.3999, 705.8141
581.8820, 732.8057
582.3641, 757.7561
582.8463, 781.1576
583.3284, 806.1722
583.8105, 834.0435
584.2926, 861.9665
584.7747, 889.9261
585.2568, 917.8326
585.7390, 946.3951
586.2211, 975.1049
586.7032, 1001.870
587.1853, 1024.354
587.6674, 1044.448
588.1495, 1067.587
588.6317, 1094.562
589.1138, 1119.890
589.5959, 1141.383
590.0780, 1160.958
590.5601, 1181.458
591.0422, 1202.879
591.5244, 1221.108
592.0065, 1237.708
592.4886, 1248.312
592.9707, 1250.186
593.4528, 1242.640
593.9349, 1223.846
594.4171, 1192.930
594.8992, 1151.100
595.3813, 1099.875
595.8634, 1037.559
596.3455, 969.9327
596.8276, 892.9382
597.3098, 815.7408
597.7919, 739.0776
598.2740, 665.3934
598.7561, 597.6888
599.2382, 537.0848
599.7203, 482.7745
600.2025, 433.5389
600.6846, 389.1977
601.1667, 349.7212
601.6488, 315.4893
602.1309, 285.6670
602.6130, 261.4964
603.0952, 241.2013
603.5773, 222.0440
604.0594, 203.0925
604.5415, 186.1727
605.0236, 172.6335
605.5057, 161.4506
605.9879, 151.2946
606.4700, 141.9056
606.9521, 133.2595
607.4342, 125.3178
607.9163, 118.1315
608.3984, 112.3185
608.8806, 109.3889
609.3627, 105.8596
609.8448, 101.1255
610.3269, 96.02637
610.8090, 91.25165
611.2911, 86.74442
611.7733, 81.92770
612.2554, 76.02988
612.7375, 69.79938
613.2196, 65.39651
613.7017, 63.19879
614.1838, 60.30728
614.6660, 55.33868
615.1481, 49.92395
615.6302, 45.90024
616.1123, 43.25076
616.5944, 41.20355
617.0765, 40.12506
617.5587, 38.80713
618.0408, 36.27972
618.5229, 33.13092
619.0050, 30.37677
619.4871, 28.46335
619.9692, 27.11621
620.4514, 26.07358
620.9335, 25.37784
621.4156, 24.43631
621.8977, 22.91476
622.3798, 21.64825
622.8619, 21.06970
623.3441, 20.74817
623.8262, 20.27670
624.3083, 19.55090
624.7904, 18.47464
625.2725, 16.53131
625.7546, 14.22372
626.2367, 13.10400
626.7188, 13.33313
627.2009, 13.76422
627.6830, 13.89755
628.1652, 13.78363
628.6473, 13.49158
629.1294, 12.97003
629.6115, 12.48181
630.0936, 12.03506
630.5757, 11.65750
631.0579, 11.23141
631.5400, 10.89188
632.0221, 10.96307
632.5042, 11.61249
632.9863, 12.68063
633.4684, 13.97021
633.9506, 15.60529
634.4327, 16.87225
634.9148, 17.73944
635.3969, 18.19360
635.8790, 17.99399
636.3611, 17.47879
636.8433, 17.23669
637.3254, 17.45273
637.8075, 17.83698
638.2896, 18.14413
638.7717, 18.48267
639.2538, 19.11990
639.7360, 20.08109
640.2181, 21.07675
640.7002, 21.90259
641.1823, 22.60275
641.6644, 23.36359
642.1465, 24.40933
642.6287, 25.19705
643.1108, 25.33762
643.5929, 25.55072
644.0750, 26.26852
644.5571, 27.48727
645.0392, 29.05142
645.5214, 30.89090
646.0035, 32.96048
646.4856, 35.17563
646.9677, 37.53711
647.4498, 40.30914
647.9319, 44.10577
648.4141, 47.12296
648.8962, 47.43564
649.3783, 45.65317
649.8604, 44.10620
650.3425, 44.04031
650.8246, 42.77325
651.3068, 38.54099
651.7889, 32.89819
652.2710, 27.53156
652.7531, 22.78912
653.2352, 18.45511
653.7173, 14.31778
654.1995, 10.53159
654.6816, 7.774841
655.1637, 6.403717
655.6458, 5.232697
656.1279, 3.941345
656.6100, 2.935181
657.0922, 2.705200
657.5743, 3.004364
658.0564, 2.969727
658.5385, 1.999023
659.0206, 0.9449160
659.5027, 0.7428280
659.9849, 1.110809
660.4670, 1.204376
660.9491, 0.8234560
661.4312, 0.3943480
661.9133, 0.3286440
662.3954, 0.5875240
662.8776, 0.6227110
663.3597, 0.3906560
663.8418, 1.4099000E-02
664.3239, 0.9276730
664.8060, 1.754059
665.2881, 1.848877
665.7703, 1.345978
666.2524, 0.9519350
666.7345, 1.056610
667.2166, 1.607971
667.6987, 2.833740
668.1808, 4.692688
668.6630, 5.774902
669.1451, 5.735657
669.6272, 4.830719
670.1093, 2.918945
670.5914, 0.1499330
671.0735, 1.603912
671.5557, 1.940063
672.0378, 1.711273
672.5199, 0.9348140
673.0020, 0.1250000
673.4841, 1.633453
673.9662, 3.288422
674.4484, 3.775940
674.9305, 1.756348
675.4126, 1.677155
675.8947, 2.618439
676.3768, 0.3841860
676.8589, 1.321930
677.3411, 1.704071
677.8232, 1.391876
678.3053, 0.7756650
678.7874, 8.5754000E-02
679.2695, 1.012939
679.7516, 2.365051
680.2338, 3.271667
680.7159, 2.813812
681.1980, 1.737885
681.6801, 1.280304
682.1622, 1.729401
682.6443, 2.291443
683.1265, 2.234253
683.6086, 1.771240
684.0907, 1.830231
684.5728, 2.693695
685.0549, 3.466644
685.5370, 4.148499
686.0192, 4.598938
686.5013, 4.695099
686.9834, 4.481903
687.4655, 4.040100
687.9476, 3.130402
688.4297, 2.482025
688.9119, 3.083771
689.3940, 4.406189
689.8761, 5.189148
690.3582, 5.218414
690.8403, 5.034302
691.3224, 5.059540
691.8046, 5.216339
692.2867, 5.118378
692.7688, 4.563019
693.2509, 4.129089
693.7330, 3.686462
694.2151, 3.428650
694.6973, 3.476654
695.1794, 3.811920
695.6615, 4.426727
696.1436, 5.495483
696.6257, 6.564636
697.1078, 6.831512
697.5900, 6.583771
698.0721, 7.244690
698.5542, 9.106812
699.0363, 10.80859
699.5184, 11.47409
700.0005, 11.24832
700.4827, 10.61703
700.9648, 8.831329
701.4469, 7.849274
701.9290, 8.181793
702.4111, 8.854187
702.8932, 9.528473
703.3754, 10.04099
703.8575, 10.11142
704.3396, 9.651581
704.8217, 9.261139
705.3038, 9.866119
705.7859, 11.21698
706.2681, 12.00671
706.7502, 12.00314
707.2323, 12.20154
707.7144, 13.43793
708.1965, 15.06775
708.6786, 15.49899
709.1607, 14.20441
709.6428, 13.31699
710.1249, 12.96799
710.6071, 13.07010
711.0892, 14.17377
711.5713, 15.53839
712.0534, 15.68082
712.5355, 14.19324
713.0176, 12.43591
713.4998, 12.19888
713.9819, 13.09375
714.4640, 12.73105
714.9461, 10.81000
715.4282, 9.501495
715.9103, 10.08118
716.3925, 11.36166
716.8746, 11.46432
717.3567, 10.26788
717.8388, 9.134766
718.3209, 7.366516
718.8030, 6.577362
719.2852, 8.862213
719.7673, 11.99258
720.2494, 12.48251
720.7315, 9.801453
721.2136, 6.961548
721.6957, 6.975250
722.1779, 8.862488
722.6600, 9.094940
723.1421, 7.530121
723.6242, 5.914551
724.1063, 4.380859
724.5884, 3.488647
725.0706, 4.485687
725.5527, 7.082245
726.0348, 7.780212
726.5169, 4.258728
726.9990, 1.627258
727.4811, 2.442078
727.9633, 4.592865
728.4454, 5.965454
728.9275, 6.139557
729.4096, 5.780426
729.8917, 5.246582
730.3738, 4.728668
730.8560, 4.718201
731.3381, 5.153687
731.8202, 5.144196
732.3023, 4.287384
732.7844, 4.082062
733.2665, 6.379456
733.7487, 9.931763
734.2308, 10.44003
734.7129, 5.709869
735.1950, 1.929596
735.6771, 0.7301640
736.1592, 0.6839600
736.6414, 1.080353
737.1235, 1.581085
737.6056, 1.900940
738.0877, 1.920898
738.5698, 1.537903
739.0519, 0.1356810
739.5341, 2.035614
740.0162, 2.464966
740.4983, 0.6730650
740.9804, 1.216003
741.4625, 2.341400
741.9446, 2.802368
742.4268, 2.627563
742.9089, 1.652130
743.3910, 0.9520870
743.8731, 0.7550350
744.3552, 0.6972350
744.8373, 0.4264830
745.3195, 0.2651670
745.8016, 0.8463440
746.2837, 2.212341
746.7658, 3.551361
747.2479, 4.184723
747.7300, 4.232422
748.2122, 3.973907
748.6943, 3.407257
749.1764, 2.537109
749.6585, 1.190521
750.1406, 2.4110000E-03
750.6227, 0.3629150
751.1049, 8.5266002E-02
751.5870, 0.6651610
752.0691, 2.201935
752.5512, 2.753357
753.0333, 0.9106450
753.5154, 1.218781
753.9976, 1.981171
754.4797, 1.405701
754.9618, 0.1440430
755.4439, 1.699799
755.9260, 3.284729
756.4081, 3.281433
756.8903, 2.034180
757.3724, 0.8538820
757.8545, 0.1224670
758.3366, 0.6376040
758.8187, 0.4146730
759.3008, 0.2158510
759.7830, 0.3890380
760.2651, 0.3688960
760.7472, 0.4450380
761.2293, 1.051086
761.7114, 2.192444
762.1935, 1.939819
762.6757, 0.9876400
763.1578, 0.1893010
763.6399, 0.2380680
764.1220, 0.2974550
764.6041, 0.2664490
765.0862, 1.050140
765.5684, 1.289581
766.0505, 1.140808
766.5326, 1.619690
767.0147, 3.105774
767.4968, 4.295410
767.9789, 3.565826
768.4611, 1.035858
768.9432, 0.2701110
769.4253, 0.2999570
769.9074, 0.9807740
770.3895, 1.656464
770.8716, 2.216614
771.3538, 2.618866
771.8359, 2.838318
772.3180, 2.796997
772.8001, 2.365173
773.2822, 1.891602
773.7643, 1.370758
774.2465, 1.072052
774.7286, 1.782104
775.2107, 3.247101
775.6928, 3.916748
776.1749, 2.880768
776.6570, 1.021393
777.1392, 7.0587002E-02
777.6213, 0.3947750
778.1034, 0.1349180
778.5855, 2.053467
779.0676, 3.793793
779.5497, 4.677246
780.0319, 4.993683
780.5140, 5.097321
780.9961, 4.998444
781.4782, 4.651459
781.9603, 3.903717
782.4424, 3.048798
782.9246, 2.050385
783.4067, 1.147491
783.8888, 0.6949160
784.3709, 0.7416990
784.8530, 1.100250
785.3351, 1.730225
785.8173, 2.447662
786.2994, 2.781311
786.7815, 2.729675
787.2636, 2.484070
787.7457, 1.947601
788.2278, 1.668060
788.7100, 2.156555
789.1921, 3.216400
789.6742, 4.079376
790.1563, 4.908203
790.6384, 5.264435
791.1205, 4.440491
791.6026, 3.830933
792.0847, 4.548584
792.5668, 5.906128
793.0490, 6.791351
793.5311, 6.867340
794.0132, 6.332092
794.4953, 4.757813
794.9774, 2.961456
795.4595, 2.637238
795.9417, 3.558563
796.4238, 4.171600
796.9059, 3.922516
797.3880, 3.536377
797.8701, 4.159607
798.3522, 5.816711
798.8344, 6.545807
799.3165, 5.761597
799.7986, 4.977051
800.2807, 4.084473
800.7628, 3.562714
801.2449, 3.972992
801.7271, 4.987427
802.2092, 5.676910
802.6913, 5.621246
803.1734, 5.722778
803.6555, 6.793274
804.1376, 8.028809
804.6198, 8.465302
805.1019, 8.277069
805.5840, 8.163849
806.0661, 8.432800
806.5482, 8.913086
807.0303, 9.457458
807.5125, 10.03290
807.9946, 10.33698
808.4767, 10.37817
808.9588, 10.09927
809.4409, 9.170593
809.9230, 8.360077
810.4052, 8.810913
810.8873, 10.50421
811.3694, 10.96265
811.8515, 9.009979
812.3336, 7.639191
812.8157, 7.975464
813.2979, 8.677887
813.7800, 8.629883
814.2621, 8.006165
814.7442, 7.691711
815.2263, 8.185059
815.7084, 8.380859
816.1906, 6.490051
816.6727, 3.834045
817.1548, 3.412628
817.6369, 5.080597
818.1190, 6.442352
818.6011, 6.479584
819.0833, 5.889374
819.5654, 5.506439
820.0475, 5.323883
820.5296, 5.360748
821.0117, 5.789948
821.4938, 6.057129
821.9760, 6.082489
822.4581, 5.906097
822.9402, 5.467712
823.4223, 4.801056
823.9044, 4.056732
824.3865, 2.880035
824.8687, 2.224304
825.3508, 2.963287
825.8329, 4.000153
826.3150, 4.136414
826.7971, 3.586304
827.2792, 3.448029
827.7614, 4.172760
828.2435, 4.908234
828.7256, 4.526154
829.2077, 3.278839
829.6898, 1.870422
830.1719, 0.3337100
830.6541, 0.1709900
831.1362, 0.9681090
831.6183, 2.665283
832.1004, 3.708191
832.5825, 4.101990
833.0646, 4.098877
833.5468, 2.833191
834.0289, 2.537048
834.5110, 4.742340
834.9931, 6.740387
835.4752, 6.492859
835.9573, 4.749878
836.4395, 3.459930
836.9216, 3.188507
837.4037, 3.145660
837.8858, 2.880524
838.3679, 2.659760
838.8500, 2.888245
839.3322, 3.425415
839.8143, 3.660278
840.2964, 3.954041
840.7785, 3.221405
841.2606, 4.445984
841.7427, 4.643646
842.2249, 5.244263
842.7070, 6.670197
843.1891, 6.839539
843.6712, 8.610168
844.1533, 10.43369
844.6354, 10.83627
845.1176, 10.12231
845.5997, 9.920837
846.0818, 10.24329
846.5639, 10.93570
847.0460, 13.08990
847.5281, 14.54358
848.0103, 13.43915
848.4924, 11.35788
848.9745, 10.75333
849.4566, 12.10919
849.9387, 13.76349
850.4208, 15.06497
850.9030, 16.05945
851.3851, 16.54276
851.8672, 16.93365
852.3493, 18.03024
852.8314, 19.70538
853.3135, 20.83990
853.7957, 20.52487
854.2778, 19.53192
854.7599, 19.78064
855.2420, 21.23474
855.7241, 21.83047
856.2062, 21.16928
856.6884, 21.02798
857.1705, 22.20844
857.6526, 24.38425
858.1347, 27.48090
858.6168, 32.11664
859.0989, 34.84103
859.5811, 36.01816
860.0632, 34.87045
860.5453, 29.23273
861.0274, 22.69794
861.5095, 17.94870
861.9916, 15.21335
862.4738, 14.24420
862.9559, 15.95432
863.4380, 17.49951
863.9201, 16.60483
864.4022, 14.66702
864.8843, 13.40909
865.3665, 12.74997
865.8486, 11.76706
866.3307, 10.08084
866.8128, 8.516846
867.2949, 8.294403
867.7770, 9.059570
868.2592, 9.161804
868.7413, 8.588928
869.2234, 8.346252
869.7055, 8.860504
870.1876, 9.137848
870.6697, 8.084930
871.1519, 6.074371
871.6340, 5.140991
872.1161, 5.808136
872.5981, 6.544373
873.0803, 7.862885
873.5624, 8.602020
874.0445, 7.873474
874.5266, 6.447327
875.0087, 5.341187
875.4908, 4.686188
875.9730, 4.372772
876.4551, 4.609070
876.9372, 4.912262
877.4193, 5.040131
877.9014, 5.024506
878.3835, 4.852936
878.8657, 4.602600
879.3478, 4.460114
879.8299, 4.602783
880.3120, 4.785736
880.7941, 4.485596
881.2762, 3.956940
881.7584, 4.081177
882.2405, 4.927948
882.7226, 5.973267
883.2047, 7.098480
883.6868, 7.923615
884.1689, 7.836639
884.6511, 6.874176
885.1332, 6.313629
885.6153, 6.507324
886.0974, 6.060211
886.5795, 4.073212
887.0616, 2.172272
887.5438, 1.618011
888.0259, 2.113312
888.5080, 2.838867
888.9901, 4.186432
889.4722, 4.792755
889.9543, 3.715240
890.4365, 2.665283
890.9186, 2.746735
891.4007, 3.298187
891.8828, 3.337250
892.3649, 2.756866
892.8470, 2.220337
893.3292, 2.196320
893.8113, 2.256775
894.2934, 1.953766
894.7755, 1.468567
895.2576, 1.174377
895.7397, 1.051270
896.2219, 0.6359250
896.7040, 0.3312070
897.1861, 1.145447
897.6682, 0.4828190
898.1503, 1.405609
898.6324, 2.491455
899.1146, 2.732941
899.5967, 2.672058
900.0788, 2.477570
900.5609, 1.979950
901.0430, 0.8951420
901.5251, 0.6182860
902.0073, 1.579315
902.4894, 1.982849
902.9715, 1.846252
903.4536, 0.7235110
903.9357, 0.4232790
904.4178, 1.269196
904.9000, 1.834686
905.3821, 2.152710
905.8642, 2.227081
906.3463, 1.989319
906.8284, 0.9364320
907.3105, 0.1540530
907.7927, 0.6525270
908.2748, 1.309509
908.7569, 0.5406190
909.2390, 1.192719
909.7211, 1.950012
910.2032, 0.7409670
910.6854, 0.8655400
911.1675, 1.593842
911.6496, 1.696259
912.1317, 1.555237
912.6138, 1.163361
913.0959, 0.1057130
913.5781, 1.638489
914.0602, 2.731262
914.5423, 1.720490
915.0244, 0.5451660
915.5065, 1.343781
915.9886, 0.6612240
916.4708, 0.6631160
916.9529, 1.794647
917.4350, 2.588104
917.9171, 2.092560
918.3992, 1.082886
918.8813, 1.019135
919.3635, 2.145660
919.8456, 2.299591
920.3277, 0.5987240
920.8098, 0.6199040
921.2919, 0.5614930
921.7740, 0.1276550
922.2562, 3.0762000E-02
922.7383, 0.5036320
923.2204, 0.4888000
923.7025, 1.582123
924.1846, 2.497467
924.6667, 3.233826
925.1489, 3.506317
925.6310, 2.843536
926.1131, 1.765594
926.5952, 0.7050780
927.0773, 0.1080630
927.5594, 2.2064000E-02
928.0416, 1.885345
928.5237, 3.895477
929.0058, 4.266113
929.4879, 3.811523
929.9700, 3.881592
930.4521, 4.411163
930.9343, 4.531067
931.4164, 3.887665
931.8985, 3.074432
932.3806, 2.818115
932.8627, 2.936188
933.3448, 2.825623
933.8270, 2.510254
934.3091, 2.274414
934.7912, 2.195465
935.2733, 1.874146
935.7554, 0.8951110
936.2375, 0.1745610
936.7197, 0.2275700
937.2018, 2.541168
937.6839, 3.821930
938.1660, 3.924316
938.6481, 3.271698
939.1302, 1.221954
939.6124, 0.5624690
940.0945, 4.1168001E-02
940.5766, 2.473724
941.0587, 4.058411
941.5408, 4.263306
942.0229, 4.265228
942.5051, 3.580872
942.9872, 3.289825
943.4693, 4.670990
943.9514, 6.368652
944.4335, 5.987122
944.9156, 3.381866
945.3978, 2.223724
945.8799, 5.401947
946.3620, 8.339996
946.8441, 8.300812
947.3262, 7.161743
947.8083, 6.510376
948.2905, 6.542053
948.7726, 7.184906
949.2547, 8.422180
949.7368, 9.689545
950.2189, 10.47226
950.7010, 11.05051
951.1832, 11.80576
951.6653, 12.67496
952.1474, 13.61813
952.6295, 14.54025
953.1116, 14.95370
953.5938, 14.48975
954.0759, 13.74371
954.5580, 13.45981
955.0400, 13.69901
955.5222, 15.17615
956.0043, 17.89932
956.4864, 20.45923
956.9685, 22.38733
957.4506, 24.35635
957.9327, 27.10385
958.4149, 28.77698
958.8970, 32.38501
959.3791, 32.85065
959.8612, 34.19858
960.3433, 36.65704
960.8254, 39.99774
961.3076, 44.21805
961.7897, 49.19891
962.2718, 54.57916
962.7539, 60.31659
963.2360, 67.75604
963.7181, 77.60349
964.2003, 88.04639
964.6824, 97.98981
965.1645, 109.3940
965.6466, 124.4542
966.1287, 141.3143
966.6108, 157.2146
967.0930, 171.9980
967.5751, 184.2540
968.0572, 192.3471
968.5393, 199.8180
969.0214, 207.5717
969.5035, 215.5677
969.9857, 222.8720
970.4678, 230.4508
970.9499, 240.7366
971.4320, 254.5917
971.9141, 269.3763
972.3962, 283.3043
972.8784, 298.0090
973.3605, 314.3013
973.8426, 332.3204
974.3247, 352.2857
974.8068, 374.1016
975.2889, 397.6224
975.7711, 422.8295
976.2532, 448.8878
976.7353, 477.4324
977.2174, 504.8608
977.6995, 527.7966
978.1816, 543.8341
978.6638, 545.7590
979.1459, 531.8201
979.6280, 504.4250
980.1101, 464.5633
980.5922, 415.8502
981.0743, 363.8140
981.5565, 309.7936
982.0386, 260.5371
982.5207, 216.7844
983.0028, 180.1598
983.4849, 151.6012
983.9670, 128.8763
984.4492, 109.8271
984.9313, 94.25470
985.4134, 81.37860
985.8955, 71.41577
986.3776, 62.75433
986.8597, 55.25961
987.3419, 48.93021
987.8240, 43.93347
988.3061, 39.79086
988.7882, 35.80536
989.2703, 31.99304
989.7524, 28.94778
990.2346, 27.07040
990.7167, 25.03391
991.1988, 22.19720
991.6809, 19.84946
992.1630, 19.02792
992.6451, 18.99594
993.1273, 18.45129
993.6094, 17.31638
994.0915, 16.23401
994.5736, 15.24008
995.0557, 14.32492
995.5378, 13.45230
996.0200, 12.69183
996.5021, 12.16599
996.9842, 11.76276
997.4663, 11.16016
997.9484, 10.32971
998.4305, 9.853058
998.9127, 10.34631
999.3948, 10.62552
999.8769, 10.20630
1000.359, 9.325317
1000.841, 7.791046
1001.323, 6.064819
1001.805, 5.392944
1002.287, 6.328369
1002.770, 6.806091
1003.252, 5.106903
1003.734, 3.278503
1004.216, 2.846436
1004.698, 3.168671
1005.180, 3.512451
1005.662, 3.684998
1006.144, 3.518921
1006.627, 2.876617
1007.109, 2.372467
1007.591, 2.632721
1008.073, 3.204865
1008.555, 3.675385
1009.037, 4.003174
1009.519, 4.084839
1010.001, 3.968658
1010.483, 3.984619
1010.966, 4.368805
1011.448, 4.619659
1011.930, 3.894104
1012.412, 2.738464
1012.894, 2.195251
1013.376, 2.223358
1013.858, 2.618042
1014.340, 3.242462
1014.823, 3.610168
1015.305, 3.296478
1015.787, 2.576782
1016.269, 2.062622
1016.751, 1.756744
1017.233, 1.539764
1017.715, 1.389618
1018.197, 1.115295
1018.679, 0.6712340
1019.162, 0.4909360
1019.644, 0.9580690
1020.126, 1.598022
1020.608, 1.221985
1021.090, 1.375702
1021.572, 1.482666
1022.054, 0.8329770
1022.536, 1.351593
1023.018, 0.7339480
1023.501, 0.1421810
1023.983, 0.6286930
1024.465, 1.767548
1024.947, 2.149231
1025.429, 1.679535
1025.911, 1.673096
1026.393, 2.368042
1026.875, 2.323669
1027.358, 0.7488710
1027.840, 0.7742000
1028.322, 0.6672060
1028.804, 0.7239380
1029.286, 1.995087
1029.768, 3.093170
1030.250, 4.476135
1030.732, 6.765137
1031.214, 7.526215
1031.697, 5.236176
1032.179, 2.236298
1032.661, 0.8024290
1033.143, 0.7027280
1033.625, 0.7434390
1034.107, 0.7911680
1034.589, 1.376984
1035.071, 2.994141
1035.553, 4.276978
1036.036, 4.815613
1036.518, 4.723358
1037.000, 3.847839
1037.482, 2.394012
1037.964, 1.572296
1038.446, 1.893738
1038.928, 1.839172
1039.410, 0.7760930
1039.893, 0.1961360
1040.375, 0.9947810
1040.857, 2.180084
1041.339, 2.818481
1041.821, 2.994659
1042.303, 3.168610
1042.785, 3.588287
1043.267, 3.537964
1043.750, 2.424042
1044.232, 1.537659
1044.714, 1.451813
1045.196, 1.707001
1045.678, 1.977997
1046.160, 2.205048
1046.642, 2.199432
1047.124, 1.786713
1047.606, 1.493011
1048.089, 1.393188
1048.571, 1.415100
1049.053, 1.776581
1049.535, 2.053467
1050.017, 1.509277
1050.499, 0.4833980
1050.981, 0.4564210
1051.463, 2.272827
1051.945, 3.440063
1052.428, 2.774109
1052.910, 2.156860
1053.392, 2.760864
1053.874, 3.572205
1054.356, 3.456543
1054.838, 2.615479
1055.320, 1.979095
1055.802, 1.702881
1056.285, 1.747437
1056.767, 2.383209
1057.249, 2.994690
1057.731, 3.265228
1058.213, 3.376251
1058.695, 3.667419
1059.177, 3.960175
1059.659, 3.516602
1060.141, 1.843231
1060.624, 0.9898680
1061.106, 2.700439
1061.588, 4.150513
1062.070, 3.666748
1062.552, 2.412689
1063.034, 1.323669
1063.516, 0.5575870
1063.998, 0.1519470
1064.480, 0.1253660
1064.963, 0.3629150
1065.445, 1.047668
1065.927, 1.704163
1066.409, 2.059326
1066.891, 2.286896
1067.373, 2.648315
1067.855, 3.005341
1068.337, 2.989044
1068.820, 2.499054
1069.302, 1.880768
1069.784, 1.328766
1070.266, 0.6258540
1070.748, 0.5813900
1071.230, 1.785004
1071.712, 2.832550
1072.194, 3.411530
1072.677, 2.800507
1073.159, 0.8775940
1073.641, 0.8575130
1074.123, 1.925507
1074.605, 2.426483
1075.087, 2.268951
1075.569, 1.700684
1076.051, 0.5757750
1076.533, 0.6543270
1077.016, 1.140747
1077.498, 0.7891850
1077.980, 0.5074770
1078.462, 0.8115540
1078.944, 1.072510
1079.426, 1.355103
1079.908, 1.115082
1080.390, 0.7725520
1080.872, 3.142029
1081.354, 4.093201
1081.837, 3.472107
1082.319, 2.645233
1082.801, 1.803223
1083.283, 1.482025
1083.765, 2.194183
1084.247, 3.247833
1084.729, 4.428925
1085.211, 5.455017
1085.694, 5.863739
1086.176, 5.768433
1086.658, 5.822205
1087.140, 6.282104
1087.622, 6.692627
1088.104, 6.651794
1088.586, 6.736053
1089.068, 7.359619
1089.551, 8.275177
1090.033, 9.326294
1090.515, 10.38113
1090.997, 11.13284
1091.479, 11.48193
1091.961, 11.62338
1092.443, 11.40930
1092.925, 11.27728
1093.407, 11.87592
1093.890, 12.32089
1094.372, 11.49408
1094.854, 9.851944
1095.336, 8.604141
1095.818, 8.009033
1096.300, 7.734222
1096.782, 7.726181
1097.264, 7.953888
1097.746, 8.604935
1098.229, 9.297913
1098.711, 9.968323
1099.193, 10.36633
1099.675, 9.733002
1100.157, 7.972153
1100.639, 7.428360
1101.121, 9.915878
1101.603, 11.92422
1102.086, 12.28673
1102.568, 12.12851
1103.050, 11.85468
1103.532, 11.66348
1104.014, 11.69254
1104.496, 11.97852
1104.978, 12.73869
1105.460, 14.62190
1105.943, 15.94774
1106.425, 15.76924
1106.907, 15.81342
1107.389, 17.08365
1107.871, 18.78873
1108.353, 20.37030
1108.835, 21.65707
1109.317, 21.99931
1109.799, 20.88620
1110.281, 19.98003
1110.764, 19.51598
1111.246, 19.11960
1111.728, 18.36484
1112.210, 17.92665
1112.692, 18.62003
1113.174, 19.98326
1113.656, 20.82767
1114.138, 20.93915
1114.621, 21.23306
1115.103, 22.30833
1115.585, 22.56134
1116.067, 21.18033
1116.549, 19.66122
1117.031, 18.91934
1117.513, 18.52312
1117.995, 17.76013
1118.478, 16.62999
1118.960, 15.65051
1119.442, 14.92778
1119.924, 14.06276
1120.406, 12.67786
1120.888, 11.88026
1121.370, 12.32579
1121.852, 13.30583
1122.334, 14.10056
1122.817, 14.69231
1123.299, 14.98219
1123.781, 14.95487
1124.263, 14.61487
1124.745, 13.78879
1125.227, 13.27026
1125.709, 13.24152
1126.191, 13.77533
1126.673, 15.11786
1127.156, 16.77145
1127.638, 17.28174
1128.120, 16.57147
1128.602, 16.80475
1129.084, 18.06537
1129.566, 18.92302
1130.048, 19.04861
1130.530, 19.69501
1131.013, 21.80437
1131.495, 23.75865
1131.977, 22.86778
1132.459, 19.96524
1132.941, 19.20366
1133.423, 20.45131
1133.905, 22.20198
1134.387, 24.19440
1134.870, 25.27737
1135.352, 25.03896
1135.834, 25.66354
1136.316, 29.60857
1136.798, 34.70413
1137.280, 36.05360
1137.762, 34.67894
1138.244, 34.18587
1138.726, 34.41942
1139.208, 33.66718
1139.691, 31.66046
1140.173, 29.92850
1140.655, 29.42159
1141.137, 29.49777
1141.619, 29.63849
1142.101, 29.61385
1142.583, 28.93477
1143.065, 27.77316
1143.548, 26.14992
1144.030, 24.43436
1144.512, 23.99901
1144.994, 25.28935
1145.476, 26.27312
1145.958, 25.22829
1146.440, 23.28104
1146.922, 20.85051
1147.405, 18.68597
1147.887, 18.03917
1148.369, 18.33611
1148.851, 17.74239
1149.333, 16.39133
1149.815, 17.63910
1150.297, 24.96228
1150.779, 29.96776
1151.261, 25.62344
1151.744, 19.49026
1152.226, 16.56314
1152.708, 15.41869
1153.190, 14.39571
1153.672, 13.28488
1154.154, 11.99623
1154.636, 10.41096
1155.118, 9.314667
1155.600, 9.550598
1156.083, 9.477188
1156.565, 7.757965
1157.047, 6.309326
1157.529, 7.252518
1158.011, 8.965912
1158.493, 8.444595
1158.975, 5.600372
1159.457, 3.976669
1159.940, 4.707703
1160.422, 5.156601
1160.904, 5.169281
1161.386, 4.988754
1161.868, 4.521637
1162.350, 4.197495
1162.832, 4.423874
1163.314, 4.006454
1163.796, 3.849319
1164.279, 3.891678
1164.761, 3.313980
1165.243, 3.356155
1165.725, 3.321274
1166.207, 3.047668
1166.689, 2.702301
1167.171, 2.289505
1167.653, 2.151382
1168.135, 2.890198
1168.618, 4.268570
1169.100, 5.118408
1169.582, 5.446365
1170.064, 4.127823
1170.546, 1.063858
1171.028, 0.2215120
1171.510, 1.551987
1171.992, 3.462036
1172.474, 3.129562
1172.957, 1.766632
1173.439, 1.583969
1173.921, 2.116104
1174.403, 1.595917
1174.885, 2.410339
1175.367, 1.298096
1175.849, 3.720581
1176.331, 5.687119
1176.814, 6.260208
1177.296, 6.046860
1177.778, 5.285965
1178.260, 4.415863
1178.742, 4.001709
1179.224, 3.749786
1179.706, 3.232620
1180.188, 2.561356
1180.671, 2.062881
1181.153, 1.757233
1181.635, 1.354462
1182.117, 0.6435850
1182.599, 0.1388850
1183.081, 0.3697510
1183.563, 0.5976870
1184.045, 0.1279300
1184.527, 0.3672490
1185.010, 0.1351930
1185.492, 0.5962370
1185.974, 1.226608
1186.456, 1.677124
1186.938, 2.003433
1187.420, 2.303299
1187.902, 2.342117
1188.384, 1.728165
1188.866, 1.287628
1189.349, 1.655060
1189.831, 2.081924
1190.313, 1.570953
1190.795, 2.107452
1191.277, 2.313034
1191.759, 2.196106
1192.241, 2.856873
1192.723, 2.171600
1193.206, 1.925476
1193.688, 2.625854
1194.170, 3.281754
1194.652, 3.352859
1195.134, 2.899719
1195.616, 1.843445
1196.098, 0.5018620
1196.580, 0.4374690
1197.063, 1.496613
1197.545, 2.150360
1198.027, 2.285995
1198.509, 1.916519
1198.991, 1.111176
1199.473, 0.6316990
1199.955, 1.048157
1200.437, 1.681076
1200.919, 1.607666
1201.401, 1.177734
1201.884, 1.018295
1202.366, 0.9606480
1202.848, 0.5494690
1203.330, 8.2259998E-02
1203.812, 0.3923650
1204.294, 0.2385250
1204.776, 1.7883001E-02
1205.258, 4.0695000E-02
1205.741, 0.3539120
1206.223, 1.784500
1206.705, 3.102936
1207.187, 3.353729
1207.669, 2.946823
1208.151, 2.258240
1208.633, 1.440048
1209.115, 0.5769500
1209.598, 0.5233460
1210.080, 0.4515080
1210.562, 2.555298
1211.044, 4.452438
1211.526, 3.770340
1212.008, 2.628326
1212.490, 1.718063
1212.972, 1.118134
1213.454, 0.8996430
1213.937, 1.081406
1214.419, 1.870453
1214.901, 3.535568
1215.383, 4.466309
1215.865, 4.634918
1216.347, 3.946136
1216.829, 2.188950
1217.311, 1.503372
1217.793, 3.330673
1218.276, 5.281601
1218.758, 3.883972
1219.240, 0.5415800
1219.722, 0.7175140
1220.204, 0.4852140
1220.686, 1.077499
1221.168, 2.253494
1221.650, 2.156708
1222.133, 0.5456700
1222.615, 1.048080
1223.097, 1.778595
1223.579, 2.138855
1224.061, 2.531891
1224.543, 2.812775
1225.025, 2.911057
1225.507, 2.753830
1225.990, 2.133087
1226.472, 1.242859
1226.954, 0.1907810
1227.436, 0.8567200
1227.918, 0.8063810
1228.400, 1.602219
1228.882, 2.996063
1229.364, 1.501785
1229.846, 0.2044530
1230.328, 0.5422520
1230.811, 1.278381
1231.293, 1.397415
1231.775, 1.311798
1232.257, 1.904602
1232.739, 1.904922
1233.221, 2.062378
1233.703, 2.595688
1234.185, 2.433960
1234.668, 3.389542
1235.150, 3.965836
1235.632, 3.806625
1236.114, 3.414215
1236.596, 3.218475
1237.078, 3.068054
1237.560, 2.519531
1238.042, 1.873657
1238.525, 2.399872
1239.007, 3.642136
1239.489, 4.163147
1239.971, 3.934311
1240.453, 3.424332
1240.935, 2.834778
1241.417, 2.691376
1241.899, 3.455750
1242.381, 4.022293
1242.864, 3.255188
1243.346, 2.274780
1243.828, 1.817520
1244.310, 1.775955
1244.792, 2.216080
1245.274, 3.011047
1245.756, 3.690613
1246.238, 4.146881
1246.720, 4.370361
1247.203, 4.197311
1247.685, 3.856796
1248.167, 3.921951
1248.649, 3.686264
1249.131, 2.657944
1249.613, 1.778214
1250.095, 1.692215
1250.577, 2.387573
1251.059, 3.983826
1251.542, 6.385040
1252.024, 8.619705
1252.506, 10.52388
1252.988, 11.57097
1253.470, 11.47519
1253.952, 10.14091
1254.434, 7.071442
1254.916, 4.082336
1255.399, 2.523788
1255.881, 1.864792
1256.363, 1.617950
1256.845, 1.603134
1257.327, 1.095322
1257.809, 1.394730
1258.291, 0.7807620
1258.773, 1.735458
1259.255, 2.337097
1259.738, 2.374939
1260.220, 1.952209
1260.702, 0.6083530
1261.184, 0.2013240
1261.666, 2.395493
1262.148, 4.206024
1262.630, 4.344589
1263.112, 3.783936
1263.594, 2.882202
1264.077, 2.013596
1264.559, 1.851639
1265.041, 2.258392
1265.523, 1.830460
1266.005, 0.1976620
1266.487, 2.7756000E-02
1266.969, 1.571075
1267.451, 2.908279
1267.934, 3.593536
1268.416, 3.832306
1268.898, 3.730743
1269.380, 3.343140
1269.862, 2.564941
1270.344, 1.749481
1270.826, 1.831726
1271.308, 2.214478
1271.791, 1.320633
1272.273, 3.3645999E-02
1272.755, 0.4822080
1273.237, 2.518311
1273.719, 3.177490
1274.201, 1.379456
1274.683, 0.1119080
1275.165, 0.1407620
1275.647, 0.4839940
1276.130, 2.223587
1276.612, 3.638672
1277.094, 3.810349
1277.576, 3.286041
1278.058, 2.266617
1278.540, 1.224930
1279.022, 1.664810
1279.504, 3.794159
1279.986, 4.504715
1280.469, 3.570190
1280.951, 2.860519
1281.433, 2.582352
1281.915, 2.237091
1282.397, 1.643433
1282.879, 1.022751
1283.361, 0.5484010
1283.843, 0.2071690
1284.326, 2.1820001E-03
1284.808, 0.0000000E+00
##END=



