##NAMES=Perovskite
##RRUFFID=R050456
##IDEAL CHEMISTRY=CaTiO_3_
##LOCALITY=Magnet Cove, Arkansas, USA
##OWNER=RRUFF
##SOURCE=University of Arizona Mineral Museum
##DESCRIPTION=Groups of black cubo-octahedral crystals
##STATUS=The identification of this mineral has been confirmed by X-ray diffraction and chemical analysis
##URL=rruff.info/R050456
##MEASURED CHEMISTRY=darker phase: (Ca_0.82_Fe^2+^_0.09_Na_0.07_Ce_0.01_La_0.01_)_Σ=1_(Ti_0.95_Nb^5+^_0.05_)_Σ=1_O_3_ ; gray phase: (Ca_0.89_Fe^2+^_0.05_Na_0.04_Ce_0.01_La_0.01_)_Σ=1_(Ti_0.98_Nb^5+^_0.02_)_Σ=1_O_3_
163.8074, 0.0000000E+00
164.2896, 2.7252000E-02
164.7717, 0.1198580
165.2538, 0.4418640
165.7359, 1.091675
166.2180, 1.731827
166.7001, 2.028534
167.1823, 1.672180
167.6644, 1.471985
168.1465, 2.122009
168.6286, 3.374603
169.1107, 4.514679
169.5928, 4.916122
170.0750, 5.091370
170.5571, 5.620087
171.0392, 6.812302
171.5213, 8.101379
172.0034, 9.054947
172.4855, 9.736450
172.9677, 10.28664
173.4498, 10.52458
173.9319, 10.68384
174.4140, 11.18129
174.8961, 12.28896
175.3782, 13.60519
175.8604, 14.78003
176.3425, 15.79004
176.8246, 16.61421
177.3067, 17.12714
177.7888, 17.30365
178.2709, 17.23010
178.7531, 16.87807
179.2352, 16.26141
179.7173, 15.47614
180.1994, 14.71828
180.6815, 14.13799
181.1636, 13.85240
181.6458, 13.68896
182.1279, 13.30348
182.6100, 12.18028
183.0921, 10.81410
183.5742, 9.834793
184.0563, 9.261841
184.5385, 9.190247
185.0206, 9.243515
185.5027, 8.823685
185.9848, 8.138916
186.4669, 7.303223
186.9490, 6.436172
187.4312, 5.867722
187.9133, 5.654663
188.3954, 5.471024
188.8775, 4.858658
189.3596, 3.867676
189.8417, 3.008102
190.3239, 2.529144
190.8060, 2.359344
191.2881, 2.164200
191.7702, 1.943146
192.2523, 1.712845
192.7344, 1.474350
193.2166, 1.233475
193.6987, 1.056290
194.1808, 1.036148
194.6629, 1.147339
195.1450, 1.050507
195.6271, 0.7033840
196.1093, 0.2564240
196.5914, 9.4162002E-02
197.0735, 0.3486480
197.5556, 0.5237430
198.0377, 0.6115880
198.5198, 0.6133880
199.0020, 0.6197970
199.4841, 0.6573180
199.9662, 0.6584470
200.4483, 0.4683380
200.9304, 5.0110001E-02
201.4125, 0.3254550
201.8947, 0.4706880
202.3768, 0.3483890
202.8589, 0.5506290
203.3410, 1.273819
203.8231, 2.070953
204.3052, 1.941238
204.7874, 0.6369020
205.2695, 0.5425720
205.7516, 0.9891360
206.2337, 0.6136470
206.7158, 8.3374001E-02
207.1979, 0.6607210
207.6801, 1.497116
208.1622, 2.187332
208.6443, 2.753113
209.1264, 3.127289
209.6085, 3.211044
210.0906, 2.901505
210.5728, 2.756638
211.0549, 2.827988
211.5370, 3.290985
212.0191, 4.078629
212.5012, 5.317978
212.9833, 6.685303
213.4655, 7.795395
213.9476, 8.394470
214.4297, 8.912277
214.9118, 9.455933
215.3939, 9.921951
215.8760, 10.42392
216.3581, 10.98552
216.8403, 11.66122
217.3224, 12.50795
217.8045, 13.64021
218.2866, 14.61113
218.7687, 15.42000
219.2508, 16.04904
219.7330, 16.37637
220.2151, 16.21042
220.6972, 16.08218
221.1793, 16.27730
221.6614, 17.09235
222.1435, 17.73778
222.6257, 18.15628
223.1078, 18.40950
223.5899, 18.69339
224.0720, 19.07094
224.5541, 19.38152
225.0362, 19.56538
225.5184, 19.63240
226.0005, 19.53210
226.4826, 19.13315
226.9647, 18.60689
227.4468, 18.40678
227.9289, 18.54706
228.4111, 19.00626
228.8932, 19.87166
229.3753, 21.53792
229.8574, 22.65575
230.3395, 22.99542
230.8216, 22.81889
231.3038, 22.82358
231.7859, 22.98738
232.2680, 23.36389
232.7501, 24.01332
233.2322, 25.11429
233.7143, 26.04373
234.1965, 26.56918
234.6786, 26.97159
235.1607, 28.11487
235.6428, 30.51146
236.1249, 32.89539
236.6070, 34.68106
237.0892, 35.54593
237.5713, 36.51302
238.0534, 37.60521
238.5355, 38.78871
239.0176, 39.97844
239.4997, 41.19612
239.9819, 42.41534
240.4640, 43.67412
240.9461, 45.23553
241.4282, 46.23279
241.9103, 46.56949
242.3924, 46.37540
242.8746, 45.94666
243.3567, 45.25836
243.8388, 44.38446
244.3209, 43.37082
244.8030, 42.31206
245.2851, 40.89182
245.7673, 39.03693
246.2494, 36.85767
246.7315, 34.55722
247.2136, 32.01991
247.6957, 29.53433
248.1778, 27.21628
248.6600, 25.13914
249.1421, 23.07144
249.6242, 20.99458
250.1063, 18.92110
250.5884, 16.84222
251.0705, 14.60567
251.5527, 12.61331
252.0348, 11.08138
252.5169, 10.14923
252.9990, 9.116257
253.4811, 7.851608
253.9632, 6.536392
254.4454, 5.554214
254.9275, 5.103149
255.4096, 4.611343
255.8917, 3.880234
256.3738, 2.866302
256.8560, 1.849625
257.3381, 0.7995000
257.8202, 0.2341460
258.3023, 1.245468
258.7844, 2.396255
259.2665, 3.098679
259.7487, 3.002365
260.2308, 1.914169
260.7129, 1.512527
261.1950, 2.054977
261.6771, 2.985565
262.1592, 3.595779
262.6414, 3.906097
263.1235, 3.945770
263.6056, 3.552750
264.0877, 2.614960
264.5698, 2.068954
265.0519, 2.111465
265.5341, 2.289856
266.0162, 2.022659
266.4983, 1.157928
266.9804, 0.3344730
267.4625, 0.2762600
267.9446, 0.6733400
268.4268, 1.178558
268.9089, 1.836380
269.3910, 2.502167
269.8731, 2.959290
270.3552, 3.083557
270.8373, 3.492676
271.3195, 4.363525
271.8016, 5.659576
272.2837, 7.066238
272.7658, 8.659348
273.2479, 10.23170
273.7300, 11.61371
274.2122, 12.78157
274.6943, 13.88901
275.1764, 14.97020
275.6585, 16.01047
276.1406, 16.88731
276.6227, 17.55214
277.1049, 18.22215
277.5870, 19.10425
278.0691, 20.22252
278.5512, 21.30380
279.0333, 22.34036
279.5154, 23.29292
279.9976, 24.02866
280.4797, 24.54178
280.9618, 24.87361
281.4439, 25.06831
281.9260, 25.12337
282.4081, 24.93613
282.8903, 24.38535
283.3724, 23.70023
283.8545, 23.51056
284.3366, 23.86281
284.8187, 24.21573
285.3008, 24.14555
285.7830, 23.69862
286.2651, 23.44234
286.7472, 23.46700
287.2293, 23.62173
287.7114, 23.70195
288.1935, 23.70570
288.6757, 23.50006
289.1578, 22.77547
289.6399, 21.69502
290.1220, 21.21365
290.6041, 21.48697
291.0862, 22.01169
291.5684, 22.02504
292.0505, 21.58101
292.5326, 21.19572
293.0147, 21.29192
293.4968, 21.64708
293.9789, 21.51006
294.4611, 20.80292
294.9432, 19.97592
295.4253, 19.67101
295.9074, 19.74481
296.3895, 19.58012
296.8716, 18.52434
297.3538, 17.14441
297.8359, 16.74680
298.3180, 17.36716
298.8001, 18.11340
299.2822, 18.08043
299.7643, 17.50984
300.2465, 17.03435
300.7286, 16.95419
301.2107, 17.04015
301.6928, 17.02963
302.1749, 16.92090
302.6570, 16.67738
303.1392, 15.99010
303.6213, 15.18987
304.1034, 14.89893
304.5855, 15.57677
305.0676, 16.49599
305.5497, 16.96678
306.0319, 17.03517
306.5140, 16.96255
306.9961, 16.86972
307.4782, 16.74754
307.9603, 16.55829
308.4424, 16.21564
308.9246, 15.94862
309.4067, 16.00539
309.8888, 16.29182
310.3709, 16.54384
310.8530, 16.50604
311.3351, 16.43094
311.8173, 16.59729
312.2994, 17.17625
312.7815, 17.60608
313.2636, 17.38687
313.7457, 16.80138
314.2278, 16.35289
314.7100, 16.18149
315.1921, 16.27592
315.6742, 16.69768
316.1563, 17.48509
316.6384, 18.20216
317.1205, 18.62865
317.6027, 18.94186
318.0848, 19.36133
318.5669, 20.04622
319.0490, 20.65114
319.5311, 20.98030
320.0132, 21.02798
320.4954, 21.14136
320.9775, 21.48433
321.4596, 21.93787
321.9417, 22.40128
322.4238, 22.61154
322.9059, 23.00490
323.3881, 23.77956
323.8702, 24.91209
324.3523, 25.98306
324.8344, 27.03917
325.3165, 27.91420
325.7986, 28.52335
326.2808, 28.05847
326.7629, 28.27658
327.2450, 29.84999
327.7271, 32.33875
328.2092, 34.00223
328.6913, 34.03770
329.1735, 33.94153
329.6556, 34.33029
330.1377, 35.64989
330.6198, 36.59415
331.1019, 36.92792
331.5840, 36.95113
332.0662, 37.25188
332.5483, 38.05234
333.0304, 38.80945
333.5125, 39.34846
333.9946, 39.65503
334.4767, 39.83128
334.9589, 39.84988
335.4410, 39.76247
335.9231, 39.63408
336.4052, 39.48119
336.8873, 39.25041
337.3694, 38.91443
337.8516, 38.48375
338.3336, 38.06618
338.8158, 37.64691
339.2979, 37.28094
339.7800, 37.07669
340.2621, 37.09442
340.7442, 36.87595
341.2263, 36.27359
341.7085, 35.42439
342.1906, 34.83250
342.6727, 34.52232
343.1548, 34.27992
343.6369, 34.00870
344.1190, 33.70267
344.6012, 33.16151
345.0833, 32.26866
345.5654, 31.31758
346.0475, 30.96417
346.5296, 31.16383
347.0117, 31.20638
347.4939, 30.43541
347.9760, 29.18867
348.4581, 28.67654
348.9402, 29.07076
349.4223, 29.54401
349.9044, 28.96584
350.3866, 27.63692
350.8687, 26.58545
351.3508, 26.53563
351.8329, 26.87135
352.3150, 26.47540
352.7971, 25.37158
353.2793, 24.43642
353.7614, 24.57346
354.2435, 25.27792
354.7256, 25.71881
355.2077, 25.52274
355.6898, 25.14494
356.1720, 25.09927
356.6541, 25.26009
357.1362, 25.10181
357.6183, 23.82085
358.1004, 22.34763
358.5826, 21.58771
359.0647, 21.94955
359.5468, 22.41493
360.0289, 22.51082
360.5110, 22.32057
360.9931, 22.00069
361.4753, 21.31416
361.9574, 20.75667
362.4395, 20.69412
362.9216, 21.26671
363.4037, 21.63063
363.8858, 21.43806
364.3680, 20.95161
364.8501, 20.44487
365.3322, 19.80815
365.8143, 19.34140
366.2964, 19.23047
366.7785, 19.46429
367.2607, 19.51613
367.7428, 19.22639
368.2249, 18.86224
368.7070, 18.54475
369.1891, 18.13815
369.6712, 17.88718
370.1534, 17.86745
370.6355, 18.07930
371.1176, 18.35828
371.5997, 18.72084
372.0818, 18.99251
372.5639, 19.11128
373.0461, 19.01746
373.5282, 19.11095
374.0103, 19.52881
374.4924, 19.98627
374.9745, 19.97157
375.4566, 19.26692
375.9388, 18.69043
376.4209, 18.53506
376.9030, 18.76353
377.3851, 18.86954
377.8672, 18.85916
378.3493, 18.80803
378.8315, 18.75812
379.3136, 18.70961
379.7957, 18.75351
380.2778, 18.90039
380.7599, 19.11011
381.2420, 19.29300
381.7242, 19.45049
382.2063, 19.64484
382.6884, 20.03577
383.1705, 20.54056
383.6526, 20.77705
384.1347, 20.62712
384.6169, 20.34390
385.0990, 20.28131
385.5811, 20.37947
386.0632, 20.44617
386.5453, 20.40565
387.0274, 20.28792
387.5096, 20.13193
387.9917, 19.94044
388.4738, 19.68402
388.9559, 19.19615
389.4380, 18.68625
389.9201, 18.45261
390.4023, 18.90808
390.8844, 19.31061
391.3665, 19.05597
391.8486, 18.29994
392.3307, 17.62645
392.8128, 17.32452
393.2950, 17.19403
393.7771, 17.12383
394.2592, 17.15729
394.7413, 17.07872
395.2234, 16.66606
395.7055, 16.12601
396.1877, 15.77957
396.6698, 15.98943
397.1519, 16.12254
397.6340, 15.93430
398.1161, 15.37177
398.5982, 14.90944
399.0804, 14.65985
399.5625, 14.47746
400.0446, 14.26215
400.5267, 14.02113
401.0088, 13.75061
401.4909, 13.51755
401.9731, 13.26836
402.4552, 12.73141
402.9373, 11.63553
403.4194, 10.69719
403.9015, 10.32739
404.3836, 10.72823
404.8658, 10.86559
405.3479, 10.64915
405.8300, 10.28745
406.3121, 10.14259
406.7942, 10.27017
407.2763, 10.17874
407.7585, 9.542282
408.2406, 8.529190
408.7227, 8.241974
409.2048, 8.761215
409.6869, 9.325821
410.1690, 9.219574
410.6512, 8.555359
411.1333, 7.837845
411.6154, 7.107788
412.0975, 6.465958
412.5796, 6.093613
413.0617, 5.954590
413.5439, 5.851288
414.0260, 5.727066
414.5081, 5.545731
414.9902, 5.239059
415.4723, 4.791504
415.9544, 4.320908
416.4366, 3.925262
416.9187, 3.574005
417.4008, 3.223083
417.8829, 2.806137
418.3650, 2.421921
418.8471, 2.159546
419.3293, 1.997177
419.8114, 1.775772
420.2935, 1.213272
420.7756, 0.7072910
421.2577, 0.5922090
421.7398, 1.237122
422.2220, 1.643860
422.7041, 1.433075
423.1862, 0.8719940
423.6683, 0.4416960
424.1504, 0.3907620
424.6325, 0.2754360
425.1147, 9.3245998E-02
425.5968, 0.7854310
426.0789, 1.149750
426.5610, 0.8855740
427.0431, 0.5665280
427.5252, 0.7188420
428.0074, 1.712936
428.4895, 2.286316
428.9716, 2.126862
429.4537, 1.509018
429.9358, 1.317734
430.4179, 1.645706
430.9001, 2.072617
431.3822, 2.450577
431.8643, 2.782715
432.3464, 2.854584
432.8285, 2.631073
433.3106, 2.259384
433.7928, 1.834167
434.2749, 1.380203
434.7570, 1.118057
435.2391, 1.165451
435.7212, 1.405441
436.2033, 1.690613
436.6855, 2.000351
437.1676, 2.177551
437.6497, 2.029587
438.1318, 1.697510
438.6139, 1.361176
439.0960, 1.011795
439.5782, 0.7966310
440.0603, 1.021194
440.5424, 1.453369
441.0245, 1.652832
441.5066, 1.272247
441.9887, 0.7421720
442.4709, 0.3190160
442.9530, 5.8140000E-03
443.4351, 0.3773350
443.9172, 1.006851
444.3993, 1.664612
444.8814, 2.185776
445.3636, 2.470886
445.8457, 2.715546
446.3278, 2.900543
446.8099, 3.062485
447.2920, 3.289276
447.7741, 3.485321
448.2563, 3.862106
448.7384, 4.551117
449.2205, 5.628677
449.7026, 6.440262
450.1847, 6.851151
450.6668, 7.161713
451.1490, 7.678574
451.6311, 8.495956
452.1132, 9.125961
452.5953, 9.375107
453.0774, 9.487854
453.5595, 10.24721
454.0417, 11.72989
454.5238, 13.15836
455.0059, 14.12476
455.4880, 14.67516
455.9701, 14.99876
456.4522, 15.05426
456.9344, 15.18120
457.4165, 15.73781
457.8986, 16.66045
458.3807, 17.79720
458.8628, 19.34892
459.3449, 20.82089
459.8271, 21.43806
460.3092, 21.40698
460.7913, 21.62289
461.2734, 23.00998
461.7555, 24.62787
462.2376, 25.67256
462.7198, 25.94839
463.2019, 26.00954
463.6840, 25.95383
464.1661, 25.87587
464.6482, 25.88962
465.1303, 26.39023
465.6125, 26.60048
466.0946, 26.13614
466.5767, 25.07968
467.0588, 24.27277
467.5409, 23.96397
468.0230, 23.75163
468.5052, 23.48497
468.9873, 23.21800
469.4694, 22.75040
469.9515, 21.97986
470.4336, 21.10451
470.9157, 20.38901
471.3979, 19.86844
471.8800, 19.41579
472.3621, 19.00240
472.8442, 18.63536
473.3263, 18.29466
473.8084, 17.96700
474.2906, 17.76416
474.7727, 17.76721
475.2548, 17.96307
475.7369, 18.34499
476.2190, 18.95827
476.7011, 19.56845
477.1833, 19.83168
477.6654, 19.85965
478.1475, 19.95888
478.6296, 20.22159
479.1117, 20.64195
479.5938, 21.33661
480.0760, 22.25180
480.5581, 23.00891
481.0402, 23.23280
481.5223, 23.31114
482.0044, 23.58316
482.4865, 24.20921
482.9687, 24.74881
483.4508, 24.85835
483.9329, 24.82889
484.4150, 25.08452
484.8971, 26.04498
485.3792, 26.90701
485.8614, 27.40540
486.3435, 27.58760
486.8256, 27.83173
487.3077, 28.20386
487.7898, 28.59036
488.2719, 28.94496
488.7541, 29.33066
489.2362, 29.40492
489.7183, 29.03845
490.2004, 28.55006
490.6825, 28.48279
491.1646, 28.90155
491.6468, 29.15791
492.1289, 28.97200
492.6110, 28.52670
493.0931, 28.38309
493.5752, 28.52589
494.0573, 28.69093
494.5395, 28.64948
495.0216, 28.50674
495.5037, 28.49239
495.9858, 28.65227
496.4679, 28.89320
496.9500, 29.25520
497.4322, 29.61424
497.9143, 29.74580
498.3964, 29.34123
498.8785, 28.88756
499.3606, 28.62636
499.8427, 28.56943
500.3249, 28.73647
500.8070, 29.44075
501.2891, 30.12250
501.7712, 30.42960
502.2533, 30.10011
502.7354, 29.99451
503.2176, 30.45488
503.6997, 31.02469
504.1818, 31.23289
504.6639, 30.89056
505.1460, 30.51668
505.6281, 30.11809
506.1103, 29.74606
506.5924, 29.63780
507.0745, 29.82629
507.5566, 30.15515
508.0387, 30.60129
508.5208, 31.15356
509.0030, 31.62523
509.4851, 32.03012
509.9672, 32.27762
510.4493, 32.15013
510.9314, 31.76704
511.4135, 31.53839
511.8957, 31.61449
512.3778, 31.81897
512.8599, 31.98347
513.3420, 32.11635
513.8242, 32.23793
514.3063, 32.45952
514.7884, 32.60092
515.2705, 32.45470
515.7526, 32.00809
516.2347, 31.64255
516.7169, 31.43727
517.1990, 31.41356
517.6811, 31.59956
518.1632, 32.37589
518.6453, 32.84227
519.1274, 32.62662
519.6096, 32.08968
520.0917, 31.91254
520.5738, 32.34357
521.0559, 32.72453
521.5380, 32.86249
522.0201, 32.77493
522.5023, 32.81671
522.9844, 33.05743
523.4665, 33.24564
523.9486, 33.11530
524.4307, 32.68593
524.9128, 32.45995
525.3950, 32.50986
525.8771, 32.68568
526.3592, 32.86162
526.8413, 33.01082
527.3234, 33.03442
527.8055, 32.89149
528.2877, 32.60899
528.7698, 32.07036
529.2519, 31.36526
529.7340, 30.85951
530.2161, 30.96977
530.6982, 31.24217
531.1804, 31.30351
531.6625, 31.06516
532.1446, 30.80046
532.6267, 30.68246
533.1088, 30.56564
533.5909, 30.30493
534.0731, 29.73828
534.5552, 29.19196
535.0373, 28.66679
535.5194, 28.20728
536.0015, 27.87328
536.4836, 27.69621
536.9658, 27.53943
537.4479, 27.36354
537.9300, 27.17480
538.4121, 27.02663
538.8942, 26.95721
539.3763, 26.80476
539.8585, 26.34357
540.3406, 25.63507
540.8227, 25.04512
541.3048, 24.59018
541.7869, 24.31529
542.2690, 24.46443
542.7512, 24.84636
543.2333, 24.94566
543.7154, 24.40419
544.1975, 23.61575
544.6796, 22.82709
545.1617, 22.04247
545.6439, 21.30667
546.1260, 20.70045
546.6081, 20.10703
547.0902, 19.37102
547.5723, 18.35863
548.0544, 17.75883
548.5366, 18.08859
549.0187, 18.63132
549.5008, 18.75877
549.9829, 18.32517
550.4650, 17.71841
550.9471, 16.85315
551.4293, 15.90424
551.9114, 15.30258
552.3935, 15.12303
552.8756, 14.91563
553.3577, 14.49338
553.8398, 13.90364
554.3220, 13.36015
554.8041, 12.86005
555.2862, 12.39457
555.7683, 11.88318
556.2504, 11.40954
556.7325, 11.20096
557.2147, 11.34889
557.6968, 11.41933
558.1789, 10.86297
558.6610, 10.03632
559.1431, 9.473312
559.6252, 9.721817
560.1074, 9.902100
560.5895, 9.583961
561.0716, 8.902512
561.5537, 8.323311
562.0358, 7.942505
562.5179, 7.667145
563.0001, 7.501846
563.4822, 7.465912
563.9643, 7.344727
564.4464, 7.142296
564.9285, 6.849113
565.4106, 6.435875
565.8928, 5.881569
566.3749, 5.319397
566.8570, 4.728462
567.3391, 4.185669
567.8212, 3.790977
568.3033, 3.539032
568.7855, 3.444595
569.2676, 3.623581
569.7497, 3.844673
570.2318, 3.689079
570.7139, 3.242805
571.1960, 2.856918
571.6782, 2.828072
572.1603, 2.889206
572.6424, 2.833862
573.1245, 2.637825
573.6066, 2.396355
574.0887, 2.066223
574.5709, 1.749931
575.0530, 1.522163
575.5351, 1.399117
576.0172, 1.358452
576.4993, 1.491272
576.9814, 1.662285
577.4636, 1.632462
577.9457, 1.307503
578.4278, 1.043030
578.9099, 0.9707260
579.3920, 1.013359
579.8741, 0.7983470
580.3563, 0.2973330
580.8384, 5.6862000E-02
581.3205, 0.1741640
581.8026, 0.7418370
582.2847, 0.8889160
582.7668, 0.5872880
583.2490, 0.1904910
583.7311, 4.8636999E-02
584.2132, 0.1888500
584.6953, 0.3102800
585.1774, 0.4342350
585.6595, 0.5294800
586.1416, 0.5287700
586.6237, 0.5004200
587.1058, 0.5501100
587.5880, 0.9761890
588.0701, 1.181114
588.5522, 0.8483200
589.0343, 0.1323470
589.5164, 0.2387160
589.9985, 8.4595002E-02
590.4807, 0.1109770
590.9628, 0.1183850
591.4449, 6.9389001E-02
591.9270, 8.6139999E-03
592.4091, 0.4154210
592.8912, 0.8227770
593.3734, 0.9052280
593.8555, 0.7238770
594.3376, 0.5353780
594.8197, 0.3550260
595.3018, 0.2573390
595.7839, 0.3925550
596.2661, 0.6617200
596.7482, 0.8757400
597.2303, 0.9642940
597.7124, 0.9721150
598.1945, 0.9565280
598.6766, 0.8842160
599.1588, 0.6567540
599.6409, 3.5140999E-02
600.1230, 0.6254500
600.6051, 0.7845610
601.0872, 0.4663850
601.5693, 0.5279690
602.0515, 1.257515
602.5336, 1.973228
603.0157, 2.197472
603.4978, 1.809868
603.9799, 1.705963
604.4620, 1.986946
604.9442, 2.327042
605.4263, 2.195580
605.9084, 1.700424
606.3905, 1.503632
606.8726, 1.817169
607.3547, 2.110275
607.8369, 2.831261
608.3190, 3.384674
608.8011, 3.778259
609.2832, 3.605614
609.7653, 4.108826
610.2474, 4.307526
610.7296, 4.470497
611.2117, 4.999947
611.6938, 4.785683
612.1759, 5.260704
612.6580, 5.426910
613.1401, 5.699303
613.6223, 5.665359
614.1044, 5.694504
614.5865, 5.981819
615.0686, 6.088699
615.5507, 5.925842
616.0328, 6.061844
616.5150, 5.596512
616.9971, 5.613525
617.4792, 5.825012
617.9613, 5.847534
618.4434, 6.240524
618.9255, 6.809357
619.4077, 7.299850
619.8898, 7.261192
620.3719, 6.873489
620.8540, 6.702042
621.3361, 7.177544
621.8182, 7.822990
622.3004, 8.452797
622.7825, 9.048851
623.2646, 9.457352
623.7467, 9.440102
624.2288, 9.394104
624.7109, 9.528358
625.1931, 9.921257
625.6752, 10.21991
626.1573, 10.40530
626.6394, 10.52655
627.1215, 10.61165
627.6036, 10.65840
628.0858, 10.76540
