##NAMES=Perovskite
##RRUFFID=R050456
##IDEAL CHEMISTRY=CaTiO_3_
##LOCALITY=Magnet Cove, Arkansas, USA
##OWNER=RRUFF
##SOURCE=University of Arizona Mineral Museum
##DESCRIPTION=Groups of black cubo-octahedral crystals
##STATUS=The identification of this mineral has been confirmed by X-ray diffraction and chemical analysis
##URL=rruff.info/R050456
##MEASURED CHEMISTRY=darker phase: (Ca_0.82_Fe^2+^_0.09_Na_0.07_Ce_0.01_La_0.01_)_Σ=1_(Ti_0.95_Nb^5+^_0.05_)_Σ=1_O_3_ ; gray phase: (Ca_0.89_Fe^2+^_0.05_Na_0.04_Ce_0.01_La_0.01_)_Σ=1_(Ti_0.98_Nb^5+^_0.02_)_Σ=1_O_3_
163.8074, 0.0000000E+00
164.2896, 2.7252000E-02
164.7717, 0.1198580
165.2538, 0.4418640
165.7359, 1.091675
166.2180, 1.731827
166.7001, 2.028534
167.1823, 1.672180
167.6644, 1.471985
168.1465, 2.122009
168.6286, 3.374603
169.1107, 4.514679
169.5928, 4.916122
170.0750, 5.091370
170.5571, 5.620087
171.0392, 6.812302
171.5213, 8.101379
172.0034, 9.054947
172.4855, 9.736450
172.9677, 10.28664
173.4498, 10.52458
173.9319, 10.68384
174.4140, 11.18129
174.8961, 12.28896
175.3782, 13.60519
175.8604, 14.78003
176.3425, 15.79004
176.8246, 16.61421
177.3067, 17.12714
177.7888, 17.30365
178.2709, 17.23010
178.7531, 16.87807
179.2352, 16.26141
179.7173, 15.47614
180.1994, 14.71828
180.6815, 14.13799
181.1636, 13.85240
181.6458, 13.68896
182.1279, 13.30348
182.6100, 12.18028
183.0921, 10.81410
183.5742, 9.834793
184.0563, 9.261841
184.5385, 9.190247
185.0206, 9.243515
185.5027, 8.823685
185.9848, 8.138916
186.4669, 7.303223
186.9490, 6.436172
187.4312, 5.867722
187.9133, 5.654663
188.3954, 5.471024
188.8775, 4.858658
189.3596, 3.867676
189.8417, 3.008102
190.3239, 2.529144
190.8060, 2.359344
191.2881, 2.164200
191.7702, 1.943146
192.2523, 1.712845
192.7344, 1.474350
193.2166, 1.233475
193.6987, 1.056290
194.1808, 1.036148
194.6629, 1.147339
195.1450, 1.050507
195.6271, 0.7033840
196.1093, 0.2564240
196.5914, 9.4162002E-02
197.0735, 0.3486480
197.5556, 0.5237430
198.0377, 0.6115880
198.5198, 0.6133880
199.0020, 0.6197970
199.4841, 0.6573180
199.9662, 0.6584470
200.4483, 0.4683380
200.9304, 5.0110001E-02
201.4125, 0.3254550
201.8947, 0.4706880
202.3768, 0.3483890
202.8589, 0.5506290
203.3410, 1.273819
203.8231, 2.070953
204.3052, 1.941238
204.7874, 0.6369020
205.2695, 0.5425720
205.7516, 0.9891360
206.2337, 0.6136470
206.7158, 8.3374001E-02
207.1979, 0.6607210
207.6801, 1.497116
208.1622, 2.187332
208.6443, 2.753113
209.1264, 3.127289
209.6085, 3.211044
210.0906, 2.901505
210.5728, 2.756638
211.0549, 2.827988
211.5370, 3.290985
212.0191, 4.078629
212.5012, 5.317978
212.9833, 6.685303
213.4655, 7.795395
213.9476, 8.394470
214.4297, 8.912277
214.9118, 9.455933
215.3939, 9.921951
215.8760, 10.42392
216.3581, 10.98552
216.8403, 11.66122
217.3224, 12.50795
217.8045, 13.64021
218.2866, 14.61113
218.7687, 15.42000
219.2508, 16.04904
219.7330, 16.37637
220.2151, 16.21042
220.6972, 16.08218
221.1793, 16.27730
221.6614, 17.09235
222.1435, 17.73778
222.6257, 18.15628
223.1078, 18.40950
223.5899, 18.69339
224.0720, 19.07094
224.5541, 19.38152
225.0362, 19.56538
225.5184, 19.63240
226.0005, 19.53210
226.4826, 19.13315
226.9647, 18.60689
227.4468, 18.40678
227.9289, 18.54706
228.4111, 19.00626
228.8932, 19.87166
229.3753, 21.53792
229.8574, 22.65575
230.3395, 22.99542
230.8216, 22.81889
231.3038, 22.82358
231.7859, 22.98738
232.2680, 23.36389
232.7501, 24.01332
233.2322, 25.11429
233.7143, 26.04373
234.1965, 26.56918
234.6786, 26.97159
235.1607, 28.11487
235.6428, 30.51146
236.1249, 32.89539
236.6070, 34.68106
237.0892, 35.54593
237.5713, 36.51302
238.0534, 37.60521
238.5355, 38.78871
239.0176, 39.97844
239.4997, 41.19612
239.9819, 42.41534
240.4640, 43.67412
240.9461, 45.23553
241.4282, 46.23279
241.9103, 46.56949
242.3924, 46.37540
242.8746, 45.94666
243.3567, 45.25836
243.8388, 44.38446
244.3209, 43.37082
244.8030, 42.31206
245.2851, 40.89182
245.7673, 39.03693
246.2494, 36.85767
246.7315, 34.55722
247.2136, 32.01991
247.6957, 29.53433
248.1778, 27.21628
248.6600, 25.13914
249.1421, 23.07144
249.6242, 20.99458
250.1063, 18.92110
250.5884, 16.84222
251.0705, 14.60567
251.5527, 12.61331
252.0348, 11.08138
252.5169, 10.14923
252.9990, 9.116257
253.4811, 7.851608
253.9632, 6.536392
254.4454, 5.554214
254.9275, 5.103149
255.4096, 4.611343
255.8917, 3.880234
256.3738, 2.866302
256.8560, 1.849625
257.3381, 0.7995000
257.8202, 0.2341460
258.3023, 1.245468
258.7844, 2.396255
259.2665, 3.098679
259.7487, 3.002365
260.2308, 1.914169
260.7129, 1.512527
261.1950, 2.054977
261.6771, 2.985565
262.1592, 3.595779
262.6414, 3.906097
263.1235, 3.945770
263.6056, 3.552750
264.0877, 2.614960
264.5698, 2.068954
265.0519, 2.111465
265.5341, 2.289856
266.0162, 2.022659
266.4983, 1.157928
266.9804, 0.3344730
267.4625, 0.2762600
267.9446, 0.6733400
268.4268, 1.178558
268.9089, 1.836380
269.3910, 2.502167
269.8731, 2.959290
270.3552, 3.083557
270.8373, 3.492676
271.3195, 4.363525
271.8016, 5.659576
272.2837, 7.066238
272.7658, 8.659348
273.2479, 10.23170
273.7300, 11.61371
274.2122, 12.78157
274.6943, 13.88901
275.1764, 14.97020
275.6585, 16.01047
276.1406, 16.88731
276.6227, 17.55214
277.1049, 18.22215
277.5870, 19.10425
278.0691, 20.22252
278.5512, 21.30380
279.0333, 22.34036
279.5154, 23.29292
279.9976, 24.02866
280.4797, 24.54178
280.9618, 24.87361
281.4439, 25.06831
281.9260, 25.12337
282.4081, 24.93613
282.8903, 24.38535
283.3724, 23.70023
283.8545, 23.51056
284.3366, 23.86281
284.8187, 24.21573
285.3008, 24.14555
285.7830, 23.69862
286.2651, 23.44234
286.7472, 23.46700
287.2293, 23.62173
287.7114, 23.70195
288.1935, 23.70570
288.6757, 23.50006
289.1578, 22.77547
289.6399, 21.69502
290.1220, 21.21365
290.6041, 21.48697
291.0862, 22.01169
291.5684, 22.02504
292.0505, 21.58101
292.5326, 21.19572
293.0147, 21.29192
293.4968, 21.64708
293.9789, 21.51006
294.4611, 20.80292
294.9432, 19.97592
295.4253, 19.67101
295.9074, 19.74481
296.3895, 19.58012
296.8716, 18.52434
297.3538, 17.14441
297.8359, 16.74680
298.3180, 17.36716
298.8001, 18.11340
299.2822, 18.08043
299.7643, 17.50984
300.2465, 17.03435
300.7286, 16.95419
301.2107, 17.04015
301.6928, 17.02963
302.1749, 16.92090
302.6570, 16.67738
303.1392, 15.99010
303.6213, 15.18987
304.1034, 14.89893
304.5855, 15.57677
305.0676, 16.49599
305.5497, 16.96678
306.0319, 17.03517
306.5140, 16.96255
306.9961, 16.86972
307.4782, 16.74754
307.9603, 16.55829
308.4424, 16.21564
308.9246, 15.94862
309.4067, 16.00539
309.8888, 16.29182
310.3709, 16.54384
310.8530, 16.50604
311.3351, 16.43094
311.8173, 16.59729
312.2994, 17.17625
312.7815, 17.60608
313.2636, 17.38687
313.7457, 16.80138
314.2278, 16.35289
314.7100, 16.18149
315.1921, 16.27592
315.6742, 16.69768
316.1563, 17.48509
316.6384, 18.20216
317.1205, 18.62865
317.6027, 18.94186
318.0848, 19.36133
318.5669, 20.04622
319.0490, 20.65114
319.5311, 20.98030
320.0132, 21.02798
320.4954, 21.14136
320.9775, 21.48433
321.4596, 21.93787
321.9417, 22.40128
322.4238, 22.61154
322.9059, 23.00490
323.3881, 23.77956
323.8702, 24.91209
324.3523, 25.98306
324.8344, 27.03917
325.3165, 27.91420
325.7986, 28.52335
326.2808, 28.05847
326.7629, 28.27658
327.2450, 29.84999
327.7271, 32.33875
328.2092, 34.00223
328.6913, 34.03770
329.1735, 33.94153
329.6556, 34.33029
330.1377, 35.64989
330.6198, 36.59415
331.1019, 36.92792
331.5840, 36.95113
332.0662, 37.25188
332.5483, 38.05234
333.0304, 38.80945
333.5125, 39.34846
333.9946, 39.65503
334.4767, 39.83128
334.9589, 39.84988
335.4410, 39.76247
335.9231, 39.63408
336.4052, 39.48119
336.8873, 39.25041
337.3694, 38.91443
337.8516, 38.48375
338.3336, 38.06618
338.8158, 37.64691
339.2979, 37.28094
339.7800, 37.07669
340.2621, 37.09442
340.7442, 36.87595
341.2263, 36.27359
341.7085, 35.42439
342.1906, 34.83250
342.6727, 34.52232
343.1548, 34.27992
343.6369, 34.00870
344.1190, 33.70267
344.6012, 33.16151
345.0833, 32.26866
345.5654, 31.31758
346.0475, 30.96417
346.5296, 31.16383
347.0117, 31.20638
347.4939, 30.43541
347.9760, 29.18867
348.4581, 28.67654
348.9402, 29.07076
349.4223, 29.54401
349.9044, 28.96584
350.3866, 27.63692
350.8687, 26.58545
351.3508, 26.53563
351.8329, 26.87135
352.3150, 26.47540
352.7971, 25.37158
353.2793, 24.43642
353.7614, 24.57346
354.2435, 25.27792
354.7256, 25.71881
355.2077, 25.52274
355.6898, 25.14494
356.1720, 25.09927
356.6541, 25.26009
357.1362, 25.10181
357.6183, 23.82085
358.1004, 22.34763
358.5826, 21.58771
359.0647, 21.94955
359.5468, 22.41493
360.0289, 22.51082
360.5110, 22.32057
360.9931, 22.00069
361.4753, 21.31416
361.9574, 20.75667
362.4395, 20.69412
362.9216, 21.26671
363.4037, 21.63063
363.8858, 21.43806
364.3680, 20.95161
364.8501, 20.44487
365.3322, 19.80815
365.8143, 19.34140
366.2964, 19.23047
366.7785, 19.46429
367.2607, 19.51613
367.7428, 19.22639
368.2249, 18.86224
368.7070, 18.54475
369.1891, 18.13815
369.6712, 17.88718
370.1534, 17.86745
370.6355, 18.07930
371.1176, 18.35828
371.5997, 18.72084
372.0818, 18.99251
372.5639, 19.11128
373.0461, 19.01746
373.5282, 19.11095
374.0103, 19.52881
374.4924, 19.98627
374.9745, 19.97157
375.4566, 19.26692
375.9388, 18.69043
376.4209, 18.53506
376.9030, 18.76353
377.3851, 18.86954
377.8672, 18.85916
378.3493, 18.80803
378.8315, 18.75812
379.3136, 18.70961
379.7957, 18.75351
380.2778, 18.90039
380.7599, 19.11011
381.2420, 19.29300
381.7242, 19.45049
382.2063, 19.64484
382.6884, 20.03577
383.1705, 20.54056
383.6526, 20.77705
384.1347, 20.62712
384.6169, 20.34390
385.0990, 20.28131
385.5811, 20.37947
386.0632, 20.44617
386.5453, 20.40565
387.0274, 20.28792
387.5096, 20.13193
387.9917, 19.94044
388.4738, 19.68402
388.9559, 19.19615
389.4380, 18.68625
389.9201, 18.45261
390.4023, 18.90808
390.8844, 19.31061
391.3665, 19.05597
391.8486, 18.29994
392.3307, 17.62645
392.8128, 17.32452
393.2950, 17.19403
393.7771, 17.12383
394.2592, 17.15729
394.7413, 17.07872
395.2234, 16.66606
395.7055, 16.12601
396.1877, 15.77957
396.6698, 15.98943
397.1519, 16.12254
397.6340, 15.93430
398.1161, 15.37177
398.5982, 14.90944
399.0804, 14.65985
399.5625, 14.47746
400.0446, 14.26215
400.5267, 14.02113
401.0088, 13.75061
401.4909, 13.51755
401.9731, 13.26836
402.4552, 12.73141
402.9373, 11.63553
403.4194, 10.69719
403.9015, 10.32739
404.3836, 10.72823
404.8658, 10.86559
405.3479, 10.64915
405.8300, 10.28745
406.3121, 10.14259
406.7942, 10.27017
407.2763, 10.17874
407.7585, 9.542282
408.2406, 8.529190
408.7227, 8.241974
409.2048, 8.761215
409.6869, 9.325821
410.1690, 9.219574
410.6512, 8.555359
411.1333, 7.837845
411.6154, 7.107788
412.0975, 6.465958
412.5796, 6.093613
413.0617, 5.954590
413.5439, 5.851288
414.0260, 5.727066
414.5081, 5.545731
414.9902, 5.239059
415.4723, 4.791504
415.9544, 4.320908
416.4366, 3.925262
416.9187, 3.574005
417.4008, 3.223083
417.8829, 2.806137
418.3650, 2.421921
418.8471, 2.159546
419.3293, 1.997177
419.8114, 1.775772
420.2935, 1.213272
420.7756, 0.7072910
421.2577, 0.5922090
421.7398, 1.237122
422.2220, 1.643860
422.7041, 1.433075
423.1862, 0.8719940
423.6683, 0.4416960
424.1504, 0.3907620
424.6325, 0.2754360
425.1147, 9.3245998E-02
425.5968, 0.7854310
426.0789, 1.149750
426.5610, 0.8855740
427.0431, 0.5665280
427.5252, 0.7188420
428.0074, 1.712936
428.4895, 2.286316
428.9716, 2.126862
429.4537, 1.509018
429.9358, 1.317734
430.4179, 1.645706
430.9001, 2.072617
431.3822, 2.450577
431.8643, 2.782715
432.3464, 2.854584
432.8285, 2.631073
433.3106, 2.259384
433.7928, 1.834167
434.2749, 1.380203
434.7570, 1.118057
435.2391, 1.165451
435.7212, 1.405441
436.2033, 1.690613
436.6855, 2.000351
437.1676, 2.177551
437.6497, 2.029587
438.1318, 1.697510
438.6139, 1.361176
439.0960, 1.011795
439.5782, 0.7966310
440.0603, 1.021194
440.5424, 1.453369
441.0245, 1.652832
441.5066, 1.272247
441.9887, 0.7421720
442.4709, 0.3190160
442.9530, 5.8140000E-03
443.4351, 0.3773350
443.9172, 1.006851
444.3993, 1.664612
444.8814, 2.185776
445.3636, 2.470886
445.8457, 2.715546
446.3278, 2.900543
446.8099, 3.062485
447.2920, 3.289276
447.7741, 3.485321
448.2563, 3.862106
448.7384, 4.551117
449.2205, 5.628677
449.7026, 6.440262
450.1847, 6.851151
450.6668, 7.161713
451.1490, 7.678574
451.6311, 8.495956
452.1132, 9.125961
452.5953, 9.375107
453.0774, 9.487854
453.5595, 10.24721
454.0417, 11.72989
454.5238, 13.15836
455.0059, 14.12476
455.4880, 14.67516
455.9701, 14.99876
456.4522, 15.05426
456.9344, 15.18120
457.4165, 15.73781
457.8986, 16.66045
458.3807, 17.79720
458.8628, 19.34892
459.3449, 20.82089
459.8271, 21.43806
460.3092, 21.40698
460.7913, 21.62289
461.2734, 23.00998
461.7555, 24.62787
462.2376, 25.67256
462.7198, 25.94839
463.2019, 26.00954
463.6840, 25.95383
464.1661, 25.87587
464.6482, 25.88962
465.1303, 26.39023
465.6125, 26.60048
466.0946, 26.13614
466.5767, 25.07968
467.0588, 24.27277
467.5409, 23.96397
468.0230, 23.75163
468.5052, 23.48497
468.9873, 23.21800
469.4694, 22.75040
469.9515, 21.97986
470.4336, 21.10451
470.9157, 20.38901
471.3979, 19.86844
471.8800, 19.41579
472.3621, 19.00240
472.8442, 18.63536
473.3263, 18.29466
473.8084, 17.96700
474.2906, 17.76416
474.7727, 17.76721
475.2548, 17.96307
475.7369, 18.34499
476.2190, 18.95827
476.7011, 19.56845
477.1833, 19.83168
477.6654, 19.85965
478.1475, 19.95888
478.6296, 20.22159
479.1117, 20.64195
479.5938, 21.33661
480.0760, 22.25180
480.5581, 23.00891
481.0402, 23.23280
481.5223, 23.31114
482.0044, 23.58316
482.4865, 24.20921
482.9687, 24.74881
483.4508, 24.85835
483.9329, 24.82889
484.4150, 25.08452
484.8971, 26.04498
485.3792, 26.90701
485.8614, 27.40540
486.3435, 27.58760
486.8256, 27.83173
487.3077, 28.20386
487.7898, 28.59036
488.2719, 28.94496
488.7541, 29.33066
489.2362, 29.40492
489.7183, 29.03845
490.2004, 28.55006
490.6825, 28.48279
491.1646, 28.90155
491.6468, 29.15791
492.1289, 28.97200
492.6110, 28.52670
493.0931, 28.38309
493.5752, 28.52589
494.0573, 28.69093
494.5395, 28.64948
495.0216, 28.50674
495.5037, 28.49239
495.9858, 28.65227
496.4679, 28.89320
496.9500, 29.25520
497.4322, 29.61424
497.9143, 29.74580
498.3964, 29.34123
498.8785, 28.88756
499.3606, 28.62636
499.8427, 28.56943
500.3249, 28.73647
500.8070, 29.44075
501.2891, 30.12250
501.7712, 30.42960
502.2533, 30.10011
502.7354, 29.99451
503.2176, 30.45488
503.6997, 31.02469
504.1818, 31.23289
504.6639, 30.89056
505.1460, 30.51668
505.6281, 30.11809
506.1103, 29.74606
506.5924, 29.63780
507.0745, 29.82629
507.5566, 30.15515
508.0387, 30.60129
508.5208, 31.15356
509.0030, 31.62523
509.4851, 32.03012
509.9672, 32.27762
510.4493, 32.15013
510.9314, 31.76704
511.4135, 31.53839
511.8957, 31.61449
512.3778, 31.81897
512.8599, 31.98347
513.3420, 32.11635
513.8242, 32.23793
514.3063, 32.45952
514.7884, 32.60092
515.2705, 32.45470
515.7526, 32.00809
516.2347, 31.64255
516.7169, 31.43727
517.1990, 31.41356
517.6811, 31.59956
518.1632, 32.37589
518.6453, 32.84227
519.1274, 32.62662
519.6096, 32.08968
520.0917, 31.91254
520.5738, 32.34357
521.0559, 32.72453
521.5380, 32.86249
522.0201, 32.77493
522.5023, 32.81671
522.9844, 33.05743
523.4665, 33.24564
523.9486, 33.11530
524.4307, 32.68593
524.9128, 32.45995
525.3950, 32.50986
525.8771, 32.68568
526.3592, 32.86162
526.8413, 33.01082
527.3234, 33.03442
527.8055, 32.89149
528.2877, 32.60899
528.7698, 32.07036
529.2519, 31.36526
529.7340, 30.85951
530.2161, 30.96977
530.6982, 31.24217
531.1804, 31.30351
531.6625, 31.06516
532.1446, 30.80046
532.6267, 30.68246
533.1088, 30.56564
533.5909, 30.30493
534.0731, 29.73828
534.5552, 29.19196
535.0373, 28.66679
535.5194, 28.20728
536.0015, 27.87328
536.4836, 27.69621
536.9658, 27.53943
537.4479, 27.36354
537.9300, 27.17480
538.4121, 27.02663
538.8942, 26.95721
539.3763, 26.80476
539.8585, 26.34357
540.3406, 25.63507
540.8227, 25.04512
541.3048, 24.59018
541.7869, 24.31529
542.2690, 24.46443
542.7512, 24.84636
543.2333, 24.94566
543.7154, 24.40419
544.1975, 23.61575
544.6796, 22.82709
545.1617, 22.04247
545.6439, 21.30667
546.1260, 20.70045
546.6081, 20.10703
547.0902, 19.37102
547.5723, 18.35863
548.0544, 17.75883
548.5366, 18.08859
549.0187, 18.63132
549.5008, 18.75877
549.9829, 18.32517
550.4650, 17.71841
550.9471, 16.85315
551.4293, 15.90424
551.9114, 15.30258
552.3935, 15.12303
552.8756, 14.91563
553.3577, 14.49338
553.8398, 13.90364
554.3220, 13.36015
554.8041, 12.86005
555.2862, 12.39457
555.7683, 11.88318
556.2504, 11.40954
556.7325, 11.20096
557.2147, 11.34889
557.6968, 11.41933
558.1789, 10.86297
558.6610, 10.03632
559.1431, 9.473312
559.6252, 9.721817
560.1074, 9.902100
560.5895, 9.583961
561.0716, 8.902512
561.5537, 8.323311
562.0358, 7.942505
562.5179, 7.667145
563.0001, 7.501846
563.4822, 7.465912
563.9643, 7.344727
564.4464, 7.142296
564.9285, 6.849113
565.4106, 6.435875
565.8928, 5.881569
566.3749, 5.319397
566.8570, 4.728462
567.3391, 4.185669
567.8212, 3.790977
568.3033, 3.539032
568.7855, 3.444595
569.2676, 3.623581
569.7497, 3.844673
570.2318, 3.689079
570.7139, 3.242805
571.1960, 2.856918
571.6782, 2.828072
572.1603, 2.889206
572.6424, 2.833862
573.1245, 2.637825
573.6066, 2.396355
574.0887, 2.066223
574.5709, 1.749931
575.0530, 1.522163
575.5351, 1.399117
576.0172, 1.358452
576.4993, 1.491272
576.9814, 1.662285
577.4636, 1.632462
577.9457, 1.307503
578.4278, 1.043030
578.9099, 0.9707260
579.3920, 1.013359
579.8741, 0.7983470
580.3563, 0.2973330
580.8384, 5.6862000E-02
581.3205, 0.1741640
581.8026, 0.7418370
582.2847, 0.8889160
582.7668, 0.5872880
583.2490, 0.1904910
583.7311, 4.8636999E-02
584.2132, 0.1888500
584.6953, 0.3102800
585.1774, 0.4342350
585.6595, 0.5294800
586.1416, 0.5287700
586.6237, 0.5004200
587.1058, 0.5501100
587.5880, 0.9761890
588.0701, 1.181114
588.5522, 0.8483200
589.0343, 0.1323470
589.5164, 0.2387160
589.9985, 8.4595002E-02
590.4807, 0.1109770
590.9628, 0.1183850
591.4449, 6.9389001E-02
591.9270, 8.6139999E-03
592.4091, 0.4154210
592.8912, 0.8227770
593.3734, 0.9052280
593.8555, 0.7238770
594.3376, 0.5353780
594.8197, 0.3550260
595.3018, 0.2573390
595.7839, 0.3925550
596.2661, 0.6617200
596.7482, 0.8757400
597.2303, 0.9642940
597.7124, 0.9721150
598.1945, 0.9565280
598.6766, 0.8842160
599.1588, 0.6567540
599.6409, 3.5140999E-02
600.1230, 0.6254500
600.6051, 0.7845610
601.0872, 0.4663850
601.5693, 0.5279690
602.0515, 1.257515
602.5336, 1.973228
603.0157, 2.197472
603.4978, 1.809868
603.9799, 1.705963
604.4620, 1.986946
604.9442, 2.327042
605.4263, 2.195580
605.9084, 1.700424
606.3905, 1.503632
606.8726, 1.817169
607.3547, 2.110275
607.8369, 2.831261
608.3190, 3.384674
608.8011, 3.778259
609.2832, 3.605614
609.7653, 4.108826
610.2474, 4.307526
610.7296, 4.470497
611.2117, 4.999947
611.6938, 4.785683
612.1759, 5.260704
612.6580, 5.426910
613.1401, 5.699303
613.6223, 5.665359
614.1044, 5.694504
614.5865, 5.981819
615.0686, 6.088699
615.5507, 5.925842
616.0328, 6.061844
616.5150, 5.596512
616.9971, 5.613525
617.4792, 5.825012
617.9613, 5.847534
618.4434, 6.240524
618.9255, 6.809357
619.4077, 7.299850
619.8898, 7.261192
620.3719, 6.873489
620.8540, 6.702042
621.3361, 7.177544
621.8182, 7.822990
622.3004, 8.452797
622.7825, 9.048851
623.2646, 9.457352
623.7467, 9.440102
624.2288, 9.394104
624.7109, 9.528358
625.1931, 9.921257
625.6752, 10.21991
626.1573, 10.40530
626.6394, 10.52655
627.1215, 10.61165
627.6036, 10.65840
628.0858, 10.76540
628.5679, 10.96404
629.0500, 11.19402
629.5321, 11.34326
630.0142, 11.42289
630.4963, 11.50603
630.9785, 11.65460
631.4606, 11.79379
631.9427, 11.80322
632.4248, 11.74097
632.9069, 11.78723
633.3890, 12.13368
633.8712, 12.49623
634.3533, 12.78786
634.8354, 13.01804
635.3175, 13.09455
635.7996, 12.87038
636.2817, 12.66647
636.7639, 12.67474
637.2460, 12.95618
637.7281, 12.99724
638.2102, 12.65386
638.6923, 12.34619
639.1744, 12.72681
639.6566, 13.68015
640.1387, 14.32372
640.6208, 14.42779
641.1029, 14.30908
641.5850, 14.26575
642.0671, 14.26401
642.5493, 14.25160
643.0314, 14.21774
643.5135, 14.17448
643.9956, 14.16434
644.4777, 14.16457
644.9598, 14.09094
645.4420, 13.74239
645.9241, 13.50076
646.4062, 13.51109
646.8883, 13.77123
647.3704, 13.96053
647.8525, 14.08609
648.3347, 14.14100
648.8168, 14.16766
649.2989, 14.17543
649.7810, 13.90708
650.2631, 13.29062
650.7452, 12.71393
651.2274, 12.62453
651.7095, 12.88204
652.1916, 13.21962
652.6737, 13.64211
653.1558, 13.88197
653.6379, 13.54451
654.1201, 12.96891
654.6022, 12.59336
655.0843, 12.83553
655.5664, 12.99302
656.0485, 12.91256
656.5306, 12.63696
657.0128, 12.25255
657.4949, 11.62714
657.9770, 11.22697
658.4591, 11.27440
658.9412, 11.59500
659.4233, 11.38869
659.9055, 10.61497
660.3876, 9.890968
660.8697, 9.626091
661.3518, 9.632019
661.8339, 9.392227
662.3160, 8.933723
662.7982, 8.633057
663.2803, 9.024094
663.7624, 9.537071
664.2445, 9.558121
664.7266, 8.925354
665.2087, 8.385094
665.6909, 8.224419
666.1730, 8.240067
666.6551, 8.271194
667.1372, 8.367233
667.6193, 8.363731
668.1014, 8.214417
668.5836, 8.007950
669.0657, 7.884346
669.5478, 7.855347
670.0299, 7.746620
670.5120, 7.505180
670.9941, 7.197243
671.4763, 6.922112
671.9584, 6.678795
672.4405, 6.457695
672.9226, 6.175224
673.4047, 5.976791
673.8868, 6.172195
674.3690, 6.598557
674.8511, 6.684563
675.3332, 5.701340
675.8153, 4.803078
676.2974, 4.585693
676.7795, 5.097092
677.2617, 5.312782
677.7438, 5.090363
678.2259, 4.790352
678.7080, 4.604057
679.1901, 4.540985
679.6722, 4.400421
680.1544, 4.174820
680.6365, 3.907539
681.1186, 3.555817
681.6007, 3.198463
682.0828, 3.074966
682.5649, 3.259644
683.0471, 3.442001
683.5292, 3.360542
684.0113, 3.127487
684.4934, 2.878639
684.9755, 2.683899
685.4576, 2.419777
685.9398, 1.902596
686.4219, 1.343018
686.9040, 1.083397
687.3861, 1.272751
687.8682, 1.475967
688.3503, 1.658401
688.8325, 1.790306
689.3146, 1.746216
689.7967, 1.524231
690.2788, 1.364471
690.7609, 1.470207
691.2430, 1.620689
691.7252, 1.373650
692.2073, 0.7927550
692.6894, 0.1727140
693.1715, 0.4413300
693.6536, 0.9373090
694.1357, 1.248337
694.6179, 1.371262
695.1000, 1.308708
695.5821, 0.7416150
696.0642, 0.2815480
696.5463, 0.2500150
697.0284, 0.7311250
697.5106, 1.091705
697.9927, 1.327316
698.4748, 1.451424
698.9569, 1.422539
699.4390, 1.264481
699.9211, 1.186035
700.4033, 1.202583
700.8854, 1.277481
701.3675, 1.361992
701.8496, 1.482330
702.3317, 1.729736
702.8138, 2.250877
703.2960, 2.557365
703.7781, 2.193268
704.2602, 1.557343
704.7423, 1.137665
705.2244, 1.125359
705.7065, 1.209396
706.1887, 1.444206
706.6708, 1.723885
707.1529, 1.855453
707.6350, 1.825333
708.1171, 1.739059
708.5992, 1.631363
709.0814, 1.474228
709.5635, 1.114098
710.0456, 0.6132430
710.5277, 0.2750850
711.0098, 0.4899900
711.4919, 0.7419970
711.9741, 0.4714740
712.4562, 0.1809540
712.9383, 0.6537700
713.4204, 0.6325760
713.9025, 0.4972150
714.3846, 0.3573760
714.8668, 0.2212140
715.3489, 0.2035520
715.8310, 0.3305050
716.3131, 0.5246810
716.7952, 0.7597200
717.2773, 1.031235
717.7595, 1.359070
718.2416, 1.751205
718.7237, 2.026146
719.2058, 1.887520
719.6879, 1.592651
720.1700, 1.593834
720.6522, 1.952370
721.1343, 2.297478
721.6164, 2.314186
722.0985, 2.290817
722.5806, 2.475883
723.0627, 3.005066
723.5449, 3.516052
724.0270, 4.016541
724.5091, 4.474136
724.9912, 4.843163
725.4733, 5.105804
725.9554, 5.436584
726.4376, 5.885704
726.9197, 6.305748
727.4018, 6.410065
727.8839, 6.307152
728.3660, 6.325401
728.8481, 6.532143
729.3303, 6.931686
729.8124, 7.652130
730.2945, 8.530991
730.7766, 9.313080
731.2587, 9.961716
731.7408, 10.47190
732.2230, 10.75924
732.7051, 10.92596
733.1872, 11.09515
733.6693, 11.10932
734.1514, 11.60832
734.6335, 12.87772
735.1157, 14.59883
735.5978, 16.14578
736.0799, 17.47968
736.5620, 18.25732
737.0441, 17.96383
737.5262, 17.31881
738.0084, 17.01656
738.4905, 17.04221
738.9726, 17.34386
739.4547, 18.08902
739.9368, 18.92261
740.4189, 19.65891
740.9011, 20.31487
741.3832, 21.15406
741.8653, 22.23491
742.3474, 23.40923
742.8295, 24.65851
743.3116, 25.95548
743.7938, 27.03848
744.2759, 27.89519
744.7580, 28.61880
745.2401, 29.10580
745.7222, 29.58054
746.2043, 30.46951
746.6865, 31.77104
747.1686, 33.04362
747.6507, 34.03166
748.1328, 34.93205
748.6149, 35.86028
749.0970, 36.79388
749.5792, 37.86023
750.0613, 39.09366
750.5434, 40.38307
751.0255, 41.71551
751.5076, 43.10548
751.9897, 44.32565
752.4719, 45.39321
752.9540, 46.30045
753.4361, 46.90151
753.9182, 47.40994
754.4003, 48.31438
754.8824, 49.68211
755.3646, 51.11658
755.8467, 52.42663
756.3288, 53.64697
756.8109, 54.75581
757.2930, 55.63910
757.7751, 56.71640
758.2573, 58.18878
758.7394, 59.69234
759.2215, 60.78322
759.7036, 61.34578
760.1857, 62.46320
760.6678, 64.31847
761.1500, 66.32888
761.6321, 67.74275
762.1142, 68.73779
762.5963, 69.74407
763.0784, 70.88659
763.5605, 71.88669
764.0427, 72.24284
764.5248, 72.44706
765.0069, 73.12718
765.4890, 75.21126
765.9711, 76.72706
766.4532, 77.21979
766.9354, 77.32607
767.4175, 78.01691
767.8996, 79.40546
768.3817, 80.70672
768.8638, 81.75029
769.3459, 82.68941
769.8281, 83.90794
770.3102, 85.24242
770.7923, 86.14734
771.2744, 86.11095
771.7565, 86.11209
772.2386, 86.88515
772.7208, 88.14434
773.2029, 89.39201
773.6850, 90.41501
774.1671, 91.56441
774.6492, 93.11256
775.1313, 94.70362
775.6135, 95.43359
776.0956, 95.13345
776.5777, 95.16295
777.0598, 95.98232
777.5419, 97.17149
778.0240, 98.04567
778.5062, 98.66726
778.9883, 99.23312
779.4704, 99.87603
779.9525, 100.4390
780.4346, 100.8295
780.9167, 101.0648
781.3989, 101.1962
781.8810, 101.0043
782.3631, 100.9950
782.8452, 101.2950
783.3273, 101.8253
783.8094, 102.4013
784.2916, 103.0412
784.7737, 103.5758
785.2558, 103.9804
785.7379, 104.2166
786.2200, 104.1090
786.7021, 103.7496
787.1843, 103.4601
787.6664, 103.4440
788.1485, 103.4859
788.6306, 103.5831
789.1127, 103.6619
789.5948, 103.4299
790.0770, 102.4260
790.5591, 101.7788
791.0412, 101.9540
791.5233, 102.6105
792.0054, 102.4144
792.4875, 101.3480
792.9697, 100.3081
793.4518, 99.76845
793.9339, 99.42322
794.4160, 98.77814
794.8981, 97.91853
795.3802, 97.13051
795.8624, 96.58684
796.3445, 96.10960
796.8266, 95.75890
797.3087, 95.44724
797.7908, 94.73782
798.2729, 93.40916
798.7551, 92.11501
799.2372, 91.03607
799.7193, 90.11733
800.2014, 89.14938
800.6835, 88.13973
801.1656, 87.09842
801.6478, 86.05511
802.1299, 84.97933
802.6120, 83.82028
803.0941, 82.58874
803.5762, 81.29140
804.0583, 79.75331
804.5405, 78.34599
805.0226, 77.34694
805.5047, 76.61247
805.9868, 75.56227
806.4689, 74.09423
806.9510, 72.65771
807.4332, 71.43140
807.9153, 70.32395
808.3974, 69.07610
808.8795, 67.72618
809.3616, 66.48299
809.8438, 65.62659
810.3259, 64.79968
810.8080, 63.67484
811.2901, 62.34364
811.7722, 61.06925
812.2543, 59.89636
812.7365, 58.82550
813.2186, 57.85195
813.7007, 56.97458
814.1828, 56.27997
814.6649, 55.81250
815.1470, 55.10912
815.6292, 53.88943
816.1113, 52.46080
816.5934, 51.37309
817.0755, 50.57014
817.5576, 49.88744
818.0397, 49.39827
818.5219, 48.86378
819.0040, 48.05830
819.4861, 47.09877
819.9682, 46.40622
820.4503, 46.20633
820.9324, 45.89270
821.4146, 45.33736
821.8967, 44.58230
822.3788, 43.70189
822.8609, 42.73598
823.3430, 41.97201
823.8251, 41.56368
824.3073, 41.35550
824.7894, 41.33680
825.2715, 41.34168
825.7536, 41.00012
826.2357, 39.64175
826.7178, 38.54102
827.2000, 38.31778
827.6821, 38.52660
828.1642, 38.36707
828.6463, 37.73248
829.1284, 37.14548
829.6105, 36.67418
830.0927, 36.28233
830.5748, 35.95687
831.0569, 35.70271
831.5390, 35.49759
832.0211, 35.33981
832.5032, 35.21041
832.9854, 35.18545
833.4675, 35.13246
833.9496, 34.86992
834.4317, 34.11486
834.9138, 33.53525
835.3959, 33.22025
835.8781, 33.05321
836.3602, 32.94053
836.8423, 32.87865
837.3244, 32.43384
837.8065, 31.44009
838.2886, 30.35637
838.7708, 29.61326
839.2529, 29.13226
839.7350, 28.83704
840.2171, 28.92666
840.6992, 28.79427
841.1813, 28.05137
841.6635, 27.09270
842.1456, 26.32780
842.6277, 25.83771
843.1098, 25.29770
843.5919, 24.69173
844.0740, 24.00211
844.5562, 23.14150
845.0383, 22.21459
845.5204, 21.58879
846.0025, 21.36902
846.4846, 21.07761
846.9667, 20.36233
847.4489, 19.42976
847.9310, 18.42736
848.4131, 17.19111
848.8952, 16.34553
849.3773, 16.15820
849.8594, 16.01063
850.3416, 15.36593
850.8237, 14.24655
851.3058, 13.34314
851.7879, 12.66820
852.2700, 12.16908
852.7521, 11.95332
853.2343, 11.77798
853.7164, 11.31071
854.1985, 10.51469
854.6806, 9.763908
855.1627, 9.240623
855.6448, 8.748291
856.1270, 8.160233
856.6091, 7.452347
857.0912, 7.019066
857.5733, 7.086540
858.0554, 7.015968
858.5375, 6.810814
859.0197, 6.059334
859.5018, 6.004417
859.9839, 5.665817
860.4660, 5.314262
860.9481, 5.355148
861.4302, 4.680176
861.9124, 4.719139
862.3945, 4.469315
862.8766, 4.347542
863.3587, 3.945305
863.8408, 3.632675
864.3229, 3.601280
864.8051, 3.409164
865.2872, 2.971100
865.7693, 2.859451
866.2514, 2.173950
866.7335, 1.502502
867.2156, 1.020462
867.6978, 0.7367020
868.1799, 0.5922550
868.6620, 0.4370650
869.1441, 0.1703190
869.6262, 1.1631000E-02
870.1083, 3.8128000E-02
870.5905, 5.4700002E-03
871.0726, 0.1326370
871.5547, 0.4179420
872.0368, 0.6125260
872.5189, 0.6414790
873.0010, 0.6028020
873.4832, 0.5789720
873.9653, 0.5740890
874.4474, 0.5911180
874.9295, 0.6091690
875.4116, 0.6928410
875.8937, 0.9130860
876.3759, 1.171684
876.8580, 1.382362
877.3401, 1.548988
877.8222, 1.661465
878.3043, 1.734665
878.7864, 1.689926
879.2686, 1.316814
879.7507, 0.8107870
880.2328, 0.5336270
880.7149, 0.5482900
881.1970, 0.6658670
881.6791, 0.9016880
882.1613, 1.119373
882.6434, 1.218082
883.1255, 1.181358
883.6076, 1.162094
884.0897, 1.165909
884.5718, 1.166195
885.0540, 1.108658
885.5361, 1.038254
886.0182, 1.165035
886.5003, 1.453838
886.9824, 1.594383
887.4645, 1.230038
887.9467, 0.8080440
888.4288, 0.5986250
888.9109, 0.6027680
889.3930, 0.6488530
889.8751, 0.7856030
890.3572, 0.8332710
890.8394, 0.6847150
891.3215, 0.4439240
891.8036, 0.4323810
892.2857, 0.6090050
892.7678, 0.7654150
893.2499, 0.8211630
893.7321, 0.8025050
894.2142, 0.6791610
894.6963, 0.5046310
895.1784, 0.3832660
895.6605, 0.4462390
896.1426, 0.3860740
896.6248, 0.1087490
897.1069, 0.2234800
897.5890, 0.3549770
898.0711, 0.3023150
898.5532, 0.2224620
899.0353, 0.1285820
899.5175, 7.4219003E-02
899.9996, 8.8450998E-02
900.4817, 0.1777150
900.9638, 0.3747440
901.4459, 0.7668380
901.9280, 1.015839
902.4102, 1.024166
902.8923, 0.9614830
903.3744, 0.9545140
903.8565, 1.003380
904.3386, 0.9042240
904.8207, 0.6513140
905.3029, 0.5050350
905.7850, 0.7970770
906.2671, 1.230347
906.7492, 1.506245
907.2313, 1.608112
907.7134, 1.611244
908.1956, 1.405991
908.6777, 1.251404
909.1598, 1.239532
909.6419, 1.346558
910.1240, 1.471230
910.6061, 1.614899
911.0883, 1.734325
911.5704, 1.828548
912.0525, 1.868923
912.5346, 1.718437
913.0167, 1.493843
913.4988, 1.448509
913.9810, 1.937958
914.4631, 2.272694
914.9452, 2.207535
915.4273, 1.990345
915.9094, 1.980656
916.3915, 2.196053
916.8737, 2.419689
917.3558, 2.637772
917.8379, 2.780487
918.3200, 2.672508
918.8021, 2.477699
919.2842, 2.464741
919.7664, 2.740852
920.2485, 2.937183
920.7306, 2.817562
921.2127, 2.690777
921.6948, 2.780575
922.1769, 3.114521
922.6591, 3.169487
923.1412, 2.909954
923.6233, 2.721760
924.1054, 3.020611
924.5875, 3.469158
925.0696, 3.549961
925.5518, 3.315327
926.0339, 3.122810
926.5160, 3.156757
926.9981, 3.213593
927.4802, 3.232246
927.9623, 3.222069
928.4445, 3.189339
928.9266, 3.124119
929.4087, 3.147003
929.8908, 3.331928
930.3729, 3.546272
930.8550, 3.599693
931.3372, 3.552189
931.8193, 3.511169
932.3014, 3.505375
932.7835, 3.512402
933.2656, 3.546284
933.7477, 3.565975
934.2299, 3.528591
934.7120, 3.429260
935.1941, 3.326580
935.6762, 3.221767
936.1583, 3.156658
936.6404, 3.223782
937.1226, 3.353317
937.6047, 3.450150
938.0868, 3.491409
938.5689, 3.451675
939.0510, 3.198864
939.5331, 2.984196
940.0153, 2.917473
940.4974, 2.981506
940.9795, 3.033234
941.4616, 3.071423
941.9437, 3.072693
942.4258, 2.987087
942.9080, 2.909550
943.3901, 3.012718
943.8722, 3.191612
944.3543, 3.237324
944.8364, 2.981522
945.3185, 2.782295
945.8007, 2.697937
946.2828, 2.675926
946.7649, 2.653717
947.2470, 2.628986
947.7291, 2.598644
948.2112, 2.569180
948.6934, 2.548679
949.1755, 2.524902
949.6576, 2.506660
950.1397, 2.540348
950.6218, 2.669643
951.1039, 2.611008
951.5861, 2.153175
952.0682, 1.781418
952.5503, 1.783150
953.0324, 2.085304
953.5145, 2.186291
953.9966, 2.106842
954.4788, 2.025490
954.9609, 2.029030
955.4430, 2.066906
955.9251, 2.154369
956.4072, 2.240398
956.8893, 2.183300
957.3715, 1.824863
957.8536, 1.582653
958.3357, 1.543816
958.8178, 1.609489
959.2999, 1.641315
959.7820, 1.634243
960.2642, 1.559769
960.7463, 1.377201
961.2284, 1.324883
961.7105, 1.794792
962.1926, 2.320423
962.6747, 2.471111
963.1569, 2.143192
963.6390, 1.787483
964.1211, 1.356163
964.6032, 1.022480
965.0853, 0.9383010
965.5674, 1.021725
966.0496, 1.043777
966.5317, 1.020924
967.0138, 1.032097
967.4959, 1.170937
967.9780, 1.305698
968.4601, 1.377129
968.9423, 1.396114
969.4244, 1.390480
969.9065, 1.358746
970.3886, 1.283390
970.8707, 1.137890
971.3528, 1.012699
971.8350, 1.089241
972.3171, 1.260132
972.7992, 1.319946
973.2813, 1.199070
973.7634, 1.103661
974.2455, 1.089718
974.7277, 1.155952
975.2098, 1.336529
975.6919, 1.633102
976.1740, 1.726215
976.6561, 1.603355
977.1382, 1.508663
977.6204, 1.688911
978.1025, 1.915012
978.5846, 1.854561
979.0667, 1.603313
979.5488, 1.452457
980.0309, 1.608002
980.5131, 1.724583
980.9952, 1.745670
981.4773, 1.697681
981.9594, 1.623928
982.4415, 1.526756
982.9236, 1.385139
983.4058, 1.175007
983.8879, 1.051571
984.3700, 1.285446
984.8521, 1.583519
985.3342, 1.635700
985.8163, 1.324215
986.2985, 1.192322
986.7806, 1.304127
987.2627, 1.464104
987.7448, 1.623985
988.2269, 1.737297
988.7090, 1.560787
989.1912, 1.178635
989.6733, 0.9449460
990.1554, 1.169643
990.6375, 1.442558
991.1196, 1.627522
991.6017, 1.711472
992.0839, 1.640167
992.5660, 1.334316
993.0481, 1.267834
993.5302, 1.550968
994.0123, 1.848946
994.4944, 1.714092
994.9766, 1.374203
995.4587, 1.181480
995.9408, 1.190674
996.4229, 1.194450
996.9050, 1.043663
997.3871, 0.9608760
997.8693, 1.063229
998.3514, 1.316532
998.8335, 1.527794
999.3156, 1.694805
999.7977, 1.780910
1000.280, 1.726280
1000.762, 1.641632
1001.244, 1.679123
1001.726, 1.746181
1002.208, 1.678555
1002.690, 1.220650
1003.173, 1.041073
1003.655, 1.255329
1004.137, 1.559547
1004.619, 1.620949
1005.101, 1.512115
1005.583, 1.504246
1006.065, 1.607090
1006.547, 1.656559
1007.029, 1.469872
1007.512, 1.279419
1007.994, 1.214844
1008.476, 1.261627
1008.958, 1.379604
1009.440, 1.584385
1009.922, 1.753510
1010.404, 1.862190
1010.886, 1.900257
1011.369, 1.772461
1011.851, 1.586159
1012.333, 1.537586
1012.815, 1.764141
1013.297, 1.914806
1013.779, 1.853508
1014.261, 1.793175
1014.743, 1.917149
1015.225, 2.208542
1015.708, 2.323307
1016.190, 2.269726
1016.672, 2.166779
1017.154, 2.029709
1017.636, 1.930153
1018.118, 1.935238
1018.600, 2.020901
1019.082, 2.113928
1019.565, 2.246504
1020.047, 2.280300
1020.529, 2.155678
1021.011, 2.008486
1021.493, 2.081177
1021.975, 2.259022
1022.457, 2.287298
1022.939, 2.108965
1023.421, 1.921776
1023.904, 1.658981
1024.386, 1.577585
1024.868, 1.901781
1025.350, 2.552551
1025.832, 2.739918
1026.314, 2.468773
1026.796, 2.145678
1027.278, 1.897430
1027.760, 1.762932
1028.243, 1.852623
1028.725, 2.059971
1029.207, 2.208050
1029.689, 2.238659
1030.171, 2.251284
1030.653, 2.249620
1031.135, 2.224154
1031.617, 2.125238
1032.100, 2.002213
1032.582, 2.012796
1033.064, 2.155424
1033.546, 2.302914
1034.028, 2.444258
1034.510, 2.511517
1034.992, 2.428955
1035.474, 2.255489
1035.957, 2.144171
1036.439, 2.091732
1036.921, 2.147339
1037.403, 2.359596
1037.885, 2.552992
1038.367, 2.504726
1038.849, 2.332094
1039.331, 2.150200
1039.813, 1.926950
1040.296, 1.946762
1040.778, 2.370716
1041.260, 2.727440
1041.742, 2.720137
1042.224, 2.457874
1042.706, 2.264648
1043.188, 2.143829
1043.670, 2.097815
1044.152, 2.157694
1044.635, 2.260052
1045.117, 2.471571
1045.599, 2.658840
1046.081, 2.625301
1046.563, 2.330734
1047.045, 2.134329
1047.527, 2.063606
1048.009, 2.036863
1048.492, 1.985992
1048.974, 1.941128
1049.456, 1.943705
1049.938, 1.990976
1050.420, 2.023367
1050.902, 2.016195
1051.384, 2.038687
1051.866, 2.149565
1052.349, 2.239529
1052.831, 1.959846
1053.313, 1.492844
1053.795, 1.410362
1054.277, 1.982101
1054.759, 2.396217
1055.241, 2.089378
1055.723, 1.657604
1056.205, 1.482092
1056.688, 1.556993
1057.170, 1.692507
1057.652, 1.890965
1058.134, 2.008265
1058.616, 1.896704
1059.098, 1.736582
1059.580, 1.716049
1060.062, 1.771694
1060.544, 1.776926
1061.027, 1.642838
1061.509, 1.616367
1061.991, 1.737520
1062.473, 1.884245
1062.955, 1.960716
1063.437, 1.951782
1063.919, 1.802425
1064.401, 1.538736
1064.884, 1.351986
1065.366, 1.389771
1065.848, 1.450438
1066.330, 1.492998
1066.812, 1.501196
1067.294, 1.214163
1067.776, 1.519096
1068.258, 1.680449
1068.740, 1.707115
1069.223, 1.207464
1069.705, 1.418718
1070.187, 1.345823
1070.669, 1.252863
1071.151, 1.537350
1071.633, 1.100725
1072.115, 1.377502
1072.597, 1.369831
1073.079, 1.492825
1073.562, 1.333611
1074.044, 1.262291
1074.526, 1.483377
1075.008, 1.559259
1075.490, 1.383865
1075.972, 1.523325
1076.454, 1.085014
1076.936, 1.159410
1077.419, 1.450310
1077.901, 1.275263
1078.383, 1.413132
1078.865, 1.431337
1079.347, 0.9062140
1079.829, 1.326691
1080.311, 1.125139
1080.793, 0.9616110
1081.275, 0.6942580
1081.758, 0.5332700
1082.240, 0.4727290
1082.722, 0.5678690
1083.204, 0.8518660
1083.686, 1.065552
1084.168, 0.8783450
1084.650, 0.5918310
1085.132, 0.5089380
1085.615, 0.6412680
1086.097, 0.6629540
1086.579, 0.5150720
1087.061, 0.4026220
1087.543, 0.4087260
1088.025, 0.4383140
1088.507, 0.3024200
1088.989, 9.4155997E-02
1089.471, 1.6693000E-02
1089.953, 1.7852999E-02
1090.436, 9.0117000E-02
1090.918, 0.2412110
1091.400, 0.3332350
1091.882, 0.2509140
1092.364, 7.2203003E-02
1092.846, 0.1366770
1093.328, 0.3769450
1093.810, 0.5250590
1094.293, 0.3723550
1094.775, 0.2310430
1095.257, 0.3084410
1095.739, 0.4299090
1096.221, 0.3800010
1096.703, 0.1178210
1097.185, 2.8705999E-02
1097.667, 0.1265390
1098.150, 0.2240050
1098.632, 0.1173570
1099.114, 7.8830002E-03
1099.596, 0.1266750
1100.078, 0.3860090
1100.560, 0.4807550
1101.042, 0.3215660
1101.524, 0.2249180
1102.006, 0.2430710
1102.489, 0.3108540
1102.971, 0.3734680
1103.453, 0.4114040
1103.935, 0.3652500
1104.417, 0.2331050
1104.899, 0.1185970
1105.381, 3.1872001E-02
1105.863, 4.0040002E-03
1106.345, 4.2849001E-02
1106.828, 0.1105000
1107.310, 3.1389002E-02
1107.792, 0.1385940
1108.274, 0.2138160
1108.756, 0.1357980
1109.238, 4.3159001E-02
1109.720, 9.3560005E-03
1110.202, 2.8299000E-02
1110.685, 0.1140820
1111.167, 0.2369520
1111.649, 0.3157120
1112.131, 0.3511910
1112.613, 0.3541320
1113.095, 0.3319050
1113.577, 0.2751080
1114.059, 0.1494730
1114.542, 1.8310000E-03
1115.024, 0.1217000
1115.506, 0.2368390
1115.988, 0.2309510
1116.470, 9.1883004E-02
1116.952, 4.7812998E-02
1117.434, 9.7969003E-02
1117.916, 0.1193120
1118.398, 0.1775380
1118.880, 0.2301640
1119.363, 0.1703640
1119.845, 0.1579590
1120.327, 0.2764970
1120.809, 0.1109370
1121.291, 0.1375770
1121.773, 0.3150420
1122.255, 0.4164700
1122.737, 0.4092450
1123.220, 0.3066650
1123.702, 0.1998120
1124.184, 7.7200003E-02
1124.666, 2.5390999E-02
1125.148, 0.1096970
1125.630, 0.1989970
1126.112, 8.5739996E-03
1126.594, 0.3483520
1127.077, 0.5204580
1127.559, 0.4557080
1128.041, 0.3012540
1128.523, 9.9390000E-03
1129.005, 0.2140200
1129.487, 0.2719460
1129.969, 0.2096160
1130.451, 0.1746200
1130.933, 0.1563610
1131.416, 5.4876000E-02
1131.898, 0.1920760
1132.380, 0.3757150
1132.862, 0.2790390
1133.344, 0.1226830
1133.826, 0.1046790
1134.308, 0.2156220
1134.790, 0.1753250
1135.272, 2.3613000E-02
1135.755, 0.1857450
1136.237, 0.2296980
1136.719, 0.2092590
1137.201, 0.1458490
1137.683, 6.4328998E-02
1138.165, 9.1739995E-03
1138.647, 8.4555000E-02
1139.129, 9.4460003E-02
1139.612, 3.2658000E-02
1140.094, 5.1743999E-02
1140.576, 0.1500320
1141.058, 0.2365890
1141.540, 0.2896790
1142.022, 0.3030970
1142.504, 0.2597690
1142.986, 8.3981000E-02
1143.469, 6.3990001E-03
1143.951, 3.7999998E-05
1144.433, 7.2049998E-02
1144.915, 0.2595010
1145.397, 0.4561980
1145.879, 0.4008580
1146.361, 0.1651800
1146.843, 5.4324999E-02
1147.325, 0.3411770
1147.807, 0.5037880
1148.290, 0.4634740
1148.772, 0.3099140
1149.254, 7.5020000E-02
1149.736, 0.1718750
1150.218, 0.2342570
1150.700, 0.1113570
1151.182, 3.1484999E-02
1151.664, 0.1867280
1152.147, 0.2628190
1152.629, 0.2060700
1153.111, 9.2367001E-02
1153.593, 4.8271000E-02
1154.075, 7.2494999E-02
1154.557, 0.1816120
1155.039, 0.3847960
1155.521, 0.5270900
1156.004, 0.4784320
1156.486, 0.4008810
1156.968, 0.3706670
1157.450, 0.3717710
1157.932, 0.3638670
1158.414, 0.3442750
1158.896, 0.2662870
1159.378, 8.9560002E-02
1159.860, 2.8230001E-03
1160.343, 0.2346320
1160.825, 0.4942380
1161.307, 0.5521720
1161.789, 0.4349610
1162.271, 0.3341290
1162.753, 0.2460440
1163.235, 0.1788750
1163.717, 0.1293830
1164.199, 0.1196460
1164.682, 0.1854150
1165.164, 0.2875690
1165.646, 0.3945560
1166.128, 0.5069600
1166.610, 0.5931780
1167.092, 0.6525990
1167.574, 0.6519180
1168.056, 0.5295450
1168.539, 0.4113040
1169.021, 0.4201640
1169.503, 0.4910300
1169.985, 0.5481570
1170.467, 0.5872290
1170.949, 0.6212710
1171.431, 0.6559280
1171.913, 0.6450860
1172.396, 0.4720100
1172.878, 0.3114510
1173.360, 0.4697460
1173.842, 0.7522340
1174.324, 0.7417790
1174.806, 0.2057440
1175.288, 4.0849999E-02
1175.770, 5.9287999E-02
1176.252, 0.2402170
1176.734, 0.2812840
1177.217, 0.2944700
1177.699, 0.4642200
1178.181, 0.7163810
1178.663, 0.8273680
1179.145, 0.6801700
1179.627, 0.5827200
1180.109, 0.5651190
1180.591, 0.5716340
1181.074, 0.4945930
1181.556, 0.4448280
1182.038, 0.6647280
1182.520, 1.079002
1183.002, 1.284185
1183.484, 1.151485
1183.966, 0.9455180
1184.448, 0.6496810
1184.931, 0.3787270
1185.413, 0.2732450
1185.895, 0.2928770
1186.377, 0.4165970
1186.859, 0.6096820
1187.341, 0.7094990
1187.823, 0.6609630
1188.305, 0.5548080
1188.787, 0.3761350
1189.270, 0.2182160
1189.752, 0.2503950
1190.234, 0.3616180
1190.716, 0.3538280
1191.198, 0.2136020
1191.680, 0.1633740
1192.162, 0.3076440
1192.644, 0.4231550
1193.126, 0.4475540
1193.609, 0.4454670
1194.091, 0.5906940
1194.573, 0.7763500
1195.055, 0.7578540
1195.537, 0.4806250
1196.019, 0.3054160
1196.501, 0.3305990
1196.983, 0.4543950
1197.466, 0.6820240
1197.948, 0.9079930
1198.430, 0.8768440
1198.912, 0.6988160
1199.394, 0.5959590
1199.876, 0.6188510
1200.358, 0.6546920
1200.840, 0.7340970
1201.323, 0.7087270
1201.805, 0.4799210
1202.287, 0.1928250
1202.769, 0.1543670
1203.251, 0.2800850
1203.733, 0.3959580
1204.215, 0.4617810
1204.697, 0.5305820
1205.179, 0.6583210
1205.661, 0.7155690
1206.144, 0.6033540
1206.626, 0.4321880
1207.108, 0.4765760
1207.590, 0.6392360
1208.072, 0.7527480
1208.554, 0.7873190
1209.036, 0.7696460
1209.518, 0.6152760
1210.001, 0.5079460
1210.483, 0.5766120
1210.965, 0.7086120
1211.447, 0.5711800
1211.929, 0.3050730
1212.411, 0.2323490
1212.893, 0.5715500
1213.375, 0.7438130
1213.858, 0.6197280
1214.340, 0.4664000
1214.822, 0.4476300
1215.304, 0.4927410
1215.786, 0.4082910
1216.268, 0.2558750
1216.750, 0.1782990
1217.232, 0.2583050
1217.714, 0.3161070
1218.197, 0.3635120
1218.679, 0.3676030
1219.161, 0.2633170
1219.643, 0.1392860
1220.125, 0.2236900
1220.607, 0.4369530
1221.089, 0.5922870
1221.571, 0.5874020
1222.053, 0.6212040
1222.536, 0.7438340
1223.018, 0.8135300
1223.500, 0.6786540
1223.982, 0.4596710
1224.464, 0.4230040
1224.946, 0.4890670
1225.428, 0.4756220
1225.910, 0.1677070
1226.393, 7.7862002E-02
1226.875, 0.2736450
1227.357, 0.5029640
1227.839, 0.6230010
1228.321, 0.6374020
1228.803, 0.4707970
1229.285, 0.2285420
1229.767, 0.1698720
1230.250, 0.4940830
1230.732, 0.6698250
1231.214, 0.6816180
1231.696, 0.5985870
1232.178, 0.3956600
1232.660, 0.1818370
1233.142, 0.1200430
1233.624, 0.1713030
1234.106, 0.2558820
1234.589, 0.4139020
1235.071, 0.4202730
1235.553, 0.2387260
1236.035, 8.4274001E-02
1236.517, 0.1321930
1236.999, 0.2714410
1237.481, 0.4058650
1237.963, 0.5390220
1238.445, 0.6395760
1238.928, 0.7373680
1239.410, 0.7660510
1239.892, 0.7229390
1240.374, 0.6261240
1240.856, 0.4180180
1241.338, 0.2339340
1241.820, 0.1990400
1242.302, 0.2686190
1242.785, 0.3734090
1243.267, 0.5441630
1243.749, 0.5467270
1244.231, 0.3693520
1244.713, 0.2027990
1245.195, 0.1350470
1245.677, 0.1582490
1246.159, 0.3516880
1246.641, 0.6007010
1247.124, 0.6715280
1247.606, 0.5364460
1248.088, 0.5240860
1248.570, 0.6413160
1249.052, 0.6953810
1249.534, 0.4620490
1250.016, 0.2333910
1250.498, 0.2503990
1250.980, 0.3424570
1251.463, 0.2748190
1251.945, 5.0248999E-02
1252.427, 4.3300001E-04
1252.909, 0.1290140
1253.391, 0.2249940
1253.873, 1.1168000E-02
1254.355, 9.4926998E-02
1254.837, 0.2186810
1255.320, 0.6164430
1255.802, 0.6813700
1256.284, 0.4933860
1256.766, 0.3527570
1257.248, 0.2652600
1257.730, 0.2419900
1258.212, 0.3548590
1258.694, 0.4543760
1259.177, 0.4966860
1259.659, 0.5180400
1260.141, 0.5412220
1260.623, 0.5497550
1261.105, 0.5413000
1261.587, 0.5268040
1262.069, 0.5305410
1262.551, 0.6141070
1263.033, 0.6158270
1263.516, 0.4577410
1263.998, 0.3355600
1264.480, 0.5680450
1264.962, 0.8979700
1265.444, 0.6560400
1265.926, 4.9249999E-02
1266.408, 0.1849050
1266.890, 0.5297870
1267.372, 0.8968720
1267.855, 0.7737310
1268.337, 0.5298750
1268.819, 0.4217970
1269.301, 0.4206090
1269.783, 0.3705840
1270.265, 0.3724860
1270.747, 0.3714690
1271.229, 0.3588520
1271.712, 0.3175810
1272.194, 0.2417890
1272.676, 0.2215860
1273.158, 0.4248410
1273.640, 0.6302030
1274.122, 0.5990660
1274.604, 0.4279880
1275.086, 0.3185690
1275.568, 0.2647910
1276.051, 0.1080490
1276.533, 3.2361999E-02
1277.015, 4.2622000E-02
1277.497, 0.3509390
1277.979, 0.6096840
1278.461, 0.5581300
1278.943, 0.3553660
1279.425, 0.1932180
1279.907, 6.7051001E-02
1280.390, 3.6745001E-02
1280.872, 9.4038002E-02
1281.354, 0.1402850
1281.836, 0.1025940
1282.318, 6.7561999E-02
1282.800, 7.9177998E-02
1283.282, 9.6667998E-02
1283.764, 8.9686997E-02
1284.247, 5.5920001E-02
1284.729, 0.0000000E+00
##END=



