##NAMES=Perroudite
##RRUFFID=R060699
##IDEAL CHEMISTRY=Ag_4_Hg_5_S_5_(I,Br)_2_Cl_2_
##LOCALITY=Copiapo, Chile
##OWNER=RRUFF
##SOURCE=Bob Jenkins
##DESCRIPTION=Reddish brown thin bladed crystals associated with white cerussite
##STATUS=The identification of this mineral has been confirmed by X-ray diffraction.
##URL=rruff.info/R060699
157.205, 0.000
157.687, 0.312
158.169, 25.924
158.651, 67.259
159.133, 112.350
159.615, 187.342
160.097, 312.621
160.579, 481.136
161.062, 664.793
161.544, 853.514
162.026, 1044.564
162.508, 1225.943
162.990, 1374.821
163.472, 1542.506
163.954, 1753.463
164.436, 2005.576
164.919, 2293.110
165.401, 2655.986
165.883, 3079.051
166.365, 3372.248
166.847, 3366.654
167.329, 3398.705
167.811, 3439.791
168.293, 3665.582
168.775, 3846.963
169.258, 3986.264
169.740, 3956.676
170.222, 4145.826
170.704, 4267.896
171.186, 4335.504
171.668, 4424.691
172.150, 4526.783
172.632, 4631.184
173.115, 4727.174
173.597, 4814.613
174.079, 4910.855
174.561, 5034.408
175.043, 5152.545
175.525, 5242.912
176.007, 5311.398
176.489, 5382.271
176.971, 5481.596
177.454, 5612.596
177.936, 5733.469
178.418, 5835.459
178.900, 5932.619
179.382, 6039.547
179.864, 6150.379
180.346, 6242.242
180.828, 6286.707
181.311, 6277.295
181.793, 6279.701
182.275, 6331.236
182.757, 6362.309
183.239, 6335.836
183.721, 6259.221
184.203, 6169.252
184.685, 6103.047
185.167, 6065.996
185.650, 6001.408
186.132, 5912.633
186.614, 5789.176
187.096, 5604.428
187.578, 5373.268
188.060, 5143.303
188.542, 4956.750
189.024, 4819.459
189.507, 4678.248
189.989, 4530.068
190.471, 4381.076
190.953, 4228.061
191.435, 4075.186
191.917, 3932.104
192.399, 3808.027
192.881, 3704.676
193.363, 3603.570
193.846, 3491.465
194.328, 3394.207
194.810, 3332.830
195.292, 3296.463
195.774, 3254.309
196.256, 3173.318
196.738, 3049.490
197.220, 2972.375
197.702, 2986.416
198.185, 3010.170
198.667, 3028.068
199.149, 3037.074
199.631, 3036.475
200.113, 3025.010
200.595, 3002.633
201.077, 2977.920
201.559, 2919.525
202.042, 2889.654
202.524, 2925.582
203.006, 3004.275
203.488, 3077.805
203.970, 3111.393
204.452, 3106.656
204.934, 3094.398
205.416, 3045.270
205.898, 3018.926
206.381, 3048.430
206.863, 3110.043
207.345, 3159.465
207.827, 3164.193
208.309, 3130.740
208.791, 3117.693
209.273, 3133.607
209.755, 3163.008
210.238, 3211.977
210.720, 3270.033
211.202, 3322.707
211.684, 3361.111
212.166, 3386.682
212.648, 3406.191
213.130, 3410.809
213.612, 3419.994
214.094, 3438.520
214.577, 3463.318
215.059, 3488.719
215.541, 3517.488
216.023, 3547.055
216.505, 3569.457
216.987, 3591.844
217.469, 3594.490
217.951, 3572.803
218.434, 3532.863
218.916, 3477.596
219.398, 3407.314
219.880, 3331.016
220.362, 3274.229
220.844, 3258.877
221.326, 3225.027
221.808, 3144.400
222.290, 3052.969
222.773, 2988.688
223.255, 2965.506
223.737, 2962.270
224.219, 2934.924
224.701, 2865.795
225.183, 2809.693
225.665, 2783.072
226.147, 2764.283
226.629, 2738.611
227.112, 2701.328
227.594, 2653.650
228.076, 2590.041
228.558, 2492.635
229.040, 2431.795
229.522, 2446.477
230.004, 2475.662
230.486, 2476.396
230.969, 2442.637
231.451, 2405.842
231.933, 2410.045
232.415, 2469.012
232.897, 2508.748
233.379, 2511.141
233.861, 2501.549
234.343, 2485.168
234.825, 2465.670
235.307, 2452.783
235.790, 2457.268
236.272, 2480.473
236.754, 2507.840
237.236, 2553.158
237.718, 2589.557
238.200, 2594.344
238.682, 2575.951
239.165, 2566.537
239.647, 2601.002
240.129, 2676.418
240.611, 2723.969
241.093, 2711.609
241.575, 2710.520
242.057, 2764.965
242.539, 2856.145
243.021, 2936.924
243.503, 2968.379
243.986, 2965.939
244.468, 2998.607
244.950, 3089.490
245.432, 3176.754
245.914, 3229.752
246.396, 3261.318
246.878, 3289.740
247.361, 3312.143
247.843, 3345.059
248.325, 3433.793
248.807, 3601.854
249.289, 3762.182
249.771, 3867.617
250.253, 3946.730
250.735, 4028.639
251.217, 4113.316
251.699, 4217.770
252.182, 4373.350
252.664, 4585.895
253.146, 4804.107
253.628, 4999.848
254.110, 5193.824
254.592, 5409.426
255.074, 5651.475
255.556, 5907.697
256.039, 6161.820
256.521, 6415.100
257.003, 6688.332
257.485, 6990.143
257.967, 7315.967
258.449, 7654.590
258.931, 8004.037
259.413, 8378.168
259.896, 8786.287
260.378, 9228.480
260.860, 9696.916
261.342, 10190.111
261.824, 10719.520
262.306, 11296.744
262.788, 11916.945
263.270, 12590.438
263.752, 13333.629
264.235, 14135.082
264.717, 14972.166
265.199, 15840.799
265.681, 16764.746
266.163, 17775.994
266.645, 18871.289
267.127, 20022.559
267.609, 21239.219
268.091, 22502.146
268.574, 23796.086
269.056, 25117.176
269.538, 26468.193
270.020, 27850.279
270.502, 29260.635
270.984, 30631.160
271.466, 31984.178
271.948, 33278.699
272.431, 34511.844
272.913, 35673.984
273.395, 36721.531
273.877, 37648.188
274.359, 38431.656
274.841, 38997.691
275.323, 39392.383
275.805, 39564.320
276.288, 39480.312
276.770, 39163.445
277.252, 38645.031
277.734, 37929.062
278.216, 37043.867
278.698, 36049.039
279.180, 34957.504
279.662, 33735.699
280.144, 32282.086
280.626, 30735.758
281.109, 29226.852
281.591, 27794.010
282.073, 26421.068
282.555, 25094.332
283.037, 23795.533
283.519, 22580.111
284.001, 21410.297
284.483, 20344.016
284.966, 19433.754
285.448, 18674.506
285.930, 17991.018
286.412, 17315.902
286.894, 16634.814
287.376, 16063.561
287.858, 15624.936
288.340, 15263.713
288.823, 14975.779
289.305, 14754.379
289.787, 14589.738
290.269, 14474.533
290.751, 14411.254
291.233, 14415.820
291.715, 14508.111
292.197, 14653.418
292.679, 14843.457
293.162, 15079.363
293.644, 15358.482
294.126, 15677.170
294.608, 16053.898
295.090, 16528.967
295.572, 17125.023
296.054, 17770.129
296.536, 18443.234
297.018, 19162.918
297.501, 19940.621
297.983, 20780.590
298.465, 21679.693
298.947, 22628.783
299.429, 23630.920
299.911, 24689.123
300.393, 25810.947
300.875, 26985.291
301.358, 28190.850
301.840, 29430.951
302.322, 30738.527
302.804, 32135.721
303.286, 33617.062
303.768, 35162.742
304.250, 36781.449
304.732, 38461.477
305.215, 40204.258
305.697, 42004.891
306.179, 43848.078
306.661, 45780.156
307.143, 47737.477
307.625, 49653.531
308.107, 51520.719
308.589, 53370.492
309.071, 55268.406
309.553, 57124.777
310.036, 58741.297
310.518, 60151.703
311.000, 61273.969
311.482, 62090.914
311.964, 62589.188
312.446, 62728.246
312.928, 62502.023
313.410, 61890.586
313.893, 60808.988
314.375, 59282.980
314.857, 57378.398
315.339, 54956.383
315.821, 52237.129
316.303, 49409.109
316.785, 46529.867
317.267, 43669.250
317.750, 40872.371
318.232, 38132.969
318.714, 35601.867
319.196, 33263.707
319.678, 31143.713
320.160, 29263.117
320.642, 27616.615
321.124, 26154.709
321.606, 24859.615
322.089, 23719.645
322.571, 22683.318
323.053, 21777.180
323.535, 20940.873
324.017, 20181.143
324.499, 19483.354
324.981, 18842.012
325.463, 18256.355
325.945, 17696.268
326.428, 17112.566
326.910, 16495.330
327.392, 15874.355
327.874, 15235.713
328.356, 14604.076
328.838, 13999.049
329.320, 13422.684
329.802, 12871.971
330.284, 12349.959
330.767, 11858.037
331.249, 11363.918
331.731, 10841.850
332.213, 10351.461
332.695, 9912.062
333.177, 9523.127
333.659, 9172.852
334.142, 8857.883
334.624, 8580.535
335.106, 8356.238
335.588, 8195.021
336.070, 8047.582
336.552, 7882.574
337.034, 7722.508
337.516, 7596.973
337.998, 7514.074
338.480, 7458.604
338.963, 7429.711
339.445, 7421.828
339.927, 7406.064
340.409, 7371.189
340.891, 7329.541
341.373, 7294.355
341.855, 7262.576
342.337, 7251.479
342.819, 7284.547
343.302, 7331.535
343.784, 7350.131
344.266, 7335.643
344.748, 7321.152
345.230, 7332.615
345.712, 7371.465
346.194, 7436.080
346.677, 7560.400
347.159, 7673.846
347.641, 7733.826
348.123, 7757.801
348.605, 7790.977
349.087, 7858.648
349.569, 7945.395
350.051, 8001.404
350.533, 8034.807
351.016, 8020.611
351.498, 7952.213
351.980, 7840.863
352.462, 7697.277
352.944, 7523.582
353.426, 7312.287
353.908, 7038.918
354.390, 6677.168
354.872, 6382.469
355.355, 6292.281
355.837, 6147.564
356.319, 5831.127
356.801, 5380.912
357.283, 4896.326
357.765, 4415.762
358.247, 3959.486
358.729, 3590.680
359.211, 3335.902
359.694, 3102.518
360.176, 2843.189
360.658, 2589.670
361.140, 2377.139
361.622, 2218.584
362.104, 2083.941
362.586, 1945.895
363.069, 1807.217
363.551, 1692.385
364.033, 1618.492
364.515, 1552.986
364.997, 1445.451
365.479, 1296.953
365.961, 1181.875
366.443, 1141.633
366.925, 1133.760
367.408, 1115.082
367.890, 1082.000
368.372, 1043.867
368.854, 1006.361
369.336, 969.842
369.818, 937.471
370.300, 894.984
370.782, 871.535
371.264, 890.812
371.747, 931.795
372.229, 963.309
372.711, 973.172
373.193, 965.715
373.675, 946.783
374.157, 902.197
374.639, 874.191
375.121, 883.771
375.603, 890.580
376.086, 861.170
376.568, 801.625
377.050, 747.785
377.532, 734.531
378.014, 757.250
378.496, 758.662
378.978, 722.010
379.460, 687.078
379.943, 669.969
380.425, 661.508
380.907, 651.402
381.389, 637.154
381.871, 614.859
382.353, 574.973
382.835, 517.168
383.317, 466.520
383.799, 425.570
384.282, 398.986
384.764, 393.924
385.246, 410.045
385.728, 425.893
386.210, 443.094
386.692, 450.902
387.174, 424.000
387.656, 360.072
388.138, 302.568
388.621, 282.982
389.103, 298.371
389.585, 315.783
390.067, 340.150
390.549, 360.844
391.031, 369.609
391.513, 372.949
391.996, 384.424
392.478, 409.049
392.960, 435.381
393.442, 442.863
393.924, 421.619
394.406, 403.635
394.888, 380.562
395.370, 366.574
395.852, 376.359
396.335, 404.188
396.817, 430.846
397.299, 441.855
397.781, 439.346
398.263, 437.072
398.745, 439.176
399.227, 433.346
399.709, 411.824
400.191, 383.051
400.674, 356.703
401.156, 336.006
401.638, 312.754
402.120, 275.102
402.602, 225.111
403.084, 181.148
403.566, 144.361
404.048, 118.686
404.530, 114.896
405.013, 128.346
405.495, 134.670
405.977, 119.842
406.459, 101.031
406.941, 98.920
407.423, 110.545
407.905, 111.193
408.387, 82.537
408.870, 39.809
409.352, 33.205
409.834, 94.312
410.316, 142.066
410.798, 161.898
411.280, 166.203
411.762, 163.652
412.244, 157.348
412.727, 150.166
413.209, 143.941
413.691, 137.557
414.173, 142.287
414.655, 181.463
415.137, 206.303
415.619, 188.514
416.101, 152.078
416.583, 133.887
417.065, 150.996
417.548, 187.740
418.030, 228.295
418.512, 277.264
418.994, 290.145
419.476, 225.807
419.958, 152.344
420.440, 134.027
420.922, 166.518
421.405, 191.186
421.887, 175.471
422.369, 139.268
422.851, 107.016
423.333, 80.355
423.815, 64.936
424.297, 68.135
424.779, 84.547
425.262, 91.805
425.744, 80.090
426.226, 73.934
426.708, 82.213
427.190, 98.285
427.672, 120.551
428.154, 146.424
428.636, 159.207
429.118, 136.217
429.601, 70.055
430.083, 17.061
430.565, 21.090
431.047, 47.973
431.529, 59.115
432.011, 60.820
432.493, 64.314
432.975, 75.766
433.457, 86.242
433.940, 70.750
434.422, 19.414
434.904, 6.033
435.386, 91.236
435.868, 175.658
436.350, 166.658
436.832, 72.768
437.314, 3.506
437.797, 4.107
438.279, 48.607
438.761, 60.596
439.243, 38.016
439.725, 17.166
440.207, 20.385
440.689, 39.316
441.171, 44.984
441.654, 33.232
442.136, 17.406
442.618, 4.506
443.100, 26.465
443.582, 40.922
444.064, 46.764
444.546, 48.756
445.028, 51.443
445.510, 54.781
445.992, 57.914
446.475, 61.564
446.957, 63.621
447.439, 61.789
447.921, 58.619
448.403, 58.812
448.885, 64.467
449.367, 68.773
449.849, 65.062
450.332, 53.486
450.814, 24.828
451.296, 42.186
451.778, 96.840
452.260, 85.098
452.742, 23.340
453.224, 20.949
453.706, 21.250
454.189, 1.762
454.671, 20.309
455.153, 43.994
455.635, 69.646
456.117, 99.729
456.599, 125.455
457.081, 127.898
457.563, 89.473
458.045, 62.191
458.528, 60.324
459.010, 59.779
459.492, 38.393
459.974, 1.701
460.456, 24.777
460.938, 19.578
461.420, 6.443
461.902, 1.963
462.384, 55.805
462.867, 96.752
463.349, 82.410
463.831, 60.756
464.313, 78.342
464.795, 139.457
465.277, 194.162
465.759, 196.195
466.241, 165.600
466.724, 155.887
467.206, 173.117
467.688, 195.877
468.170, 215.996
468.652, 229.973
469.134, 227.799
469.616, 196.096
470.098, 167.797
470.581, 153.170
471.063, 148.600
471.545, 152.168
472.027, 162.256
472.509, 171.119
472.991, 169.973
473.473, 157.834
473.955, 146.916
474.437, 143.365
474.919, 133.602
475.402, 111.605
475.884, 82.527
476.366, 50.887
476.848, 17.756
477.330, 9.719
477.812, 15.156
478.294, 0.438
478.776, 11.430
479.259, 70.248
479.741, 125.240
480.223, 125.529
480.705, 88.047
481.187, 59.529
481.669, 47.088
482.151, 48.230
482.633, 71.566
483.116, 106.627
483.598, 128.248
484.080, 127.232
484.562, 114.900
485.044, 110.082
485.526, 124.670
486.008, 101.635
486.490, 4.400
486.972, 96.244
487.455, 121.645
487.937, 103.748
488.419, 88.701
488.901, 99.115
489.383, 120.613
489.865, 128.965
490.347, 123.148
490.829, 110.791
491.311, 91.980
491.794, 67.533
492.276, 28.857
492.758, 17.900
493.240, 42.281
493.722, 12.119
494.204, 27.723
494.686, 31.484
495.168, 7.189
495.651, 12.537
496.133, 14.490
496.615, 6.768
497.097, 3.672
497.579, 10.801
498.061, 7.305
498.543, 27.561
499.025, 53.059
499.508, 37.975
499.990, 3.506
500.472, 38.375
500.954, 49.197
501.436, 42.422
501.918, 27.461
502.400, 1.146
502.882, 15.076
503.364, 3.518
503.846, 4.756
504.329, 22.559
504.811, 77.811
505.293, 116.068
505.775, 106.732
506.257, 83.998
506.739, 84.955
507.221, 103.893
507.703, 111.498
508.186, 93.588
508.668, 67.986
509.150, 67.943
509.632, 115.857
510.114, 131.242
510.596, 74.824
511.078, 25.691
511.560, 35.562
512.042, 84.541
512.525, 122.600
513.007, 122.045
513.489, 103.660
513.971, 108.430
514.453, 139.990
514.935, 167.459
515.417, 191.348
515.899, 202.078
516.382, 187.686
516.864, 153.094
517.346, 120.480
517.828, 88.557
518.310, 68.137
518.792, 74.844
519.274, 101.074
519.756, 125.416
520.239, 140.307
520.721, 147.955
521.203, 149.941
521.685, 140.047
522.167, 147.018
522.649, 202.969
523.131, 239.809
523.613, 209.887
524.096, 146.592
524.578, 106.793
525.060, 115.328
525.542, 149.340
526.024, 188.107
526.506, 230.904
526.988, 236.529
527.470, 184.096
527.952, 121.377
528.435, 79.279
528.917, 56.938
529.399, 55.244
529.881, 101.090
530.363, 139.775
530.845, 131.158
531.327, 99.148
531.809, 88.359
532.291, 109.496
532.774, 134.213
533.256, 127.000
533.738, 84.082
534.220, 65.355
534.702, 80.457
535.184, 109.652
535.666, 159.283
536.148, 214.852
536.630, 266.088
537.113, 310.125
537.595, 328.133
538.077, 281.979
538.559, 196.070
539.041, 150.980
539.523, 155.660
540.005, 181.770
540.487, 223.549
540.969, 269.701
541.452, 278.680
541.934, 217.744
542.416, 175.461
542.898, 180.717
543.380, 204.273
543.862, 223.533
544.344, 234.316
544.826, 237.662
545.309, 234.363
545.791, 225.217
546.273, 211.480
546.755, 188.760
547.237, 174.246
547.719, 175.896
548.201, 185.129
548.683, 196.791
549.166, 210.357
549.648, 224.715
550.130, 248.654
550.612, 266.521
551.094, 251.213
551.576, 211.400
552.058, 187.420
552.540, 197.715
553.023, 225.561
553.505, 242.115
553.987, 243.225
554.469, 244.326
554.951, 242.875
555.433, 243.916
555.915, 251.260
556.397, 262.436
556.879, 271.838
557.362, 276.639
557.844, 283.555
558.326, 305.658
558.808, 340.539
559.290, 364.566
559.772, 375.408
560.254, 372.580
560.736, 348.797
561.218, 308.975
561.701, 281.887
562.183, 270.188
562.665, 268.430
563.147, 283.613
563.629, 303.107
564.111, 308.781
564.593, 299.979
565.075, 294.736
565.557, 312.615
566.040, 346.674
566.522, 348.695
567.004, 301.721
567.486, 261.471
567.968, 244.141
568.450, 239.723
568.932, 249.879
569.414, 272.934
569.896, 276.273
570.379, 221.564
570.861, 157.088
571.343, 140.545
571.825, 164.277
572.307, 188.822
572.789, 197.672
573.271, 197.895
573.753, 201.562
574.236, 210.211
574.718, 218.074
575.200, 219.031
575.682, 226.010
576.164, 252.191
576.646, 285.314
577.128, 303.908
577.610, 299.045
578.093, 289.295
578.575, 294.424
579.057, 310.779
579.539, 325.623
580.021, 337.912
580.503, 343.611
580.985, 337.293
581.467, 322.158
581.950, 314.771
582.432, 316.400
582.914, 322.541
583.396, 339.166
583.878, 355.174
584.360, 360.973
584.842, 356.592
585.324, 347.793
585.806, 339.102
586.289, 327.240
586.771, 294.891
587.253, 235.305
587.735, 215.141
588.217, 274.080
588.699, 345.240
589.181, 354.154
589.663, 311.182
590.145, 286.201
590.628, 294.314
591.110, 318.859
591.592, 370.447
592.074, 426.428
592.556, 448.432
593.038, 427.658
593.520, 386.869
594.002, 346.631
594.484, 307.369
594.967, 286.730
595.449, 292.037
595.931, 301.340
596.413, 305.307
596.895, 310.930
597.377, 328.305
597.859, 358.678
598.341, 381.990
598.823, 379.711
599.306, 372.986
599.788, 392.727
600.270, 430.242
600.752, 447.514
601.234, 426.871
601.716, 388.924
602.198, 368.201
602.680, 368.561
603.162, 372.521
603.645, 388.988
604.127, 399.406
604.609, 397.951
605.091, 386.768
605.573, 365.098
606.055, 330.131
606.537, 304.090
607.019, 311.148
607.502, 336.283
607.984, 346.203
608.466, 339.402
608.948, 345.500
609.430, 386.008
609.912, 445.211
610.394, 476.527
610.876, 453.369
611.359, 447.402
611.841, 478.111
612.323, 505.281
612.805, 498.408
613.287, 471.959
613.769, 462.943
614.251, 492.211
614.733, 525.201
615.216, 515.326
615.698, 475.684
616.180, 457.609
616.662, 471.207
617.144, 484.529
617.626, 469.775
618.108, 434.816
618.590, 423.949
619.072, 468.066
619.555, 494.100
620.037, 486.988
620.519, 468.598
621.001, 443.232
621.483, 420.609
621.965, 424.893
622.447, 479.707
622.929, 548.686
623.411, 575.391
623.894, 563.189
624.376, 536.342
624.858, 493.096
625.340, 462.574
625.822, 477.516
626.304, 533.822
626.786, 562.104
627.268, 552.939
627.750, 531.938
628.233, 483.271
628.715, 439.449
629.197, 434.883
629.679, 466.775
630.161, 505.463
630.643, 537.037
631.125, 554.604
631.607, 529.023
632.089, 462.670
632.572, 442.488
633.054, 507.480
633.536, 579.320
634.018, 571.180
634.500, 482.787
634.982, 434.906
635.464, 456.592
635.946, 480.680
636.429, 485.750
636.911, 486.715
637.393, 504.043
637.875, 536.457
638.357, 561.984
638.839, 565.176
639.321, 548.881
639.803, 507.881
640.286, 441.613
640.768, 409.783
641.250, 436.836
641.732, 486.762
642.214, 528.932
642.696, 563.326
643.178, 564.307
643.660, 490.320
644.143, 434.938
644.625, 449.219
645.107, 481.596
645.589, 465.605
646.071, 400.000
646.553, 348.287
647.035, 370.762
647.517, 431.699
647.999, 444.982
648.482, 410.900
648.964, 379.801
649.446, 363.977
649.928, 361.795
650.410, 377.801
650.892, 414.238
651.374, 423.592
651.856, 371.947
652.338, 336.818
652.821, 351.072
653.303, 384.652
653.785, 407.967
654.267, 416.412
654.749, 420.395
655.231, 426.281
655.713, 433.330
656.195, 442.994
656.677, 454.305
657.160, 453.250
657.642, 432.438
658.124, 409.291
658.606, 402.918
659.088, 413.859
659.570, 422.785
660.052, 434.406
660.534, 438.318
661.016, 430.768
661.499, 415.850
661.981, 388.426
662.463, 354.457
662.945, 341.723
663.427, 387.311
663.909, 442.984
664.391, 418.131
664.873, 331.412
665.356, 287.258
665.838, 317.438
666.320, 358.643
666.802, 346.762
667.284, 285.463
667.766, 247.221
668.248, 242.701
668.730, 248.389
669.213, 273.830
669.695, 298.865
670.177, 305.904
670.659, 297.510
671.141, 289.668
671.623, 286.039
672.105, 291.975
672.587, 323.367
673.070, 368.262
673.552, 390.959
674.034, 384.633
674.516, 371.029
674.998, 367.422
675.480, 372.777
675.962, 384.527
676.444, 422.973
676.926, 427.400
677.409, 340.693
677.891, 263.479
678.373, 269.990
678.855, 334.535
679.337, 375.305
679.819, 357.416
680.301, 328.035
680.783, 317.637
681.265, 316.934
681.748, 310.805
682.230, 298.531
682.712, 289.291
683.194, 288.986
683.676, 296.326
684.158, 312.311
684.640, 344.307
685.122, 349.078
685.604, 304.623
686.087, 257.463
686.569, 232.188
687.051, 225.225
687.533, 232.719
688.015, 262.043
688.497, 287.395
688.979, 293.689
689.461, 296.891
689.943, 318.822
690.426, 350.740
690.908, 364.082
691.390, 344.809
691.872, 310.748
692.354, 282.754
692.836, 261.602
693.318, 263.613
693.800, 294.922
694.283, 328.621
694.765, 356.127
695.247, 373.316
695.729, 366.080
696.211, 318.316
696.693, 299.020
697.175, 341.727
697.657, 382.324
698.140, 383.430
698.622, 363.988
699.104, 358.412
699.586, 374.908
700.068, 383.670
700.550, 344.965
701.032, 284.344
701.514, 262.738
701.997, 277.246
702.479, 286.668
702.961, 275.135
703.443, 257.574
703.925, 252.770
704.407, 261.488
704.889, 275.182
705.371, 313.119
705.853, 329.561
706.336, 307.766
706.818, 267.668
707.300, 211.500
707.782, 147.799
708.264, 119.260
708.746, 176.607
709.228, 245.928
709.710, 267.543
710.192, 257.143
710.675, 240.375
711.157, 223.844
711.639, 207.723
712.121, 190.930
712.603, 176.660
713.085, 177.701
713.567, 196.607
714.049, 219.100
714.531, 248.912
715.014, 272.703
715.496, 276.887
715.978, 266.914
716.460, 259.414
716.942, 246.340
717.424, 251.049
717.906, 314.293
718.388, 368.361
718.870, 339.914
719.353, 256.730
719.835, 197.598
720.317, 198.201
720.799, 225.518
721.281, 238.139
721.763, 243.475
722.245, 279.334
722.727, 349.168
723.210, 392.516
723.692, 375.238
724.174, 325.453
724.656, 293.215
725.138, 283.547
725.620, 272.193
726.102, 264.814
726.584, 249.031
727.067, 203.070
727.549, 158.023
728.031, 153.549
728.513, 192.822
728.995, 231.135
729.477, 256.244
729.959, 263.686
730.441, 236.184
730.924, 191.254
731.406, 165.557
731.888, 166.979
732.370, 177.729
732.852, 182.465
733.334, 182.832
733.816, 187.625
734.298, 199.023
734.780, 195.746
735.263, 161.332
735.745, 134.061
736.227, 157.174
736.709, 216.299
737.191, 232.471
737.673, 160.775
738.155, 114.332
738.637, 127.332
739.119, 154.391
739.602, 162.758
740.084, 159.863
740.566, 170.232
741.048, 205.061
741.530, 242.635
742.012, 267.004
742.494, 278.227
742.976, 268.492
743.458, 241.822
743.941, 229.475
744.423, 246.783
744.905, 273.865
745.387, 279.389
745.869, 260.727
746.351, 252.008
746.833, 259.205
747.315, 263.844
747.797, 243.748
748.280, 230.783
748.762, 274.223
749.244, 369.479
749.726, 416.598
750.208, 358.748
750.690, 293.402
751.172, 267.223
751.654, 254.904
752.137, 217.520
752.619, 160.430
753.101, 129.463
753.583, 159.049
754.065, 212.689
754.547, 242.105
755.029, 248.170
755.511, 229.133
755.994, 184.117
756.476, 136.885
756.958, 99.816
757.440, 74.900
757.922, 68.281
758.404, 86.674
758.886, 105.078
759.368, 136.150
759.851, 151.041
760.333, 118.629
760.815, 75.760
761.297, 76.682
761.779, 130.299
762.261, 167.172
762.743, 143.283
763.225, 117.691
763.707, 133.883
764.190, 172.537
764.672, 203.266
765.154, 219.746
765.636, 232.650
766.118, 250.600
766.600, 269.951
767.082, 293.518
767.564, 316.227
768.046, 282.146
768.529, 171.682
769.011, 89.041
769.493, 120.262
769.975, 230.617
770.457, 297.617
770.939, 309.381
771.421, 302.725
771.903, 255.094
772.385, 216.188
772.868, 214.791
773.350, 232.441
773.832, 241.562
774.314, 238.430
774.796, 229.107
775.278, 211.059
775.760, 192.135
776.242, 178.654
776.724, 167.996
777.207, 154.652
777.689, 137.820
778.171, 121.682
778.653, 106.445
779.135, 97.533
779.617, 113.297
780.099, 148.980
780.581, 168.490
781.064, 163.131
781.546, 156.826
782.028, 170.002
782.510, 195.164
782.992, 202.520
783.474, 183.967
783.956, 168.105
784.438, 148.631
784.920, 141.734
785.403, 159.066
785.885, 192.119
786.367, 232.955
786.849, 286.363
787.331, 317.195
787.813, 298.381
788.295, 272.439
788.778, 264.592
789.260, 266.086
789.742, 262.873
790.224, 252.246
790.706, 240.090
791.188, 225.947
791.670, 218.178
792.152, 237.211
792.634, 273.746
793.117, 298.449
793.599, 305.561
794.081, 291.736
794.563, 251.283
795.045, 197.943
795.527, 171.650
796.009, 178.688
796.491, 178.438
796.973, 160.650
797.456, 153.889
797.938, 182.996
798.420, 225.158
798.902, 241.514
799.384, 232.174
799.866, 200.275
800.348, 96.418
800.830, 28.984
801.312, 65.287
801.795, 138.789
802.277, 180.324
802.759, 185.131
803.241, 189.184
803.723, 221.010
804.205, 242.217
804.687, 200.525
805.169, 134.490
805.652, 113.326
806.134, 136.164
806.616, 152.375
807.098, 133.299
807.580, 106.469
808.062, 124.457
808.544, 180.611
809.026, 203.297
809.508, 185.785
809.991, 180.787
810.473, 214.412
810.955, 256.059
811.437, 263.617
811.919, 235.451
812.401, 217.768
812.883, 218.574
813.365, 216.875
813.847, 212.938
814.330, 201.975
814.812, 169.682
815.294, 127.186
815.776, 111.330
816.258, 145.055
816.740, 171.066
817.222, 168.127
817.705, 151.293
818.187, 121.330
818.669, 90.260
819.151, 82.373
819.633, 104.221
820.115, 124.256
820.597, 110.207
821.079, 80.701
821.561, 56.326
822.044, 42.385
822.526, 68.248
823.008, 137.201
823.490, 190.287
823.972, 174.057
824.454, 114.848
824.936, 100.123
825.418, 135.760
825.901, 138.789
826.383, 85.609
826.865, 50.117
827.347, 82.264
827.829, 150.172
828.311, 189.283
828.793, 190.598
829.275, 195.826
829.757, 221.404
830.240, 230.057
830.722, 196.182
831.204, 152.918
831.686, 131.348
832.168, 131.061
832.650, 132.865
833.132, 130.891
833.614, 130.424
834.096, 129.135
834.579, 133.939
835.061, 163.348
835.543, 203.615
836.025, 214.607
836.507, 178.613
836.989, 140.828
837.471, 154.838
837.953, 191.729
838.435, 199.643
838.918, 182.299
839.400, 161.229
839.882, 143.049
840.364, 121.012
840.846, 83.680
841.328, 44.066
841.810, 57.988
842.292, 131.158
842.774, 173.904
843.257, 166.670
843.739, 155.600
844.221, 172.322
844.703, 201.078
845.185, 201.744
845.667, 156.512
846.149, 144.916
846.631, 201.717
847.114, 244.832
847.596, 244.061
848.078, 223.490
848.560, 203.852
849.042, 185.576
849.524, 165.023
850.006, 131.764
850.488, 108.656
850.971, 112.000
851.453, 120.416
851.935, 109.475
852.417, 89.836
852.899, 94.988
853.381, 138.922
853.863, 173.500
854.345, 148.377
854.828, 106.340
855.310, 104.723
855.792, 127.158
856.274, 127.164
856.756, 96.453
857.238, 69.184
857.720, 74.891
858.202, 97.625
858.684, 104.363
859.167, 97.771
859.649, 91.904
860.131, 88.469
860.613, 96.854
861.095, 124.271
861.577, 157.402
862.059, 172.754
862.541, 169.189
863.023, 167.576
863.506, 170.244
863.988, 166.904
864.470, 151.297
864.952, 134.162
865.434, 127.939
865.916, 130.080
866.398, 121.770
866.880, 75.084
867.362, 60.869
867.845, 122.188
868.327, 170.785
868.809, 153.518
869.291, 102.121
869.773, 62.197
870.255, 39.635
870.737, 27.686
871.219, 28.088
871.701, 34.582
872.184, 52.018
872.666, 68.365
873.148, 67.234
873.630, 51.945
874.112, 39.846
874.594, 38.502
875.076, 42.537
875.558, 50.066
876.041, 58.248
876.523, 60.143
877.005, 59.326
877.487, 69.623
877.969, 93.781
878.451, 113.992
878.933, 112.162
879.415, 95.957
879.898, 75.553
880.380, 54.891
880.862, 59.979
881.344, 94.262
881.826, 133.766
882.308, 166.451
882.790, 184.129
883.272, 162.449
883.755, 98.783
884.237, 78.236
884.719, 113.213
885.201, 130.791
885.683, 100.229
886.165, 63.770
886.647, 65.941
887.129, 100.367
887.611, 121.523
888.094, 128.873
888.576, 123.771
889.058, 95.791
889.540, 68.316
890.022, 51.631
890.504, 42.639
890.986, 34.117
891.468, 23.424
891.950, 34.188
892.433, 99.021
892.915, 145.896
893.397, 144.164
893.879, 123.783
894.361, 103.543
894.843, 87.434
895.325, 79.357
895.807, 82.635
896.289, 86.740
896.772, 73.539
897.254, 72.439
897.736, 131.201
898.218, 206.557
898.700, 221.781
899.182, 170.268
899.664, 117.557
900.146, 103.986
900.628, 104.539
901.111, 96.482
901.593, 83.867
902.075, 67.613
902.557, 52.762
903.039, 59.420
903.521, 95.082
904.003, 126.385
904.485, 105.238
904.968, 57.074
905.450, 51.730
905.932, 78.451
906.414, 78.662
906.896, 43.201
907.378, 26.348
907.860, 69.422
908.342, 138.289
908.825, 157.518
909.307, 130.037
909.789, 131.619
910.271, 168.131
910.753, 189.246
911.235, 175.041
911.717, 148.438
912.199, 130.236
912.682, 122.197
913.164, 141.039
913.646, 204.033
914.128, 224.469
914.610, 177.854
915.092, 124.383
915.574, 86.811
916.056, 68.391
916.538, 79.662
917.021, 126.848
917.503, 149.072
917.985, 121.879
918.467, 109.076
918.949, 148.715
919.431, 179.637
919.913, 144.588
920.395, 72.932
920.877, 41.807
921.360, 74.254
921.842, 88.512
922.324, 49.289
922.806, 21.672
923.288, 42.502
923.770, 78.457
924.252, 98.100
924.734, 100.135
925.216, 93.443
925.699, 66.412
926.181, 58.473
926.663, 101.584
927.145, 151.688
927.627, 189.381
928.109, 205.924
928.591, 177.320
929.073, 106.389
929.555, 60.547
930.038, 89.789
930.520, 137.889
931.002, 180.023
931.484, 208.277
931.966, 208.904
932.448, 187.252
932.930, 152.299
933.412, 107.760
933.895, 81.000
934.377, 112.951
934.859, 160.076
935.341, 166.162
935.823, 147.686
936.305, 137.994
936.787, 140.434
937.269, 138.355
937.752, 122.137
938.234, 104.590
938.716, 101.902
939.198, 109.889
939.680, 127.047
940.162, 147.053
940.644, 141.092
941.126, 105.211
941.609, 74.891
942.091, 80.143
942.573, 99.457
943.055, 85.781
943.537, 48.396
944.019, 39.143
944.501, 58.342
944.983, 64.959
945.465, 43.549
945.948, 21.553
946.430, 31.014
946.912, 59.438
947.394, 56.832
947.876, 23.998
948.358, 18.455
948.840, 49.193
949.322, 74.293
949.804, 71.982
950.287, 59.693
950.769, 60.664
951.251, 74.590
951.733, 103.555
952.215, 154.871
952.697, 167.787
953.179, 120.188
953.661, 79.125
954.143, 90.477
954.626, 126.639
955.108, 132.920
955.590, 105.785
956.072, 85.650
956.554, 69.758
957.036, 72.186
957.518, 107.652
958.000, 139.473
958.482, 137.484
958.965, 112.484
959.447, 95.469
959.929, 89.023
960.411, 81.068
960.893, 61.266
961.375, 61.053
961.857, 105.559
962.339, 153.939
962.822, 167.500
963.304, 152.912
963.786, 143.113
964.268, 144.057
964.750, 137.309
965.232, 108.084
965.714, 90.139
966.196, 102.906
966.679, 126.473
967.161, 141.682
967.643, 149.041
968.125, 153.012
968.607, 157.264
969.089, 152.627
969.571, 123.971
970.053, 103.357
970.536, 116.244
971.018, 138.609
971.500, 132.277
971.982, 97.936
972.464, 94.316
972.946, 175.658
973.428, 218.619
973.910, 179.141
974.392, 121.645
974.875, 63.609
975.357, 19.854
975.839, 16.740
976.321, 57.199
976.803, 89.637
977.285, 97.506
977.767, 105.477
978.249, 125.277
978.731, 142.330
979.214, 152.992
979.696, 151.057
980.178, 114.551
980.660, 35.707
981.142, 0.324
981.624, 77.730
982.106, 141.748
982.588, 136.289
983.070, 106.166
983.553, 84.119
984.035, 68.182
984.517, 43.514
984.999, 4.277
985.481, 16.068
985.963, 5.176
986.445, 33.041
986.927, 59.486
987.409, 78.555
987.892, 82.652
988.374, 75.594
988.856, 67.543
989.338, 61.062
989.820, 52.395
990.302, 29.377
990.784, 16.451
991.266, 37.766
991.749, 67.111
992.231, 79.486
992.713, 75.143
993.195, 63.391
993.677, 45.869
994.159, 25.670
994.641, 12.299
995.123, 33.811
995.606, 5.660
996.088, 55.803
996.570, 43.053
997.052, 12.365
997.534, 16.891
998.016, 75.150
998.498, 143.867
998.980, 106.260
999.463, 59.355
999.945, 52.412
1000.427, 80.299
1000.909, 156.336
1001.391, 258.754
1001.873, 318.895
1002.355, 308.854
1002.837, 276.010
1003.319, 225.311
1003.802, 177.783
1004.284, 143.637
1004.766, 123.432
1005.248, 125.275
1005.730, 141.410
1006.212, 141.629
1006.694, 108.475
1007.176, 85.332
1007.658, 101.832
1008.141, 124.832
1008.623, 144.543
1009.105, 149.934
1009.587, 115.676
1010.069, 54.328
1010.551, 18.883
1011.033, 31.830
1011.515, 55.715
1011.997, 83.502
1012.480, 106.779
1012.962, 120.428
1013.444, 126.264
1013.926, 123.504
1014.408, 114.994
1014.890, 111.094
1015.372, 118.666
1015.854, 119.379
1016.337, 98.471
1016.819, 76.615
1017.301, 58.479
1017.783, 51.836
1018.265, 77.701
1018.747, 124.229
1019.229, 140.965
1019.711, 103.623
1020.193, 67.553
1020.676, 41.832
1021.158, 34.523
1021.640, 61.383
1022.122, 100.766
1022.604, 133.760
1023.086, 157.582
1023.568, 172.086
1024.050, 177.301
1024.533, 173.525
1025.015, 145.686
1025.497, 127.252
1025.979, 157.289
1026.461, 187.088
1026.943, 152.348
1027.425, 72.067
1027.907, 28.588
1028.390, 46.869
1028.872, 69.982
1029.354, 89.685
1029.836, 107.680
1030.318, 127.433
1030.800, 143.338
1031.282, 146.093
1031.764, 140.581
1032.246, 143.979
1032.729, 162.175
1033.211, 176.624
1033.693, 188.983
1034.175, 191.973
1034.657, 170.463
1035.139, 150.075
1035.621, 158.767
1036.103, 184.979
1036.585, 192.934
1037.068, 173.748
1037.550, 161.582
1038.032, 174.367
1038.514, 171.924
1038.996, 119.362
1039.478, 74.149
1039.960, 85.339
1040.442, 130.509
1040.925, 157.220
1041.407, 162.201
1041.889, 162.893
1042.371, 153.746
1042.853, 149.659
1043.335, 154.226
1043.817, 163.890
1044.299, 186.935
1044.781, 204.732
1045.264, 170.638
1045.746, 73.024
1046.228, 43.013
1046.710, 86.521
1047.192, 36.280
1047.674, 106.770
1048.156, 147.950
1048.638, 161.401
1049.120, 64.072
1049.603, 109.795
1050.085, 98.188
1050.567, 84.230
1051.049, 150.095
1051.531, 68.880
1052.013, 133.476
1052.495, 139.811
1052.977, 172.686
1053.460, 148.032
1053.942, 141.200
1054.424, 192.068
1054.906, 210.925
1055.388, 179.555
1055.870, 214.284
1056.352, 131.056
1056.834, 151.346
1057.317, 216.278
1057.799, 168.062
1058.281, 144.654
1058.763, 171.488
1059.245, 129.373
1059.727, 30.567
1060.209, 1.033
1060.691, 44.619
1061.173, 80.136
1061.656, 80.585
1062.138, 70.473
1062.620, 70.673
1063.102, 75.213
1063.584, 68.573
1064.066, 57.375
1064.548, 64.707
1065.030, 88.120
1065.512, 116.474
1065.995, 144.188
1066.477, 155.344
1066.959, 138.989
1067.441, 104.047
1067.923, 38.666
1068.405, 22.694
1068.887, 3.154
1069.369, 65.336
1069.852, 107.046
1070.334, 112.117
1070.816, 113.249
1071.298, 127.051
1071.780, 130.674
1072.262, 86.997
1072.744, 39.321
1073.226, 30.196
1073.708, 49.211
1074.191, 95.627
1074.673, 152.453
1075.155, 178.351
1075.637, 159.317
1076.119, 134.995
1076.601, 121.283
1077.083, 117.203
1077.565, 135.712
1078.047, 151.661
1078.530, 129.251
1079.012, 90.673
1079.494, 87.145
1079.976, 125.936
1080.458, 148.068
1080.940, 116.900
1081.422, 93.085
1081.904, 108.277
1082.386, 120.603
1082.869, 94.106
1083.351, 56.412
1083.833, 48.679
1084.315, 69.774
1084.797, 78.832
1085.279, 54.120
1085.761, 49.188
1086.243, 89.167
1086.726, 117.534
1087.208, 108.994
1087.690, 89.294
1088.172, 78.425
1088.654, 76.235
1089.136, 84.316
1089.618, 110.468
1090.100, 112.189
1090.583, 76.033
1091.065, 55.676
1091.547, 67.309
1092.029, 86.992
1092.511, 97.676
1092.993, 107.101
1093.475, 132.925
1093.957, 173.609
1094.439, 197.036
1094.922, 202.882
1095.404, 196.037
1095.886, 176.914
1096.368, 152.931
1096.850, 126.981
1097.332, 104.560
1097.814, 94.887
1098.296, 90.396
1098.778, 57.233
1099.261, 11.392
1099.743, 27.881
1100.225, 97.760
1100.707, 147.489
1101.189, 153.538
1101.671, 137.339
1102.153, 110.390
1102.635, 84.350
1103.118, 71.973
1103.600, 71.625
1104.082, 94.438
1104.564, 122.172
1105.046, 108.865
1105.528, 59.377
1106.010, 30.811
1106.492, 52.135
1106.974, 75.810
1107.457, 57.313
1107.939, 44.099
1108.421, 88.473
1108.903, 142.688
1109.385, 148.083
1109.867, 119.799
1110.349, 108.654
1110.831, 126.150
1111.313, 132.337
1111.796, 100.873
1112.278, 78.320
1112.760, 81.429
1113.242, 92.246
1113.724, 99.834
1114.206, 108.393
1114.688, 124.921
1115.170, 148.960
1115.653, 175.259
1116.135, 216.339
1116.617, 231.657
1117.099, 215.578
1117.581, 181.948
1118.063, 126.029
1118.545, 73.818
1119.027, 45.862
1119.510, 40.507
1119.992, 58.252
1120.474, 100.866
1120.956, 116.036
1121.438, 102.459
1121.920, 92.851
1122.402, 93.485
1122.884, 103.412
1123.366, 122.547
1123.849, 143.883
1124.331, 160.730
1124.813, 170.391
1125.295, 160.999
1125.777, 139.944
1126.259, 130.709
1126.741, 131.775
1127.223, 122.722
1127.705, 99.769
1128.188, 87.966
1128.670, 110.501
1129.152, 135.017
1129.634, 123.893
1130.116, 103.398
1130.598, 107.046
1131.080, 118.791
1131.562, 106.728
1132.045, 75.613
1132.527, 59.160
1133.009, 70.864
1133.491, 79.959
1133.973, 67.344
1134.455, 59.599
1134.937, 85.283
1135.419, 103.149
1135.901, 61.349
1136.384, 1.536
1136.866, 6.091
1137.348, 53.464
1137.830, 81.311
1138.312, 53.325
1138.794, 44.340
1139.276, 71.616
1139.758, 88.801
1140.240, 75.728
1140.723, 52.232
1141.205, 34.309
1141.687, 23.716
1142.169, 28.622
1142.651, 49.419
1143.133, 60.504
1143.615, 61.889
1144.097, 62.954
1144.580, 65.418
1145.062, 60.087
1145.544, 41.439
1146.026, 26.392
1146.508, 37.485
1146.990, 62.947
1147.472, 87.329
1147.954, 105.391
1148.437, 103.561
1148.919, 85.772
1149.401, 61.762
1149.883, 36.399
1150.365, 19.276
1150.847, 15.694
1151.329, 21.479
1151.811, 50.388
1152.293, 69.480
1152.776, 42.470
1153.258, 1.408
1153.740, 23.247
1154.222, 28.533
1154.704, 16.001
1155.186, 16.343
1155.668, 51.564
1156.150, 102.806
1156.632, 133.288
1157.115, 136.100
1157.597, 118.005
1158.079, 61.307
1158.561, 13.457
1159.043, 41.368
1159.525, 122.549
1160.007, 145.737
1160.489, 103.016
1160.972, 75.142
1161.454, 64.911
1161.936, 65.671
1162.418, 76.050
1162.900, 83.890
1163.382, 80.959
1163.864, 79.167
1164.346, 99.666
1164.828, 129.894
1165.311, 148.170
1165.793, 151.477
1166.275, 118.062
1166.757, 64.716
1167.239, 45.731
1167.721, 71.934
1168.203, 102.695
1168.685, 119.094
1169.167, 123.992
1169.650, 104.970
1170.132, 91.028
1170.614, 123.386
1171.096, 155.862
1171.578, 116.188
1172.060, 36.202
1172.542, 20.593
1173.024, 97.896
1173.507, 138.761
1173.989, 125.094
1174.471, 92.297
1174.953, 23.980
1175.435, 23.998
1175.917, 24.779
1176.399, 3.895
1176.881, 52.335
1177.364, 102.996
1177.846, 82.581
1178.328, 5.013
1178.810, 37.397
1179.292, 15.275
1179.774, 32.466
1180.256, 93.217
1180.738, 103.146
1181.220, 29.025
1181.703, 52.225
1182.185, 57.741
1182.667, 28.402
1183.149, 10.968
1183.631, 0.827
1184.113, 16.780
1184.595, 33.395
1185.077, 39.757
1185.559, 37.180
1186.042, 43.987
1186.524, 75.524
1187.006, 85.979
1187.488, 21.556
1187.970, 14.121
1188.452, 49.043
1188.934, 122.366
1189.416, 148.928
1189.899, 138.889
1190.381, 97.649
1190.863, 29.599
1191.345, 11.848
1191.827, 59.964
1192.309, 65.375
1192.791, 14.767
1193.273, 7.499
1193.755, 25.824
1194.238, 53.479
1194.720, 29.896
1195.202, 4.646
1195.684, 17.794
1196.166, 69.516
1196.648, 99.434
1197.130, 105.241
1197.612, 57.638
1198.094, 13.587
1198.577, 16.446
1199.059, 61.208
1199.541, 121.004
1200.023, 111.169
1200.505, 86.060
1200.987, 64.169
1201.469, 43.795
1201.951, 12.045
1202.434, 7.966
1202.916, 16.259
1203.398, 64.669
1203.880, 91.797
1204.362, 97.271
1204.844, 88.417
1205.326, 56.969
1205.808, 43.664
1206.291, 54.037
1206.773, 75.072
1207.255, 105.857
1207.737, 115.204
1208.219, 74.819
1208.701, 17.957
1209.183, 0.948
1209.665, 8.646
1210.147, 35.386
1210.630, 65.734
1211.112, 61.408
1211.594, 32.145
1212.076, 13.854
1212.558, 17.566
1213.040, 44.607
1213.522, 120.688
1214.004, 160.466
1214.486, 74.863
1214.969, 0.803
1215.451, 34.540
1215.933, 88.852
1216.415, 68.636
1216.897, 5.947
1217.379, 32.604
1217.861, 47.145
1218.343, 8.505
1218.826, 109.114
1219.308, 152.631
1219.790, 101.427
1220.272, 51.243
1220.754, 31.026
1221.236, 40.010
1221.718, 80.692
1222.200, 127.914
1222.682, 146.621
1223.165, 145.185
1223.647, 130.357
1224.129, 111.646
1224.611, 116.595
1225.093, 130.719
1225.575, 102.011
1226.057, 32.844
1226.539, 9.343
1227.021, 91.620
1227.504, 145.137
1227.986, 107.051
1228.468, 56.746
1228.950, 4.386
1229.432, 25.974
1229.914, 8.477
1230.396, 28.931
1230.878, 48.682
1231.361, 50.030
1231.843, 20.226
1232.325, 43.144
1232.807, 71.764
1233.289, 63.961
1233.771, 51.523
1234.253, 41.072
1234.735, 20.113
1235.218, 18.446
1235.700, 53.383
1236.182, 68.880
1236.664, 63.835
1237.146, 14.486
1237.628, 35.732
1238.110, 28.479
1238.592, 4.467
1239.074, 4.287
1239.557, 22.936
1240.039, 19.713
1240.521, 34.065
1241.003, 72.442
1241.485, 96.675
1241.967, 93.414
1242.449, 45.280
1242.931, 12.264
1243.413, 23.497
1243.896, 43.884
1244.378, 36.488
1244.860, 15.956
1245.342, 11.011
1245.824, 21.165
1246.306, 58.796
1246.788, 105.929
1247.270, 104.615
1247.753, 63.269
1248.235, 34.569
1248.717, 32.238
1249.199, 21.473
1249.681, 27.789
1250.163, 56.510
1250.645, 13.108
1251.127, 22.828
1251.609, 1.137
1252.092, 27.654
1252.574, 15.987
1253.056, 7.060
1253.538, 11.468
1254.020, 60.971
1254.502, 64.564
1254.984, 16.928
1255.466, 12.617
1255.948, 52.661
1256.431, 51.503
1256.913, 5.020
1257.395, 52.843
1257.877, 59.052
1258.359, 45.590
1258.841, 22.995
1259.323, 3.652
1259.805, 7.885
1260.288, 15.957
1260.770, 5.605
1261.252, 32.890
1261.734, 37.438
1262.216, 18.521
1262.698, 13.757
1263.180, 21.642
1263.662, 18.562
1264.145, 4.004
1264.627, 8.289
1265.109, 19.157
1265.591, 26.448
1266.073, 8.161
1266.555, 47.541
1267.037, 63.618
1267.519, 57.881
1268.001, 34.884
1268.484, 0.000
##END=



