##NAMES=Petalite
##RRUFFID=R040100
##IDEAL CHEMISTRY=LiAlSi_4_O_10_
##LOCALITY=Brazil
##OWNER=RRUFF
##SOURCE=Bob Downs
##DESCRIPTION=Pale purple cut gemstone
##STATUS=The identification of this mineral has been confirmed by X-ray diffraction and chemical analysis
##URL=rruff.info/R040100
##MEASURED CHEMISTRY=Li_1.00_Al_1.00_Si_4.00_O_10_
114.254, 0.000
115.644, 6.826
117.034, 137.553
118.424, 51.615
119.813, 211.546
121.203, 398.884
122.592, 1336.637
123.981, 2110.932
125.369, 3283.306
126.758, 5091.754
128.146, 6762.052
129.534, 9262.331
130.922, 11822.825
132.309, 15705.471
133.696, 19305.322
135.083, 23584.551
136.470, 27881.357
137.857, 32555.703
139.243, 35973.254
140.630, 39103.625
142.016, 40095.781
143.401, 40232.305
144.787, 38405.695
146.172, 36427.211
147.557, 33447.117
148.942, 30631.086
150.327, 27395.096
151.711, 24447.123
153.096, 21861.738
154.480, 19176.609
155.863, 17332.322
157.247, 15152.413
158.630, 13439.366
160.013, 12041.725
161.396, 10755.640
162.779, 9776.157
164.161, 8592.864
165.544, 7867.260
166.926, 7158.244
168.308, 6430.035
169.689, 5953.283
171.070, 5373.846
172.452, 4905.529
173.833, 4689.447
175.213, 4409.988
176.594, 4132.242
177.974, 4034.812
179.354, 3615.401
180.734, 3518.010
182.114, 3257.000
183.493, 2987.640
184.872, 2806.905
186.251, 2509.125
187.630, 2380.053
189.008, 2144.424
190.387, 1881.826
191.765, 1927.278
193.143, 1758.830
194.520, 1762.500
195.898, 1667.293
197.275, 1448.317
198.652, 1494.818
200.029, 1385.861
201.405, 1285.489
202.782, 1094.702
204.158, 1065.489
205.534, 1088.819
206.909, 1150.661
208.285, 1144.967
209.660, 752.704
211.035, 540.840
212.410, 439.492
213.784, 432.680
215.159, 407.354
216.533, 364.777
217.907, 242.373
219.281, 231.271
220.654, 180.619
222.027, 131.779
223.400, 146.619
224.773, 54.302
226.146, 75.355
227.518, 56.181
228.891, 60.630
230.263, 25.239
231.634, 6.847
233.006, 35.471
234.377, 43.617
235.748, 17.531
237.119, 44.726
238.490, 13.319
239.860, 10.133
241.231, 70.790
242.601, 64.734
243.970, 110.547
245.340, 141.540
246.709, 92.447
248.079, 192.383
249.448, 232.961
250.816, 212.487
252.185, 275.525
253.553, 431.302
254.921, 503.542
256.289, 605.113
257.657, 724.072
259.024, 819.479
260.391, 1061.364
261.758, 1287.824
263.125, 1554.932
264.492, 1988.868
265.858, 2519.227
267.224, 3385.567
268.590, 4053.897
269.956, 5494.461
271.321, 6888.832
272.687, 9331.297
274.052, 12146.333
275.416, 15625.609
276.781, 19871.936
278.146, 24414.896
279.510, 28487.383
280.874, 30368.248
282.237, 30331.236
283.601, 27463.633
284.964, 23612.375
286.327, 18856.676
287.690, 15476.483
289.053, 13687.020
290.416, 12193.355
291.778, 11226.703
293.140, 10020.871
294.502, 8002.330
295.863, 6556.639
297.225, 5216.252
298.586, 4452.080
299.947, 3748.699
301.308, 3123.098
302.668, 2971.276
304.029, 2660.215
305.389, 2569.883
306.749, 2666.220
308.108, 2869.185
309.468, 3123.729
310.827, 3702.579
312.186, 5166.529
313.545, 5174.758
314.903, 5906.574
316.262, 6883.008
317.620, 7215.084
318.978, 7006.827
320.336, 6440.262
321.693, 5483.404
323.051, 4453.271
324.408, 3635.868
325.765, 2915.223
327.121, 2317.282
328.478, 1949.844
329.834, 1563.824
331.190, 1322.161
332.546, 1229.740
333.902, 1108.469
335.257, 824.509
336.612, 887.749
337.967, 783.101
339.322, 829.659
340.677, 879.513
342.031, 818.688
343.385, 1042.297
344.739, 1580.457
346.093, 1546.402
347.446, 1993.269
348.799, 2603.091
350.153, 3567.891
351.505, 4877.712
352.858, 6544.539
354.210, 8452.387
355.563, 9982.237
356.915, 10894.094
358.267, 10813.955
359.618, 9790.814
360.969, 8665.675
362.321, 7204.531
363.672, 6133.383
365.022, 5353.229
366.373, 4740.801
367.723, 4429.907
369.073, 4237.848
370.423, 4542.639
371.773, 4908.421
373.122, 5637.623
374.471, 6572.599
375.821, 8306.278
377.169, 10745.125
378.518, 12981.709
379.866, 15597.585
381.215, 17064.021
382.563, 17237.975
383.910, 15900.146
385.258, 13225.104
386.605, 10550.812
387.952, 8175.446
389.299, 6505.988
390.646, 5027.281
391.992, 4145.699
393.339, 3492.488
394.685, 2713.235
396.031, 2415.983
397.376, 1987.552
398.722, 1926.587
400.067, 1458.650
401.412, 1386.542
402.757, 1287.495
404.101, 1020.186
405.446, 1055.882
406.790, 785.428
408.134, 740.856
409.478, 608.768
410.821, 484.339
412.165, 502.213
413.508, 518.818
414.851, 279.676
416.193, 386.961
417.536, 293.029
418.878, 273.484
420.220, 182.092
421.562, 238.843
422.904, 169.447
424.245, 40.920
425.586, 209.417
426.927, 175.584
428.268, 57.449
429.609, 195.806
430.949, 141.243
432.289, 4.725
433.629, 42.862
434.969, 75.310
436.309, 12.367
437.648, 152.727
438.987, 13.198
440.326, 54.141
441.665, 4.161
443.003, 5.760
444.342, 32.607
445.680, 79.381
447.018, 93.250
448.355, 74.152
449.693, 204.674
451.030, 54.436
452.367, 71.591
453.704, 116.883
455.041, 289.417
456.377, 56.921
457.713, 184.400
459.049, 532.788
460.385, 587.178
461.721, 1027.424
463.056, 1621.768
464.391, 2294.457
465.726, 2878.272
467.061, 3048.729
468.395, 2763.557
469.730, 2025.824
471.064, 1547.038
472.398, 1539.159
473.731, 1338.732
475.065, 1559.025
476.398, 1610.940
477.731, 2233.977
479.064, 2754.761
480.397, 3704.482
481.729, 5005.143
483.062, 6919.850
484.394, 9750.390
485.725, 13723.872
487.057, 18525.299
488.389, 23271.018
489.720, 26848.352
491.051, 27543.852
492.382, 24123.070
493.712, 19351.855
495.043, 15304.195
496.373, 11049.673
497.703, 8217.107
499.032, 6389.379
500.362, 5096.477
501.691, 4238.543
503.020, 3577.729
504.349, 3037.643
505.678, 2542.021
507.007, 2347.239
508.335, 1978.692
509.663, 1688.556
510.991, 1588.028
512.319, 1427.016
513.646, 1360.760
514.973, 1194.572
516.300, 1211.729
517.627, 962.898
518.954, 1160.706
520.280, 886.434
521.607, 709.143
522.933, 787.835
524.259, 630.510
525.584, 517.334
526.910, 580.390
528.235, 486.109
529.560, 597.718
530.885, 365.442
532.209, 476.544
533.534, 452.407
534.858, 249.162
536.182, 397.228
537.506, 337.126
538.829, 266.653
540.152, 248.582
541.476, 178.104
542.799, 271.224
544.121, 275.634
545.444, 196.298
546.766, 167.643
548.088, 163.719
549.410, 109.370
550.732, 179.442
552.053, 32.854
553.375, 114.717
554.696, 77.225
556.017, 132.101
557.337, 23.832
558.658, 161.999
559.978, 225.689
561.298, 99.093
562.618, 77.766
563.938, 148.888
565.257, 60.268
566.576, 79.420
567.895, 76.363
569.214, 2.660
570.533, 63.031
571.851, 197.801
573.170, 57.488
574.488, 92.843
575.805, 195.785
577.123, 54.956
578.440, 43.635
579.758, 40.196
581.075, 43.045
582.391, 76.275
583.708, 174.650
585.024, 4.990
586.341, 17.482
587.657, 55.236
588.972, 117.254
590.288, 104.502
591.603, 200.132
592.918, 103.944
594.233, 131.129
595.548, 249.494
596.863, 310.823
598.177, 345.973
599.491, 378.085
600.805, 351.906
602.119, 351.626
603.432, 222.296
604.746, 136.150
606.059, 108.051
607.372, 211.857
608.685, 100.201
609.997, 2.902
611.309, 168.658
612.621, 136.406
613.933, 76.140
615.245, 13.299
616.557, 60.770
617.868, 40.406
619.179, 55.020
620.490, 36.389
621.801, 149.159
623.111, 28.312
624.421, 167.179
625.731, 59.652
627.041, 297.105
628.351, 109.458
629.660, 262.899
630.970, 50.242
632.279, 100.564
633.588, 420.868
634.896, 130.157
636.205, 286.430
637.513, 218.688
638.821, 307.932
640.129, 149.161
641.437, 190.376
642.744, 247.576
644.051, 294.764
645.358, 90.938
646.665, 170.094
647.972, 118.238
649.278, 308.367
650.584, 26.486
651.890, 124.588
653.196, 84.676
654.502, 150.752
655.807, 78.825
657.113, 162.891
658.418, 9.052
659.722, 125.979
661.027, 208.002
662.331, 64.021
663.636, 16.975
664.940, 37.996
666.244, 229.951
667.547, 74.105
668.851, 137.786
670.154, 44.336
671.457, 171.497
672.760, 85.318
674.062, 78.175
675.365, 160.997
676.667, 266.957
677.969, 184.759
679.271, 223.548
680.572, 218.463
681.874, 137.285
683.175, 78.094
684.476, 154.887
685.777, 242.672
687.077, 6.555
688.378, 52.186
689.678, 106.910
690.978, 131.620
692.278, 61.317
693.577, 109.996
694.877, 212.338
696.176, 123.188
697.475, 130.072
698.774, 105.315
700.072, 8.713
701.371, 215.308
702.669, 22.842
703.967, 2.136
705.265, 21.617
706.562, 26.355
707.860, 295.580
709.157, 102.204
710.454, 30.843
711.751, 159.091
713.047, 12.951
714.344, 143.504
715.640, 45.522
716.936, 137.552
718.232, 77.732
719.527, 17.623
720.823, 95.412
722.118, 1.570
723.413, 101.912
724.708, 21.693
726.002, 24.598
727.297, 17.157
728.591, 279.514
729.885, 40.775
731.179, 184.961
732.472, 212.527
733.766, 63.133
735.059, 70.081
736.352, 121.287
737.645, 50.677
738.937, 228.292
740.230, 153.538
741.522, 257.940
742.814, 82.625
744.106, 180.800
745.397, 254.932
746.689, 188.080
747.980, 267.537
749.271, 96.512
750.562, 233.583
751.853, 132.854
753.143, 263.109
754.433, 229.352
755.723, 319.590
757.013, 113.815
758.303, 167.026
759.592, 455.342
760.881, 203.348
762.170, 285.224
763.459, 272.377
764.748, 322.190
766.036, 409.505
767.325, 189.577
768.613, 394.304
769.901, 287.958
771.188, 529.531
772.476, 654.094
773.763, 406.554
775.050, 666.059
776.337, 557.368
777.624, 758.233
778.910, 961.878
780.196, 982.785
781.482, 1052.229
782.768, 1288.143
784.054, 1545.018
785.339, 1830.897
786.625, 2628.237
787.910, 3566.772
789.195, 4802.603
790.479, 6695.230
791.764, 8212.030
793.048, 9286.809
794.332, 8687.576
795.616, 7064.225
796.900, 5352.963
798.183, 3749.688
799.467, 2723.396
800.750, 1992.740
802.033, 1549.400
803.316, 1268.960
804.598, 889.256
805.880, 1031.278
807.163, 506.779
808.445, 767.031
809.726, 675.354
811.008, 509.766
812.289, 487.682
813.570, 457.559
814.851, 415.147
816.132, 460.664
817.413, 512.987
818.693, 353.192
819.973, 195.624
821.253, 437.128
822.533, 234.478
823.813, 244.794
825.092, 317.716
826.371, 250.142
827.650, 118.192
828.929, 254.811
830.208, 101.389
831.486, 353.317
832.764, 401.937
834.042, 104.285
835.320, 228.623
836.598, 159.862
837.875, 279.748
839.152, 271.957
840.429, 368.225
841.706, 151.344
842.983, 353.053
844.259, 250.068
845.536, 223.080
846.812, 300.783
848.088, 329.674
849.363, 165.963
850.639, 78.887
851.914, 318.260
853.189, 395.076
854.464, 69.678
855.739, 80.789
857.013, 327.896
858.288, 373.070
859.562, 176.904
860.836, 128.041
862.110, 133.084
863.383, 262.033
864.656, 70.209
865.930, 232.881
867.203, 160.049
868.475, 225.939
869.748, 142.348
871.020, 257.375
872.292, 94.621
873.564, 141.328
874.836, 218.934
876.108, 94.773
877.379, 234.838
878.650, 11.539
879.922, 183.545
881.192, 252.480
882.463, 291.572
883.733, 153.371
885.004, 339.389
886.274, 197.396
887.544, 147.957
888.813, 145.543
890.083, 298.350
891.352, 153.658
892.621, 125.664
893.890, 370.896
895.159, 258.936
896.427, 121.654
897.695, 81.701
898.964, 61.760
900.232, 62.904
901.499, 221.859
902.767, 157.648
904.034, 196.680
905.301, 249.604
906.568, 107.619
907.835, 200.625
909.102, 330.650
910.368, 343.492
911.634, 71.500
912.900, 174.498
914.166, 319.488
915.432, 166.467
916.697, 475.436
917.962, 171.398
919.227, 247.758
920.492, 433.311
921.757, 169.291
923.021, 276.264
924.285, 191.238
925.550, 337.207
926.813, 372.172
928.077, 291.127
929.341, 239.213
930.604, 182.213
931.867, 284.191
933.130, 399.623
934.393, 157.588
935.655, 297.545
936.918, 293.520
938.180, 148.488
939.442, 397.451
940.703, 247.404
941.965, 231.348
943.226, 298.279
944.488, 203.201
945.749, 233.303
947.009, 175.709
948.270, 232.875
949.530, 134.396
950.791, 152.270
952.051, 206.207
953.311, 236.059
954.570, 84.740
955.830, 7.428
957.089, 172.117
958.348, 96.295
959.607, 202.775
960.866, 32.434
962.124, 69.469
963.383, 29.834
964.641, 90.434
965.899, 66.344
967.156, 34.461
968.414, 65.738
969.671, 127.197
970.928, 8.756
972.185, 141.039
973.442, 43.918
974.699, 137.738
975.955, 33.389
977.211, 216.039
978.468, 213.697
979.723, 128.707
980.979, 71.865
982.234, 1.275
983.490, 70.816
984.745, 359.344
986.000, 214.232
987.254, 112.201
988.509, 203.625
989.763, 14.965
991.017, 377.428
992.271, 534.809
993.525, 804.330
994.779, 113.857
996.032, 145.768
997.285, 320.752
998.538, 365.035
999.791, 313.293
1001.044, 137.693
1002.296, 402.545
1003.548, 168.764
1004.800, 226.623
1006.052, 228.152
1007.304, 328.402
1008.555, 313.125
1009.807, 165.240
1011.058, 234.654
1012.309, 292.062
1013.559, 87.520
1014.810, 289.135
1016.060, 5.809
1017.310, 233.672
1018.560, 135.645
1019.810, 282.297
1021.060, 92.777
1022.309, 129.973
1023.558, 180.631
1024.807, 159.350
1026.056, 281.756
1027.305, 76.262
1028.553, 261.344
1029.801, 243.148
1031.049, 477.020
1032.297, 148.129
1033.545, 128.305
1034.793, 251.439
1036.040, 419.371
1037.287, 440.203
1038.534, 254.729
1039.781, 473.414
1041.027, 289.807
1042.274, 515.621
1043.520, 129.836
1044.766, 415.527
1046.012, 381.469
1047.257, 331.416
1048.503, 225.186
1049.748, 311.979
1050.993, 453.902
1052.238, 195.547
1053.483, 602.105
1054.727, 284.139
1055.971, 448.129
1057.216, 502.117
1058.459, 750.482
1059.703, 756.850
1060.947, 861.428
1062.190, 1031.193
1063.433, 982.047
1064.676, 774.975
1065.919, 691.090
1067.162, 576.357
1068.404, 448.943
1069.646, 443.320
1070.888, 457.791
1072.130, 305.129
1073.372, 632.186
1074.613, 326.062
1075.855, 441.480
1077.096, 418.461
1078.337, 200.088
1079.578, 218.969
1080.818, 568.842
1082.059, 116.355
1083.299, 464.676
1084.539, 503.559
1085.779, 478.971
1087.018, 529.695
1088.258, 622.209
1089.497, 312.578
1090.736, 280.344
1091.975, 236.787
1093.213, 288.990
1094.452, 245.791
1095.690, 72.682
1096.928, 174.031
1098.166, 87.025
1099.404, 252.902
1100.642, 224.525
1101.879, 255.385
1103.116, 5.227
1104.353, 258.068
1105.590, 71.414
1106.827, 157.807
1108.063, 33.770
1109.299, 313.021
1110.536, 39.957
1111.771, 140.744
1113.007, 181.006
1114.243, 7.342
1115.478, 13.977
1116.713, 132.123
1117.948, 68.480
1119.183, 45.398
1120.418, 109.537
1121.652, 165.020
1122.886, 620.830
1124.120, 625.318
1125.354, 508.420
1126.588, 390.939
1127.821, 397.166
1129.055, 411.484
1130.288, 472.979
1131.521, 722.275
1132.753, 665.807
1133.986, 629.086
1135.218, 587.652
1136.450, 502.801
1137.682, 617.910
1138.914, 336.189
1140.146, 479.693
1141.377, 238.395
1142.609, 234.732
1143.840, 141.934
1145.071, 120.910
1146.301, 47.842
1147.532, 51.908
1148.762, 268.787
1149.992, 105.191
1151.222, 80.248
1152.452, 167.193
1153.682, 15.006
1154.911, 437.615
1156.140, 1774.342
1157.369, 1939.932
1158.598, 1339.424
1159.827, 888.861
1161.055, 41.488
1162.284, 241.205
1163.512, 94.268
1164.740, 274.975
1165.967, 156.582
1167.195, 230.787
1168.422, 269.783
1169.650, 95.998
1170.877, 216.469
1172.103, 214.426
1173.330, 59.605
1174.557, 77.938
1175.783, 13.889
1177.009, 103.143
1178.235, 176.955
1179.461, 2.674
1180.686, 109.010
1181.912, 119.105
1183.137, 162.979
1184.362, 182.832
1185.587, 262.367
1186.811, 219.564
1188.036, 287.811
1189.260, 186.717
1190.484, 93.309
1191.708, 213.504
1192.932, 149.121
1194.155, 142.721
1195.378, 44.596
1196.602, 134.193
1197.825, 98.906
1199.047, 194.002
1200.270, 209.736
1201.492, 392.127
1202.715, 95.713
1203.937, 365.432
1205.159, 71.916
1206.380, 227.916
1207.602, 171.205
1208.823, 397.631
1210.044, 362.684
1211.265, 307.328
1212.486, 256.602
1213.707, 213.484
1214.927, 130.648
1216.147, 159.752
1217.367, 178.805
1218.587, 149.797
1219.807, 229.734
1221.027, 56.619
1222.246, 129.441
1223.465, 226.209
1224.684, 52.080
1225.903, 235.432
1227.121, 229.965
1228.340, 78.469
1229.558, 107.453
1230.776, 203.844
1231.994, 308.195
1233.212, 226.500
1234.429, 58.754
1235.646, 295.945
1236.864, 193.205
1238.081, 262.291
1239.297, 311.334
1240.514, 161.326
1241.730, 131.271
1242.947, 289.477
1244.163, 288.053
1245.378, 107.215
1246.594, 158.961
1247.810, 335.584
1249.025, 198.234
1250.240, 177.992
1251.455, 272.531
1252.670, 166.295
1253.885, 129.357
1255.099, 65.031
1256.313, 283.336
1257.527, 212.725
1258.741, 68.426
1259.955, 321.238
1261.168, 202.111
1262.382, 18.598
1263.595, 49.008
1264.808, 164.094
1266.021, 223.090
1267.233, 47.229
1268.446, 64.475
1269.658, 39.043
1270.870, 214.551
1272.082, 49.000
1273.294, 259.334
1274.505, 83.609
1275.716, 117.854
1276.928, 84.027
1278.139, 87.139
1279.349, 129.842
1280.560, 118.080
1281.770, 187.967
1282.981, 208.801
1284.191, 15.535
1285.401, 93.203
1286.610, 62.211
1287.820, 111.170
1289.029, 111.475
1290.239, 175.322
1291.448, 174.633
1292.656, 155.355
1293.865, 135.643
1295.073, 52.771
1296.282, 96.162
1297.490, 11.609
1298.698, 122.092
1299.906, 8.533
1301.113, 124.285
1302.320, 146.053
1303.528, 157.348
1304.735, 12.432
1305.942, 102.039
1307.148, 36.471
1308.355, 23.201
1309.561, 102.377
1310.767, 66.658
1311.973, 124.389
1313.179, 33.373
1314.384, 38.465
1315.590, 6.232
1316.795, 146.508
1318.000, 2.186
1319.205, 172.105
1320.410, 75.184
1321.614, 221.928
1322.819, 74.877
1324.023, 65.920
1325.227, 198.992
1326.431, 32.770
1327.634, 236.537
1328.838, 24.441
1330.041, 75.623
1331.244, 117.557
1332.447, 8.477
1333.650, 159.707
1334.852, 49.570
1336.055, 34.689
1337.257, 185.408
1338.459, 175.818
1339.661, 140.164
1340.862, 86.561
1342.064, 89.592
1343.265, 222.836
1344.466, 55.244
1345.667, 123.682
1346.868, 63.588
1348.068, 33.479
1349.269, 512.318
1350.469, 180.721
1351.669, 58.072
1352.869, 414.156
1354.069, 261.889
1355.268, 427.604
1356.468, 457.191
1357.667, 87.551
1358.866, 423.711
1360.065, 496.697
1361.263, 270.607
1362.462, 329.891
1363.660, 247.744
1364.858, 305.932
1366.056, 405.271
1367.254, 480.045
1368.451, 429.232
1369.649, 471.762
1370.846, 466.014
1372.043, 290.250
1373.240, 398.848
1374.436, 279.645
1375.633, 464.240
1376.829, 483.996
1378.025, 361.869
1379.221, 260.520
1380.417, 202.904
1381.613, 233.518
1382.808, 247.787
1384.003, 350.930
1385.199, 422.891
1386.393, 430.195
1387.588, 472.176
1388.783, 475.418
1389.977, 470.568
1391.171, 417.668
1392.365, 394.135
1393.559, 395.133
1394.753, 392.875
1395.946, 435.453
1397.140, 375.047
1398.333, 458.652
1399.526, 333.498
1400.719, 547.580
1401.911, 448.213
1403.104, 438.531
1404.296, 289.844
1405.488, 299.027
1406.680, 307.602
1407.872, 650.758
1409.063, 180.551
1410.255, 589.367
1411.446, 439.682
1412.637, 318.521
1413.828, 582.926
1415.018, 312.695
1416.209, 598.457
1417.399, 526.717
1418.589, 428.641
1419.779, 481.510
1420.969, 450.742
1422.159, 502.945
1423.348, 547.791
1424.537, 358.773
1425.726, 500.127
1426.915, 703.738
1428.104, 433.158
1429.293, 476.982
1430.481, 545.590
1431.669, 453.906
1432.857, 377.367
1434.045, 413.178
1435.233, 543.824
1436.420, 494.736
1437.608, 623.498
1438.795, 835.035
1439.982, 590.508
1441.169, 400.766
1442.355, 912.119
1443.542, 647.420
1444.728, 769.670
1445.914, 783.871
1447.100, 694.102
1448.286, 719.268
1449.472, 658.346
1450.657, 630.307
1451.842, 629.975
1453.027, 596.250
1454.212, 743.490
1455.397, 670.068
1456.581, 857.541
1457.766, 1125.898
1458.950, 1023.172
1460.134, 1047.367
1461.318, 601.576
1462.501, 783.820
1463.685, 432.109
1464.868, 290.486
1466.051, 743.633
1467.234, 340.055
1468.417, 531.658
1469.600, 231.365
1470.782, 139.186
1471.965, 308.115
1473.147, 403.262
1474.329, 82.605
1475.510, 308.254
1476.692, 352.156
1477.873, 207.160
1479.055, 422.291
1480.236, 603.553
1481.416, 233.883
1482.597, 881.297
1483.778, 691.775
1484.958, 548.330
1486.138, 381.973
1487.318, 257.729
1488.498, 250.623
1489.678, 255.174
1490.857, 471.938
1492.037, 497.430
1493.216, 378.180
1494.395, 666.217
1495.574, 433.566
1496.752, 456.244
1497.931, 465.266
1499.109, 146.547
1500.287, 402.270
1501.465, 77.371
1502.643, 193.889
1503.820, 58.885
1504.998, 271.428
1506.175, 356.596
1507.352, 463.465
1508.529, 270.127
1509.706, 286.676
1510.882, 344.234
1512.059, 442.385
1513.235, 445.342
1514.411, 311.928
1515.587, 374.076
1516.762, 11.047
1517.938, 732.051
1519.113, 204.094
1520.288, 262.199
1521.463, 0.000
##END=



