##NAMES=Petalite
##RRUFFID=R060365
##IDEAL CHEMISTRY=LiAlSi_4_O_10_
##LOCALITY=Paprok, near Kamdesh, Nuristan, Kunar Province, Afghanistan
##OWNER=RRUFF
##SOURCE=Herb Obodda
##DESCRIPTION=Colorless fragment
##STATUS=The identification of this mineral has been confirmed by X-ray diffraction and chemical analysis
##URL=rruff.info/R060365
##MEASURED CHEMISTRY=Li_1.00_Al_1.00_Si_4.00_O_10_
169.1540, 0.2004850
169.6361, 8.8271998E-02
170.1182, 0.2896880
170.6003, 1.026123
171.0825, 1.504517
171.5646, 1.679779
172.0467, 1.669083
172.5288, 0.8406220
173.0109, 0.9776310
173.4930, 3.222885
173.9752, 5.398422
174.4573, 7.306793
174.9394, 9.235184
175.4215, 11.05826
175.9036, 12.47346
176.3857, 13.75359
176.8679, 15.07451
177.3500, 16.50706
177.8321, 17.76593
178.3142, 18.90544
178.7963, 20.03159
179.2784, 21.05283
179.7606, 22.03639
180.2427, 23.45264
180.7248, 25.73044
181.2069, 28.35190
181.6890, 30.79153
182.1711, 33.01084
182.6533, 35.13351
183.1354, 37.44589
183.6175, 40.04684
184.0996, 41.93634
184.5817, 42.40559
185.0638, 42.38055
185.5460, 42.41742
186.0281, 42.62982
186.5102, 42.58160
186.9923, 41.64168
187.4744, 39.63548
187.9565, 37.14516
188.4387, 34.04373
188.9208, 30.67173
189.4029, 27.14890
189.8850, 23.52009
190.3671, 20.02185
190.8492, 17.03065
191.3314, 14.78586
191.8135, 12.79402
192.2956, 11.02677
192.7777, 9.448418
193.2598, 8.131081
193.7419, 7.090706
194.2241, 6.164230
194.7062, 4.959732
195.1883, 2.698891
195.6704, 1.074730
196.1525, 0.5522770
196.6346, 0.5283430
197.1168, 0.3284990
197.5989, 0.3410490
198.0810, 1.299576
198.5631, 2.026955
199.0452, 2.298134
199.5273, 2.659874
200.0095, 3.303917
200.4916, 4.075874
200.9737, 4.705009
201.4558, 5.051544
201.9379, 5.233505
202.4200, 5.629311
202.9022, 6.426323
203.3843, 7.078003
203.8664, 7.225533
204.3485, 7.056198
204.8306, 5.083389
205.3127, 3.852333
205.7949, 2.860062
206.2770, 0.9815520
206.7591, 2.131912
207.2412, 5.266380
207.7233, 7.750610
208.2054, 9.647690
208.6876, 11.31662
209.1697, 12.77270
209.6518, 14.17193
210.1339, 15.77028
210.6160, 17.67068
211.0981, 19.48646
211.5803, 20.89902
212.0624, 21.90977
212.5445, 22.80664
213.0266, 24.00327
213.5087, 24.90604
213.9908, 24.77270
214.4730, 23.35539
214.9551, 21.72214
215.4372, 21.13723
215.9193, 21.76033
216.4014, 22.38528
216.8836, 22.84874
217.3657, 23.08244
217.8478, 22.93798
218.3299, 22.38319
218.8120, 21.69674
219.2941, 21.23508
219.7763, 20.99986
220.2584, 21.00877
220.7405, 21.60746
221.2226, 22.21571
221.7047, 22.39781
222.1868, 22.04304
222.6690, 21.42530
223.1511, 20.98670
223.6332, 20.84686
224.1153, 20.60670
224.5974, 20.07730
225.0795, 19.53994
225.5617, 19.21101
226.0438, 19.13205
226.5259, 19.15126
227.0080, 19.03811
227.4901, 18.76736
227.9722, 18.48342
228.4544, 18.18076
228.9365, 17.83464
229.4186, 17.39999
229.9007, 16.88274
230.3828, 16.40126
230.8649, 16.13396
231.3471, 16.14906
231.8292, 16.18488
232.3113, 16.30009
232.7934, 16.37940
233.2755, 16.31308
233.7576, 16.07703
234.2398, 15.74916
234.7219, 15.45055
235.2040, 15.15100
235.6861, 14.96344
236.1682, 14.80974
236.6503, 14.79402
237.1325, 15.10425
237.6146, 15.77051
238.0967, 16.51801
238.5788, 16.92538
239.0609, 16.78640
239.5430, 16.74323
240.0252, 16.89405
240.5073, 17.10862
240.9894, 17.22883
241.4715, 17.21936
241.9536, 17.22114
242.4357, 17.46370
242.9179, 18.04320
243.4000, 18.41026
243.8821, 18.16559
244.3642, 17.84402
244.8463, 18.11607
245.3284, 19.13440
245.8106, 20.35189
246.2927, 21.15462
246.7748, 21.53636
247.2569, 21.77172
247.7390, 21.78007
248.2211, 21.70776
248.7033, 21.68875
249.1854, 21.73522
249.6675, 21.95597
250.1496, 22.47588
250.6317, 23.27799
251.1138, 24.32698
251.5960, 25.78756
252.0781, 27.43031
252.5602, 29.09173
253.0423, 30.78554
253.5244, 32.09100
254.0065, 32.45724
254.4887, 32.15873
254.9708, 31.79467
255.4529, 31.41563
255.9350, 31.03226
256.4171, 30.81073
256.8992, 30.88174
257.3813, 30.68797
257.8635, 29.31865
258.3456, 27.41619
258.8277, 26.13262
259.3098, 26.13498
259.7919, 26.76812
260.2740, 27.04378
260.7562, 26.83495
261.2383, 26.69003
261.7204, 26.86766
262.2025, 27.37171
262.6846, 28.39032
263.1667, 30.04480
263.6489, 31.98859
264.1310, 33.70406
264.6131, 35.01031
265.0952, 36.76083
265.5773, 39.50814
266.0594, 42.84310
266.5416, 46.49450
267.0237, 50.41850
267.5058, 54.54440
267.9879, 58.71287
268.4700, 62.79796
268.9521, 67.48074
269.4343, 72.81226
269.9164, 78.97128
270.3985, 86.25843
270.8806, 94.78133
271.3627, 104.1230
271.8448, 113.6741
272.3270, 123.3414
272.8091, 133.8976
273.2912, 144.9146
273.7733, 157.3753
274.2554, 172.1869
274.7375, 189.5689
275.2197, 208.6311
275.7018, 228.5005
276.1839, 248.9620
276.6660, 271.0928
277.1481, 295.7625
277.6302, 321.7026
278.1124, 348.4999
278.5945, 376.0609
279.0766, 403.7317
279.5587, 431.3091
280.0408, 459.0656
280.5229, 484.9472
281.0051, 510.5392
281.4872, 532.3353
281.9693, 550.0369
282.4514, 562.7965
282.9335, 568.7927
283.4156, 565.9464
283.8978, 554.1436
284.3799, 537.6329
284.8620, 513.9389
285.3441, 487.4724
285.8262, 458.3156
286.3083, 427.5811
286.7905, 396.9906
287.2726, 367.5500
287.7547, 339.3527
288.2368, 313.9583
288.7189, 291.5306
289.2010, 272.1595
289.6832, 255.9409
290.1653, 242.7152
290.6474, 232.3672
291.1295, 225.0859
291.6116, 220.3649
292.0938, 216.4591
292.5759, 215.3428
293.0580, 212.0609
293.5401, 205.5093
294.0222, 196.5888
294.5043, 186.0759
294.9865, 174.2697
295.4686, 161.6281
295.9507, 149.1178
296.4328, 136.1359
296.9149, 124.5161
297.3970, 114.6271
297.8792, 105.8860
298.3613, 97.82554
298.8434, 90.27833
299.3255, 83.47276
299.8076, 77.81831
300.2897, 73.51873
300.7719, 70.01993
301.2540, 67.28797
301.7361, 65.18547
302.2182, 63.72978
302.7003, 62.87441
303.1824, 62.37691
303.6646, 61.84780
304.1467, 61.01957
304.6288, 61.17771
305.1109, 62.64209
305.5930, 64.73972
306.0751, 67.25176
306.5573, 70.13586
307.0394, 73.39328
307.5215, 76.96458
308.0036, 80.84116
308.4857, 85.55282
308.9678, 91.21087
309.4500, 97.66165
309.9321, 104.9032
310.4142, 112.9603
310.8963, 121.7863
311.3784, 131.3274
311.8605, 141.6930
312.3427, 153.4993
312.8248, 167.2081
313.3069, 182.1874
313.7890, 198.7727
314.2711, 216.4038
314.7532, 234.8347
315.2354, 253.9080
315.7175, 273.0961
316.1996, 290.6294
316.6817, 306.3179
317.1638, 320.5260
317.6459, 335.1685
318.1281, 347.6170
318.6102, 355.6375
319.0923, 358.4926
319.5744, 356.6489
320.0565, 350.7126
320.5386, 340.2073
321.0208, 326.3243
321.5029, 307.7460
321.9850, 287.4469
322.4671, 266.6163
322.9492, 245.6589
323.4313, 225.0287
323.9135, 204.8388
324.3956, 184.9283
324.8777, 166.4423
325.3598, 149.2157
325.8419, 133.5192
326.3240, 119.5270
326.8062, 107.1350
327.2883, 95.94083
327.7704, 85.60270
328.2525, 76.14607
328.7346, 67.63724
329.2167, 60.39778
329.6989, 53.81955
330.1810, 47.81123
330.6631, 42.32694
331.1452, 37.39413
331.6273, 33.03882
332.1094, 29.17925
332.5916, 25.58466
333.0737, 22.36670
333.5558, 19.24718
334.0379, 16.08347
334.5200, 13.01631
335.0021, 10.19139
335.4843, 7.646271
335.9664, 5.375839
336.4485, 3.415092
336.9306, 1.827263
337.4127, 0.3530040
337.8948, 1.156563
338.3770, 2.478703
338.8591, 3.380524
339.3412, 3.899746
339.8233, 4.342274
340.3055, 5.178455
340.7876, 6.516460
341.2697, 7.108154
341.7518, 6.198959
342.2339, 5.233093
342.7160, 4.808117
343.1982, 4.780197
343.6803, 4.732895
344.1624, 4.421490
344.6445, 3.858208
345.1266, 3.152153
345.6087, 2.591869
346.0909, 1.349457
346.5730, 1.153717
347.0551, 4.268265
347.5372, 7.107910
348.0193, 9.275192
348.5014, 11.23937
348.9836, 13.71755
349.4657, 16.50417
349.9478, 20.48298
350.4299, 26.34981
350.9120, 33.25915
351.3941, 40.56512
351.8763, 48.11899
352.3584, 56.41362
352.8405, 65.98550
353.3226, 76.89619
353.8047, 88.23708
354.2868, 99.99513
354.7690, 112.0600
355.2511, 124.6830
355.7332, 137.7112
356.2153, 150.2223
356.6974, 162.2324
357.1795, 173.3115
357.6617, 181.9512
358.1438, 188.2330
358.6259, 191.6392
359.1080, 191.7815
359.5901, 189.1687
360.0722, 184.1326
360.5544, 176.1275
361.0365, 166.4224
361.5186, 156.5291
362.0007, 146.5009
362.4828, 136.3419
362.9649, 125.4167
363.4471, 114.6974
363.9292, 105.2754
364.4113, 97.38664
364.8934, 90.29964
365.3755, 83.31518
365.8576, 76.56470
366.3398, 70.89815
366.8219, 66.76283
367.3040, 63.38960
367.7861, 59.76020
368.2682, 55.94127
368.7503, 52.91570
369.2325, 51.42538
369.7146, 50.84577
370.1967, 50.03568
370.6788, 48.81120
371.1609, 47.90899
371.6430, 47.96143
372.1252, 48.81592
372.6073, 49.96252
373.0894, 51.41251
373.5715, 53.07954
374.0536, 54.59900
374.5357, 56.11911
375.0179, 58.65088
375.5000, 62.81806
375.9821, 68.18939
376.4642, 73.63026
376.9463, 78.74107
377.4284, 84.74183
377.9106, 92.16299
378.3927, 100.7389
378.8748, 110.2234
379.3569, 120.6307
379.8390, 131.2973
380.3211, 141.4749
380.8033, 151.0980
381.2854, 160.4535
381.7675, 171.1134
382.2496, 180.3434
382.7317, 186.1937
383.2138, 188.5021
383.6960, 187.8336
384.1781, 184.4695
384.6602, 178.4718
385.1423, 170.5321
385.6244, 159.9237
386.1065, 148.5882
386.5887, 136.6770
387.0708, 124.6010
387.5529, 112.8109
388.0350, 101.4739
388.5171, 90.77925
388.9992, 81.09189
389.4814, 72.75745
389.9635, 65.09315
390.4456, 57.86436
390.9277, 51.43830
391.4098, 46.24944
391.8919, 42.28421
392.3741, 39.00974
392.8562, 35.92914
393.3383, 33.04295
393.8204, 30.25988
394.3025, 27.37807
394.7846, 24.79327
395.2668, 22.71410
395.7489, 20.99483
396.2310, 19.39599
396.7131, 17.79276
397.1952, 16.21827
397.6773, 14.73990
398.1595, 13.28106
398.6416, 12.00525
399.1237, 11.02333
399.6058, 10.24723
400.0879, 9.584438
400.5700, 8.981030
401.0522, 8.398506
401.5343, 7.812954
402.0164, 7.244644
402.4985, 6.632225
402.9806, 5.782726
403.4627, 5.080135
403.9449, 4.856430
404.4270, 4.942463
404.9091, 4.869434
405.3912, 4.312374
405.8733, 3.426189
406.3554, 2.710819
406.8376, 2.226944
407.3197, 1.746376
407.8018, 0.8596800
408.2839, 7.3276997E-02
408.7660, 0.1036680
409.2481, 1.261070
409.7303, 2.461662
410.2124, 2.433342
410.6945, 1.269844
411.1766, 0.4768600
411.6587, 0.5978740
412.1408, 0.8886680
412.6230, 0.5560650
413.1051, 0.3046800
413.5872, 0.9838640
414.0693, 1.065731
414.5514, 0.8279190
415.0335, 0.6390530
415.5157, 0.5055310
415.9978, 0.5972940
416.4799, 1.239098
416.9620, 2.154484
417.4441, 2.500000
417.9262, 1.871098
418.4084, 1.166531
418.8905, 0.9366230
419.3726, 1.026501
419.8547, 1.009998
420.3368, 0.7124290
420.8189, 0.3535190
421.3011, 0.3216290
421.7832, 0.7153170
422.2653, 0.9941600
422.7474, 1.062599
423.2295, 1.019012
423.7116, 0.9105870
424.1938, 0.7596740
424.6759, 0.6374130
425.1580, 0.6147730
425.6401, 0.6799740
426.1222, 0.6123120
426.6043, 0.2423860
427.0865, 4.1958001E-02
427.5686, 8.5975997E-02
428.0507, 5.0349999E-03
428.5328, 3.8920999E-02
429.0149, 1.5915001E-02
429.4970, 0.1228750
429.9792, 0.2067870
430.4613, 0.2948070
430.9434, 0.2920570
431.4255, 7.2590001E-03
431.9076, 0.2051320
432.3897, 1.7395001E-02
432.8719, 0.5677680
433.3540, 1.101109
433.8361, 1.357304
434.3182, 1.358353
434.8003, 1.238487
435.2824, 0.8313560
435.7646, 0.5668330
436.2467, 0.6333810
436.7288, 0.8385850
437.2109, 0.9585760
437.6930, 0.9216540
438.1751, 0.8893740
438.6573, 1.146755
439.1394, 1.732567
439.6215, 2.019508
440.1036, 1.534496
440.5857, 1.174057
441.0678, 1.690762
441.5500, 2.861580
442.0321, 3.821434
442.5142, 4.034641
442.9963, 3.803329
443.4784, 3.620422
443.9605, 3.474697
444.4427, 3.475857
444.9248, 3.794930
445.4069, 4.240829
445.8890, 4.432827
446.3711, 4.209911
446.8532, 4.142090
447.3354, 4.743351
447.8175, 5.703812
448.2996, 6.342758
448.7817, 6.495995
449.2638, 6.390537
449.7459, 6.169636
450.2281, 5.823385
450.7102, 5.804070
451.1923, 6.417112
451.6744, 7.104984
452.1565, 7.499153
452.6386, 7.668774
453.1208, 7.855343
453.6029, 8.178102
454.0850, 8.623096
454.5671, 9.151924
455.0492, 9.731697
455.5313, 10.45707
456.0135, 11.49776
456.4956, 12.57185
456.9777, 13.29093
457.4598, 13.71559
457.9419, 14.41469
458.4240, 15.99397
458.9062, 18.46631
459.3883, 20.73243
459.8704, 22.69236
460.3525, 24.55249
460.8346, 25.90488
461.3167, 27.34827
461.7989, 29.58893
462.2810, 32.90657
462.7631, 37.09435
463.2452, 41.91087
463.7273, 47.40040
464.2094, 53.26521
464.6916, 59.64259
465.1737, 66.25168
465.6558, 73.52367
466.1379, 80.97089
466.6200, 87.21445
467.1021, 91.85915
467.5843, 94.64265
468.0664, 94.87251
468.5485, 92.39039
469.0306, 88.39639
469.5127, 82.73798
469.9948, 76.24981
470.4770, 70.16570
470.9591, 64.34835
471.4412, 59.47244
471.9233, 55.75035
472.4054, 53.28196
472.8875, 52.45689
473.3697, 53.39022
473.8518, 55.17257
474.3339, 56.99492
474.8160, 58.87794
475.2981, 61.37455
475.7802, 64.64369
476.2624, 68.44321
476.7445, 72.52947
477.2266, 77.05752
477.7087, 82.27279
478.1908, 88.32401
478.6729, 95.24000
479.1551, 102.9618
479.6372, 111.1842
480.1193, 121.1128
480.6014, 132.8860
481.0835, 146.0542
481.5656, 160.0145
482.0478, 175.1005
482.5299, 192.0283
483.0120, 211.0432
483.4941, 232.5849
483.9762, 257.6205
484.4583, 285.8685
484.9405, 318.5118
485.4226, 355.8414
485.9047, 397.2484
486.3868, 442.0964
486.8689, 490.3821
487.3510, 542.1539
487.8332, 598.8116
488.3153, 659.1077
488.7974, 720.1140
489.2795, 784.3751
489.7616, 842.4745
490.2437, 892.3563
490.7259, 931.4228
491.2080, 954.3638
491.6901, 960.0807
492.1722, 949.1444
492.6543, 918.7716
493.1364, 871.8411
493.6186, 814.9807
494.1007, 747.8974
494.5828, 677.4597
495.0649, 610.0393
495.5470, 545.6773
496.0291, 487.1350
496.5113, 434.4646
496.9934, 387.3871
497.4755, 346.4140
497.9576, 310.8068
498.4397, 279.0416
498.9218, 250.6281
499.4040, 225.4450
499.8861, 203.6697
500.3682, 186.5201
500.8503, 171.0602
501.3324, 157.2709
501.8145, 144.9025
502.2967, 133.8252
502.7788, 123.9746
503.2609, 115.2726
503.7430, 107.7365
504.2251, 101.1483
504.7072, 94.68224
505.1894, 88.02870
505.6715, 82.16666
506.1536, 77.81294
506.6357, 74.00820
507.1178, 70.06119
507.5999, 65.88829
508.0821, 61.84118
508.5642, 57.99920
509.0463, 54.49339
509.5284, 51.82724
510.0105, 50.20804
510.4926, 48.66610
510.9748, 46.59232
511.4569, 44.18740
511.9390, 41.93940
512.4211, 39.98024
512.9032, 38.01014
513.3853, 35.64923
513.8674, 33.24789
514.3495, 31.51573
514.8317, 30.59537
515.3138, 29.97001
515.7959, 29.11788
516.2780, 28.01143
516.7601, 27.05303
517.2422, 26.34243
517.7244, 25.63764
518.2065, 24.91445
518.6886, 24.13940
519.1707, 23.26980
519.6528, 22.27090
520.1349, 21.11052
520.6171, 19.64674
521.0992, 17.60272
521.5813, 16.45135
522.0634, 17.05519
522.5455, 17.59561
523.0276, 17.49173
523.5098, 16.93537
523.9919, 16.24785
524.4740, 15.53185
524.9561, 14.84839
525.4382, 14.29049
525.9203, 13.86435
526.4025, 13.45622
526.8846, 13.06594
527.3667, 12.64821
527.8488, 12.14303
528.3309, 11.56677
528.8130, 11.00794
529.2952, 10.38026
529.7773, 9.866779
530.2594, 9.817146
530.7415, 10.10451
531.2236, 10.04492
531.7057, 9.241600
532.1879, 8.082706
532.6700, 7.403605
533.1521, 7.441322
533.6342, 7.483028
534.1163, 7.541157
534.5984, 7.575584
535.0806, 7.637093
535.5627, 7.689032
536.0448, 7.581717
536.5269, 7.161957
537.0090, 6.517719
537.4911, 6.076130
537.9733, 5.936192
538.4554, 5.817776
538.9375, 5.683193
539.4196, 5.581678
539.9017, 5.630554
540.3839, 5.719288
540.8660, 5.568233
541.3481, 4.814735
541.8302, 3.834229
542.3123, 3.606682
542.7944, 4.230816
543.2766, 4.634575
543.7587, 4.292465
544.2408, 3.595636
544.7229, 3.071613
545.2050, 2.726532
545.6871, 2.557243
546.1693, 2.607651
546.6514, 2.804728
547.1335, 3.215929
547.6156, 3.761696
548.0977, 3.979815
548.5798, 3.519485
549.0620, 2.671146
549.5441, 2.328888
550.0262, 3.102242
550.5083, 3.552307
550.9904, 3.603785
551.4725, 3.384865
551.9547, 2.880560
552.4368, 2.179121
552.9189, 1.473116
553.4010, 0.8703120
553.8831, 0.4162960
554.3652, 0.3826180
554.8474, 1.002100
555.3295, 1.456013
555.8116, 1.346189
556.2937, 1.127041
556.7758, 1.183393
557.2579, 1.508736
557.7401, 1.695902
558.2222, 1.337656
558.7043, 0.7575440
559.1864, 0.5305630
559.6685, 0.6711200
560.1506, 0.8764270
560.6328, 1.029022
561.1149, 1.127510
561.5970, 1.167671
562.0791, 1.159163
562.5612, 1.064436
563.0433, 0.8336220
563.5255, 0.5496330
564.0076, 0.2185840
564.4897, 0.1128230
564.9718, 0.3140070
565.4539, 0.2948060
565.9360, 0.1064000
566.4182, 9.1233999E-02
566.9003, 0.3755360
567.3824, 0.5148470
567.8645, 0.3418580
568.3466, 0.1656110
568.8287, 0.2517810
569.3109, 0.5288470
569.7930, 0.6817840
570.2751, 0.4469590
570.7572, 3.6308002E-02
571.2393, 7.2731003E-02
571.7214, 0.1470340
572.2036, 0.3343510
572.6857, 0.3397310
573.1678, 0.3071650
573.6499, 0.4768390
574.1320, 0.8412650
574.6141, 0.9671780
575.0963, 0.5340670
575.5784, 2.4378000E-02
576.0605, 0.4244900
576.5426, 0.6345210
577.0247, 0.5197580
577.5068, 3.0336000E-02
577.9890, 0.6253010
578.4711, 0.4560550
578.9532, 1.128143
579.4353, 1.794724
579.9174, 0.8220520
580.3995, 0.2253950
580.8817, 0.6304300
581.3638, 0.5433220
581.8459, 0.3368680
582.3280, 0.1747170
582.8101, 5.5546001E-02
583.2922, 2.9612999E-02
583.7744, 8.2190000E-02
584.2565, 6.0917001E-02
584.7386, 0.1275220
585.2207, 0.2639430
585.7029, 0.1385350
586.1850, 0.1550030
586.6671, 0.3766420
587.1492, 0.4256520
587.6313, 0.4474140
588.1135, 0.6507000
588.5956, 0.8978200
589.0777, 0.7740100
589.5598, 0.1625900
590.0419, 0.4637150
590.5240, 0.5699710
591.0062, 0.1248320
591.4883, 0.1196370
591.9704, 8.8999003E-02
592.4525, 0.1678160
592.9346, 0.2841240
593.4167, 0.8102340
593.8989, 0.7965010
594.3810, 0.1487520
594.8631, 0.5762940
595.3452, 0.8322010
595.8273, 0.6553440
596.3094, 0.3571740
596.7916, 0.2099460
597.2737, 0.5646610
597.7558, 0.2320540
598.2379, 0.2881320
598.7200, 0.4357220
599.2021, 0.1162620
599.6843, 0.2167700
600.1664, 0.3594360
600.6485, 0.3664250
601.1306, 0.3507440
601.6127, 0.3008060
602.0948, 7.6959999E-03
602.5770, 0.8039610
603.0591, 1.779886
603.5412, 2.068802
604.0233, 1.014511
604.5054, 0.3284230
604.9875, 0.2775670
605.4697, 0.3730510
605.9518, 0.1504480
606.4339, 0.2261070
606.9160, 0.1799220
607.3981, 0.6962620
607.8802, 1.885571
608.3624, 2.323891
608.8445, 1.919909
609.3266, 1.446699
609.8087, 0.9017980
610.2908, 0.4764290
610.7729, 0.3010180
611.2551, 0.3440820
611.7372, 0.5313780
612.2193, 0.9713590
612.7014, 1.391079
613.1835, 1.617579
613.6656, 1.676262
614.1478, 1.592415
614.6299, 1.374039
615.1120, 1.096416
615.5941, 0.7921140
616.0762, 0.4595090
616.5583, 0.5012530
617.0405, 1.587500
617.5226, 2.206198
618.0047, 1.724335
618.4868, 0.9013960
618.9689, 0.4631200
619.4510, 0.5205940
619.9332, 0.7619230
620.4153, 1.036987
620.8974, 1.314396
621.3795, 1.428930
621.8616, 1.361109
622.3438, 1.224821
622.8259, 0.9911650
623.3080, 0.7726270
623.7901, 0.7299270
624.2722, 0.8684310
624.7543, 1.015797
625.2365, 1.165188
625.7186, 1.273790
626.2007, 1.249620
626.6828, 1.152821
627.1649, 1.165361
627.6470, 1.365654
628.1292, 1.643778
628.6113, 1.842405
629.0934, 1.990074
629.5755, 1.938316
630.0576, 1.316729
630.5397, 0.8897840
631.0219, 1.061687
631.5040, 1.494690
631.9861, 1.701231
632.4682, 1.535707
632.9503, 1.293190
633.4324, 1.169111
633.9146, 1.174122
634.3967, 1.462286
634.8788, 2.112028
635.3609, 2.622026
635.8430, 2.623175
636.3251, 2.282925
636.8073, 2.034243
637.2894, 1.980265
637.7715, 1.891993
638.2536, 1.572086
638.7357, 1.261066
639.2178, 1.199694
639.7000, 1.343485
640.1821, 1.530605
640.6642, 1.644787
641.1463, 1.686735
641.6284, 1.702105
642.1105, 1.681702
642.5927, 1.722506
643.0748, 1.900858
643.5569, 2.044430
644.0390, 2.012102
644.5211, 1.876347
645.0032, 1.830999
645.4854, 2.010609
645.9675, 2.085876
646.4496, 1.657927
646.9317, 0.9970190
647.4138, 0.6606030
647.8959, 0.6958070
648.3781, 0.8319590
648.8602, 0.8718400
649.3423, 0.8483980
649.8244, 0.9625780
650.3065, 1.519865
650.7886, 1.674232
651.2708, 0.8807410
651.7529, 0.1453320
652.2350, 0.3004650
652.7171, 1.101097
653.1992, 1.823362
653.6813, 2.000423
654.1635, 1.818289
654.6456, 1.518707
655.1277, 1.130863
655.6098, 0.9716660
656.0919, 1.145441
656.5740, 1.388321
657.0562, 1.538881
657.5383, 1.561449
658.0204, 1.405949
658.5025, 0.7722260
658.9846, 0.3763940
659.4667, 0.5266780
659.9489, 0.9341430
660.4310, 1.463806
660.9131, 1.974400
661.3952, 2.112097
661.8773, 1.550047
662.3594, 0.5486150
662.8416, 2.9840000E-02
663.3237, 0.1259460
663.8058, 5.5999998E-03
664.2879, 0.5225790
664.7700, 0.9964470
665.2521, 0.9942320
665.7343, 0.6416030
666.2164, 0.4602410
666.6985, 0.6948700
667.1806, 1.010023
667.6627, 1.178047
668.1448, 1.253809
668.6270, 1.340870
669.1091, 1.463089
669.5912, 1.603712
670.0733, 1.759274
670.5554, 1.911217
671.0375, 1.925064
671.5197, 1.612482
672.0018, 1.474936
672.4839, 1.762939
672.9660, 2.058664
673.4481, 2.068462
673.9302, 1.823809
674.4124, 1.525526
674.8945, 1.283703
675.3766, 1.024849
675.8587, 0.5363500
676.3408, 8.0537997E-02
676.8229, 0.2978420
677.3051, 4.0679999E-02
677.7872, 0.5577260
678.2693, 0.9682330
678.7514, 1.264925
679.2335, 1.351578
679.7156, 0.9310680
680.1978, 0.7211990
680.6799, 0.9744300
681.1620, 1.363220
681.6441, 1.710537
682.1262, 1.941074
682.6083, 1.896734
683.0905, 1.382160
683.5726, 0.7657700
684.0547, 0.9200270
684.5368, 1.841753
685.0189, 2.221796
685.5010, 1.634855
685.9832, 0.8617840
686.4653, 0.5235210
686.9474, 0.5587120
687.4295, 0.6106030
687.9116, 0.6950050
688.3937, 0.7589630
688.8759, 0.8316440
689.3580, 0.8531610
689.8401, 0.7015800
690.3222, 0.4198420
690.8043, 0.1821440
691.2864, 8.8684000E-02
691.7686, 0.1634850
692.2507, 0.6014520
692.7328, 1.547314
693.2149, 1.869534
693.6970, 1.002949
694.1791, 8.3021000E-02
694.6613, 5.3790002E-03
695.1434, 0.4227580
695.6255, 0.6829610
696.1076, 0.6476760
696.5897, 0.4881570
697.0718, 0.1194340
697.5540, 0.2349260
698.0361, 0.2349640
698.5182, 7.8690000E-02
699.0003, 0.3512210
699.4824, 0.3559820
699.9645, 0.2303300
700.4467, 0.3533330
700.9288, 0.8648740
701.4109, 1.096966
701.8930, 0.8690760
702.3751, 0.5243300
702.8572, 0.1019290
703.3394, 0.2768520
703.8215, 0.3777080
704.3036, 9.7473003E-02
704.7857, 0.2318940
705.2678, 0.5105820
705.7499, 0.6758440
706.2321, 0.5046460
706.7142, 8.3143003E-02
707.1963, 8.7641001E-02
707.6784, 0.2752610
708.1605, 0.9037880
708.6426, 1.299768
709.1248, 1.508591
709.6069, 1.291946
710.0890, 4.1496001E-02
710.5711, 0.8754670
711.0532, 0.7880120
711.5353, 0.2107960
712.0175, 0.2038520
712.4996, 0.3262750
712.9817, 0.3753970
713.4638, 0.5143490
713.9459, 0.6471060
714.4280, 0.6243380
714.9102, 0.4607050
715.3923, 0.2258360
715.8744, 6.4245000E-02
716.3565, 0.2932050
716.8386, 0.2705970
717.3207, 5.2779999E-02
717.8029, 0.3095760
718.2850, 0.4413450
718.7671, 0.5711380
719.2492, 0.7786690
719.7313, 0.9643970
720.2134, 1.025591
720.6956, 0.9357590
721.1777, 0.7723010
721.6598, 0.4952640
722.1419, 0.2510470
722.6240, 0.2308500
723.1061, 0.3870350
723.5883, 0.5364510
724.0704, 0.6257320
724.5525, 0.7993980
725.0346, 0.8737680
725.5167, 1.098932
725.9988, 1.250820
726.4810, 1.380724
726.9631, 1.355448
727.4452, 0.9847970
727.9273, 0.6017020
728.4094, 0.4848180
728.8915, 0.5925100
729.3737, 0.6952420
729.8558, 0.7040120
730.3379, 0.6351390
730.8200, 0.4590890
731.3021, 0.2227800
731.7842, 4.5258999E-02
732.2664, 5.1525000E-02
732.7485, 8.0169998E-02
733.2306, 7.0316002E-02
733.7127, 2.2730000E-02
734.1948, 0.4005370
734.6769, 1.555214
735.1591, 2.137604
735.6412, 1.583017
736.1233, 0.9979000
736.6054, 0.9036410
737.0875, 1.195204
737.5696, 1.658068
738.0518, 2.260271
738.5339, 2.815374
739.0160, 3.178135
739.4981, 3.392094
739.9802, 3.522957
740.4623, 3.581127
740.9445, 3.533688
741.4266, 3.322016
741.9087, 3.195908
742.3908, 3.650946
742.8729, 4.884163
743.3550, 5.856627
743.8372, 6.555326
744.3193, 6.988770
744.8014, 6.993666
745.2835, 6.834557
745.7656, 6.798502
746.2477, 6.922127
746.7299, 7.045156
747.2120, 6.992825
747.6941, 6.959808
748.1762, 7.197735
748.6583, 7.645948
749.1404, 8.143503
749.6226, 8.647461
750.1047, 9.057985
750.5868, 9.243835
751.0689, 9.236382
751.5510, 9.437862
752.0331, 10.22435
752.5153, 10.47476
752.9974, 9.510862
753.4795, 8.409796
753.9616, 7.852802
754.4437, 7.729418
754.9258, 7.591539
755.4080, 7.261995
755.8901, 6.932611
756.3722, 6.714783
756.8543, 6.585022
757.3364, 6.558519
757.8185, 6.617231
758.3007, 6.721567
758.7828, 6.868515
759.2649, 6.911131
759.7470, 6.415108
760.2291, 5.137808
760.7112, 4.527859
761.1934, 5.096270
761.6755, 5.550461
762.1576, 5.018751
762.6397, 4.175379
763.1218, 3.875698
763.6039, 4.228262
764.0861, 4.742075
764.5682, 5.437424
765.0503, 6.046967
765.5324, 6.328960
766.0145, 6.390278
766.4966, 6.442247
766.9788, 6.557405
767.4609, 6.744068
767.9430, 7.012321
768.4251, 7.301861
768.9072, 7.715189
769.3893, 8.370649
769.8715, 8.630484
770.3536, 7.978928
770.8357, 7.371870
771.3178, 7.911213
771.7999, 9.337872
772.2820, 10.30807
772.7642, 10.46922
773.2463, 10.54108
773.7284, 10.69971
774.2105, 10.84714
774.6926, 10.91975
775.1747, 10.93757
775.6569, 10.93212
776.1390, 10.92775
776.6211, 10.89137
777.1032, 10.85091
777.5853, 10.75921
778.0674, 10.25190
778.5496, 9.245892
779.0317, 8.323742
779.5138, 7.743299
779.9959, 7.431028
780.4780, 7.280016
780.9601, 7.342928
781.4423, 7.357416
781.9244, 7.209738
782.4065, 7.153072
782.8886, 7.414471
783.3707, 7.717390
783.8528, 7.649935
784.3350, 7.264271
784.8171, 7.093012
785.2992, 7.454897
785.7813, 8.191961
786.2634, 9.240093
786.7455, 10.48848
787.2277, 11.52699
787.7098, 12.27679
788.1919, 13.05430
788.6740, 14.07785
789.1561, 15.34556
789.6382, 16.87518
790.1204, 18.79865
790.6025, 20.64407
791.0846, 22.49608
791.5667, 24.18129
792.0488, 25.68578
792.5309, 26.97748
793.0131, 28.03182
793.4952, 28.89522
793.9773, 29.13089
794.4594, 28.44033
794.9415, 27.11704
795.4236, 25.20644
795.9058, 22.92127
796.3879, 20.60448
796.8700, 18.39617
797.3521, 16.41263
797.8342, 14.83044
798.3163, 13.57810
798.7985, 12.22964
799.2806, 10.75691
799.7627, 9.430975
800.2448, 8.277874
800.7269, 7.341803
801.2090, 6.807880
801.6912, 6.553328
802.1733, 5.894011
802.6554, 4.318203
803.1375, 3.148479
803.6196, 2.823347
804.1017, 2.811104
804.5839, 2.936089
805.0660, 3.026230
805.5481, 2.704418
806.0302, 1.825670
806.5123, 1.112478
806.9944, 1.555954
807.4766, 2.630428
807.9587, 3.013582
808.4408, 2.719736
808.9229, 2.452152
809.4050, 2.491398
809.8871, 2.573215
810.3693, 2.421995
810.8514, 2.041039
811.3335, 1.782515
811.8156, 1.740854
812.2977, 1.663046
812.7798, 1.448193
813.2620, 1.243622
813.7441, 1.134882
814.2262, 1.135502
814.7083, 1.239511
815.1904, 1.477993
815.6725, 1.728146
816.1547, 2.102087
816.6368, 2.320934
817.1189, 1.822462
817.6010, 0.8672220
818.0831, 0.3543240
818.5652, 0.6597820
819.0474, 1.257444
819.5295, 1.451998
820.0116, 1.305445
820.4937, 1.317589
820.9758, 1.481733
821.4579, 1.707739
821.9401, 2.117138
822.4222, 2.373264
822.9043, 1.970596
823.3864, 0.9559860
823.8685, 0.4909650
824.3506, 0.9384820
824.8328, 1.400784
825.3149, 1.917538
825.7970, 2.251677
826.2791, 2.121393
826.7612, 1.679020
827.2433, 1.435595
827.7255, 1.625374
828.2076, 1.850695
828.6897, 1.742205
829.1718, 1.466845
829.6539, 1.245800
830.1360, 1.111639
830.6182, 1.170265
831.1003, 1.463921
831.5824, 1.786013
832.0645, 1.902893
832.5466, 1.818018
833.0287, 1.504032
833.5109, 0.7810400
833.9930, 0.3999790
834.4751, 0.8053440
834.9572, 1.247744
835.4393, 0.9282570
835.9214, 0.1585960
836.4036, 0.1145610
836.8857, 0.4957640
837.3678, 0.9614980
837.8499, 0.8302020
838.3320, 0.6571940
838.8141, 0.9990500
839.2963, 1.551275
839.7784, 1.679585
840.2605, 1.200911
840.7426, 0.5515480
841.2247, 2.0168001E-02
841.7068, 0.4321920
842.1890, 0.4720990
842.6711, 0.1856770
843.1532, 0.2313540
843.6353, 0.7370740
844.1174, 1.105320
844.5995, 1.108334
845.0817, 0.8363130
845.5638, 0.7034870
846.0459, 0.7802560
846.5280, 0.8067970
847.0101, 0.8515570
847.4922, 0.7284930
847.9744, 2.8965000E-02
848.4565, 0.8584020
848.9386, 0.7296360
849.4207, 0.6227020
849.9028, 1.549196
850.3849, 1.222494
850.8671, 0.7579820
851.3492, 0.9274730
851.8313, 1.305616
852.3134, 1.175713
852.7955, 0.5275610
853.2776, 4.9447998E-02
853.7598, 0.2884460
854.2419, 0.1543050
854.7240, 0.5245510
855.2061, 0.1510200
855.6882, 0.2936360
856.1703, 0.2104990
856.6525, 0.8383960
857.1346, 1.337473
857.6167, 1.628077
858.0988, 1.486197
858.5809, 0.7871760
859.0630, 0.5072800
859.5452, 0.9116460
860.0273, 1.264807
860.5094, 1.389757
860.9915, 1.334990
861.4736, 0.9846670
861.9557, 0.4373090
862.4379, 0.2706510
862.9200, 0.9651740
863.4021, 1.520298
863.8842, 1.530220
864.3663, 1.305569
864.8484, 1.066324
865.3306, 0.8317850
865.8127, 0.5016900
866.2948, 4.2337000E-02
866.7769, 0.2470140
867.2590, 0.1071720
867.7411, 0.7724570
868.2233, 1.029692
868.7054, 0.9293560
869.1875, 0.8559590
869.6696, 0.9213970
870.1517, 0.8816850
870.6339, 0.4624260
871.1160, 0.2003160
871.5981, 0.4903920
872.0802, 0.3550230
872.5623, 1.0874000E-02
873.0444, 0.7038980
873.5266, 1.321141
874.0087, 1.527520
874.4908, 1.498258
874.9729, 1.573313
875.4550, 1.819237
875.9371, 1.768856
876.4193, 1.092641
876.9014, 0.4266290
877.3835, 7.6380000E-02
877.8656, 0.3530980
878.3477, 0.2720550
878.8298, 9.8563999E-02
879.3120, 0.4758720
879.7941, 0.7133180
880.2762, 0.9231470
880.7583, 1.252178
881.2404, 1.608316
881.7225, 1.947649
882.2047, 2.179440
882.6868, 1.797533
883.1689, 0.5871200
883.6510, 0.5359100
884.1331, 0.2604650
884.6152, 1.165039
885.0974, 1.792683
885.5795, 1.515050
886.0616, 1.167453
886.5437, 0.8580550
887.0258, 0.7575700
887.5079, 1.112703
887.9901, 1.759160
888.4722, 2.029543
888.9543, 1.746661
889.4364, 1.418954
889.9185, 0.8751070
890.4006, 0.4872000
890.8828, 0.3953100
891.3649, 0.5435130
891.8470, 0.9420030
892.3291, 1.559305
892.8112, 2.060311
893.2933, 2.364082
893.7755, 2.451859
894.2576, 2.133413
894.7397, 1.707179
895.2218, 1.571613
895.7039, 1.684645
896.1860, 1.729777
896.6682, 1.551336
897.1503, 1.345129
897.6324, 1.414588
898.1145, 1.634343
898.5966, 1.534631
899.0787, 1.161187
899.5609, 1.093835
900.0430, 1.553565
900.5251, 2.157360
901.0072, 2.543818
901.4893, 2.746941
901.9714, 2.808420
902.4536, 2.712330
902.9357, 2.408677
903.4178, 1.734196
903.8999, 1.198108
904.3820, 1.161151
904.8641, 1.383986
905.3463, 1.415752
905.8284, 1.211037
906.3105, 1.142473
906.7926, 1.447939
907.2747, 1.783870
907.7568, 2.126393
908.2390, 2.305106
908.7211, 2.088326
909.2032, 1.585526
909.6853, 1.113797
910.1674, 0.7537390
910.6495, 0.5665360
911.1317, 0.6764000
911.6138, 0.9157080
912.0959, 1.126126
912.5780, 1.305544
913.0601, 1.441742
913.5422, 1.532593
914.0244, 1.594949
914.5065, 1.600506
914.9886, 1.570440
915.4707, 1.534413
915.9528, 1.500534
916.4349, 1.560900
916.9171, 1.725079
917.3992, 1.790565
917.8813, 1.651496
918.3634, 1.377191
918.8455, 1.035180
919.3276, 0.6035420
919.8098, 0.5576520
920.2919, 1.123423
920.7740, 1.496823
921.2561, 1.363977
921.7382, 1.117278
922.2203, 1.108289
922.7025, 1.261144
923.1846, 1.258394
923.6667, 0.9325970
924.1488, 0.8182180
924.6309, 1.103420
925.1130, 1.448775
925.5952, 1.691374
926.0773, 1.870516
926.5594, 2.094530
927.0415, 2.340026
927.5236, 2.370605
928.0057, 1.904163
928.4879, 1.466343
928.9700, 1.420344
929.4521, 1.547684
929.9342, 1.777402
930.4163, 1.973336
930.8984, 1.703655
931.3806, 0.8414720
931.8627, 7.3592998E-02
932.3448, 0.1440280
932.8269, 0.7242400
933.3090, 1.326913
933.7911, 1.862226
934.2733, 1.805678
934.7554, 1.090934
935.2375, 0.4995560
935.7196, 0.5798010
936.2017, 1.019566
936.6838, 1.099822
937.1660, 0.7712530
937.6481, 0.6837270
938.1302, 0.8922580
938.6123, 1.125395
939.0944, 1.357803
939.5765, 1.497590
940.0587, 1.340374
940.5408, 0.9290090
941.0229, 0.8607980
941.5050, 1.425369
941.9871, 1.753588
942.4692, 1.760944
942.9514, 1.578469
943.4335, 1.037436
943.9156, 0.4678330
944.3977, 0.3057640
944.8798, 0.5718130
945.3619, 0.9160840
945.8441, 1.440410
946.3262, 1.809524
946.8083, 1.914270
947.2904, 1.804160
947.7725, 1.277983
948.2546, 0.6252790
948.7368, 0.5053650
949.2189, 1.128323
949.7010, 1.681275
950.1831, 1.575004
950.6652, 1.222833
951.1473, 0.9088420
951.6295, 0.6501490
952.1116, 0.4761470
952.5937, 0.4307620
953.0758, 0.6369300
953.5579, 1.186950
954.0400, 1.756661
954.5222, 1.840707
955.0043, 1.589058
955.4864, 1.363046
955.9685, 1.197030
956.4506, 1.315541
956.9327, 1.783055
957.4149, 1.980510
957.8970, 1.284604
958.3791, 7.6458000E-02
958.8612, 0.5136600
959.3433, 0.4464000
959.8254, 4.1354001E-02
960.3076, 0.8269890
960.7897, 1.353686
961.2718, 1.099111
961.7539, 0.5406710
962.2360, 0.2704110
962.7181, 0.2889600
963.2003, 0.3011400
963.6824, 0.3134040
964.1645, 0.3421210
964.6466, 0.3717060
965.1287, 0.4277410
965.6108, 0.5355160
966.0930, 0.6615960
966.5751, 0.7066750
967.0572, 0.6523930
967.5393, 0.7526830
968.0214, 1.289032
968.5035, 1.625625
968.9857, 1.372011
969.4678, 1.052941
969.9499, 1.166519
970.4320, 1.513062
970.9141, 1.548664
971.3962, 1.102983
971.8784, 0.7507090
972.3605, 0.9281850
972.8426, 1.101415
973.3247, 0.7684760
973.8068, 0.2966340
974.2889, 0.1983250
974.7711, 0.4480210
975.2532, 0.6838740
975.7353, 0.7469540
976.2174, 0.7044630
976.6995, 0.5655910
977.1816, 0.3934420
977.6638, 0.2123930
978.1459, 8.6617999E-02
978.6280, 0.2169080
979.1101, 0.6039050
979.5922, 0.9815500
980.0743, 1.174803
980.5565, 1.201212
981.0386, 0.9635480
981.5207, 0.5892940
982.0028, 0.6070770
982.4849, 0.9952750
982.9670, 1.309150
983.4492, 1.398257
983.9313, 1.344716
984.4134, 1.196248
984.8955, 1.024312
985.3776, 1.135730
985.8597, 1.548841
986.3419, 1.581618
986.8240, 1.115450
987.3061, 0.6927610
987.7882, 0.5546410
988.2703, 0.5246980
988.7524, 0.3608140
989.2346, 0.1000740
989.7167, 0.1874690
990.1988, 0.8939190
990.6809, 1.138069
991.1630, 0.5570130
991.6451, 2.1659000E-02
992.1273, 0.2156070
992.6094, 0.1450790
993.0915, 6.5771997E-02
993.5736, 0.4355390
994.0557, 0.6281740
994.5378, 0.5224330
995.0200, 0.4123950
995.5021, 0.3779620
995.9842, 0.2907790
996.4663, 8.8119999E-02
996.9484, 0.4940700
997.4305, 0.4291050
997.9127, 0.1858940
998.3948, 0.6769340
998.8769, 0.9626930
999.3590, 1.074663
999.8411, 0.7936850
1000.323, 0.5539880
1000.805, 0.8755670
1001.287, 1.443320
1001.770, 1.531414
1002.252, 0.9588960
1002.734, 0.4116540
1003.216, 0.1539780
1003.698, 1.9762000E-02
1004.180, 0.1276040
1004.662, 0.1708120
1005.144, 6.0899001E-02
1005.627, 0.5103720
1006.109, 1.112030
1006.591, 1.872650
1007.073, 2.155998
1007.555, 1.031347
1008.037, 0.3109120
1008.519, 0.7844510
1009.001, 0.6533960
1009.483, 0.1595860
1009.966, 0.4772450
1010.448, 0.7466810
1010.930, 0.3927160
1011.412, 2.5397999E-02
1011.894, 0.1264620
1012.376, 0.5196080
1012.858, 0.6822100
1013.340, 0.6537090
1013.823, 0.5350400
1014.305, 0.3635910
1014.787, 0.1664730
1015.269, 4.8462000E-02
1015.751, 0.1570970
1016.233, 9.0233997E-02
1016.715, 0.5146800
1017.197, 0.7330680
1017.679, 0.7774350
1018.162, 0.7210260
1018.644, 0.5642480
1019.126, 0.3082000
1019.608, 6.6437997E-02
1020.090, 0.4005810
1020.572, 0.3104540
1021.054, 0.5027910
1021.536, 0.4906680
1022.018, 0.2728770
1022.501, 0.2695110
1022.983, 0.3503280
1023.465, 0.8174710
1023.947, 0.5239380
1024.429, 0.1160900
1024.911, 0.1820760
1025.393, 0.3429950
1025.875, 0.7305410
1026.358, 0.9884640
1026.840, 0.9708060
1027.322, 0.5510270
1027.804, 0.2748700
1028.286, 0.6214850
1028.768, 1.309551
1029.250, 1.623795
1029.732, 1.513644
1030.214, 1.390982
1030.697, 1.180366
1031.179, 1.193675
1031.661, 1.666740
1032.143, 1.973478
1032.625, 1.472267
1033.107, 0.5720980
1033.589, 0.4649410
1034.071, 1.308546
1034.553, 2.275264
1035.036, 3.632607
1035.518, 4.524136
1036.000, 4.571314
1036.482, 4.329753
1036.964, 4.153437
1037.446, 4.039572
1037.928, 4.019067
1038.410, 4.153732
1038.893, 4.152256
1039.375, 3.596186
1039.857, 3.569723
1040.339, 4.842653
1040.821, 6.200842
1041.303, 6.580364
1041.785, 6.354248
1042.267, 6.582829
1042.750, 7.408764
1043.232, 8.205990
1043.714, 8.952154
1044.196, 9.688068
1044.678, 10.27898
1045.160, 10.99295
1045.642, 12.00896
1046.124, 13.29556
1046.606, 14.78614
1047.089, 16.48667
1047.571, 18.31447
1048.053, 20.33834
1048.535, 22.36516
1049.017, 24.59663
1049.499, 26.57565
1049.981, 27.86758
1050.463, 28.69741
1050.945, 29.50253
1051.428, 30.29938
1051.910, 31.24716
1052.392, 32.60733
1052.874, 33.81059
1053.356, 34.60857
1053.838, 35.25176
1054.320, 35.84877
1054.802, 36.43310
1055.285, 36.93894
1055.767, 37.31483
1056.249, 38.52158
1056.731, 41.25394
1057.213, 44.27688
1057.695, 47.13859
1058.177, 50.10197
1058.659, 53.36691
1059.141, 56.90411
1059.624, 60.80286
1060.106, 65.06362
1060.588, 68.82503
1061.070, 72.37408
1061.552, 74.61931
1062.034, 75.20222
1062.516, 74.24058
1062.998, 71.76168
1063.480, 67.84433
1063.963, 62.15072
1064.445, 54.78520
1064.927, 47.87502
1065.409, 42.23931
1065.891, 37.12530
1066.373, 32.17001
1066.855, 27.75186
1067.337, 24.16932
1067.820, 21.30770
1068.302, 19.15915
1068.784, 17.61489
1069.266, 15.88219
1069.748, 13.30565
1070.230, 11.16148
1070.712, 10.29939
1071.194, 9.784130
1071.677, 9.003780
1072.159, 8.051720
1072.641, 7.109423
1073.123, 6.200253
1073.605, 5.293491
1074.087, 4.254438
1074.569, 3.559000
1075.051, 3.793121
1075.533, 4.072716
1076.016, 3.676580
1076.498, 2.997673
1076.980, 2.613453
1077.462, 2.500694
1077.944, 2.206133
1078.426, 1.509638
1078.908, 0.9664290
1079.390, 0.8217580
1079.873, 0.9728780
1080.355, 1.647835
1080.837, 2.352783
1081.319, 2.391661
1081.801, 1.923334
1082.283, 1.651262
1082.765, 1.834555
1083.247, 1.889235
1083.729, 1.350002
1084.212, 0.8244380
1084.694, 0.5991290
1085.176, 0.6181010
1085.658, 1.093719
1086.140, 1.685789
1086.622, 1.493093
1087.104, 0.2554740
1087.586, 0.5632900
1088.068, 9.8931998E-02
1088.551, 0.6138820
1089.033, 1.276203
1089.515, 1.770050
1089.997, 1.986542
1090.479, 1.969948
1090.961, 1.763130
1091.443, 1.388855
1091.925, 1.053761
1092.408, 0.8220160
1092.890, 0.6620140
1093.372, 0.5523360
1093.854, 0.5182670
1094.336, 0.7308440
1094.818, 0.9467430
1095.300, 0.7164330
1095.782, 7.2067000E-02
1096.265, 0.3639340
1096.747, 0.4497700
1097.229, 0.2330280
1097.711, 0.6183070
1098.193, 1.374401
1098.675, 1.432497
1099.157, 1.282810
1099.639, 1.549128
1100.121, 2.172272
1100.604, 2.658100
1101.086, 2.882254
1101.568, 3.033693
1102.050, 3.037607
1102.532, 3.133440
1103.014, 3.571297
1103.496, 4.022341
1103.978, 4.078642
1104.460, 3.923374
1104.943, 4.151381
1105.425, 4.976757
1105.907, 5.386139
1106.389, 4.638948
1106.871, 4.222961
1107.353, 4.902330
1107.835, 5.717995
1108.317, 5.902525
1108.800, 5.814377
1109.282, 6.130812
1109.764, 6.914532
1110.246, 7.643177
1110.728, 8.379992
1111.210, 8.896261
1111.692, 8.737972
1112.174, 8.845331
1112.656, 9.889902
1113.139, 11.30264
1113.621, 12.46073
1114.103, 13.35435
1114.585, 14.00714
1115.067, 14.02834
1115.549, 14.51364
1116.031, 15.79656
1116.513, 17.07742
1116.995, 17.72848
1117.478, 18.66995
1117.960, 21.09860
1118.442, 24.36434
1118.924, 26.33956
1119.406, 26.54563
1119.888, 27.33717
1120.370, 28.72026
1120.852, 30.71600
1121.335, 33.57416
1121.817, 36.58026
1122.299, 39.09656
1122.781, 41.65794
1123.263, 45.40706
1123.745, 50.38108
1124.227, 54.05597
1124.709, 55.59143
1125.192, 58.93239
1125.674, 65.07498
1126.156, 71.37013
1126.638, 76.49303
1127.120, 81.51139
1127.602, 87.66734
1128.084, 94.72541
1128.566, 101.5030
1129.048, 108.0133
1129.531, 114.1903
1130.013, 120.0560
1130.495, 125.8533
1130.977, 131.7913
1131.459, 136.7078
1131.941, 139.6403
1132.423, 140.8773
1132.905, 141.0836
1133.387, 140.2138
1133.870, 137.4158
1134.352, 132.7287
1134.834, 127.1088
1135.316, 120.7642
1135.798, 114.3692
1136.280, 108.3154
1136.762, 101.9622
1137.244, 94.21191
1137.727, 85.70137
1138.209, 78.24318
1138.691, 71.76031
1139.173, 66.07655
1139.655, 61.11764
1140.137, 56.68228
1140.619, 52.70564
1141.101, 48.99087
1141.583, 45.45113
1142.066, 41.95477
1142.548, 38.04720
1143.030, 34.15003
1143.512, 31.23988
1143.994, 29.11483
1144.476, 26.94620
1144.958, 24.63794
1145.440, 22.77455
1145.922, 21.70239
1146.405, 20.78995
1146.887, 19.39658
1147.369, 17.94991
1147.851, 16.87610
1148.333, 16.05493
1148.815, 15.46559
1149.297, 14.97992
1149.779, 14.28673
1150.262, 13.38201
1150.744, 12.64694
1151.226, 12.50446
1151.708, 12.36036
1152.190, 11.68719
1152.672, 10.97153
1153.154, 10.73886
1153.636, 10.68663
1154.119, 10.28708
1154.601, 9.580194
1155.083, 9.064221
1155.565, 8.954012
1156.047, 8.799586
1156.529, 8.497675
1157.011, 8.050482
1157.493, 7.322250
1157.975, 6.591976
1158.458, 6.064461
1158.940, 5.722782
1159.422, 5.576614
1159.904, 5.662600
1160.386, 5.436787
1160.868, 4.505945
1161.350, 3.801983
1161.832, 3.325503
1162.314, 3.231161
1162.797, 3.987756
1163.279, 4.764627
1163.761, 4.636292
1164.243, 3.766852
1164.725, 2.874233
1165.207, 1.741712
1165.689, 1.416269
1166.171, 2.261242
1166.654, 2.825958
1167.136, 2.737019
1167.618, 2.362480
1168.100, 1.877069
1168.582, 1.401948
1169.064, 1.137542
1169.546, 1.077750
1170.028, 1.249332
1170.510, 1.666227
1170.993, 1.831446
1171.475, 1.686810
1171.957, 1.297715
1172.439, 0.6740080
1172.921, 6.9361001E-02
1173.403, 0.3121320
1173.885, 0.4382300
1174.367, 0.1215790
1174.849, 0.4799040
1175.332, 0.8679370
1175.814, 1.040812
1176.296, 1.000045
1176.778, 0.7892370
1177.260, 0.5888280
1177.742, 0.4840100
1178.224, 0.4413390
1178.706, 0.4667380
1179.189, 0.4799410
1179.671, 0.3650460
1180.153, 0.2046350
1180.635, 0.1122560
1181.117, 2.9445000E-02
1181.599, 0.1323600
1182.081, 0.3184100
1182.563, 0.2229420
1183.046, 0.4596020
1183.528, 0.8965550
1184.010, 0.2081460
1184.492, 0.4461780
1184.974, 5.8223002E-02
1185.456, 0.5875380
1185.938, 0.5100110
1186.420, 1.9692000E-02
1186.902, 0.1370860
1187.385, 1.074256
1187.867, 1.546392
1188.349, 0.7387500
1188.831, 0.2829890
1189.313, 0.9235410
1189.795, 1.454295
1190.277, 1.135209
1190.759, 0.5560630
1191.241, 0.2028950
1191.724, 0.1010820
1192.206, 0.4170850
1192.688, 1.411654
1193.170, 1.656979
1193.652, 0.8134630
1194.134, 0.2454450
1194.616, 0.2721430
1195.098, 0.4679900
1195.581, 0.6313260
1196.063, 0.7177100
1196.545, 0.6655650
1197.027, 0.4839400
1197.509, 5.8442999E-02
1197.991, 0.5548670
1198.473, 0.2348130
1198.955, 0.9843850
1199.438, 1.752819
1199.920, 1.702829
1200.402, 1.182067
1200.884, 0.3800460
1201.366, 0.3330950
1201.848, 0.4058040
1202.330, 9.0461999E-02
1202.812, 0.3238840
1203.294, 0.6597830
1203.776, 0.3672620
1204.259, 0.3192970
1204.741, 0.6053710
1205.223, 0.2968020
1205.705, 0.1800460
1206.187, 0.7477590
1206.669, 0.9771420
1207.151, 0.1000110
1207.633, 0.7175100
1208.116, 0.3126000
1208.598, 0.4806490
1209.080, 0.5337810
1209.562, 0.1238490
1210.044, 0.3542890
1210.526, 1.499695
1211.008, 2.097221
1211.490, 1.545750
1211.973, 0.9129780
1212.455, 0.1271860
1212.937, 0.3674960
1213.419, 0.3024400
1213.901, 5.8249999E-02
1214.383, 0.5643680
1214.865, 1.112467
1215.347, 1.341925
1215.829, 1.218841
1216.312, 0.9640870
1216.794, 0.5024200
1217.276, 0.3417430
1217.758, 0.6243250
1218.240, 0.8292550
1218.722, 0.6774660
1219.204, 0.5470470
1219.686, 0.8694550
1220.168, 1.435038
1220.651, 1.676983
1221.133, 1.676139
1221.615, 1.811780
1222.097, 2.016152
1222.579, 1.860952
1223.061, 1.353232
1223.543, 1.001120
1224.025, 1.045299
1224.508, 1.242206
1224.990, 1.473275
1225.472, 1.611629
1225.954, 1.500615
1226.436, 1.246378
1226.918, 0.8472230
1227.400, 0.4619440
1227.882, 0.2592930
1228.365, 0.3042100
1228.847, 0.8119830
1229.329, 2.047523
1229.811, 2.734300
1230.293, 2.172568
1230.775, 1.533858
1231.257, 1.031385
1231.739, 0.6971400
1232.221, 0.6611750
1232.703, 0.7161460
1233.186, 0.5476310
1233.668, 0.6646920
1234.150, 0.6904130
1234.632, 0.6617820
1235.114, 0.8374900
1235.596, 0.5917540
1236.078, 0.5194570
1236.560, 0.7543350
1237.043, 0.7665570
1237.525, 0.1896000
1238.007, 0.3549320
1238.489, 1.1491000E-02
1238.971, 0.9130740
1239.453, 1.383218
1239.935, 1.495194
1240.417, 1.361671
1240.900, 1.100990
1241.382, 1.122299
1241.864, 1.427247
1242.346, 1.471118
1242.828, 1.176568
1243.310, 0.8923500
1243.792, 1.054567
1244.274, 1.177785
1244.756, 0.8192240
1245.239, 0.3478360
1245.721, 0.1220870
1246.203, 0.3000340
1246.685, 0.8657480
1247.167, 1.550651
1247.649, 1.877868
1248.131, 1.346625
1248.613, 1.128253
1249.095, 1.857750
1249.578, 2.026668
1250.060, 1.028849
1250.542, 0.2713540
1251.024, 0.4640040
1251.506, 0.9641950
1251.988, 0.9683070
1252.470, 0.6714560
1252.952, 0.9041810
1253.435, 1.694513
1253.917, 1.790818
1254.399, 1.203876
1254.881, 0.7215560
1255.363, 0.5053150
1255.845, 0.6435240
1256.327, 1.166914
1256.809, 1.701754
1257.292, 1.908802
1257.774, 1.900882
1258.256, 1.625435
1258.738, 1.239804
1259.220, 0.7625740
1259.702, 0.4497880
1260.184, 1.008589
1260.666, 2.086361
1261.148, 2.376159
1261.630, 1.539934
1262.113, 0.6558640
1262.595, 0.3533520
1263.077, 0.3328090
1263.559, 0.5134820
1264.041, 0.8288170
1264.523, 1.579121
1265.005, 2.118904
1265.487, 1.707732
1265.970, 0.7545180
1266.452, 0.4660720
1266.934, 0.8444200
1267.416, 0.9040900
1267.898, 0.5907060
1268.380, 0.3569290
1268.862, 0.2676060
1269.344, 0.2583550
1269.827, 0.3071350
1270.309, 0.5897870
1270.791, 1.267897
1271.273, 1.875322
1271.755, 1.543145
1272.237, 0.8055420
1272.719, 0.6124100
1273.201, 0.7552290
1273.683, 0.9998490
1274.166, 1.238234
1274.648, 1.380918
1275.130, 1.409876
1275.612, 1.142726
1276.094, 0.3711610
1276.576, 7.5113997E-02
1277.058, 0.4231500
1277.540, 0.8989430
1278.022, 0.9751420
1278.505, 0.9744330
1278.987, 1.073041
1279.469, 1.187993
1279.951, 1.260284
1280.433, 1.254398
1280.915, 0.9722770
1281.397, 0.2174250
1281.879, 3.2584999E-02
1282.362, 0.1611450
1282.844, 0.3351200
1283.326, 0.4135840
1283.808, 0.4547780
1284.290, 0.2999970
1284.772, 0.2572610
1285.254, 0.1402920
1285.736, 0.0000000E+00
##END=



