##NAMES=Petarasite
##RRUFFID=R060223
##IDEAL CHEMISTRY=Na_5_Zr_2_Si_6_O_18_(Cl,OH)&#183;2H_2_O
##LOCALITY=Demix Quarry, Mont Saint-Hilaire, Rouville County, Quebec, Canada
##OWNER=RRUFF
##SOURCE=Royal Ontario Museum
##DESCRIPTION=Tan colored cleavage fragment associated with catapleiite
##STATUS=The identification of this mineral is confirmed by single-crystal X-ray diffraction and chemical analysis.
##URL=rruff.info/R060223
##MEASURED CHEMISTRY=(Na_4.82_[box]_0.09_Ca_0.06_Mn_0.02_)_Σ=5_Zr_2.00_Si_6.00_O_18_(Cl_0.63_(OH)_0.37_)_Σ=1_·2H_2_O
120.5230, 0.0000000E+00
121.0051, 1.442795
121.4872, 3.503330
121.9694, 4.759850
122.4515, 1.384651
122.9336, 0.7180210
123.4157, 0.9759600
123.8978, 3.6850002E-02
124.3799, 1.392067
124.8621, 3.200958
125.3442, 5.993088
125.8263, 10.56048
126.3084, 16.52479
126.7905, 23.03540
127.2726, 30.01662
127.7548, 37.08470
128.2369, 43.54781
128.7190, 49.31548
129.2011, 54.56754
129.6832, 59.68620
130.1653, 64.52351
130.6474, 68.65820
131.1296, 71.54646
131.6117, 73.41811
132.0938, 75.13574
132.5759, 76.56097
133.0580, 78.27249
133.5401, 81.33293
134.0223, 85.77252
134.5044, 90.98770
134.9865, 96.48781
135.4686, 102.3612
135.9507, 109.1642
136.4328, 117.3183
136.9150, 126.4341
137.3971, 134.9438
137.8792, 142.7618
138.3613, 150.5179
138.8434, 158.9440
139.3255, 168.2134
139.8077, 176.9567
140.2898, 185.0501
140.7719, 192.4104
141.2540, 199.0817
141.7361, 204.7741
142.2182, 210.0711
142.7004, 215.4142
143.1825, 220.5145
143.6646, 226.2522
144.1467, 232.6259
144.6288, 239.7324
145.1109, 247.8469
145.5931, 258.6852
146.0752, 269.2320
146.5573, 275.7393
147.0394, 274.3879
147.5215, 274.4166
148.0036, 278.1042
148.4858, 286.2997
148.9679, 295.0797
149.4500, 304.1145
149.9321, 313.8553
150.4142, 324.7557
150.8963, 337.8682
151.3785, 351.3897
151.8606, 364.5909
152.3427, 377.3414
152.8248, 390.6639
153.3069, 404.6846
153.7890, 419.3381
154.2712, 432.5339
154.7533, 442.9625
155.2354, 452.0910
155.7175, 459.6603
156.1996, 466.1983
156.6817, 469.9051
157.1639, 469.8252
157.6460, 467.0927
158.1281, 463.9674
158.6102, 461.9820
159.0923, 458.3137
159.5744, 451.5956
160.0566, 440.8248
160.5387, 428.6078
161.0208, 415.2892
161.5029, 400.9873
161.9850, 386.1444
162.4671, 370.5833
162.9493, 354.9607
163.4314, 339.7032
163.9135, 325.1212
164.3956, 310.6084
164.8777, 295.0787
165.3598, 279.0107
165.8420, 264.4638
166.3241, 253.2390
166.8062, 243.5376
167.2883, 233.7708
167.7704, 223.3317
168.2525, 212.8298
168.7346, 202.2418
169.2168, 191.6607
169.6989, 181.7590
170.1810, 172.9469
170.6631, 165.0180
171.1452, 157.7229
171.6273, 151.5160
172.1095, 145.5608
172.5916, 138.8858
173.0737, 131.5827
173.5558, 124.7266
174.0379, 119.2681
174.5201, 114.7578
175.0022, 110.3984
175.4843, 106.0560
175.9664, 101.6049
176.4485, 96.86401
176.9306, 91.80811
177.4128, 86.89594
177.8949, 82.62991
178.3770, 78.41068
178.8591, 74.14212
179.3412, 69.31796
179.8233, 64.41769
180.3055, 60.33945
180.7876, 57.07425
181.2697, 54.00031
181.7518, 50.39359
182.2339, 46.37195
182.7160, 42.35083
183.1982, 38.34830
183.6803, 34.50946
184.1624, 31.25555
184.6445, 28.64362
185.1266, 26.30881
185.6087, 23.75308
186.0909, 21.05432
186.5730, 18.70490
187.0551, 17.22656
187.5372, 16.29254
188.0193, 14.70221
188.5014, 12.34436
188.9836, 9.741882
189.4657, 7.312103
189.9478, 5.089294
190.4299, 3.387756
190.9120, 2.689148
191.3941, 2.756134
191.8763, 2.278870
192.3584, 1.158997
192.8405, 0.2896420
193.3226, 1.634888
193.8047, 2.873962
194.2868, 4.200409
194.7690, 5.969635
195.2511, 8.091339
195.7332, 9.312714
196.2153, 9.476776
196.6974, 9.030182
197.1795, 8.634125
197.6617, 8.269867
198.1438, 8.052795
198.6259, 8.192078
199.1080, 8.688538
199.5901, 8.717560
200.0722, 8.220856
200.5544, 7.319702
201.0365, 6.183838
201.5186, 4.768829
202.0007, 3.358643
202.4828, 2.051300
202.9649, 0.8426510
203.4471, 0.1523440
203.9292, 0.9099730
204.4113, 1.498962
204.8934, 1.951385
205.3755, 2.123505
205.8576, 2.666870
206.3398, 3.999298
206.8219, 6.254944
207.3040, 8.412720
207.7861, 10.46286
208.2682, 12.36877
208.7503, 13.95172
209.2325, 15.05304
209.7146, 16.27164
210.1967, 18.00232
210.6788, 20.45383
211.1609, 22.27005
211.6430, 22.92926
212.1252, 23.34164
212.6073, 25.79544
213.0894, 31.05670
213.5715, 36.31613
214.0536, 40.12320
214.5357, 41.89346
215.0179, 44.44531
215.5000, 47.89938
215.9821, 52.08563
216.4642, 56.57339
216.9463, 61.08075
217.4284, 66.39859
217.9105, 73.56830
218.3927, 84.09647
218.8748, 91.02020
219.3569, 93.12531
219.8390, 92.29330
220.3211, 92.72739
220.8032, 95.00616
221.2854, 97.47955
221.7675, 99.53607
222.2496, 101.0385
222.7317, 102.4471
223.2138, 103.6911
223.6959, 104.8688
224.1781, 106.2613
224.6602, 107.9409
225.1423, 109.6830
225.6244, 111.2877
226.1065, 112.5770
226.5886, 114.3749
227.0708, 116.9372
227.5529, 119.8991
228.0350, 122.5775
228.5171, 125.1377
228.9992, 127.1984
229.4813, 128.6414
229.9635, 129.4841
230.4456, 129.6431
230.9277, 128.9739
231.4098, 127.7004
231.8919, 126.2288
232.3740, 124.6203
232.8562, 122.7356
233.3383, 120.5524
233.8204, 118.1279
234.3025, 115.2405
234.7846, 111.9341
235.2667, 108.1451
235.7489, 103.6942
236.2310, 97.93869
236.7131, 92.60773
237.1952, 88.46112
237.6773, 86.21280
238.1594, 82.64114
238.6416, 76.89478
239.1237, 70.34833
239.6058, 65.27240
240.0879, 62.28009
240.5700, 59.67590
241.0521, 56.78427
241.5343, 53.28772
242.0164, 51.10004
242.4985, 50.97269
242.9806, 51.63159
243.4627, 51.14066
243.9448, 48.70084
244.4270, 46.44797
244.9091, 44.94711
245.3912, 44.26532
245.8733, 43.93231
246.3554, 43.92960
246.8375, 44.27301
247.3197, 45.03693
247.8018, 46.47577
248.2839, 47.86725
248.7660, 48.98587
249.2481, 49.77844
249.7302, 50.75732
250.2124, 51.86673
250.6945, 53.21820
251.1766, 54.98584
251.6587, 57.34921
252.1408, 59.80594
252.6229, 62.41370
253.1051, 65.25156
253.5872, 67.07401
254.0693, 67.43085
254.5514, 67.42398
255.0335, 68.29944
255.5156, 70.77753
255.9978, 72.52090
256.4799, 73.02505
256.9620, 72.27838
257.4441, 71.01599
257.9262, 69.19073
258.4083, 66.95856
258.8904, 64.49228
259.3726, 61.84280
259.8547, 58.79028
260.3368, 55.18884
260.8189, 51.06808
261.3010, 47.22656
261.7831, 43.80969
262.2653, 40.40683
262.7474, 36.75729
263.2295, 32.78290
263.7116, 28.64914
264.1937, 24.06766
264.6758, 19.30807
265.1580, 15.73859
265.6401, 13.71497
266.1222, 12.26917
266.6043, 10.83521
267.0864, 9.464020
267.5685, 7.811188
268.0507, 5.539642
268.5328, 3.022583
269.0149, 1.740295
269.4970, 2.036011
269.9791, 2.723999
270.4612, 3.019745
270.9434, 2.713531
271.4255, 3.040497
271.9076, 4.186401
272.3897, 5.939850
272.8718, 7.720306
273.3539, 9.421875
273.8361, 11.47696
274.3182, 14.15045
274.8003, 17.47672
275.2824, 21.01682
275.7645, 24.72171
276.2466, 28.63330
276.7288, 32.87607
277.2109, 37.46988
277.6930, 42.22269
278.1751, 46.81033
278.6572, 51.20493
279.1393, 56.46500
279.6215, 62.76227
280.1036, 69.60339
280.5857, 75.98593
281.0678, 81.73718
281.5499, 88.53857
282.0320, 97.43488
282.5142, 108.2432
282.9963, 117.7243
283.4784, 125.5445
283.9605, 133.0718
284.4426, 141.9214
284.9247, 152.1037
285.4069, 163.0875
285.8890, 175.0986
286.3711, 187.7537
286.8532, 199.7277
287.3353, 210.9914
287.8174, 221.7772
288.2996, 232.2368
288.7817, 242.4198
289.2638, 252.1567
289.7459, 261.5627
290.2280, 270.3762
290.7101, 277.8897
291.1923, 284.0922
291.6744, 289.8862
292.1565, 296.5022
292.6386, 303.6007
293.1207, 309.3586
293.6028, 313.0692
294.0850, 315.5566
294.5671, 318.3124
295.0492, 321.3347
295.5313, 324.6908
296.0134, 328.7988
296.4955, 333.2795
296.9777, 337.0824
297.4598, 340.0819
297.9419, 342.1324
298.4240, 343.1152
298.9061, 342.9964
299.3882, 341.5568
299.8704, 339.3584
300.3525, 335.6630
300.8346, 328.6884
301.3167, 318.0146
301.7988, 305.2401
302.2809, 291.1658
302.7631, 276.2473
303.2452, 261.3275
303.7273, 246.7921
304.2094, 232.6136
304.6915, 219.0603
305.1736, 206.0017
305.6558, 193.4226
306.1379, 180.8929
306.6200, 168.7946
307.1021, 157.8810
307.5842, 148.9117
308.0663, 141.0127
308.5485, 133.0605
309.0306, 125.1022
309.5127, 117.9801
309.9948, 112.6576
310.4769, 108.4038
310.9590, 104.2953
311.4412, 99.52075
311.9233, 95.20685
312.4054, 92.20801
312.8875, 90.38412
313.3696, 89.12296
313.8517, 88.50476
314.3339, 88.09940
314.8160, 87.51202
315.2981, 86.50455
315.7802, 85.55621
316.2623, 84.66058
316.7444, 83.98862
317.2266, 83.97571
317.7087, 85.60901
318.1908, 87.42886
318.6729, 88.46704
319.1550, 88.27374
319.6371, 88.11191
320.1193, 88.36560
320.6014, 88.92480
321.0835, 89.61365
321.5656, 90.79636
322.0477, 91.73163
322.5298, 91.95523
323.0120, 91.23318
323.4941, 90.84818
323.9762, 91.60736
324.4583, 92.62408
324.9404, 92.94049
325.4225, 91.78290
325.9047, 90.52975
326.3868, 89.48029
326.8689, 88.63608
327.3510, 87.97055
327.8331, 87.71732
328.3152, 87.51559
328.7974, 87.11972
329.2795, 87.20859
329.7616, 86.28336
330.2437, 83.95428
330.7258, 80.43530
331.2079, 76.79309
331.6901, 72.83066
332.1722, 68.93192
332.6543, 65.26410
333.1364, 61.92297
333.6185, 58.67697
334.1006, 55.50174
334.5828, 52.42834
335.0649, 49.63266
335.5470, 47.14496
336.0291, 44.83133
336.5112, 42.75208
336.9933, 41.01675
337.4755, 38.84088
337.9576, 36.03488
338.4397, 33.04675
338.9218, 30.40350
339.4039, 28.13324
339.8860, 26.22076
340.3681, 24.82214
340.8503, 23.86676
341.3324, 22.56046
341.8145, 20.84149
342.2966, 18.90256
342.7787, 16.66196
343.2608, 14.09790
343.7430, 12.20331
344.2251, 11.44382
344.7072, 11.30612
345.1893, 10.13867
345.6714, 7.835480
346.1535, 5.673004
346.6357, 4.774384
347.1178, 4.905792
347.5999, 4.646362
348.0820, 3.783722
348.5641, 2.595703
349.0462, 1.387329
349.5284, 0.1791380
350.0105, 0.9099120
350.4926, 1.884552
350.9747, 2.689331
351.4568, 3.057739
351.9389, 2.924194
352.4211, 2.873108
352.9032, 3.691559
353.3853, 5.066559
353.8674, 6.241943
354.3495, 6.854187
354.8316, 7.154480
355.3138, 7.405029
355.7959, 7.601593
356.2780, 7.713257
356.7601, 7.647308
357.2422, 7.505341
357.7243, 7.444519
358.2065, 7.657501
358.6886, 7.730255
359.1707, 7.186859
359.6528, 6.233154
360.1349, 5.490417
360.6170, 5.530212
361.0992, 5.722076
361.5813, 5.645172
362.0634, 5.235199
362.5455, 4.571381
363.0276, 3.633789
363.5097, 2.476013
363.9919, 1.176788
364.4740, 0.6756590
364.9561, 2.270081
365.4382, 3.137878
365.9203, 3.187256
366.4024, 3.472900
366.8846, 4.291870
367.3667, 5.385559
367.8488, 6.545258
368.3309, 7.492004
368.8130, 8.796265
369.2951, 10.77164
369.7773, 13.30200
370.2594, 15.48816
370.7415, 17.11136
371.2236, 18.61792
371.7057, 20.20261
372.1878, 21.76584
372.6700, 23.61301
373.1521, 25.73706
373.6342, 28.13153
374.1163, 30.85413
374.5984, 34.19009
375.0805, 37.22617
375.5627, 39.49954
376.0448, 40.89325
376.5269, 43.14282
377.0090, 46.53238
377.4911, 50.30780
377.9732, 53.69550
378.4554, 56.60074
378.9375, 59.58276
379.4196, 62.78906
379.9017, 66.15640
380.3838, 69.78049
380.8659, 73.72028
381.3481, 77.21829
381.8302, 79.18610
382.3123, 79.93167
382.7944, 81.91345
383.2765, 85.76019
383.7586, 90.04791
384.2408, 92.61606
384.7229, 93.64395
385.2050, 94.38400
385.6871, 95.50479
386.1692, 96.73666
386.6513, 97.62723
387.1335, 98.15234
387.6156, 98.39999
388.0977, 98.37268
388.5798, 98.11923
389.0619, 97.74530
389.5440, 97.44482
390.0262, 96.86441
390.5083, 95.47180
390.9904, 93.41702
391.4725, 91.46201
391.9546, 90.31763
392.4367, 89.31726
392.9189, 87.77753
393.4010, 85.28198
393.8831, 82.99234
394.3652, 81.69812
394.8473, 80.96719
395.3294, 80.08221
395.8116, 78.51187
396.2937, 77.01108
396.7758, 75.92346
397.2579, 75.30649
397.7400, 74.74509
398.2221, 74.20343
398.7043, 73.66226
399.1864, 73.10565
399.6685, 72.45712
400.1506, 71.87729
400.6327, 71.34283
401.1148, 70.87457
401.5970, 70.55728
402.0791, 70.13519
402.5612, 70.15723
403.0433, 70.99219
403.5254, 73.14801
404.0075, 74.58850
404.4897, 75.25067
404.9718, 75.33615
405.4539, 75.03116
405.9360, 74.21448
406.4181, 73.28235
406.9002, 72.11810
407.3824, 70.83041
407.8645, 70.77252
408.3466, 72.21808
408.8287, 73.85974
409.3108, 74.40356
409.7929, 73.93704
410.2751, 74.03613
410.7572, 75.11243
411.2393, 76.39816
411.7214, 76.28461
412.2035, 74.95157
412.6856, 73.75708
413.1678, 73.81723
413.6499, 74.51025
414.1320, 74.47656
414.6141, 73.64819
415.0962, 72.45676
415.5783, 71.25150
416.0605, 69.96719
416.5426, 68.52380
417.0247, 67.03870
417.5068, 65.35361
417.9889, 63.30203
418.4710, 60.85641
418.9532, 58.06281
419.4353, 54.75342
419.9174, 51.27771
420.3995, 48.00693
420.8816, 45.18988
421.3637, 42.07550
421.8459, 37.97891
422.3280, 33.52255
422.8101, 29.51822
423.2922, 26.49026
423.7743, 23.55872
424.2564, 20.41339
424.7386, 17.03580
425.2207, 13.99530
425.7028, 11.28369
426.1849, 8.979584
426.6670, 7.099335
427.1491, 4.971436
427.6313, 4.452301
428.1134, 6.682434
428.5955, 10.36417
429.0776, 11.84360
429.5597, 10.12485
430.0418, 8.227966
430.5240, 7.326996
431.0061, 7.502686
431.4882, 7.437012
431.9703, 6.840088
432.4524, 6.635406
432.9345, 8.210358
433.4167, 11.60947
433.8988, 14.49005
434.3809, 15.87442
434.8630, 16.70230
435.3451, 19.48376
435.8272, 24.16345
436.3094, 29.12445
436.7915, 33.05838
437.2736, 36.50671
437.7557, 40.60959
438.2378, 45.46005
438.7199, 51.14966
439.2020, 58.62943
439.6841, 66.98608
440.1663, 74.34628
440.6484, 79.05609
441.1305, 83.11646
441.6126, 88.22849
442.0947, 94.22025
442.5768, 99.90378
443.0590, 105.0918
443.5411, 109.4567
444.0232, 112.6656
444.5053, 114.3415
444.9874, 115.5541
445.4695, 116.9855
445.9517, 118.0869
446.4338, 117.9900
446.9159, 116.2258
447.3980, 113.5406
447.8801, 109.9494
448.3622, 105.3927
448.8444, 100.7819
449.3265, 96.14413
449.8086, 91.41788
450.2907, 86.48434
450.7728, 80.85263
451.2549, 76.09460
451.7371, 72.60690
452.2192, 69.88879
452.7013, 66.78229
453.1834, 63.11359
453.6655, 59.80606
454.1476, 57.38376
454.6298, 55.75897
455.1119, 53.72836
455.5940, 51.19363
456.0761, 48.83780
456.5582, 47.59464
457.0403, 47.23227
457.5225, 46.48334
458.0046, 44.97348
458.4867, 43.20016
458.9688, 41.82938
459.4509, 40.82495
459.9330, 40.09201
460.4152, 39.78867
460.8973, 39.61359
461.3794, 39.10660
461.8615, 38.23151
462.3436, 37.55231
462.8257, 37.79175
463.3079, 38.29083
463.7900, 38.30124
464.2721, 37.27972
464.7542, 36.13760
465.2363, 35.20984
465.7184, 34.44144
466.2006, 33.67172
466.6827, 32.69690
467.1648, 31.86057
467.6469, 31.48892
468.1290, 31.93750
468.6111, 31.47836
469.0933, 29.17999
469.5754, 26.57233
470.0575, 25.06088
470.5396, 25.47479
471.0217, 25.29166
471.5038, 24.01266
471.9860, 21.98904
472.4681, 20.35397
472.9502, 19.09378
473.4323, 18.20206
473.9144, 17.85803
474.3965, 18.03302
474.8787, 17.80264
475.3608, 17.08484
475.8429, 16.31210
476.3250, 15.88336
476.8071, 15.79565
477.2892, 16.07562
477.7714, 16.81842
478.2535, 17.78912
478.7356, 18.49500
479.2177, 19.07407
479.6998, 20.09445
480.1819, 21.92953
480.6641, 24.36868
481.1462, 27.12735
481.6283, 30.18134
482.1104, 33.81375
482.5925, 38.48328
483.0746, 43.69852
483.5568, 48.97299
484.0389, 53.23349
484.5210, 58.48929
485.0031, 65.81915
485.4852, 74.61465
485.9673, 83.22211
486.4495, 90.35034
486.9316, 98.12891
487.4137, 107.2127
487.8958, 117.7152
488.3779, 129.1328
488.8600, 141.8397
489.3422, 155.1482
489.8243, 168.6147
490.3064, 181.9818
490.7885, 195.8314
491.2706, 210.0349
491.7527, 224.9221
492.2349, 241.9700
492.7170, 261.1575
493.1991, 281.0410
493.6812, 300.2352
494.1633, 319.2370
494.6454, 340.9031
495.1276, 365.1280
495.6097, 390.5967
496.0918, 416.5105
496.5739, 442.7028
497.0560, 467.5939
497.5381, 490.8493
498.0203, 513.6696
498.5024, 538.8643
498.9845, 564.5920
499.4666, 587.4123
499.9487, 606.8250
500.4308, 621.6788
500.9130, 631.2958
501.3951, 635.6129
501.8772, 635.1375
502.3593, 629.9852
502.8414, 620.1567
503.3235, 605.4839
503.8057, 584.4016
504.2878, 560.6566
504.7699, 533.6030
505.2520, 504.3056
505.7341, 474.1886
506.2162, 442.1684
506.6984, 411.5704
507.1805, 383.5563
507.6626, 357.9529
508.1447, 333.0872
508.6268, 308.7955
509.1089, 285.8345
509.5911, 264.5971
510.0732, 245.1052
510.5553, 227.8548
511.0374, 213.1339
511.5195, 199.6874
512.0016, 185.8973
512.4838, 171.9861
512.9659, 159.0405
513.4480, 147.4063
513.9301, 136.6140
514.4122, 126.1252
514.8943, 115.9727
515.3765, 106.2870
515.8586, 97.16861
516.3407, 88.48984
516.8228, 80.22681
517.3049, 72.29791
517.7870, 64.88345
518.2692, 57.80740
518.7513, 51.45413
519.2334, 46.22769
519.7155, 43.61346
520.1976, 40.38583
520.6797, 35.62460
521.1619, 30.06259
521.6440, 25.87576
522.1261, 23.65594
522.6082, 21.83606
523.0903, 19.82944
523.5724, 17.62357
524.0546, 16.15012
524.5367, 15.60434
525.0188, 15.22986
525.5009, 14.63708
525.9830, 13.75455
526.4651, 11.53317
526.9473, 7.402222
527.4294, 3.015656
527.9115, 0.9779660
528.3936, 0.7886350
528.8757, 0.7624210
529.3578, 0.1252140
529.8400, 1.060211
530.3221, 1.012817
530.8042, 0.1334840
531.2863, 0.6192020
531.7684, 0.3315730
532.2505, 5.4901000E-02
532.7327, 0.2745970
533.2148, 1.726746
533.6969, 2.906189
534.1790, 3.335968
534.6611, 3.345398
535.1432, 3.293915
535.6254, 2.768402
536.1075, 2.775757
536.5896, 3.633392
537.0717, 5.098297
537.5538, 6.362946
538.0359, 7.577759
538.5181, 8.257172
539.0002, 7.896606
539.4823, 6.541016
539.9644, 6.359741
540.4465, 7.502716
540.9286, 9.066986
541.4108, 10.63187
541.8929, 12.00607
542.3750, 12.11365
542.8571, 10.48328
543.3392, 8.395538
543.8214, 7.245941
544.3035, 6.822205
544.7856, 6.556244
545.2677, 6.386169
545.7498, 6.126617
546.2319, 5.649902
546.7141, 4.965973
547.1962, 4.146851
547.6783, 3.171906
548.1604, 2.108093
548.6425, 0.9252320
549.1246, 0.4714660
549.6068, 1.679199
550.0889, 2.657104
550.5710, 3.428650
551.0531, 3.990082
551.5352, 4.288635
552.0173, 4.485626
552.4995, 4.580109
552.9816, 4.626709
553.4637, 4.777008
553.9458, 5.046265
554.4279, 5.245392
554.9100, 5.273071
555.3922, 5.163605
555.8743, 5.077393
556.3564, 4.996887
556.8385, 4.829163
557.3206, 4.544281
557.8027, 4.106445
558.2849, 3.359436
558.7670, 2.201874
559.2491, 1.123779
559.7312, 0.5681760
560.2133, 0.2964480
560.6954, 1.3123000E-02
561.1776, 0.1818540
561.6597, 0.7648320
562.1418, 2.069092
562.6239, 3.886169
563.1060, 5.588409
563.5881, 7.137299
564.0703, 8.819641
564.5524, 10.70441
565.0345, 12.78650
565.5166, 15.29480
565.9987, 18.52390
566.4808, 21.72525
566.9630, 23.99069
567.4451, 25.07706
567.9272, 27.98233
568.4093, 33.53763
568.8914, 39.64899
569.3735, 43.11392
569.8557, 44.40790
570.3378, 45.92697
570.8199, 48.34039
571.3020, 51.56689
571.7841, 55.78094
572.2662, 60.76593
572.7484, 65.71463
573.2305, 69.84027
573.7126, 74.07700
574.1947, 79.41428
574.6768, 85.95972
575.1589, 92.02475
575.6411, 95.80109
576.1232, 99.59946
576.6053, 105.0307
577.0874, 113.3721
577.5695, 121.4718
578.0516, 129.3274
578.5338, 136.8515
579.0159, 144.0818
579.4980, 150.9832
579.9801, 157.3293
580.4622, 162.9954
580.9443, 168.1223
581.4265, 173.2330
581.9086, 178.3293
582.3907, 182.2926
582.8728, 184.5648
583.3549, 185.2551
583.8370, 184.5955
584.3192, 182.5999
584.8013, 179.5023
585.2834, 175.4318
585.7655, 170.3408
586.2476, 164.0563
586.7297, 156.2601
587.2118, 148.0265
587.6939, 139.7598
588.1760, 131.2639
588.6581, 122.2844
589.1403, 111.1992
589.6224, 101.5059
590.1045, 94.23425
590.5866, 88.69211
591.0687, 82.48904
591.5508, 75.25412
592.0330, 68.32962
592.5151, 62.21954
592.9972, 56.89032
593.4793, 51.86148
593.9614, 47.08316
594.4435, 42.99976
594.9257, 40.43814
595.4078, 38.88583
595.8899, 36.57779
596.3720, 33.24579
596.8541, 29.86862
597.3362, 27.43201
597.8184, 25.54214
598.3005, 23.57364
598.7826, 21.15289
599.2647, 18.91510
599.7468, 17.16714
600.2289, 15.81952
600.7111, 14.67062
601.1932, 13.63824
601.6753, 12.85352
602.1574, 12.50433
602.6395, 12.53180
603.1216, 12.11670
603.6038, 11.02274
604.0859, 9.892883
604.5680, 9.032104
605.0501, 8.441895
605.5322, 8.044250
606.0143, 7.862793
606.4965, 7.742828
606.9786, 7.639465
607.4607, 7.435852
607.9428, 6.695038
608.4249, 5.144379
608.9070, 3.648071
609.3892, 3.210297
609.8713, 3.457947
610.3534, 3.685974
610.8355, 3.702972
611.3176, 3.526917
611.7997, 3.041107
612.2819, 2.343353
612.7640, 1.786377
613.2461, 1.936890
613.7282, 1.741882
614.2103, 0.5873110
614.6924, 1.607910
615.1746, 2.711700
615.6567, 2.294617
616.1388, 1.552917
616.6209, 1.292755
617.1030, 1.542786
617.5851, 1.625763
618.0673, 1.479126
618.5494, 1.358704
619.0315, 2.036072
619.5136, 3.006226
619.9957, 2.620209
620.4778, 0.2225040
620.9600, 3.025482
621.4421, 3.039063
621.9242, 1.307770
622.4063, 3.6956999E-02
622.8884, 0.2955320
623.3705, 0.7183530
623.8527, 0.3340760
624.3348, 0.6752010
624.8169, 0.9041140
625.2990, 0.5788880
625.7811, 2.010406
626.2632, 2.725769
626.7454, 2.673615
627.2275, 2.766479
627.7096, 3.120331
628.1917, 3.321625
628.6738, 2.826355
629.1559, 1.740997
629.6381, 1.301300
630.1202, 1.678192
630.6023, 2.420105
631.0844, 3.326416
631.5665, 4.197052
632.0486, 4.526825
632.5308, 3.752136
633.0129, 3.123108
633.4950, 3.698212
633.9771, 5.013977
634.4592, 6.195160
634.9413, 6.892151
635.4235, 7.488953
635.9056, 8.064056
636.3877, 8.622314
636.8698, 9.195801
637.3519, 9.696564
637.8340, 10.34326
638.3162, 11.31281
638.7983, 12.59827
639.2804, 13.34976
639.7625, 13.47736
640.2446, 13.58005
640.7267, 14.23724
641.2089, 15.27313
641.6910, 16.03412
642.1731, 16.42535
642.6552, 16.81580
643.1373, 17.61307
643.6194, 18.58670
644.1016, 19.40402
644.5837, 19.80182
645.0658, 20.33167
645.5479, 21.07904
646.0300, 22.13547
646.5121, 23.61993
646.9943, 26.19006
647.4764, 28.44244
647.9585, 30.15637
648.4406, 31.41980
648.9227, 32.52353
649.4048, 33.32108
649.8870, 34.45398
650.3691, 36.28589
650.8512, 38.65369
651.3333, 41.10580
651.8154, 43.61914
652.2975, 45.83646
652.7797, 47.11862
653.2618, 48.12366
653.7439, 49.87445
654.2260, 52.45703
654.7081, 55.37292
655.1902, 58.45752
655.6724, 61.62463
656.1545, 64.87521
656.6366, 68.37775
657.1187, 71.58487
657.6008, 73.68143
658.0829, 75.83902
658.5651, 79.46603
659.0472, 85.30112
659.5293, 90.55914
660.0114, 94.77194
660.4935, 98.37186
660.9756, 102.1409
661.4578, 106.0430
661.9399, 110.1594
662.4220, 114.6561
662.9041, 119.2134
663.3862, 123.5044
663.8683, 127.4893
664.3505, 131.1063
664.8326, 134.5363
665.3147, 137.3592
665.7968, 139.1726
666.2789, 139.9754
666.7610, 140.3457
667.2432, 140.6889
667.7253, 140.4944
668.2074, 139.5190
668.6895, 137.6835
669.1716, 135.3528
669.6537, 132.4325
670.1359, 129.1415
670.6180, 125.9014
671.1001, 122.7192
671.5822, 118.1126
672.0643, 111.7485
672.5464, 104.5243
673.0286, 97.27298
673.5107, 90.31174
673.9928, 84.14615
674.4749, 79.28690
674.9570, 74.36371
675.4391, 67.92502
675.9213, 60.98456
676.4034, 55.19055
676.8855, 52.39667
677.3676, 49.23950
677.8497, 44.56580
678.3318, 39.26288
678.8140, 35.25894
679.2961, 32.83322
679.7782, 30.75717
680.2603, 28.76508
680.7424, 26.84357
681.2245, 24.17935
681.7067, 20.71906
682.1888, 17.63489
682.6709, 16.01672
683.1530, 15.30331
683.6351, 14.37628
684.1172, 13.18018
684.5994, 11.86737
685.0815, 10.42105
685.5636, 9.001282
686.0457, 7.692291
686.5278, 6.480438
687.0099, 5.470337
687.4921, 4.716736
687.9742, 4.190430
688.4563, 3.874878
688.9384, 3.778809
689.4205, 3.900055
689.9026, 4.355316
690.3848, 4.777130
690.8669, 4.622131
691.3490, 3.963257
691.8311, 3.302582
692.3132, 2.685333
692.7953, 2.240631
693.2775, 2.083679
693.7596, 2.219971
694.2417, 2.662506
694.7238, 4.168915
695.2059, 5.200226
695.6880, 4.565704
696.1702, 2.911804
696.6523, 2.048798
697.1344, 2.815918
697.6165, 3.693298
698.0986, 4.428589
698.5807, 5.023682
699.0629, 5.497772
699.5450, 5.887177
700.0271, 6.021057
700.5092, 5.481110
700.9913, 4.665100
701.4734, 5.147797
701.9556, 6.846771
702.4377, 8.620117
702.9198, 9.682251
703.4019, 10.39566
703.8840, 11.06631
704.3661, 11.72318
704.8483, 12.51059
705.3304, 13.43011
705.8125, 14.53842
706.2946, 15.86398
706.7767, 17.34760
707.2589, 19.23108
707.7410, 21.57477
708.2231, 24.20456
708.7052, 27.09375
709.1873, 30.25385
709.6694, 33.03195
710.1516, 35.23889
710.6337, 37.59076
711.1158, 40.91943
711.5979, 45.08646
712.0800, 49.82617
712.5621, 55.52094
713.0443, 60.83929
713.5264, 64.05933
714.0085, 66.55615
714.4906, 70.46896
714.9727, 77.91190
715.4548, 84.80066
715.9370, 90.50607
716.4191, 95.32562
716.9012, 99.99420
717.3833, 104.4097
717.8654, 108.8672
718.3475, 113.4203
718.8297, 118.1038
719.3118, 123.4389
719.7939, 129.2121
720.2760, 134.1582
720.7581, 137.0884
721.2402, 139.1367
721.7224, 141.5317
722.2045, 144.1165
722.6866, 146.1340
723.1687, 147.6702
723.6508, 148.1934
724.1329, 147.3563
724.6151, 145.1328
725.0972, 141.9435
725.5793, 137.0713
726.0614, 132.5054
726.5435, 129.8090
727.0256, 128.8479
727.5078, 125.3529
727.9899, 119.1663
728.4720, 112.0700
728.9541, 104.8650
729.4362, 97.90283
729.9183, 92.00476
730.4005, 87.31552
730.8826, 83.14978
731.3647, 78.67804
731.8468, 74.80368
732.3289, 72.40421
732.8110, 72.02496
733.2932, 72.12750
733.7753, 72.89978
734.2574, 73.73874
734.7395, 74.05466
735.2216, 73.68726
735.7037, 73.95270
736.1859, 75.00217
736.6680, 76.51196
737.1501, 77.98788
737.6322, 79.56171
738.1143, 81.73880
738.5964, 84.81873
739.0786, 88.26581
739.5607, 91.57971
740.0428, 94.89142
740.5249, 98.40027
741.0070, 102.7432
741.4891, 106.6223
741.9713, 109.6152
742.4534, 112.0748
742.9355, 114.5675
743.4176, 117.4120
743.8997, 119.0897
744.3818, 119.0036
744.8640, 118.0034
745.3461, 117.8459
745.8282, 118.3983
746.3103, 118.8284
746.7924, 119.1343
747.2745, 118.7788
747.7567, 116.7626
748.2388, 113.6244
748.7209, 110.7476
749.2030, 108.6718
749.6851, 106.9145
750.1672, 105.6573
750.6494, 104.6407
751.1315, 102.8176
751.6136, 99.80988
752.0957, 96.88620
752.5778, 94.67548
753.0599, 92.80453
753.5421, 89.47107
754.0242, 84.80920
754.5063, 80.18750
754.9884, 76.60840
755.4705, 73.40671
755.9526, 69.86359
756.4348, 65.98032
756.9169, 61.97101
757.3990, 57.52847
757.8811, 53.37057
758.3632, 49.82529
758.8453, 46.92758
759.3275, 44.21603
759.8096, 41.67004
760.2917, 39.38995
760.7738, 37.44107
761.2559, 35.81265
761.7380, 33.98184
762.2202, 31.94086
762.7023, 30.57919
763.1844, 31.81787
763.6665, 33.53641
764.1486, 32.09329
764.6307, 27.39966
765.1129, 23.13617
765.5950, 21.54791
766.0771, 20.71350
766.5592, 19.44992
767.0413, 17.53333
767.5234, 15.74713
768.0056, 13.85468
768.4877, 12.46533
768.9698, 12.38025
769.4519, 13.56226
769.9340, 13.31528
770.4161, 11.52698
770.8983, 9.288391
771.3804, 6.971283
771.8625, 5.060181
772.3446, 4.664093
772.8267, 6.090149
773.3088, 7.098206
773.7910, 6.154419
774.2731, 4.616791
774.7552, 3.520874
775.2373, 3.106293
775.7194, 2.718414
776.2015, 2.359985
776.6837, 1.991638
777.1658, 1.451935
777.6479, 0.7700200
778.1300, 0.7840580
778.6121, 1.670074
779.0942, 2.421875
779.5764, 1.734100
780.0585, 0.3676760
780.5406, 0.5310360
781.0227, 0.6811830
781.5048, 0.6158450
781.9869, 0.5048520
782.4691, 0.3570560
782.9512, 0.1687010
783.4332, 0.1810910
783.9153, 0.3027340
784.3975, 6.4879999E-02
784.8796, 0.2162480
785.3617, 0.1849980
785.8438, 0.1281130
786.3259, 0.5614010
786.8080, 1.154602
787.2902, 1.489075
787.7723, 0.8300170
788.2544, 0.2521970
788.7365, 0.9185180
789.2186, 0.8309940
789.7007, 0.7135010
790.1829, 0.8757320
790.6650, 1.088257
791.1471, 1.103943
791.6292, 0.7215580
792.1113, 0.5933840
792.5934, 0.7901610
793.0756, 1.113525
793.5577, 1.382751
794.0398, 1.579468
794.5219, 1.521179
795.0040, 1.054138
795.4861, 0.7191160
795.9683, 1.395142
796.4504, 2.396362
796.9325, 2.799255
797.4146, 2.200867
797.8967, 1.350159
798.3788, 0.1175540
798.8610, 1.458435
799.3431, 1.824585
799.8252, 0.7567750
800.3073, 0.2026980
800.7894, 0.3415530
801.2715, 0.9494020
801.7537, 2.077515
802.2358, 3.441589
802.7179, 4.013611
803.2000, 3.375427
803.6821, 2.567017
804.1642, 2.298462
804.6464, 2.387756
805.1285, 2.660522
805.6106, 3.427368
806.0927, 3.708618
806.5748, 3.248596
807.0569, 2.479614
807.5391, 1.725098
808.0212, 0.9284060
808.5033, 0.8469850
808.9854, 1.730347
809.4675, 2.861694
809.9496, 3.387390
810.4318, 3.452759
810.9139, 3.289001
811.3960, 2.823059
811.8781, 2.610901
812.3602, 3.032288
812.8423, 3.842346
813.3245, 4.811157
813.8066, 6.502197
814.2887, 7.004761
814.7708, 5.644836
815.2529, 4.074219
815.7350, 4.379944
816.2172, 6.392212
816.6993, 7.458862
817.1814, 7.113525
817.6635, 6.761292
818.1456, 8.273010
818.6277, 10.33020
819.1099, 11.11627
819.5920, 10.02405
820.0741, 8.721619
820.5562, 7.467224
821.0383, 6.449768
821.5204, 5.787720
822.0026, 5.465881
822.4847, 5.624268
822.9668, 6.366638
823.4489, 7.281555
823.9310, 8.005371
824.4131, 8.530640
824.8953, 8.581604
825.3774, 8.017578
825.8595, 7.991272
826.3416, 10.78546
826.8237, 13.70587
827.3058, 13.86218
827.7880, 9.508789
828.2701, 6.418823
828.7522, 5.533508
829.2343, 5.618347
829.7164, 5.930481
830.1985, 6.482605
830.6807, 7.237488
831.1628, 8.261963
831.6449, 8.892944
832.1270, 7.830261
832.6091, 6.219910
833.0912, 5.888062
833.5734, 7.039856
834.0555, 9.017029
834.5376, 13.15936
835.0197, 16.69080
835.5018, 17.10046
835.9839, 13.57623
836.4661, 12.98346
836.9482, 16.72211
837.4303, 19.93378
837.9124, 18.47357
838.3945, 13.50677
838.8766, 10.87878
839.3588, 10.60645
839.8409, 11.21442
840.3230, 12.43134
840.8051, 13.49377
841.2872, 13.75983
841.7693, 13.19232
842.2515, 12.02576
842.7336, 8.934387
843.2157, 6.840149
843.6978, 7.310913
844.1799, 10.04596
844.6620, 10.89441
845.1442, 9.713257
845.6263, 8.538574
846.1084, 8.512024
846.5905, 9.234985
847.0726, 10.55646
847.5547, 12.24689
848.0369, 13.26099
848.5190, 13.27460
849.0011, 12.33685
849.4832, 9.740723
849.9653, 6.001160
850.4474, 4.030273
850.9296, 4.483032
851.4117, 4.678528
851.8938, 3.545593
852.3759, 1.722961
852.8580, 0.8681640
853.3401, 0.8250730
853.8223, 0.8451540
854.3044, 0.5463260
854.7865, 0.2579960
855.2686, 0.4428710
855.7507, 0.8613890
856.2328, 0.9418330
856.7150, 0.1409910
857.1971, 0.7171020
857.6792, 0.2781980
858.1613, 0.5555420
858.6434, 0.3109740
859.1255, 0.9674680
859.6077, 1.786072
860.0898, 1.666687
860.5719, 1.140808
861.0540, 0.6370850
861.5361, 0.2216190
862.0182, 2.1179000E-02
862.5004, 0.2039790
862.9825, 0.2465820
863.4646, 0.1967770
863.9467, 0.7932740
864.4288, 1.250366
864.9109, 1.632019
865.3931, 1.534729
865.8752, 0.8582150
866.3573, 5.5969000E-02
866.8394, 0.8965450
867.3215, 1.626343
867.8036, 2.122986
868.2858, 2.313721
868.7679, 2.506653
869.2500, 2.863892
869.7321, 3.274414
870.2142, 3.702576
870.6964, 4.331177
871.1785, 4.176331
871.6606, 2.940491
872.1427, 1.683472
872.6248, 1.505920
873.1069, 2.107178
873.5891, 2.007202
874.0712, 1.148804
874.5533, 0.4696040
875.0354, 1.258484
875.5175, 2.054871
875.9996, 1.337219
876.4818, 1.068665
876.9639, 2.341980
877.4460, 1.598694
877.9281, 0.7011110
878.4102, 0.4024050
878.8923, 0.6192630
879.3745, 0.7307740
879.8566, 0.7632450
880.3387, 1.079956
880.8208, 1.973145
881.3029, 3.200562
881.7850, 4.943970
882.2672, 6.889709
882.7493, 7.931458
883.2314, 6.764771
883.7135, 5.854187
884.1956, 5.699890
884.6777, 6.237427
885.1599, 7.357117
885.6420, 9.070190
886.1241, 10.99475
886.6062, 13.16101
887.0883, 15.23828
887.5704, 16.42188
888.0526, 17.24194
888.5347, 18.68805
889.0168, 21.38959
889.4989, 24.29437
889.9810, 27.42346
890.4631, 30.32452
890.9453, 32.33069
891.4274, 33.02106
891.9095, 34.80817
892.3916, 38.02509
892.8737, 41.92377
893.3558, 45.99805
893.8380, 50.05817
894.3201, 53.45239
894.8022, 55.95111
895.2843, 59.34253
895.7664, 65.47992
896.2485, 72.22552
896.7307, 77.89905
897.2128, 82.19135
897.6949, 87.39471
898.1770, 93.53235
898.6591, 100.4814
899.1412, 108.5641
899.6234, 117.3553
900.1055, 125.3057
900.5876, 132.6150
901.0697, 141.7685
901.5518, 156.1595
902.0339, 170.8698
902.5161, 182.2810
902.9982, 190.7504
903.4803, 201.0226
903.9624, 213.2308
904.4445, 226.8219
904.9266, 241.6045
905.4088, 257.5341
905.8909, 274.9074
906.3730, 293.4207
906.8551, 311.6370
907.3372, 327.9761
907.8193, 345.5408
908.3015, 366.8114
908.7836, 390.6464
909.2657, 415.1245
909.7478, 439.7148
910.2299, 465.3429
910.7120, 491.9330
911.1942, 519.7299
911.6763, 549.6927
912.1584, 581.4481
912.6405, 613.8786
913.1226, 646.5714
913.6047, 679.7947
914.0869, 714.4413
914.5690, 749.1021
915.0511, 782.8013
915.5332, 815.7318
916.0153, 846.5594
916.4974, 876.3489
916.9796, 902.1097
917.4617, 922.8827
917.9438, 938.5452
918.4259, 948.1494
918.9080, 951.6154
919.3901, 948.0395
919.8723, 936.5878
920.3544, 917.9794
920.8365, 892.1246
921.3186, 859.4058
921.8007, 821.2549
922.2828, 775.9787
922.7650, 728.3011
923.2471, 679.1544
923.7292, 628.9532
924.2113, 578.0059
924.6934, 527.1329
925.1755, 479.0461
925.6577, 435.2435
926.1398, 394.5729
926.6219, 356.3299
927.1040, 320.4856
927.5861, 287.3464
928.0682, 256.6456
928.5504, 229.5386
929.0325, 206.8176
929.5146, 187.0821
929.9967, 169.1285
930.4788, 152.9724
930.9609, 138.0897
931.4431, 124.3909
931.9252, 112.4353
932.4073, 102.9376
932.8894, 94.69916
933.3715, 86.48444
933.8536, 78.26855
934.3358, 71.82599
934.8179, 67.95612
935.3000, 64.30994
935.7821, 59.70575
936.2642, 54.59802
936.7463, 51.03516
937.2285, 48.82703
937.7106, 46.77655
938.1927, 43.68713
938.6748, 41.04443
939.1569, 40.40808
939.6390, 40.97003
940.1212, 40.92859
940.6033, 39.87939
941.0854, 38.40601
941.5675, 36.18201
942.0496, 34.13690
942.5317, 33.80493
943.0139, 34.99469
943.4960, 36.80524
943.9781, 39.23309
944.4602, 41.07458
944.9423, 40.46313
945.4244, 39.58502
945.9066, 40.56482
946.3887, 44.33917
946.8708, 47.06134
947.3529, 48.08441
947.8350, 49.84491
948.3171, 54.39978
948.7993, 60.80322
949.2814, 65.10138
949.7635, 67.66107
950.2456, 71.31879
950.7277, 78.53326
951.2098, 86.50171
951.6920, 93.41614
952.1741, 99.77173
952.6562, 107.3549
953.1383, 116.1744
953.6204, 126.3119
954.1025, 137.8389
954.5847, 150.4570
955.0668, 164.4777
955.5489, 179.4556
956.0310, 193.7924
956.5131, 206.0490
956.9952, 220.1748
957.4774, 239.1799
957.9595, 260.4644
958.4416, 281.8419
958.9237, 302.9638
959.4058, 325.6349
959.8879, 349.8904
960.3701, 374.6550
960.8522, 398.9328
961.3343, 423.3362
961.8164, 448.4357
962.2985, 474.3097
962.7806, 500.0706
963.2628, 524.9880
963.7449, 550.0536
964.2270, 576.7186
964.7091, 603.9628
965.1912, 628.7093
965.6733, 651.0433
966.1555, 669.8425
966.6376, 684.8182
967.1197, 696.5602
967.6018, 706.2129
968.0839, 712.9672
968.5660, 715.3920
969.0482, 713.5247
969.5303, 706.4011
970.0124, 692.4943
970.4945, 674.7802
970.9766, 654.9709
971.4587, 633.2322
971.9409, 608.2950
972.4230, 580.1599
972.9051, 551.3309
973.3872, 522.4547
973.8693, 494.6602
974.3514, 469.2762
974.8336, 446.3835
975.3157, 425.4061
975.7978, 405.0488
976.2799, 388.8239
976.7620, 378.6235
977.2441, 372.0583
977.7263, 363.6658
978.2084, 353.7770
978.6905, 344.2913
979.1726, 335.3582
979.6547, 328.1063
980.1368, 324.3872
980.6190, 322.2997
981.1010, 319.8425
981.5831, 317.0509
982.0652, 313.1151
982.5474, 307.7263
983.0295, 302.0864
983.5116, 298.0848
983.9937, 294.4314
984.4758, 287.2686
984.9579, 276.7880
985.4401, 265.2869
985.9222, 253.7194
986.4043, 241.6857
986.8864, 229.0206
987.3685, 215.7120
987.8506, 201.4683
988.3328, 186.2067
988.8149, 171.1711
989.2970, 156.5276
989.7791, 142.6418
990.2612, 130.1889
990.7433, 118.7828
991.2255, 107.8656
991.7076, 97.68939
992.1897, 87.10052
992.6718, 74.87488
993.1539, 63.28735
993.6360, 53.80121
994.1182, 46.39197
994.6003, 39.87817
995.0824, 34.21643
995.5645, 29.22345
996.0466, 24.59045
996.5287, 20.58850
997.0109, 17.99164
997.4930, 16.30652
997.9751, 13.63153
998.4572, 8.723572
998.9393, 4.728271
999.4214, 2.292725
999.9036, 0.7481080
1000.386, 1.092590
1000.868, 2.946167
1001.350, 3.705872
1001.832, 2.974304
1002.314, 2.218811
1002.796, 2.563477
1003.278, 3.088257
1003.760, 2.929199
1004.243, 1.970825
1004.725, 2.157410
1005.207, 3.706848
1005.689, 5.173401
1006.171, 5.837402
1006.653, 5.893738
1007.135, 5.491150
1007.617, 4.751160
1008.100, 3.944458
1008.582, 2.929810
1009.064, 2.223572
1009.546, 1.945801
1010.028, 1.998474
1010.510, 2.453674
1010.992, 3.264343
1011.474, 3.309753
1011.956, 2.396790
1012.439, 1.464539
1012.921, 1.618591
1013.403, 1.868286
1013.885, 1.135193
1014.367, 0.7177730
1014.849, 1.895935
1015.331, 2.070557
1015.813, 2.237793
1016.296, 2.590637
1016.778, 3.353699
1017.260, 5.622131
1017.742, 8.742310
1018.224, 10.80737
1018.706, 10.19214
1019.188, 9.960876
1019.670, 11.87213
1020.152, 14.40820
1020.635, 15.97803
1021.117, 16.33698
1021.599, 17.19318
1022.081, 18.60785
1022.563, 20.09106
1023.045, 21.41040
1023.527, 22.47461
1024.009, 22.82941
1024.492, 22.69714
1024.974, 23.44891
1025.456, 26.45709
1025.938, 28.76941
1026.420, 29.57568
1026.902, 29.63483
1027.384, 30.27679
1027.866, 31.43457
1028.349, 32.80096
1028.831, 34.26923
1029.313, 36.08112
1029.795, 39.05786
1030.277, 41.97247
1030.759, 43.58978
1031.241, 43.75305
1031.723, 44.71893
1032.205, 46.52454
1032.688, 49.03784
1033.170, 52.47784
1033.652, 56.33258
1034.134, 59.57373
1034.616, 62.57452
1035.098, 66.36993
1035.580, 72.28088
1036.062, 77.63428
1036.544, 81.74329
1037.027, 85.56860
1037.509, 90.42548
1037.991, 96.10876
1038.473, 100.5804
1038.955, 103.6936
1039.437, 107.1622
1039.919, 112.8483
1040.401, 118.7626
1040.884, 123.3843
1041.366, 126.8513
1041.848, 131.0296
1042.330, 135.9373
1042.812, 141.4822
1043.294, 147.8324
1043.776, 154.6049
1044.258, 162.5935
1044.740, 170.4445
1045.223, 175.5896
1045.705, 176.3331
1046.187, 177.5668
1046.669, 180.1245
1047.151, 183.5541
1047.633, 187.7494
1048.115, 192.5897
1048.597, 197.3714
1049.079, 201.9758
1049.562, 205.1861
1050.044, 205.2304
1050.526, 204.7379
1051.008, 205.1732
1051.490, 206.2015
1051.972, 207.0482
1052.454, 207.6376
1052.936, 208.2772
1053.419, 209.0400
1053.901, 209.6213
1054.383, 209.5369
1054.865, 209.1589
1055.347, 209.0289
1055.829, 209.2064
1056.311, 209.4514
1056.793, 209.7139
1057.276, 210.1520
1057.758, 211.0789
1058.240, 211.9484
1058.722, 210.8002
1059.204, 212.4484
1059.686, 212.6141
1060.168, 211.3622
1060.650, 205.2258
1061.132, 204.6431
1061.615, 201.4073
1062.097, 197.8445
1062.579, 197.2698
1063.061, 190.2605
1063.543, 188.8531
1064.025, 184.6700
1064.507, 181.2488
1064.989, 175.1572
1065.471, 169.5370
1065.954, 166.0603
1066.436, 161.0731
1066.918, 153.7689
1067.400, 148.8788
1067.882, 138.8217
1068.364, 132.6881
1068.846, 128.0515
1069.328, 115.7939
1069.811, 108.6469
1070.293, 101.8584
1070.775, 95.85193
1071.257, 91.85315
1071.739, 88.06152
1072.221, 83.51013
1072.703, 78.36414
1073.185, 73.23071
1073.667, 68.24011
1074.150, 64.36707
1074.632, 61.97668
1075.114, 60.10303
1075.596, 58.34131
1076.078, 56.50159
1076.560, 54.06604
1077.042, 50.57727
1077.524, 49.50427
1078.006, 51.67786
1078.489, 53.21143
1078.971, 51.65332
1079.453, 48.52478
1079.935, 46.22168
1080.417, 44.75769
1080.899, 44.15808
1081.381, 45.41980
1081.863, 46.09900
1082.345, 45.70837
1082.828, 44.93750
1083.310, 44.37610
1083.792, 44.01819
1084.274, 43.82458
1084.756, 43.75830
1085.238, 43.57690
1085.720, 42.73853
1086.202, 42.15198
1086.685, 42.94836
1087.167, 44.24158
1087.649, 43.64026
1088.131, 40.83435
1088.613, 38.90186
1089.095, 38.43030
1089.577, 38.49951
1090.059, 38.55713
1090.542, 38.38159
1091.024, 37.65771
1091.506, 36.31384
1091.988, 34.94873
1092.470, 33.44299
1092.952, 32.39282
1093.434, 32.26807
1093.916, 32.32275
1094.398, 30.68115
1094.880, 28.17664
1095.363, 26.84851
1095.845, 28.09631
1096.327, 28.15601
1096.809, 25.05042
1097.291, 21.77673
1097.773, 20.07312
1098.255, 19.81274
1098.737, 20.68701
1099.220, 22.36682
1099.702, 22.77136
1100.184, 19.48059
1100.666, 16.08813
1101.148, 14.46521
1101.630, 13.83398
1102.112, 13.08569
1102.594, 12.22119
1103.077, 11.30347
1103.559, 10.34998
1104.041, 9.379761
1104.523, 8.195190
1105.005, 7.180786
1105.487, 6.324341
1105.969, 5.884277
1106.451, 7.271851
1106.933, 11.70752
1107.416, 14.44653
1107.898, 14.52625
1108.380, 12.99316
1108.862, 10.45422
1109.344, 7.577515
1109.826, 5.341187
1110.308, 3.900269
1110.790, 3.258911
1111.272, 3.907104
1111.755, 4.650635
1112.237, 5.282837
1112.719, 5.621094
1113.201, 5.043213
1113.683, 3.784180
1114.165, 2.464722
1114.647, 0.9809570
1115.129, 0.3259280
1115.612, 1.899536
1116.094, 3.642212
1116.576, 4.139893
1117.058, 3.463989
1117.540, 2.822754
1118.022, 2.198364
1118.504, 1.523071
1118.986, 0.5898440
1119.469, 0.2117920
1119.951, 0.6564940
1120.433, 0.8013920
1120.915, 0.6873780
1121.397, 0.2189940
1121.879, 3.1128000E-02
1122.361, 6.3231997E-02
1122.843, 0.1965330
1123.325, 1.069580
1123.807, 2.031128
1124.290, 2.478760
1124.772, 2.514160
1125.254, 2.566528
1125.736, 2.629639
1126.218, 2.878662
1126.700, 3.506714
1127.182, 3.773804
1127.664, 2.182983
1128.147, 5.7372998E-02
1128.629, 0.6497800
1129.111, 0.4667970
1129.593, 1.301270
1130.075, 0.9538570
1130.557, 0.8471680
1131.039, 1.550537
1131.521, 2.370850
1132.004, 1.811890
1132.486, 0.2806400
1132.968, 1.266968
1133.450, 2.753662
1133.932, 3.522461
1134.414, 2.384644
1134.896, 1.465576
1135.378, 2.049438
1135.860, 3.604736
1136.343, 3.623535
1136.825, 2.375732
1137.307, 1.338257
1137.789, 0.7576900
1138.271, 1.106934
1138.753, 3.679810
1139.235, 6.520508
1139.717, 7.873047
1140.199, 7.726074
1140.682, 6.844849
1141.164, 5.241455
1141.646, 4.497803
1142.128, 6.265381
1142.610, 8.234253
1143.092, 8.690308
1143.574, 8.034180
1144.056, 6.729126
1144.539, 4.370361
1145.021, 3.331543
1145.503, 3.763306
1145.985, 4.542969
1146.467, 4.916138
1146.949, 5.151855
1147.431, 5.464233
1147.913, 5.912476
1148.396, 6.559692
1148.878, 7.764160
1149.360, 8.123779
1149.842, 7.236450
1150.324, 6.539917
1150.806, 8.250488
1151.288, 10.66248
1151.770, 11.05151
1152.252, 9.540527
1152.734, 8.324463
1153.217, 7.722290
1153.699, 7.841431
1154.181, 8.943237
1154.663, 10.26953
1155.145, 10.95251
1155.627, 11.05298
1156.109, 10.45703
1156.591, 9.150513
1157.074, 8.359497
1157.556, 9.471802
1158.038, 9.900024
1158.520, 8.616821
1159.002, 6.582397
1159.484, 5.882324
1159.966, 6.230469
1160.448, 6.826294
1160.931, 7.554810
1161.413, 8.151855
1161.895, 8.317749
1162.377, 8.473389
1162.859, 8.976563
1163.341, 9.577393
1163.823, 8.907471
1164.305, 7.325439
1164.787, 6.591187
1165.270, 7.572998
1165.752, 8.722412
1166.234, 9.657959
1166.716, 9.989502
1167.198, 9.166870
1167.680, 7.358887
1168.162, 6.852051
1168.644, 7.559082
1169.126, 8.599976
1169.609, 10.19824
1170.091, 11.09314
1170.573, 9.374878
1171.055, 7.373657
1171.537, 7.831909
1172.019, 11.08862
1172.501, 12.66785
1172.983, 12.55713
1173.466, 12.04480
1173.948, 11.15955
1174.430, 10.68408
1174.912, 11.92969
1175.394, 13.61890
1175.876, 13.50269
1176.358, 11.04285
1176.840, 10.36707
1177.323, 11.77222
1177.805, 12.95837
1178.287, 11.53784
1178.769, 9.523804
1179.251, 9.015137
1179.733, 9.446533
1180.215, 9.059204
1180.697, 7.104492
1181.179, 6.763794
1181.661, 8.550049
1182.144, 10.32117
1182.626, 9.969849
1183.108, 8.857910
1183.590, 8.053711
1184.072, 7.656006
1184.554, 7.865112
1185.036, 9.008179
1185.518, 9.508179
1186.001, 9.080811
1186.483, 8.275757
1186.965, 7.258789
1187.447, 6.493896
1187.929, 6.929199
1188.411, 8.402466
1188.893, 8.809814
1189.375, 7.916504
1189.858, 6.527710
1190.340, 4.692627
1190.822, 3.008179
1191.304, 1.666626
1191.786, 1.235474
1192.268, 3.086304
1192.750, 7.400757
1193.232, 9.311523
1193.714, 7.930420
1194.197, 6.495605
1194.679, 5.844971
1195.161, 5.735596
1195.643, 6.093750
1196.125, 6.624634
1196.607, 6.850098
1197.089, 6.573486
1197.571, 6.872559
1198.053, 8.248535
1198.536, 8.715698
1199.018, 7.242920
1199.500, 5.192505
1199.982, 4.385986
1200.464, 4.553467
1200.946, 5.755859
1201.428, 8.737671
1201.910, 9.068604
1202.393, 5.614990
1202.875, 2.830688
1203.357, 3.328247
1203.839, 4.916870
1204.321, 3.543335
1204.803, 0.7806400
1205.285, 0.7003170
1205.767, 8.6548001E-02
1206.250, 1.491943
1206.732, 4.522339
1207.214, 6.786743
1207.696, 6.488892
1208.178, 5.146484
1208.660, 5.369751
1209.142, 6.519165
1209.624, 7.380859
1210.106, 7.528931
1210.589, 7.447021
1211.071, 6.738159
1211.553, 7.191284
1212.035, 11.84961
1212.517, 16.99231
1212.999, 15.14771
1213.481, 9.257813
1213.963, 5.624390
1214.445, 7.783691
1214.928, 8.990112
1215.410, 9.139038
1215.892, 8.830688
1216.374, 8.492432
1216.856, 8.003052
1217.338, 6.773926
1217.820, 5.284058
1218.302, 4.663452
1218.785, 4.845581
1219.267, 6.877563
1219.749, 11.44568
1220.231, 15.46631
1220.713, 16.51123
1221.195, 15.55042
1221.677, 13.39270
1222.159, 10.46350
1222.641, 7.850464
1223.124, 5.350342
1223.606, 4.229736
1224.088, 4.773682
1224.570, 5.794189
1225.052, 6.460815
1225.534, 6.844238
1226.016, 7.165039
1226.498, 7.307861
1226.980, 6.724731
1227.463, 4.811523
1227.945, 3.960693
1228.427, 4.575195
1228.909, 5.043213
1229.391, 3.425293
1229.873, 1.203613
1230.355, 0.2257080
1230.837, 0.7750240
1231.320, 0.2733150
1231.802, 1.716797
1232.284, 3.107544
1232.766, 3.743652
1233.248, 3.555542
1233.730, 1.873535
1234.212, 0.1921390
1234.694, 1.915894
1235.177, 2.967285
1235.659, 2.258301
1236.141, 1.019165
1236.623, 2.060425
1237.105, 3.0517999E-02
1237.587, 1.979736
1238.069, 0.2775880
1238.551, 2.377686
1239.033, 3.508789
1239.516, 3.463745
1239.998, 4.090942
1240.480, 5.413696
1240.962, 6.731812
1241.444, 7.991455
1241.926, 8.646484
1242.408, 7.695068
1242.890, 6.505371
1243.372, 6.169312
1243.855, 6.425537
1244.337, 6.563599
1244.819, 6.578369
1245.301, 6.371826
1245.783, 5.947754
1246.265, 5.089844
1246.747, 2.972656
1247.229, 1.151855
1247.712, 0.8354490
1248.194, 1.355347
1248.676, 1.129272
1249.158, 0.2634280
1249.640, 0.2142330
1250.122, 1.283081
1250.604, 2.141968
1251.086, 1.629761
1251.568, 0.8785400
1252.051, 0.2399900
1252.533, 0.1640630
1253.015, 9.3872003E-02
1253.497, 0.4222410
1253.979, 1.760132
1254.461, 4.045166
1254.943, 5.684937
1255.425, 6.320190
1255.907, 5.818726
1256.390, 3.549316
1256.872, 0.6783450
1257.354, 0.4503170
1257.836, 0.1762700
1258.318, 0.7288820
1258.800, 2.177490
1259.282, 3.011597
1259.764, 1.983765
1260.247, 1.523193
1260.729, 2.541260
1261.211, 4.046387
1261.693, 4.011719
1262.175, 3.317383
1262.657, 4.026855
1263.139, 6.417114
1263.621, 7.768555
1264.104, 7.065430
1264.586, 5.924805
1265.068, 4.554810
1265.550, 3.284668
1266.032, 2.528442
1266.514, 2.205078
1266.996, 2.329590
1267.478, 2.772705
1267.960, 2.835938
1268.443, 2.262695
1268.925, 3.073120
1269.407, 6.202637
1269.889, 8.606567
1270.371, 7.319702
1270.853, 4.726563
1271.335, 2.962769
1271.817, 2.856934
1272.299, 3.182373
1272.782, 4.029541
1273.264, 4.811890
1273.746, 5.436523
1274.228, 5.531372
1274.710, 4.162598
1275.192, 2.666504
1275.674, 2.287720
1276.156, 2.780396
1276.639, 3.085327
1277.121, 3.125122
1277.603, 4.634277
1278.085, 8.016724
1278.567, 10.79175
1279.049, 11.54224
1279.531, 10.76343
1280.013, 7.871460
1280.495, 3.981445
1280.978, 2.002441
1281.460, 1.897461
1281.942, 2.212402
1282.424, 2.594116
1282.906, 2.706177
1283.388, 2.098022
1283.870, 1.398804
1284.352, 0.6145020
1284.834, 5.8472000E-02
1285.317, 0.6049800
1285.799, 1.900269
1286.281, 2.964111
1286.763, 3.661621
1287.245, 4.131836
1287.727, 3.565918
1288.209, 3.972168
1288.691, 6.283691
1289.173, 8.933838
1289.656, 9.566528
1290.138, 10.76343
1290.620, 9.418701
1291.102, 10.62256
1291.584, 10.38062
1292.066, 8.217773
1292.548, 5.304688
1293.030, 1.420044
1293.513, 1.484985
1293.995, 0.9985350
1294.477, 1.191772
1294.959, 4.344849
1295.441, 7.943848
1295.923, 8.986572
1296.405, 7.182007
1296.887, 4.835449
1297.370, 2.133301
1297.852, 0.7476810
1298.334, 3.098755
1298.816, 6.450073
1299.298, 7.460083
1299.780, 9.073975
1300.262, 8.014404
1300.744, 4.610596
1301.226, 3.705566
1301.708, 5.891846
1302.191, 7.965820
1302.673, 6.594116
1303.155, 4.961060
1303.637, 2.977539
1304.119, 0.0000000E+00
##END=



