##NAMES=Pharmacosiderite
##RRUFFID=R050574
##IDEAL CHEMISTRY=KFe^3+^_4_(As^5+^O_4_)_3_(OH)_4_&#183;6-7H_2_O
##LOCALITY=Cornwall, England
##OWNER=RRUFF
##SOURCE=University of Arizona Mineral Museum
##DESCRIPTION=Druse of bluish-green cubes
##STATUS=The identification of this mineral is confirmed by single-crystal X-ray diffraction and chemical analysis.
##URL=rruff.info/R050574
##MEASURED CHEMISTRY=K_1.27_(Fe^3+^_3.73_Fe^2+^_0.27_)_Σ=4_(As_1.00_O_4_)_3_(OH)_4_·6H_2_O
124.1473, 0.0000000E+00
124.6294, 22.27026
125.1115, 34.17627
125.5937, 1.302124
126.0758, 8.613892
126.5579, 1.939575
127.0400, 16.60474
127.5221, 21.60913
128.0043, 20.12964
128.4864, 22.08496
128.9685, 29.86047
129.4506, 43.07056
129.9327, 61.10425
130.4148, 83.67651
130.8969, 111.6117
131.3791, 149.0659
131.8612, 194.7582
132.3433, 236.0723
132.8254, 263.6930
133.3075, 279.1477
133.7896, 301.3967
134.2718, 331.4358
134.7539, 366.5969
135.2360, 403.8525
135.7181, 443.1462
136.2002, 477.4429
136.6823, 501.0100
137.1645, 512.7749
137.6466, 522.0515
138.1287, 528.7842
138.6108, 534.1086
139.0929, 544.7388
139.5750, 564.4419
140.0572, 582.0396
140.5393, 587.4224
141.0214, 576.4663
141.5035, 563.6487
141.9856, 549.8835
142.4677, 534.3032
142.9499, 527.6558
143.4320, 528.6492
143.9141, 539.3459
144.3962, 564.1104
144.8783, 618.8630
145.3604, 665.9734
145.8425, 692.9514
146.3247, 687.8970
146.8068, 689.9038
147.2889, 704.4424
147.7710, 725.4624
148.2531, 739.2896
148.7352, 730.8274
149.2174, 727.4673
149.6995, 740.2439
150.1816, 797.7710
150.6637, 838.1567
151.1458, 853.2383
151.6279, 846.0256
152.1101, 840.3533
152.5922, 839.1113
153.0743, 838.8176
153.5564, 837.0537
154.0385, 835.8516
154.5206, 831.1221
155.0028, 823.7019
155.4849, 813.9309
155.9670, 795.1909
156.4491, 757.6147
156.9312, 713.3857
157.4133, 675.2505
157.8955, 648.2483
158.3776, 626.2852
158.8597, 608.3699
159.3418, 595.9749
159.8239, 581.6707
160.3060, 565.0054
160.7882, 544.6672
161.2703, 518.3916
161.7524, 480.2368
162.2345, 439.1643
162.7166, 400.7383
163.1987, 367.7319
163.6808, 337.1943
164.1630, 303.4175
164.6451, 270.4702
165.1272, 247.4707
165.6093, 245.3960
166.0914, 249.7109
166.5735, 244.3455
167.0557, 219.7153
167.5378, 189.8430
168.0199, 165.8665
168.5020, 147.7173
168.9841, 129.4624
169.4662, 103.0317
169.9484, 75.09668
170.4305, 54.52539
170.9126, 49.09595
171.3947, 50.06396
171.8768, 49.22632
172.3589, 46.45996
172.8411, 44.64502
173.3232, 45.99585
173.8053, 50.09619
174.2874, 56.12256
174.7695, 62.12964
175.2516, 70.22021
175.7338, 83.80713
176.2159, 103.6372
176.6980, 126.2261
177.1801, 147.6897
177.6622, 168.9929
178.1443, 193.0015
178.6264, 220.4487
179.1086, 252.2913
179.5907, 290.1440
180.0728, 334.6646
180.5549, 384.1934
181.0370, 441.1890
181.5191, 503.9163
182.0013, 556.2764
182.4834, 588.9761
182.9655, 609.9841
183.4476, 648.4326
183.9297, 717.5562
184.4118, 801.1343
184.8940, 863.9407
185.3761, 906.1992
185.8582, 945.7717
186.3403, 1004.912
186.8224, 1078.903
187.3046, 1140.140
187.7867, 1178.820
188.2688, 1199.988
188.7509, 1222.537
189.2330, 1247.961
189.7151, 1265.604
190.1973, 1260.661
190.6794, 1233.858
191.1615, 1203.993
191.6436, 1180.541
192.1257, 1161.086
192.6078, 1128.271
193.0900, 1081.127
193.5721, 1022.479
194.0542, 952.3064
194.5363, 870.1941
195.0184, 789.4592
195.5005, 717.3196
195.9826, 653.6646
196.4648, 589.9985
196.9469, 525.6443
197.4290, 463.1226
197.9111, 408.5310
198.3932, 363.6116
198.8753, 317.9668
199.3575, 264.0679
199.8396, 200.9829
200.3217, 142.0015
200.8038, 87.46045
201.2859, 38.65576
201.7680, 1.108154
202.2502, 23.63818
202.7323, 43.45410
203.2144, 62.96191
203.6965, 82.09546
204.1786, 101.9319
204.6607, 124.2288
205.1429, 147.0920
205.6250, 160.9189
206.1071, 163.9583
206.5892, 162.0457
207.0713, 160.9209
207.5534, 162.6487
208.0356, 156.1802
208.5177, 137.5728
208.9998, 108.1768
209.4819, 80.20679
209.9640, 53.83203
210.4461, 28.45386
210.9282, 5.391602
211.4104, 12.54980
211.8925, 37.24951
212.3746, 71.30322
212.8567, 114.6143
213.3388, 167.4531
213.8209, 233.9175
214.3031, 305.3242
214.7852, 368.3589
215.2673, 413.2749
215.7494, 472.1445
216.2315, 557.3794
216.7136, 672.8896
217.1958, 784.7329
217.6779, 890.6216
218.1600, 995.6885
218.6421, 1108.634
219.1242, 1227.665
219.6063, 1358.818
220.0885, 1506.852
220.5706, 1674.016
221.0527, 1846.737
221.5348, 2029.676
222.0169, 2216.394
222.4990, 2397.262
222.9812, 2563.721
223.4633, 2736.335
223.9454, 2920.896
224.4275, 3121.077
224.9096, 3329.624
225.3917, 3549.789
225.8739, 3779.979
226.3560, 4017.936
226.8381, 4268.635
227.3202, 4522.673
227.8023, 4777.451
228.2844, 5023.729
228.7665, 5288.581
229.2487, 5576.176
229.7308, 5879.346
230.2129, 6175.992
230.6950, 6470.185
231.1771, 6748.250
231.6592, 7002.855
232.1414, 7217.226
232.6235, 7440.884
233.1056, 7681.301
233.5877, 7935.434
234.0698, 8169.971
234.5519, 8392.136
235.0341, 8585.152
235.5162, 8739.341
235.9983, 8846.459
236.4804, 8929.043
236.9625, 8995.385
237.4446, 9041.856
237.9268, 9038.228
238.4089, 8976.732
238.8910, 8873.229
239.3731, 8738.939
239.8552, 8573.854
240.3373, 8376.808
240.8195, 8136.520
241.3016, 7857.107
241.7837, 7591.560
242.2658, 7349.344
242.7479, 7111.015
243.2300, 6857.612
243.7122, 6571.921
244.1943, 6303.782
244.6764, 6064.116
245.1585, 5855.332
245.6406, 5643.240
246.1227, 5415.361
246.6048, 5196.574
247.0870, 5012.639
247.5691, 4878.352
248.0512, 4751.160
248.5333, 4621.394
249.0154, 4488.916
249.4975, 4367.994
249.9797, 4255.907
250.4618, 4156.850
250.9439, 4077.023
251.4260, 4024.446
251.9081, 3975.334
252.3902, 3922.224
252.8724, 3863.200
253.3545, 3818.647
253.8366, 3793.175
254.3187, 3777.692
254.8008, 3762.007
255.2829, 3745.597
255.7651, 3730.052
256.2472, 3716.511
256.7293, 3705.685
257.2114, 3688.088
257.6935, 3653.775
258.1756, 3622.432
258.6577, 3625.678
259.1399, 3684.576
259.6220, 3730.845
260.1041, 3741.117
260.5862, 3709.011
261.0683, 3690.738
261.5504, 3696.646
262.0326, 3705.511
262.5147, 3682.896
262.9968, 3612.677
263.4789, 3552.287
263.9610, 3523.930
264.4431, 3532.766
264.9253, 3532.055
265.4074, 3520.779
265.8895, 3501.279
266.3716, 3475.778
266.8537, 3443.361
267.3358, 3409.797
267.8180, 3377.458
268.3001, 3347.558
268.7822, 3310.924
269.2643, 3264.756
269.7464, 3213.982
270.2285, 3163.629
270.7107, 3112.782
271.1928, 3067.817
271.6749, 3029.823
272.1570, 2997.760
272.6391, 2980.735
273.1212, 2984.163
273.6034, 2995.877
274.0855, 2993.874
274.5676, 2973.444
275.0497, 2958.761
275.5318, 2961.696
276.0139, 2983.945
276.4961, 3002.848
276.9782, 3015.625
277.4603, 3026.034
277.9424, 3041.234
278.4245, 3063.152
278.9066, 3089.982
279.3888, 3121.895
279.8709, 3157.373
280.3530, 3187.487
280.8351, 3213.868
281.3172, 3233.273
281.7993, 3242.630
282.2815, 3242.478
282.7636, 3226.139
283.2457, 3183.396
283.7278, 3116.833
284.2099, 3063.433
284.6920, 3026.541
285.1741, 2990.292
285.6563, 2928.901
286.1384, 2843.119
286.6205, 2764.508
287.1026, 2707.871
287.5847, 2669.674
288.0668, 2628.701
288.5490, 2582.478
289.0311, 2540.759
289.5132, 2519.038
289.9953, 2517.092
290.4774, 2519.961
290.9595, 2517.027
291.4417, 2512.164
291.9238, 2521.781
292.4059, 2547.335
292.8880, 2584.149
293.3701, 2629.953
293.8522, 2683.019
294.3344, 2735.930
294.8165, 2784.712
295.2986, 2831.868
295.7807, 2878.745
296.2628, 2923.941
296.7449, 2980.255
297.2271, 3076.471
297.7092, 3197.511
298.1913, 3297.691
298.6734, 3345.573
299.1555, 3363.231
299.6376, 3385.310
300.1198, 3412.480
300.6019, 3440.496
301.0840, 3471.205
301.5661, 3499.284
302.0482, 3512.981
302.5303, 3513.843
303.0125, 3495.345
303.4946, 3443.630
303.9767, 3359.133
304.4588, 3266.732
304.9409, 3189.102
305.4230, 3118.767
305.9052, 3040.336
306.3873, 2947.662
306.8694, 2845.051
307.3515, 2737.789
307.8336, 2626.302
308.3157, 2506.566
308.7979, 2369.410
309.2800, 2225.058
309.7621, 2087.098
310.2442, 1961.496
310.7263, 1843.667
311.2084, 1728.193
311.6906, 1615.996
312.1727, 1512.408
312.6548, 1424.994
313.1369, 1345.357
313.6190, 1266.990
314.1011, 1183.292
314.5833, 1103.363
315.0654, 1031.083
315.5475, 965.7593
316.0296, 907.0784
316.5117, 862.2534
316.9938, 820.1604
317.4760, 771.6006
317.9580, 703.1707
318.4402, 639.9541
318.9223, 590.0815
319.4044, 551.9028
319.8865, 519.3582
320.3686, 492.9670
320.8507, 470.1685
321.3329, 449.3169
321.8150, 431.7522
322.2971, 414.4565
322.7792, 399.0239
323.2613, 384.0732
323.7434, 364.1289
324.2256, 332.6350
324.7077, 300.1165
325.1898, 271.0981
325.6719, 241.2271
326.1540, 221.6191
326.6361, 219.2729
327.1183, 228.5696
327.6004, 231.9475
328.0825, 224.4089
328.5646, 215.2388
329.0467, 208.4146
329.5288, 209.1863
330.0110, 202.2568
330.4931, 182.3374
330.9752, 155.7244
331.4573, 137.1467
331.9394, 133.8020
332.4215, 128.3442
332.9037, 112.2095
333.3858, 77.54248
333.8679, 59.81934
334.3500, 69.54883
334.8321, 88.50269
335.3142, 84.18970
335.7964, 43.80078
336.2785, 9.531494
336.7606, 2.334961
337.2427, 11.32422
337.7248, 17.54785
338.2069, 14.97900
338.6891, 7.080811
339.1712, 2.316650
339.6533, 13.51025
340.1354, 24.76147
340.6175, 37.00024
341.0996, 49.58179
341.5818, 52.48291
342.0639, 42.76660
342.5460, 33.40845
343.0281, 40.56226
343.5102, 63.98853
343.9923, 86.30273
344.4745, 103.2915
344.9566, 115.4211
345.4387, 121.9548
345.9208, 122.4924
346.4029, 124.0176
346.8850, 136.5735
347.3672, 156.8223
347.8493, 169.1067
348.3314, 166.5217
348.8135, 157.4175
349.2956, 157.5059
349.7777, 166.1360
350.2599, 174.9355
350.7419, 176.1433
351.2241, 173.3591
351.7062, 174.0569
352.1883, 181.0181
352.6704, 189.4604
353.1525, 196.7424
353.6346, 201.8740
354.1168, 200.8657
354.5989, 187.5542
355.0810, 168.4194
355.5631, 150.7410
356.0452, 135.6060
356.5273, 122.1094
357.0095, 112.2412
357.4916, 103.4558
357.9737, 90.77856
358.4558, 66.61963
358.9379, 41.13037
359.4200, 23.16504
359.9022, 15.94531
360.3843, 3.505859
360.8664, 23.96899
361.3485, 60.46118
361.8306, 97.01074
362.3127, 129.3826
362.7949, 163.1694
363.2770, 198.9883
363.7591, 236.4702
364.2412, 281.5505
364.7233, 342.9990
365.2054, 409.5779
365.6876, 470.0208
366.1697, 511.0540
366.6518, 559.3479
367.1339, 618.2334
367.6160, 688.0264
368.0981, 768.0181
368.5803, 860.4668
369.0624, 961.9463
369.5445, 1070.435
370.0266, 1195.961
370.5087, 1311.784
370.9908, 1411.088
371.4730, 1498.005
371.9551, 1595.022
372.4372, 1703.873
372.9193, 1820.892
373.4014, 1943.645
373.8835, 2071.799
374.3657, 2206.059
374.8478, 2347.452
375.3299, 2493.156
375.8120, 2632.953
376.2941, 2766.803
376.7762, 2898.804
377.2584, 3026.247
377.7405, 3150.549
378.2226, 3288.311
378.7047, 3446.697
379.1868, 3605.665
379.6689, 3733.955
380.1511, 3831.352
380.6332, 3941.562
381.1153, 4088.406
381.5974, 4260.482
382.0795, 4409.328
382.5616, 4536.466
383.0438, 4648.909
383.5259, 4757.244
384.0080, 4858.205
384.4901, 4941.931
384.9722, 5000.460
385.4543, 5046.704
385.9364, 5103.483
386.4185, 5168.503
386.9007, 5226.740
387.3828, 5269.983
387.8649, 5300.167
388.3470, 5321.142
388.8291, 5336.314
389.3112, 5336.941
389.7934, 5308.779
390.2755, 5259.534
390.7576, 5209.396
391.2397, 5180.693
391.7218, 5145.602
392.2039, 5083.097
392.6861, 4984.875
393.1682, 4879.256
393.6503, 4772.448
394.1324, 4664.551
394.6145, 4556.875
395.0966, 4464.135
395.5788, 4360.760
396.0609, 4227.924
396.5430, 4058.188
397.0251, 3913.538
397.5072, 3826.994
397.9893, 3756.619
398.4715, 3664.803
398.9536, 3539.529
399.4357, 3406.229
399.9178, 3260.254
400.3999, 3104.941
400.8820, 2970.796
401.3642, 2867.023
401.8463, 2771.382
402.3284, 2671.003
402.8105, 2564.288
403.2926, 2459.178
403.7747, 2358.958
404.2569, 2259.547
404.7390, 2145.511
405.2211, 2007.903
405.7032, 1882.670
406.1853, 1795.146
406.6674, 1747.428
407.1496, 1669.020
407.6317, 1551.166
408.1138, 1422.563
408.5959, 1321.750
409.0780, 1247.621
409.5602, 1176.659
410.0423, 1099.762
410.5244, 1020.166
411.0065, 946.8818
411.4886, 879.9517
411.9707, 818.9912
412.4529, 763.3511
412.9350, 713.8687
413.4171, 673.8364
413.8992, 651.2661
414.3813, 627.5513
414.8634, 574.5815
415.3456, 499.7817
415.8277, 435.5522
416.3098, 408.4341
416.7919, 397.6270
417.2740, 382.6191
417.7561, 357.0806
418.2382, 333.6636
418.7203, 322.9429
419.2025, 317.1641
419.6846, 304.0015
420.1667, 263.9512
420.6488, 228.9951
421.1309, 213.3486
421.6130, 219.5352
422.0952, 232.7129
422.5773, 263.3906
423.0594, 293.1035
423.5415, 305.8916
424.0236, 273.3032
424.5057, 254.3848
424.9879, 261.7544
425.4700, 290.9048
425.9521, 311.6934
426.4342, 313.9814
426.9163, 319.7231
427.3984, 341.0537
427.8806, 382.3213
428.3627, 430.1626
428.8448, 490.5156
429.3269, 552.1270
429.8090, 586.9863
430.2911, 588.0381
430.7733, 594.4902
431.2554, 623.6240
431.7375, 673.8120
432.2196, 725.7319
432.7017, 778.2705
433.1838, 836.2197
433.6660, 910.1709
434.1481, 996.6006
434.6302, 1071.835
435.1123, 1122.761
435.5944, 1163.740
436.0765, 1216.518
436.5587, 1281.184
437.0408, 1358.907
437.5229, 1454.771
438.0050, 1562.047
438.4871, 1671.116
438.9692, 1780.521
439.4514, 1890.504
439.9335, 1999.678
440.4156, 2109.579
440.8977, 2223.969
441.3798, 2345.503
441.8619, 2469.764
442.3441, 2589.966
442.8262, 2703.467
443.3083, 2833.503
443.7904, 2994.224
444.2725, 3170.934
444.7546, 3349.902
445.2368, 3528.871
445.7189, 3707.912
446.2010, 3878.599
446.6831, 4044.929
447.1652, 4230.625
447.6473, 4435.756
448.1295, 4661.195
448.6116, 4906.065
449.0937, 5178.863
449.5758, 5456.539
450.0579, 5730.884
450.5400, 6015.295
451.0221, 6334.541
451.5042, 6688.985
451.9864, 7065.180
452.4685, 7458.429
452.9506, 7868.166
453.4327, 8303.915
453.9148, 8762.833
454.3969, 9253.952
454.8791, 9775.384
455.3612, 10330.25
455.8433, 10925.44
456.3254, 11550.57
456.8075, 12228.55
457.2896, 12974.97
457.7718, 13795.26
458.2539, 14663.78
458.7360, 15557.13
459.2181, 16503.21
459.7002, 17539.31
460.1823, 18682.14
460.6645, 19902.37
461.1466, 21176.79
461.6287, 22518.25
462.1108, 23940.09
462.5929, 25468.38
463.0750, 27078.22
463.5572, 28751.47
464.0393, 30502.42
464.5214, 32347.35
465.0035, 34308.80
465.4856, 36338.73
465.9677, 38383.46
466.4499, 40357.57
466.9320, 42445.54
467.4141, 44725.02
467.8962, 47119.89
468.3783, 49480.60
468.8604, 51813.51
469.3426, 54098.61
469.8247, 56371.59
470.3068, 58625.80
470.7889, 60832.83
471.2710, 63006.87
471.7531, 65105.61
472.2353, 67111.74
472.7174, 69038.21
473.1995, 70781.90
473.6816, 72403.72
474.1637, 73773.77
474.6458, 74446.04
475.1280, 74440.16
475.6101, 74216.80
476.0922, 74309.20
476.5743, 74369.60
477.0564, 73616.62
477.5385, 71914.80
478.0207, 69691.08
478.5028, 67195.09
478.9849, 64455.74
479.4670, 61525.53
479.9491, 58297.39
480.4312, 54976.77
480.9134, 51667.57
481.3955, 48373.53
481.8776, 45210.34
482.3597, 42226.04
482.8418, 39423.36
483.3239, 36817.83
483.8060, 34457.64
484.2881, 32201.57
484.7703, 30030.21
485.2524, 27981.21
485.7345, 26156.63
486.2166, 24655.38
486.6987, 23253.69
487.1808, 21880.55
487.6630, 20530.47
488.1451, 19289.33
488.6272, 18177.47
489.1093, 17161.90
489.5914, 16208.61
490.0735, 15327.32
490.5557, 14482.45
491.0378, 13671.35
491.5199, 12905.91
492.0020, 12227.78
492.4841, 11639.31
492.9662, 11089.96
493.4484, 10552.21
493.9305, 10028.47
494.4126, 9543.332
494.8947, 9094.562
495.3768, 8674.439
495.8589, 8266.760
496.3411, 7876.877
496.8232, 7512.886
497.3053, 7195.478
497.7874, 6889.179
498.2695, 6566.945
498.7516, 6238.070
499.2338, 5929.202
499.7159, 5658.338
500.1980, 5408.358
500.6801, 5176.669
501.1622, 4963.185
501.6443, 4758.213
502.1265, 4572.149
502.6086, 4392.646
503.0907, 4204.775
503.5728, 3987.101
504.0549, 3787.718
504.5370, 3617.479
505.0192, 3473.147
505.5013, 3333.711
505.9834, 3201.297
506.4655, 3070.067
506.9476, 2929.211
507.4297, 2774.179
507.9119, 2647.718
508.3940, 2558.764
508.8761, 2484.396
509.3582, 2385.421
509.8403, 2266.793
510.3224, 2160.777
510.8046, 2086.747
511.2867, 2026.227
511.7688, 1951.125
512.2509, 1863.709
512.7330, 1772.351
513.2151, 1676.788
513.6973, 1584.472
514.1794, 1504.041
514.6615, 1439.988
515.1436, 1375.614
515.6257, 1299.243
516.1078, 1217.091
516.5900, 1141.839
517.0721, 1075.907
517.5542, 1016.873
518.0363, 964.1006
518.5184, 917.5698
519.0005, 877.7080
519.4827, 859.0156
519.9648, 831.0396
520.4469, 774.0728
520.9290, 666.5923
521.4111, 594.7148
521.8932, 571.2964
522.3754, 568.9868
522.8575, 541.5073
523.3396, 485.5381
523.8217, 439.2500
524.3038, 418.2808
524.7859, 414.5732
525.2681, 403.6147
525.7502, 385.1152
526.2323, 361.7808
526.7144, 330.2676
527.1965, 296.0630
527.6786, 271.3467
528.1608, 260.3833
528.6429, 248.6558
529.1250, 217.8809
529.6071, 179.9204
530.0892, 154.8955
530.5714, 163.4917
531.0535, 173.7480
531.5356, 171.1187
532.0176, 156.5132
532.4998, 141.2993
532.9819, 126.8838
533.4640, 112.9668
533.9461, 98.58594
534.4282, 82.10596
534.9103, 68.98047
535.3925, 55.66748
535.8746, 48.07861
536.3567, 59.35547
536.8388, 100.2285
537.3209, 120.0405
537.8030, 99.58643
538.2852, 51.51416
538.7673, 24.84570
539.2494, 21.11523
539.7315, 20.97705
540.2136, 6.712891
540.6957, 14.23096
541.1779, 15.05713
541.6600, 9.977051
542.1421, 30.95020
542.6242, 11.94531
543.1063, 30.58105
543.5884, 67.94678
544.0706, 92.93799
544.5527, 106.3682
545.0348, 100.3789
545.5169, 80.92822
545.9990, 70.99902
546.4811, 91.49902
546.9633, 112.6938
547.4454, 118.6831
547.9275, 102.0601
548.4096, 89.18408
548.8917, 75.33545
549.3738, 69.41699
549.8560, 83.05322
550.3381, 129.7441
550.8202, 160.8428
551.3023, 165.6807
551.7844, 153.2441
552.2665, 151.6235
552.7487, 162.6179
553.2308, 166.8582
553.7129, 145.6504
554.1950, 108.6807
554.6771, 97.25391
555.1592, 112.8367
555.6414, 131.1187
556.1235, 128.8076
556.6056, 115.2065
557.0877, 105.9558
557.5698, 108.5693
558.0519, 108.9990
558.5341, 92.49463
559.0162, 66.79907
559.4983, 48.51758
559.9804, 53.63379
560.4625, 57.87500
560.9446, 49.00000
561.4268, 25.40479
561.9089, 9.761719
562.3910, 6.339355
562.8731, 8.690674
563.3552, 15.64355
563.8373, 36.58325
564.3195, 33.99951
564.8016, 4.033203
565.2837, 52.33374
565.7658, 66.34766
566.2479, 43.54175
566.7300, 27.12598
567.2122, 31.64893
567.6943, 50.78613
568.1764, 70.72241
568.6585, 91.50049
569.1406, 112.6677
569.6227, 140.5396
570.1049, 165.9988
570.5870, 172.9175
571.0691, 157.3269
571.5512, 141.6370
572.0333, 136.9368
572.5154, 141.2981
572.9976, 152.8406
573.4797, 183.7805
573.9618, 207.5042
574.4439, 213.0859
574.9260, 205.8545
575.4081, 204.5771
575.8903, 209.9644
576.3724, 220.5715
576.8545, 237.1370
577.3366, 260.2542
577.8187, 281.1382
578.3008, 301.1609
578.7830, 315.8735
579.2651, 316.8721
579.7472, 305.3403
580.2293, 306.0894
580.7114, 324.7849
581.1935, 349.0498
581.6757, 359.4150
582.1578, 360.3506
582.6399, 365.9036
583.1220, 387.0212
583.6041, 411.8999
584.0862, 430.6624
584.5684, 443.9226
585.0505, 454.9917
585.5326, 462.3557
586.0147, 470.2842
586.4968, 482.9402
586.9789, 504.8008
587.4611, 518.3564
587.9432, 510.5056
588.4253, 499.9893
588.9074, 505.0952
589.3895, 537.8286
589.8716, 558.7585
590.3538, 558.7065
590.8359, 546.9805
591.3180, 547.7866
591.8001, 562.4402
592.2822, 577.5671
592.7643, 585.2524
593.2465, 588.9019
593.7286, 603.6257
594.2107, 629.2939
594.6928, 648.4480
595.1749, 639.3118
595.6570, 618.5403
596.1392, 609.9688
596.6213, 621.2356
597.1034, 633.0830
597.5854, 630.2839
598.0676, 622.5962
598.5497, 623.3577
599.0318, 650.4934
599.5139, 671.2058
599.9960, 673.6934
600.4781, 662.2012
600.9603, 654.5603
601.4424, 651.3022
601.9245, 650.0649
602.4066, 652.7861
602.8887, 660.6716
603.3708, 654.7671
603.8530, 630.3464
604.3351, 607.0769
604.8172, 612.1350
605.2993, 638.9551
605.7814, 651.7893
606.2635, 642.0342
606.7457, 624.4229
607.2278, 613.1636
607.7099, 605.6289
608.1920, 596.9465
608.6741, 584.7358
609.1563, 575.2563
609.6384, 575.4370
610.1205, 581.9172
610.6026, 581.3982
611.0847, 570.8811
611.5668, 555.5139
612.0490, 534.8237
612.5311, 502.7324
613.0132, 483.4307
613.4953, 482.3572
613.9774, 488.1604
614.4595, 492.9851
614.9417, 497.8965
615.4238, 489.4629
615.9059, 462.2073
616.3880, 430.4309
616.8701, 418.5876
617.3522, 423.3750
617.8344, 425.9417
618.3165, 418.2800
618.7986, 406.1191
619.2807, 394.8909
619.7628, 384.5024
620.2449, 376.1660
620.7271, 374.6331
621.2092, 372.2437
621.6913, 362.6233
622.1734, 345.3384
622.6555, 330.4863
623.1376, 315.2913
623.6198, 304.8364
624.1019, 303.6770
624.5840, 320.8894
625.0661, 328.9783
625.5482, 325.8267
626.0303, 315.1101
626.5125, 299.7837
626.9946, 279.1123
627.4767, 268.2185
627.9588, 275.8835
628.4409, 292.1145
628.9230, 294.9436
629.4052, 285.9983
629.8873, 276.2522
630.3694, 274.2893
630.8515, 274.2051
631.3336, 269.9446
631.8157, 260.6279
632.2979, 250.7119
632.7800, 237.2720
633.2621, 226.8650
633.7442, 225.5542
634.2263, 243.9592
634.7084, 255.4326
635.1906, 258.3801
635.6727, 254.8098
636.1548, 245.4998
636.6369, 226.1375
637.1190, 215.1562
637.6011, 219.4805
638.0833, 232.4124
638.5654, 235.1985
639.0475, 228.1743
639.5296, 219.4177
640.0117, 209.6099
640.4938, 202.5908
640.9760, 208.0677
641.4581, 225.1504
641.9402, 238.6421
642.4223, 235.6472
642.9044, 226.7405
643.3865, 220.6245
643.8687, 219.6813
644.3508, 219.0791
644.8329, 219.3152
645.3150, 218.4406
645.7971, 214.0015
646.2792, 200.8043
646.7614, 194.2976
647.2435, 198.0808
647.7256, 207.9049
648.2077, 215.6000
648.6898, 221.5374
649.1719, 220.8359
649.6541, 207.5461
650.1362, 188.5610
650.6183, 181.2018
651.1004, 184.2130
651.5825, 188.2007
652.0646, 187.3425
652.5468, 184.1383
653.0289, 179.7805
653.5110, 174.0114
653.9931, 172.0809
654.4752, 180.1575
654.9573, 190.4917
655.4395, 196.9122
655.9216, 196.8673
656.4037, 195.5496
656.8858, 192.4202
657.3679, 188.4186
657.8500, 185.4449
658.3322, 184.2336
658.8143, 179.6848
659.2964, 169.2328
659.7785, 156.3997
660.2606, 148.3236
660.7427, 144.9054
661.2249, 145.5024
661.7070, 156.4294
662.1891, 167.2228
662.6712, 161.9420
663.1533, 142.3755
663.6354, 126.9644
664.1175, 127.4482
664.5996, 133.6558
665.0817, 140.5253
665.5638, 149.9611
666.0460, 150.8964
666.5281, 132.2104
667.0102, 114.2246
667.4923, 116.7844
667.9744, 149.6276
668.4565, 165.2339
668.9387, 155.2173
669.4208, 135.1300
669.9029, 130.3770
670.3850, 138.6818
670.8671, 144.6135
671.3492, 142.8518
671.8314, 136.9948
672.3135, 128.8668
672.7956, 119.9766
673.2777, 114.9198
673.7598, 121.6788
674.2419, 127.7054
674.7241, 124.4172
675.2062, 111.9192
675.6883, 103.9792
676.1704, 104.3456
676.6525, 108.0005
677.1346, 114.0549
677.6168, 123.9811
678.0989, 126.2548
678.5810, 118.5344
679.0631, 109.6185
679.5452, 109.7892
680.0273, 117.8062
680.5095, 120.6641
680.9916, 114.6584
681.4737, 108.2184
681.9558, 111.7113
682.4379, 121.6196
682.9200, 131.1394
683.4022, 141.9692
683.8843, 148.4497
684.3664, 143.6030
684.8485, 131.7271
685.3306, 124.1938
685.8127, 126.4690
686.2949, 129.2764
686.7770, 129.9207
687.2591, 128.8423
687.7412, 130.6421
688.2233, 136.3398
688.7054, 142.5981
689.1876, 147.3779
689.6697, 151.0808
690.1518, 153.5859
690.6339, 155.1169
691.1160, 161.2390
691.5981, 183.8679
692.0803, 210.2517
692.5624, 222.0996
693.0445, 213.2051
693.5266, 203.8130
694.0087, 202.4949
694.4908, 205.7571
694.9730, 210.2471
695.4551, 211.7786
695.9372, 220.2734
696.4193, 242.1624
696.9014, 266.1113
697.3835, 270.6694
697.8657, 252.0081
698.3478, 239.2834
698.8299, 240.8381
699.3120, 251.7952
699.7941, 265.9260
700.2762, 281.1667
700.7584, 288.2200
701.2405, 272.6919
701.7226, 253.8423
702.2047, 251.9888
702.6868, 265.0881
703.1689, 274.7417
703.6511, 272.5593
704.1332, 265.2219
704.6153, 263.1616
705.0974, 267.6873
705.5795, 272.2700
706.0616, 275.7087
706.5438, 279.4600
707.0259, 285.4814
707.5080, 293.7412
707.9901, 295.1672
708.4722, 288.2942
708.9543, 280.5938
709.4365, 284.2607
709.9186, 292.5759
710.4007, 289.0200
710.8828, 263.4668
711.3649, 241.0659
711.8470, 240.6362
712.3292, 253.3677
712.8113, 266.1804
713.2934, 281.4690
713.7755, 289.1362
714.2576, 284.7974
714.7397, 272.6240
715.2219, 262.6255
715.7040, 255.7327
716.1861, 247.6042
716.6682, 235.0125
717.1503, 221.0520
717.6324, 219.0889
718.1146, 227.7188
718.5967, 230.6208
719.0788, 205.0759
719.5609, 176.5640
720.0430, 181.3091
720.5251, 216.8696
721.0073, 241.6646
721.4894, 226.0176
721.9715, 202.1533
722.4536, 189.5686
722.9357, 192.6589
723.4178, 194.2512
723.9000, 194.7749
724.3821, 192.4656
724.8642, 183.8979
725.3463, 168.7070
725.8284, 163.6355
726.3105, 171.2632
726.7927, 179.9895
727.2748, 175.4177
727.7569, 162.3113
728.2390, 151.0188
728.7211, 144.5144
729.2032, 138.8511
729.6853, 130.7571
730.1674, 121.9583
730.6495, 114.9697
731.1317, 111.4783
731.6138, 109.0735
732.0959, 109.9915
732.5780, 110.7354
733.0601, 101.8762
733.5422, 79.94092
734.0244, 62.86060
734.5065, 56.57861
734.9886, 57.91772
735.4707, 61.72021
735.9528, 66.75903
736.4349, 65.37671
736.9171, 45.67920
737.3992, 22.90869
737.8813, 11.92261
738.3634, 11.97290
738.8455, 15.80420
739.3276, 31.43335
739.8098, 40.97192
740.2919, 32.09595
740.7740, 2.923096
741.2561, 18.41064
741.7382, 30.69897
742.2203, 37.61035
742.7025, 41.29614
743.1846, 41.71191
743.6667, 36.65674
744.1488, 25.45166
744.6309, 15.46167
745.1130, 16.00757
745.5952, 21.56958
746.0773, 22.99487
746.5594, 16.35669
747.0415, 15.23389
747.5236, 31.40356
748.0057, 53.57373
748.4879, 70.41724
748.9700, 81.59399
749.4521, 85.23071
749.9342, 77.51514
750.4163, 66.45532
750.8984, 63.51221
751.3806, 69.00903
751.8627, 76.94604
752.3448, 87.87817
752.8269, 96.75342
753.3090, 91.73462
753.7911, 78.62134
754.2733, 72.11328
754.7554, 85.63892
755.2375, 99.55176
755.7196, 104.1157
756.2017, 101.0916
756.6838, 94.83862
757.1660, 84.32080
757.6481, 72.95361
758.1302, 61.28369
758.6123, 49.52905
759.0944, 36.74487
759.5765, 22.31592
760.0587, 13.63745
760.5408, 21.38135
761.0229, 99.14819
761.5050, 8.297607
761.9871, 49.71655
762.4692, 76.65771
762.9514, 20.56274
763.4335, 42.58276
763.9156, 41.48315
764.3977, 37.76514
764.8798, 123.5374
765.3619, 44.45532
765.8441, 144.2158
766.3262, 182.8875
766.8083, 226.0906
767.2904, 255.4741
767.7725, 267.8259
768.2546, 280.9700
768.7368, 307.4255
769.2189, 345.6746
769.7010, 393.8569
770.1831, 452.2122
770.6652, 511.0188
771.1473, 560.0005
771.6295, 608.0125
772.1116, 661.2603
772.5937, 718.0090
773.0758, 789.5046
773.5579, 888.4888
774.0400, 993.6011
774.5222, 1086.543
775.0043, 1162.720
775.4864, 1248.230
775.9685, 1345.420
776.4506, 1450.638
776.9327, 1565.275
777.4149, 1685.134
777.8970, 1798.810
778.3791, 1898.836
778.8612, 2007.121
779.3433, 2152.224
779.8254, 2312.000
780.3076, 2457.205
780.7897, 2556.333
781.2718, 2674.238
781.7539, 2824.414
782.2360, 2992.606
782.7181, 3158.505
783.2003, 3326.304
783.6824, 3475.375
784.1645, 3597.901
784.6466, 3706.332
785.1287, 3820.909
785.6108, 3937.992
786.0930, 4049.728
786.5751, 4154.944
787.0572, 4251.656
787.5393, 4342.369
788.0214, 4423.289
788.5035, 4487.057
788.9857, 4536.337
789.4678, 4561.351
789.9499, 4556.280
790.4320, 4527.314
790.9141, 4495.117
791.3962, 4461.729
791.8784, 4411.677
792.3605, 4338.630
792.8426, 4246.884
793.3247, 4144.631
793.8068, 4030.789
794.2889, 3897.211
794.7711, 3718.756
795.2531, 3538.641
795.7352, 3385.495
796.2173, 3256.857
796.6995, 3125.230
797.1816, 2986.266
797.6637, 2847.764
798.1458, 2710.692
798.6279, 2573.674
799.1100, 2429.663
799.5922, 2277.974
800.0743, 2142.209
800.5564, 2051.234
801.0385, 1980.095
801.5206, 1883.134
802.0027, 1764.632
802.4849, 1653.229
802.9670, 1565.860
803.4491, 1487.116
803.9312, 1410.023
804.4133, 1334.654
804.8954, 1260.892
805.3776, 1188.680
805.8597, 1115.473
806.3418, 1038.956
806.8239, 961.0391
807.3060, 892.6433
807.7881, 834.4050
808.2703, 782.8960
808.7524, 741.1145
809.2345, 700.3540
809.7166, 645.1816
810.1987, 575.6970
810.6808, 517.5715
811.1630, 487.0630
811.6451, 468.1755
812.1272, 453.5410
812.6093, 442.8628
813.0914, 423.2686
813.5735, 391.5505
814.0557, 361.6057
814.5378, 343.9861
815.0199, 336.7554
815.5020, 330.3528
815.9841, 324.5107
816.4662, 322.0020
816.9484, 326.8062
817.4305, 334.8513
817.9126, 340.2239
818.3947, 340.7034
818.8768, 345.6794
819.3589, 374.6467
819.8411, 402.9353
820.3232, 417.4668
820.8053, 414.9275
821.2874, 422.9546
821.7695, 442.7141
822.2516, 464.4463
822.7338, 477.6770
823.2159, 487.4958
823.6980, 505.6770
824.1801, 533.6328
824.6622, 562.8389
825.1443, 598.1145
825.6265, 625.8875
826.1086, 631.4512
826.5907, 601.2336
827.0728, 593.3103
827.5549, 617.7590
828.0370, 650.3000
828.5192, 672.5247
829.0013, 685.1965
829.4834, 704.2930
829.9655, 730.5994
830.4476, 762.2349
830.9297, 804.9363
831.4119, 848.8154
831.8940, 877.0652
832.3761, 884.6794
832.8582, 903.7585
833.3403, 955.2649
833.8224, 1015.210
834.3046, 1065.990
834.7867, 1103.344
835.2688, 1150.676
835.7509, 1209.360
836.2330, 1275.179
836.7151, 1346.995
837.1973, 1422.479
837.6794, 1495.055
838.1615, 1563.529
838.6436, 1642.099
839.1257, 1754.311
839.6078, 1872.239
840.0900, 1967.596
840.5721, 2023.875
841.0542, 2109.536
841.5363, 2240.967
842.0184, 2384.867
842.5005, 2519.593
842.9827, 2644.627
843.4648, 2774.903
843.9469, 2910.133
844.4290, 3056.290
844.9111, 3217.550
845.3932, 3391.682
845.8754, 3574.005
846.3575, 3763.735
846.8396, 3967.208
847.3217, 4194.430
847.8038, 4431.389
848.2859, 4668.342
848.7681, 4903.627
849.2502, 5140.909
849.7323, 5379.317
850.2144, 5622.542
850.6965, 5870.917
851.1786, 6126.365
851.6608, 6403.424
852.1429, 6697.346
852.6250, 6984.419
853.1071, 7229.831
853.5892, 7475.216
854.0714, 7752.700
854.5535, 8069.948
855.0356, 8383.931
855.5177, 8690.193
855.9998, 8995.719
856.4819, 9315.759
856.9641, 9648.862
857.4462, 9942.135
857.9283, 10197.50
858.4104, 10441.32
858.8925, 10687.75
859.3746, 10939.80
859.8568, 11212.75
860.3389, 11505.37
860.8210, 11767.30
861.3030, 11973.68
861.7852, 12154.04
862.2673, 12326.98
862.7494, 12490.09
863.2315, 12620.09
863.7136, 12710.21
864.1957, 12795.25
864.6779, 12901.12
865.1600, 13013.58
865.6421, 13098.83
866.1242, 13161.15
866.6063, 13210.96
867.0884, 13236.75
867.5706, 13262.01
868.0527, 13304.94
868.5348, 13364.20
869.0169, 13408.66
869.4990, 13428.89
869.9811, 13449.19
870.4633, 13479.74
870.9454, 13518.86
871.4275, 13548.59
871.9096, 13573.35
872.3917, 13624.18
872.8738, 13725.39
873.3560, 13851.50
873.8381, 13995.79
874.3202, 14152.09
874.8023, 14294.36
875.2844, 14397.91
875.7665, 14511.94
876.2487, 14648.72
876.7308, 14798.92
877.2129, 14941.49
877.6950, 15077.29
878.1771, 15208.03
878.6592, 15340.46
879.1414, 15454.06
879.6235, 15525.37
880.1056, 15557.00
880.5877, 15556.53
881.0698, 15525.84
881.5519, 15467.17
882.0341, 15383.66
882.5162, 15270.26
882.9983, 15117.94
883.4804, 14927.83
883.9625, 14689.13
884.4446, 14394.04
884.9268, 14066.36
885.4089, 13738.43
885.8910, 13405.32
886.3731, 13045.61
886.8552, 12660.45
887.3373, 12234.01
887.8195, 11722.59
888.3016, 11185.61
888.7837, 10686.27
889.2658, 10248.14
889.7479, 9780.532
890.2300, 9277.402
890.7122, 8775.156
891.1943, 8326.938
891.6764, 7914.485
892.1585, 7484.078
892.6406, 7021.845
893.1227, 6575.758
893.6049, 6198.212
894.0870, 5848.157
894.5691, 5496.881
895.0512, 5130.433
895.5333, 4789.445
896.0154, 4474.556
896.4976, 4189.181
896.9797, 3954.159
897.4618, 3756.668
897.9439, 3526.805
898.4260, 3261.507
898.9081, 3007.785
899.3903, 2786.548
899.8724, 2597.970
900.3545, 2449.266
900.8366, 2341.316
901.3187, 2224.488
901.8008, 2084.814
902.2830, 1945.037
902.7651, 1809.789
903.2472, 1680.927
903.7293, 1568.247
904.2114, 1469.905
904.6935, 1377.516
905.1757, 1282.612
905.6578, 1192.413
906.1399, 1120.713
906.6220, 1061.728
907.1041, 995.5569
907.5862, 899.8530
908.0684, 816.4270
908.5505, 756.4080
909.0326, 713.2925
909.5147, 671.6492
909.9968, 631.0725
910.4789, 584.2839
910.9611, 525.2915
911.4432, 465.7932
911.9253, 418.1995
912.4074, 380.8413
912.8895, 349.7346
913.3716, 332.3149
913.8538, 309.5894
914.3359, 273.0586
914.8180, 234.0747
915.3001, 206.9023
915.7822, 192.3083
916.2643, 182.6843
916.7465, 179.9421
917.2286, 168.9602
917.7107, 116.7632
918.1928, 52.22266
918.6749, 22.08398
919.1570, 45.62231
919.6392, 59.60181
920.1213, 30.41040
920.6034, 3.821777
921.0855, 17.63013
921.5676, 7.835205
922.0497, 2.444824
922.5319, 0.6884770
923.0140, 9.588623
923.4961, 48.26440
923.9782, 94.05566
924.4603, 109.5806
924.9424, 95.73560
925.4246, 85.41235
925.9067, 101.8145
926.3888, 114.4976
926.8708, 106.5894
927.3530, 82.57593
927.8351, 76.28735
928.3172, 89.83057
928.7993, 103.0588
929.2814, 107.8696
929.7635, 106.8416
930.2457, 99.37964
930.7278, 89.29980
931.2099, 87.08350
931.6920, 108.2861
932.1741, 124.5916
932.6563, 126.7849
933.1384, 119.4250
933.6205, 107.2053
934.1026, 88.14551
934.5847, 78.29346
935.0668, 82.69263
935.5490, 90.67480
936.0311, 91.54956
936.5132, 85.28101
936.9953, 69.62744
937.4774, 37.56592
937.9595, 13.77734
938.4417, 13.31177
938.9238, 19.65942
939.4059, 20.04834
939.8880, 13.14380
940.3701, 7.861084
940.8522, 4.264160
941.3344, 2.346924
941.8165, 4.488770
942.2986, 7.145752
942.7807, 4.607666
943.2628, 3.307373
943.7449, 12.03198
944.2271, 17.58740
944.7092, 26.26074
945.1913, 42.45972
945.6734, 64.53540
946.1555, 79.35718
946.6376, 86.49854
947.1198, 91.54663
947.6019, 95.59766
948.0840, 100.3853
948.5661, 108.5293
949.0482, 119.3728
949.5303, 131.3054
950.0125, 150.9263
950.4946, 161.6929
950.9767, 152.7537
951.4588, 138.6062
951.9409, 144.2939
952.4230, 170.6147
952.9052, 197.3081
953.3873, 222.4290
953.8694, 241.0659
954.3515, 239.2444
954.8336, 231.7644
955.3157, 240.1528
955.7979, 275.6926
956.2800, 303.4685
956.7621, 316.4841
957.2442, 321.2393
957.7263, 319.2778
958.2084, 310.6641
958.6906, 305.4998
959.1727, 303.7476
959.6548, 311.6157
960.1369, 344.6658
960.6190, 381.4067
961.1011, 400.9565
961.5833, 403.9895
962.0654, 401.4607
962.5475, 384.2957
963.0296, 378.5320
963.5117, 393.3616
963.9938, 422.5596
964.4760, 451.8552
964.9581, 480.3865
965.4402, 499.4509
965.9223, 501.3176
966.4044, 501.0117
966.8865, 511.7932
967.3687, 527.8757
967.8508, 540.3391
968.3329, 539.3528
968.8150, 551.4807
969.2971, 584.1479
969.7792, 617.3152
970.2614, 625.1377
970.7435, 614.9768
971.2256, 617.6467
971.7077, 636.5396
972.1898, 654.3098
972.6719, 657.5940
973.1541, 656.1121
973.6362, 654.5710
974.1183, 653.2612
974.6004, 661.2241
975.0825, 681.6748
975.5646, 701.0981
976.0468, 709.3420
976.5289, 714.8838
977.0110, 745.7280
977.4931, 792.5156
977.9752, 823.3582
978.4573, 806.9929
978.9395, 789.3376
979.4216, 788.3110
979.9037, 799.3159
980.3858, 816.7749
980.8679, 842.1826
981.3500, 859.3711
981.8322, 865.3623
982.3143, 865.4504
982.7964, 861.5144
983.2785, 857.6050
983.7606, 859.3647
984.2427, 869.2085
984.7249, 880.8386
985.2070, 902.4199
985.6891, 915.3850
986.1712, 904.3157
986.6533, 870.3499
987.1354, 855.5576
987.6176, 860.3145
988.0997, 875.5674
988.5818, 902.3308
989.0639, 931.0886
989.5460, 954.0278
990.0281, 970.4468
990.5103, 978.3547
990.9924, 974.6787
991.4745, 966.3967
991.9566, 950.9253
992.4387, 935.9871
992.9208, 939.8315
993.4029, 958.0300
993.8850, 968.4951
994.3671, 965.3706
994.8492, 960.9062
995.3314, 960.7219
995.8135, 966.1133
996.2956, 979.5420
996.7777, 1005.250
997.2598, 1020.541
997.7419, 1025.842
998.2241, 1021.454
998.7062, 999.4890
999.1883, 970.3518
999.6704, 962.3484
1000.153, 971.8740
1000.635, 978.2029
1001.117, 963.9568
1001.599, 952.8201
1002.081, 955.1357
1002.563, 966.9849
1003.045, 982.4727
1003.527, 1002.711
1004.009, 1011.888
1004.492, 1002.840
1004.974, 992.7124
1005.456, 1009.282
1005.938, 1034.814
1006.420, 1043.491
1006.902, 1022.806
1007.384, 1004.294
1007.866, 987.4651
1008.349, 979.9963
1008.831, 991.0286
1009.313, 1018.289
1009.795, 1036.394
1010.277, 1045.719
1010.759, 1051.253
1011.241, 1058.378
1011.723, 1060.843
1012.205, 1049.401
1012.688, 1028.795
1013.170, 1019.126
1013.652, 1024.360
1014.134, 1030.977
1014.616, 1036.184
1015.098, 1041.759
1015.580, 1051.858
1016.062, 1064.294
1016.544, 1074.403
1017.027, 1081.143
1017.509, 1085.013
1017.991, 1082.898
1018.473, 1080.698
1018.955, 1083.221
1019.437, 1090.916
1019.919, 1094.031
1020.401, 1092.510
1020.884, 1087.686
1021.366, 1072.555
1021.848, 1060.684
1022.330, 1073.297
1022.812, 1102.480
1023.294, 1120.426
1023.776, 1118.854
1024.258, 1106.561
1024.740, 1078.249
1025.223, 1049.530
1025.705, 1050.200
1026.187, 1073.294
1026.669, 1093.363
1027.151, 1106.333
1027.633, 1110.919
1028.115, 1103.668
1028.597, 1089.688
1029.079, 1068.769
1029.562, 1039.459
1030.044, 1034.132
1030.526, 1057.274
1031.008, 1075.871
1031.490, 1064.154
1031.972, 1041.380
1032.454, 1039.591
1032.936, 1050.955
1033.419, 1054.218
1033.901, 1032.707
1034.383, 1015.219
1034.865, 1008.315
1035.347, 1004.840
1035.829, 993.6904
1036.311, 976.0991
1036.793, 962.5063
1037.276, 953.9915
1037.758, 950.6497
1038.240, 955.6113
1038.722, 963.2578
1039.204, 971.2761
1039.686, 979.3115
1040.168, 977.7783
1040.650, 965.3494
1041.132, 947.5630
1041.615, 921.9751
1042.097, 897.6689
1042.579, 895.7854
1043.061, 907.4458
1043.543, 912.0430
1044.025, 897.4207
1044.507, 882.1792
1044.989, 869.9644
1045.471, 858.4634
1045.954, 846.1758
1046.436, 833.0220
1046.918, 816.2595
1047.400, 795.7539
1047.882, 776.3225
1048.364, 763.1318
1048.846, 751.0928
1049.328, 732.9106
1049.811, 710.6318
1050.293, 704.8733
1050.775, 725.0791
1051.257, 731.2454
1051.739, 708.7385
1052.221, 675.2612
1052.703, 659.3054
1053.185, 653.9248
1053.667, 644.5435
1054.150, 623.8586
1054.632, 610.3413
1055.114, 615.4094
1055.596, 622.8501
1056.078, 625.3445
1056.560, 622.4834
1057.042, 602.0317
1057.524, 565.6006
1058.006, 532.5820
1058.489, 516.2102
1058.971, 505.6606
1059.453, 494.8486
1059.935, 484.2949
1060.417, 475.6562
1060.899, 470.1938
1061.381, 461.4614
1061.863, 448.3428
1062.346, 434.6519
1062.828, 422.7646
1063.310, 412.9170
1063.792, 410.7366
1064.274, 418.7114
1064.756, 416.6418
1065.238, 387.6941
1065.720, 358.8745
1066.203, 337.6838
1066.685, 324.2725
1067.167, 325.2415
1067.649, 337.2576
1068.131, 338.4763
1068.613, 309.2407
1069.095, 284.5107
1069.577, 298.8914
1070.059, 322.8733
1070.542, 317.8401
1071.024, 271.3276
1071.506, 244.2231
1071.988, 239.2673
1072.470, 238.0312
1072.952, 224.1143
1073.434, 207.9004
1073.916, 204.8530
1074.398, 212.6541
1074.881, 216.4426
1075.363, 205.1030
1075.845, 198.6830
1076.327, 204.4050
1076.809, 214.3099
1077.291, 212.7697
1077.773, 202.4512
1078.255, 193.7673
1078.738, 189.4756
1079.220, 180.5027
1079.702, 151.1508
1080.184, 128.0408
1080.666, 128.5852
1081.148, 149.4253
1081.630, 155.1201
1082.112, 146.1829
1082.594, 138.9608
1083.077, 143.0602
1083.559, 149.9961
1084.041, 152.8201
1084.523, 151.5154
1085.005, 146.5615
1085.487, 135.2245
1085.969, 128.0979
1086.451, 126.5751
1086.933, 124.5148
1087.416, 112.8842
1087.898, 98.53418
1088.380, 97.04480
1088.862, 107.1129
1089.344, 112.3998
1089.826, 96.69910
1090.308, 86.63953
1090.790, 93.66211
1091.272, 106.4207
1091.755, 97.12036
1092.237, 71.30566
1092.719, 62.09912
1093.201, 79.58179
1093.683, 94.33044
1094.165, 78.95789
1094.647, 58.10596
1095.129, 52.57092
1095.612, 61.92957
1096.094, 66.39038
1096.576, 65.28516
1097.058, 63.42834
1097.540, 62.99976
1098.022, 63.03528
1098.504, 63.71362
1098.986, 64.00684
1099.469, 61.70544
1099.951, 54.47314
1100.433, 47.05957
1100.915, 37.95471
1101.397, 31.48486
1101.879, 36.07263
1102.361, 44.51440
1102.843, 37.42383
1103.325, 17.80042
1103.807, 4.414673
1104.290, 10.15588
1104.772, 16.38074
1105.254, 20.39368
1105.736, 20.99402
1106.218, 12.36646
1106.700, 2.578003
1107.182, 6.803955
1107.664, 3.351074
1108.147, 13.70874
1108.629, 15.00208
1109.111, 13.15393
1109.593, 12.29333
1110.075, 12.10864
1110.557, 8.540405
1111.039, 1.438721
1111.521, 3.763550
1112.004, 5.247925
1112.486, 3.554077
1112.968, 7.023071
1113.450, 17.54663
1113.932, 14.29834
1114.414, 12.21179
1114.896, 26.40588
1115.378, 26.01465
1115.860, 21.56250
1116.343, 17.51404
1116.825, 15.36658
1117.307, 20.00171
1117.789, 28.89050
1118.271, 34.64502
1118.753, 31.62341
1119.235, 30.70081
1119.717, 36.04517
1120.199, 39.04443
1120.682, 22.50317
1121.164, 4.149780
1121.646, 6.177368
1122.128, 17.28247
1122.610, 36.24780
1123.092, 32.98108
1123.574, 24.39551
1124.056, 15.04138
1124.539, 6.792480
1125.021, 5.433350
1125.503, 10.17615
1125.985, 12.93262
1126.467, 11.58789
1126.949, 9.932739
1127.431, 11.12830
1127.913, 12.95776
1128.396, 14.33118
1128.878, 15.14392
1129.360, 10.73596
1129.842, 0.3603520
1130.324, 4.784180
1130.806, 1.920776
1131.288, 13.06165
1131.770, 25.43079
1132.252, 34.76184
1132.734, 33.60425
1133.217, 13.53845
1133.699, 4.445923
1134.181, 8.676025
1134.663, 15.16626
1135.145, 16.85352
1135.627, 15.12158
1136.109, 9.680054
1136.591, 2.766357
1137.074, 1.391968
1137.556, 18.63391
1138.038, 24.59583
1138.520, 13.27649
1139.002, 3.967285
1139.484, 15.96887
1139.966, 22.60852
1140.448, 20.62354
1140.931, 10.61414
1141.413, 4.101074
1141.895, 9.019897
1142.377, 14.61902
1142.859, 17.05164
1143.341, 18.41113
1143.823, 25.19678
1144.305, 35.36475
1144.787, 38.32153
1145.270, 31.31018
1145.752, 21.42761
1146.234, 6.905518
1146.716, 2.758667
1147.198, 0.3789060
1147.680, 11.76270
1148.162, 20.02051
1148.644, 24.55847
1149.126, 28.92615
1149.609, 35.92615
1150.091, 39.63269
1150.573, 28.84741
1151.055, 16.82520
1151.537, 19.82971
1152.019, 41.25366
1152.501, 48.58130
1152.983, 40.80811
1153.466, 33.37927
1153.948, 37.43896
1154.430, 44.45264
1154.912, 47.69458
1155.394, 47.54761
1155.876, 44.00006
1156.358, 34.48193
1156.840, 29.04279
1157.322, 27.70972
1157.805, 31.87775
1158.287, 50.42706
1158.769, 70.03674
1159.251, 69.89294
1159.733, 53.87299
1160.215, 42.54095
1160.697, 38.36993
1161.179, 41.98511
1161.661, 56.00171
1162.144, 70.91730
1162.626, 72.66986
1163.108, 68.18207
1163.590, 71.05725
1164.072, 82.31580
1164.554, 87.99982
1165.036, 80.18561
1165.518, 74.08539
1166.000, 74.07147
1166.483, 76.61102
1166.965, 74.82574
1167.447, 70.90112
1167.929, 70.07153
1168.411, 73.83417
1168.893, 78.19849
1169.375, 84.83215
1169.857, 87.64520
1170.340, 81.79688
1170.822, 71.81519
1171.304, 74.23871
1171.786, 85.58154
1172.268, 94.11505
1172.750, 95.82050
1173.232, 95.31592
1173.714, 91.40845
1174.197, 88.65778
1174.679, 91.15948
1175.161, 97.67822
1175.643, 98.42303
1176.125, 94.11438
1176.607, 89.28931
1177.089, 83.32324
1177.571, 80.23456
1178.053, 86.46106
1178.536, 94.23694
1179.018, 94.20081
1179.500, 85.71869
1179.982, 80.15912
1180.464, 77.09680
1180.946, 74.88354
1181.428, 71.95984
1181.910, 69.76440
1182.392, 67.40454
1182.875, 66.94263
1183.357, 73.27368
1183.839, 86.77454
1184.321, 93.97833
1184.803, 93.68787
1185.285, 91.54114
1185.767, 92.29047
1186.249, 92.30524
1186.732, 87.29401
1187.214, 80.14594
1187.696, 79.18677
1188.178, 84.61987
1188.660, 87.50464
1189.142, 86.08398
1189.624, 81.79749
1190.106, 74.33691
1190.589, 67.08942
1191.071, 63.69806
1191.553, 63.25201
1192.035, 62.26172
1192.517, 60.23950
1192.999, 62.30951
1193.481, 70.77594
1193.963, 80.76385
1194.445, 89.56561
1194.927, 95.67499
1195.410, 96.69647
1195.892, 93.25146
1196.374, 85.25714
1196.856, 72.17731
1197.338, 62.38855
1197.820, 59.42474
1198.302, 59.40851
1198.784, 57.81390
1199.267, 56.72906
1199.749, 60.68927
1200.231, 71.61005
1200.713, 74.26892
1201.195, 67.25824
1201.677, 61.52502
1202.159, 63.13306
1202.641, 67.23407
1203.124, 69.38666
1203.606, 69.61829
1204.088, 67.59515
1204.570, 62.74438
1205.052, 59.64886
1205.534, 59.39166
1206.016, 57.61121
1206.498, 47.50464
1206.980, 37.43707
1207.463, 39.71655
1207.945, 48.54950
1208.427, 51.26965
1208.909, 43.31946
1209.391, 40.17798
1209.873, 43.74341
1210.355, 46.47070
1210.837, 39.74707
1211.319, 30.91919
1211.802, 29.02917
1212.284, 32.52386
1212.766, 36.36133
1213.248, 40.72583
1213.730, 42.72418
1214.212, 41.60492
1214.694, 39.73572
1215.176, 39.62396
1215.659, 40.02759
1216.141, 38.69055
1216.623, 36.36304
1217.105, 38.18628
1217.587, 47.33795
1218.069, 48.05591
1218.551, 36.88562
1219.033, 25.54761
1219.516, 27.13580
1219.998, 34.67206
1220.480, 42.33997
1220.962, 49.04974
1221.444, 52.36768
1221.926, 52.69586
1222.408, 46.80823
1222.890, 31.84180
1223.372, 19.48199
1223.854, 27.65869
1224.337, 41.82971
1224.819, 45.59930
1225.301, 37.98907
1225.783, 33.70679
1226.265, 33.25116
1226.747, 35.66199
1227.229, 41.98669
1227.711, 46.29285
1228.193, 35.31256
1228.676, 23.06665
1229.158, 29.24408
1229.640, 55.22968
1230.122, 59.18768
1230.604, 36.58264
1231.086, 24.94525
1231.568, 39.63818
1232.050, 58.50629
1232.533, 54.29388
1233.015, 44.31207
1233.497, 51.74200
1233.979, 78.19586
1234.461, 79.06189
1234.943, 51.70422
1235.425, 33.91949
1235.907, 44.36609
1236.390, 59.79297
1236.872, 57.97845
1237.354, 49.23132
1237.836, 44.21759
1238.318, 43.33838
1238.800, 47.36969
1239.282, 56.54260
1239.764, 59.24554
1240.246, 46.14282
1240.729, 32.62427
1241.211, 33.40466
1241.693, 39.94977
1242.175, 43.01062
1242.657, 42.24902
1243.139, 41.44781
1243.621, 40.65088
1244.103, 41.07501
1244.585, 44.88824
1245.068, 47.61993
1245.550, 43.83759
1246.032, 39.35138
1246.514, 40.03241
1246.996, 45.91364
1247.478, 55.51562
1247.960, 67.73340
1248.442, 72.87781
1248.925, 61.52014
1249.407, 47.93079
1249.889, 35.33887
1250.371, 26.90924
1250.853, 27.59631
1251.335, 36.79553
1251.817, 38.57819
1252.299, 34.02374
1252.781, 30.49353
1253.264, 31.82648
1253.746, 34.49573
1254.228, 37.30603
1254.710, 40.82343
1255.192, 47.17212
1255.674, 55.14758
1256.156, 55.21033
1256.638, 48.97876
1257.120, 42.69653
1257.603, 39.05249
1258.085, 36.66028
1258.567, 34.67731
1259.049, 34.96918
1259.531, 41.60999
1260.013, 51.17688
1260.495, 49.83392
1260.977, 39.99084
1261.460, 35.36444
1261.942, 52.27979
1262.424, 56.68073
1262.906, 40.01190
1263.388, 19.08221
1263.870, 10.05206
1264.352, 9.223999
1264.834, 11.03583
1265.317, 14.62115
1265.799, 20.43396
1266.281, 35.86566
1266.763, 39.61639
1267.245, 27.74219
1267.727, 12.52069
1268.209, 4.232483
1268.691, 2.083862
1269.173, 6.213501
1269.656, 14.98560
1270.138, 19.39508
1270.620, 16.48920
1271.102, 17.40045
1271.584, 23.57983
1272.066, 31.02985
1272.548, 38.79852
1273.030, 42.62714
1273.512, 34.42126
1273.995, 18.76917
1274.477, 13.73120
1274.959, 22.85059
1275.441, 23.27618
1275.923, 11.84112
1276.405, 2.556702
1276.887, 10.46344
1277.369, 21.73138
1277.852, 25.60229
1278.334, 25.10492
1278.816, 27.78992
1279.298, 33.90704
1279.780, 34.96936
1280.262, 29.91980
1280.744, 24.99933
1281.226, 24.14471
1281.708, 25.16907
1282.191, 28.31970
1282.673, 31.60400
1283.155, 30.42096
1283.637, 25.95197
1284.119, 27.80457
1284.601, 36.22327
1285.083, 41.09766
1285.565, 32.99377
1286.047, 25.38104
1286.530, 22.75049
1287.012, 21.52234
1287.494, 15.05542
1287.976, 5.648376
1288.458, 1.4160000E-02
1288.940, 1.295105
1289.422, 2.495789
1289.904, 19.14294
1290.386, 29.14880
1290.869, 28.19196
1291.351, 21.99860
1291.833, 15.09747
1292.315, 8.271973
1292.797, 1.138794
1293.279, 5.462708
1293.761, 3.893616
1294.243, 9.897461
1294.726, 20.39105
1295.208, 25.24188
1295.690, 26.05194
1296.172, 22.39105
1296.654, 17.16870
1297.136, 12.87201
1297.618, 10.65240
1298.100, 10.68604
1298.583, 13.23926
1299.065, 12.71808
1299.547, 12.49243
1300.029, 14.31226
1300.511, 17.99658
1300.993, 20.11401
1301.475, 15.68042
1301.957, 8.953857
1302.439, 10.33795
1302.922, 18.23175
1303.404, 17.61682
1303.886, 7.247803
1304.368, 0.0000000E+00
##END=



