##NAMES=Phillipsite-Na
##RRUFFID=R061094
##IDEAL CHEMISTRY=Na_6_(Si_10_Al_6_)O_32_&#183;12H_2_O
##LOCALITY=Faraglione dei Ciccopi, Aci Castello, Catania Province, Sicily, Italy
##OWNER=RRUFF
##SOURCE=Michael Scott
##DESCRIPTION=Spherical aggregates of translucent white blocky, pseudotetragonal crystals, associated with chabazite-Na, R070440
##STATUS=The identification of this mineral is confirmed by single-crystal X-ray diffraction and chemical analysis.
##URL=rruff.info/R061094
##MEASURED CHEMISTRY=(Na_2.76_K_1.26_[box]_1.14_Ca_0.84_)_Σ=6_(Si_10.30_Al_5.70_)O_32_·7.58H_2_O
143.3246, 0.0000000E+00
143.8067, 39.69092
144.2888, 198.0640
144.7710, 431.8330
145.2531, 652.1562
145.7352, 781.3496
146.2173, 802.9121
146.6994, 792.6050
147.1815, 849.9385
147.6637, 919.6934
148.1458, 936.9741
148.6279, 909.4214
149.1100, 889.6279
149.5921, 907.5938
150.0742, 936.0547
150.5564, 924.9771
151.0385, 857.1079
151.5206, 770.6592
152.0027, 705.2192
152.4848, 656.6987
152.9669, 611.3159
153.4491, 557.5513
153.9312, 500.7900
154.4133, 458.0576
154.8954, 435.6660
155.3775, 417.8096
155.8596, 388.9194
156.3418, 348.9775
156.8239, 301.9604
157.3060, 238.5942
157.7881, 166.5835
158.2702, 115.5576
158.7523, 94.81494
159.2345, 91.86328
159.7166, 94.45947
160.1987, 102.6240
160.6808, 115.7407
161.1629, 138.8828
161.6451, 168.7344
162.1272, 186.3262
162.6093, 183.3809
163.0914, 175.3989
163.5735, 175.8550
164.0556, 185.1172
164.5378, 196.7319
165.0199, 205.7451
165.5020, 212.8569
165.9841, 222.8213
166.4662, 240.4819
166.9483, 258.0605
167.4305, 268.1772
167.9126, 271.2378
168.3947, 276.3262
168.8768, 294.9878
169.3589, 327.0957
169.8410, 348.4751
170.3232, 352.1973
170.8053, 345.9619
171.2874, 333.6177
171.7695, 316.0781
172.2516, 293.3867
172.7337, 263.4800
173.2159, 225.7017
173.6980, 189.0103
174.1801, 140.0571
174.6622, 103.9224
175.1443, 106.8574
175.6264, 149.7075
176.1085, 191.7744
176.5907, 189.6079
177.0728, 140.4609
177.5549, 118.5195
178.0370, 155.2402
178.5191, 189.4746
179.0012, 187.8647
179.4834, 156.0894
179.9655, 116.3687
180.4476, 85.75244
180.9297, 62.18311
181.4118, 50.01221
181.8939, 55.78027
182.3761, 56.20947
182.8582, 40.63672
183.3403, 17.97607
183.8224, 3.168457
184.3045, 13.91260
184.7866, 67.23633
185.2688, 107.5352
185.7509, 98.67285
186.2330, 79.49609
186.7151, 76.83643
187.1972, 90.42871
187.6793, 108.3564
188.1615, 113.7217
188.6436, 93.18408
189.1257, 74.85840
189.6078, 56.57617
190.0899, 42.93115
190.5720, 39.76074
191.0542, 50.77441
191.5363, 61.17627
192.0184, 52.93311
192.5005, 22.67090
192.9826, 8.860840
193.4647, 25.98975
193.9469, 49.77539
194.4290, 79.58252
194.9111, 108.7280
195.3932, 125.4048
195.8753, 106.8389
196.3574, 42.11328
196.8396, 2.366699
197.3217, 15.43164
197.8038, 15.65820
198.2859, 4.165039
198.7680, 13.45166
199.2501, 30.30615
199.7323, 38.30273
200.2144, 36.28955
200.6965, 38.66211
201.1786, 53.89111
201.6607, 63.28809
202.1428, 51.79834
202.6250, 24.66309
203.1071, 0.5488280
203.5892, 6.791992
204.0713, 7.161621
204.5534, 19.65332
205.0355, 39.77881
205.5177, 49.29346
205.9998, 34.61621
206.4819, 2.254395
206.9640, 29.56152
207.4461, 46.09131
207.9282, 47.37744
208.4104, 47.07324
208.8925, 40.54150
209.3746, 37.56836
209.8567, 42.44189
210.3388, 53.39160
210.8209, 66.89502
211.3030, 82.44385
211.7852, 99.06445
212.2673, 105.9717
212.7494, 99.73633
213.2315, 85.93506
213.7136, 59.94580
214.1957, 28.52637
214.6779, 3.209473
215.1600, 7.943359
215.6421, 6.685547
216.1242, 3.273438
216.6063, 5.443359
217.0884, 11.77734
217.5706, 9.613770
218.0527, 4.340332
218.5348, 5.203125
219.0169, 19.47510
219.4990, 41.94238
219.9811, 53.20264
220.4633, 53.56738
220.9454, 40.20752
221.4275, 4.255859
221.9096, 56.00391
222.3917, 81.35645
222.8738, 59.33838
223.3560, 10.94629
223.8381, 4.827637
224.3202, 36.69482
224.8023, 62.75293
225.2844, 43.87500
225.7665, 5.982910
226.2487, 26.00195
226.7308, 42.96875
227.2129, 47.09570
227.6950, 39.58447
228.1771, 14.44971
228.6592, 6.294922
229.1414, 14.44043
229.6235, 17.41113
230.1056, 22.71436
230.5877, 33.11377
231.0698, 41.17871
231.5519, 31.69727
232.0341, 3.162109
232.5162, 24.38525
232.9983, 7.976074
233.4804, 16.16113
233.9625, 28.11475
234.4446, 23.68799
234.9268, 13.01953
235.4089, 4.995605
235.8910, 1.043457
236.3731, 1.459961
236.8552, 26.25537
237.3373, 50.96924
237.8195, 58.15381
238.3016, 47.07812
238.7837, 35.40723
239.2658, 41.51514
239.7479, 64.78711
240.2300, 80.97754
240.7122, 83.20264
241.1943, 81.02734
241.6764, 80.10303
242.1585, 80.62988
242.6406, 82.27051
243.1227, 87.02588
243.6049, 93.55664
244.0870, 93.28613
244.5691, 80.62354
245.0512, 68.53564
245.5333, 68.35303
246.0154, 76.62793
246.4975, 81.65186
246.9797, 70.27246
247.4618, 51.57227
247.9439, 52.27930
248.4260, 81.17676
248.9081, 110.5264
249.3902, 119.4224
249.8724, 115.1406
250.3545, 111.6680
250.8366, 117.2324
251.3187, 124.9771
251.8008, 121.0083
252.2829, 102.1128
252.7651, 89.09863
253.2472, 99.98486
253.7293, 124.6675
254.2114, 145.6528
254.6935, 159.1763
255.1756, 168.2061
255.6578, 176.5840
256.1399, 184.4404
256.6220, 186.7256
257.1041, 175.5127
257.5862, 159.9482
258.0684, 122.3579
258.5505, 149.8164
259.0326, 166.1572
259.5147, 171.9741
259.9968, 135.8193
260.4789, 153.7876
260.9611, 149.9956
261.4432, 145.1973
261.9253, 170.6753
262.4074, 188.4824
262.8895, 207.7407
263.3716, 220.9648
263.8537, 227.8462
264.3358, 224.5474
264.8180, 206.3091
265.3001, 186.6069
265.7822, 190.4409
266.2643, 223.3579
266.7464, 245.7534
267.2285, 239.9834
267.7107, 223.7017
268.1928, 220.4248
268.6749, 234.2935
269.1570, 246.9937
269.6391, 235.7793
270.1212, 193.3442
270.6034, 171.5908
271.0855, 189.8379
271.5676, 216.3628
272.0497, 225.9062
272.5318, 217.9536
273.0139, 209.0742
273.4961, 214.1079
273.9782, 233.3809
274.4603, 240.5610
274.9424, 223.8340
275.4245, 209.1406
275.9066, 206.9360
276.3888, 215.2407
276.8709, 228.9824
277.3530, 246.3652
277.8351, 265.8096
278.3172, 274.3672
278.7993, 264.9346
279.2815, 257.1982
279.7636, 249.2495
280.2457, 242.8184
280.7278, 242.7358
281.2099, 250.2466
281.6920, 259.7983
282.1742, 260.9341
282.6563, 239.8057
283.1384, 226.8994
283.6205, 227.6396
284.1026, 230.8164
284.5847, 226.6943
285.0669, 214.5547
285.5490, 203.9033
286.0311, 211.0708
286.5132, 247.7588
286.9953, 265.5967
287.4774, 246.5854
287.9596, 225.0571
288.4417, 217.1543
288.9238, 223.3159
289.4059, 235.9956
289.8880, 251.7222
290.3701, 271.1377
290.8523, 273.0615
291.3344, 238.0576
291.8165, 206.1436
292.2986, 187.6831
292.7807, 181.8130
293.2628, 187.6597
293.7450, 210.0806
294.2271, 240.6753
294.7092, 250.7646
295.1913, 229.8784
295.6734, 209.3188
296.1555, 198.5249
296.6377, 194.4419
297.1198, 195.4277
297.6019, 201.7090
298.0840, 211.6836
298.5661, 225.8999
299.0482, 245.2207
299.5304, 257.9824
300.0125, 258.2544
300.4946, 251.8184
300.9767, 243.6841
301.4588, 234.0117
301.9409, 224.9790
302.4231, 216.5884
302.9052, 209.5806
303.3873, 207.3237
303.8694, 210.8770
304.3515, 219.3843
304.8336, 235.8350
305.3158, 258.8218
305.7979, 273.3081
306.2800, 271.6133
306.7621, 260.7256
307.2442, 245.3018
307.7263, 224.9556
308.2085, 214.5596
308.6906, 231.6782
309.1727, 273.3994
309.6548, 300.3770
310.1369, 306.5957
310.6190, 301.3628
311.1012, 280.1206
311.5833, 250.2642
312.0654, 238.9785
312.5475, 265.2051
313.0296, 317.3794
313.5117, 347.3423
313.9939, 335.8921
314.4760, 329.6768
314.9581, 339.2144
315.4402, 358.9058
315.9223, 384.8647
316.4044, 416.6152
316.8866, 445.2549
317.3687, 454.4829
317.8508, 430.9170
318.3329, 375.8257
318.8150, 432.3662
319.2971, 467.1909
319.7793, 481.8003
320.2614, 415.6025
320.7435, 455.9277
321.2256, 452.2686
321.7077, 446.8911
322.1898, 500.4082
322.6720, 445.6592
323.1541, 499.9658
323.6362, 511.4185
324.1183, 541.9277
324.6004, 529.1045
325.0826, 529.0073
325.5647, 571.4404
326.0468, 590.2793
326.5289, 572.6748
327.0110, 604.3462
327.4931, 548.7769
327.9753, 619.3022
328.4574, 645.4775
328.9395, 635.4541
329.4216, 607.9292
329.9037, 581.4761
330.3858, 555.8335
330.8680, 536.7456
331.3501, 525.7417
331.8322, 523.2251
332.3143, 534.6758
332.7964, 557.9990
333.2785, 571.2949
333.7606, 549.3472
334.2427, 508.4375
334.7249, 494.2339
335.2070, 517.1558
335.6891, 543.5488
336.1712, 546.9185
336.6533, 532.9712
337.1354, 518.1582
337.6176, 510.5840
338.0997, 500.2358
338.5818, 471.8716
339.0639, 429.1323
339.5460, 397.6802
340.0281, 393.7354
340.5103, 406.8359
340.9924, 404.8213
341.4745, 370.1216
341.9566, 341.7197
342.4387, 361.0010
342.9208, 368.6982
343.4030, 365.9131
343.8851, 321.1973
344.3672, 330.6470
344.8493, 318.3960
345.3314, 305.2593
345.8135, 322.3442
346.2957, 283.7480
346.7778, 300.3574
347.2599, 281.1963
347.7420, 286.9629
348.2241, 291.5142
348.7062, 285.4497
349.1884, 269.5986
349.6705, 255.2358
350.1526, 240.5913
350.6347, 230.1123
351.1168, 228.4600
351.5989, 230.0991
352.0811, 227.4468
352.5632, 217.2095
353.0453, 204.4087
353.5274, 199.4712
354.0095, 206.2749
354.4916, 206.7646
354.9738, 187.5547
355.4559, 168.1953
355.9380, 162.5308
356.4201, 170.3975
356.9022, 178.0757
357.3843, 170.5078
357.8665, 145.9048
358.3486, 167.5396
358.8307, 178.0835
359.3128, 178.1338
359.7949, 136.2480
360.2770, 148.5288
360.7592, 139.1133
361.2413, 128.8169
361.7234, 148.7476
362.2055, 113.0024
362.6876, 132.4697
363.1697, 112.2876
363.6519, 107.8198
364.1340, 102.8218
364.6161, 99.10059
365.0982, 97.53320
365.5803, 95.07666
366.0624, 86.60986
366.5446, 78.59180
367.0267, 82.62598
367.5088, 100.5708
367.9909, 118.7520
368.4730, 120.5459
368.9551, 101.4722
369.4373, 88.64795
369.9194, 85.02490
370.4015, 83.85693
370.8836, 85.20459
371.3657, 86.50098
371.8478, 82.65967
372.3300, 70.17334
372.8121, 51.28760
373.2942, 33.84424
373.7763, 13.01904
374.2584, 2.343262
374.7405, 9.264160
375.2227, 22.38379
375.7048, 35.05176
376.1869, 44.80420
376.6690, 46.87646
377.1511, 28.17236
377.6332, 12.51221
378.1154, 28.27051
378.5975, 7.025391
379.0796, 39.90234
379.5617, 31.92920
380.0438, 4.519531
380.5259, 33.13086
381.0081, 34.95410
381.4902, 21.44336
381.9723, 5.866699
382.4544, 12.21240
382.9365, 21.27490
383.4186, 11.18604
383.9008, 9.290039
384.3829, 19.95703
384.8650, 16.70850
385.3471, 12.98291
385.8292, 16.24414
386.3113, 22.28955
386.7935, 22.09521
387.2756, 13.32715
387.7577, 5.384766
388.2398, 10.32324
388.7219, 32.51855
389.2040, 45.58203
389.6862, 43.35693
390.1683, 38.49805
390.6504, 38.06836
391.1325, 40.36426
391.6146, 39.40430
392.0967, 31.13672
392.5789, 18.47021
393.0610, 12.54736
393.5431, 21.21191
394.0252, 23.57031
394.5073, 10.49365
394.9894, 4.700195
395.4716, 4.268555
395.9537, 19.64746
396.4358, 32.47900
396.9179, 34.82129
397.4000, 4.767578
397.8821, 9.812012
398.3643, 2.697754
398.8464, 5.296875
399.3285, 16.93506
399.8106, 16.50391
400.2927, 5.266113
400.7748, 5.010254
401.2570, 14.85010
401.7391, 7.305176
402.2212, 44.07959
402.7033, 69.87500
403.1854, 66.35303
403.6675, 50.13525
404.1497, 53.50000
404.6317, 82.48730
405.1139, 103.0903
405.5960, 104.7549
406.0781, 94.47559
406.5602, 71.74561
407.0423, 39.84912
407.5244, 20.95703
408.0066, 37.98779
408.4887, 90.93262
408.9708, 122.4224
409.4529, 117.0200
409.9350, 110.0947
410.4171, 109.8579
410.8993, 113.6206
411.3814, 118.4766
411.8635, 123.1758
412.3456, 124.6968
412.8277, 115.4604
413.3098, 89.60840
413.7920, 74.09326
414.2741, 84.90820
414.7562, 94.82275
415.2383, 85.67529
415.7204, 63.03125
416.2025, 48.54590
416.6847, 60.82373
417.1668, 87.35352
417.6489, 100.8789
418.1310, 99.99463
418.6131, 94.45898
419.0952, 85.50293
419.5774, 76.21582
420.0595, 72.45264
420.5416, 77.12939
421.0237, 79.63965
421.5058, 69.32471
421.9879, 55.16455
422.4701, 53.20752
422.9522, 66.72852
423.4343, 87.40381
423.9164, 109.1445
424.3985, 132.8877
424.8806, 143.6357
425.3628, 126.3960
425.8449, 113.6338
426.3270, 121.3765
426.8091, 141.8706
427.2912, 160.6470
427.7733, 171.0303
428.2555, 177.8804
428.7376, 191.8647
429.2197, 217.3804
429.7018, 238.4829
430.1839, 250.7295
430.6660, 261.2329
431.1482, 270.9585
431.6303, 281.7061
432.1124, 298.1001
432.5945, 324.6011
433.0766, 358.6938
433.5587, 399.1616
434.0409, 450.5195
434.5230, 485.1929
435.0051, 475.9478
435.4872, 448.7002
435.9693, 446.1431
436.4514, 479.4209
436.9336, 518.4824
437.4157, 552.8188
437.8978, 582.6499
438.3799, 608.0527
438.8620, 630.7017
439.3441, 650.3662
439.8263, 663.3960
440.3084, 668.1870
440.7905, 694.0063
441.2726, 766.6328
441.7547, 827.9780
442.2368, 849.3335
442.7190, 849.9756
443.2011, 859.1899
443.6832, 888.0361
444.1653, 925.3755
444.6474, 951.3730
445.1295, 960.8213
445.6117, 979.3994
446.0938, 1019.556
446.5759, 1057.104
447.0580, 1077.408
447.5401, 1086.943
448.0222, 1103.066
448.5044, 1138.314
448.9865, 1181.379
449.4686, 1210.418
449.9507, 1224.864
450.4328, 1249.226
450.9149, 1297.128
451.3971, 1354.139
451.8792, 1400.586
452.3613, 1438.038
452.8434, 1463.105
453.3255, 1461.054
453.8076, 1453.797
454.2898, 1468.418
454.7719, 1504.557
455.2540, 1538.343
455.7361, 1551.139
456.2182, 1546.828
456.7003, 1555.468
457.1825, 1603.936
457.6646, 1632.457
458.1467, 1619.984
458.6288, 1594.446
459.1109, 1581.216
459.5930, 1586.271
460.0752, 1602.432
460.5573, 1626.660
461.0394, 1658.649
461.5215, 1677.675
462.0036, 1674.740
462.4857, 1674.359
462.9679, 1692.975
463.4500, 1720.759
463.9321, 1741.871
464.4142, 1749.305
464.8963, 1756.477
465.3784, 1773.970
465.8606, 1799.924
466.3427, 1830.009
466.8248, 1864.136
467.3069, 1896.838
467.7890, 1919.484
468.2711, 1929.093
468.7533, 1955.957
469.2354, 2019.234
469.7175, 2079.880
470.1996, 2114.528
470.6817, 2134.144
471.1638, 2160.961
471.6460, 2204.956
472.1281, 2258.530
472.6102, 2307.797
473.0923, 2350.393
473.5744, 2395.757
474.0565, 2449.273
474.5387, 2501.342
475.0208, 2546.679
475.5029, 2586.967
475.9850, 2627.051
476.4671, 2667.944
476.9492, 2711.463
477.4313, 2764.599
477.9135, 2827.279
478.3956, 2878.772
478.8777, 2909.355
479.3598, 2928.552
479.8419, 2949.837
480.3240, 2973.060
480.8062, 2996.921
481.2883, 3030.787
481.7704, 3059.307
482.2525, 3058.812
482.7346, 3037.645
483.2167, 3034.434
483.6989, 3076.802
484.1810, 3147.461
484.6631, 3188.979
485.1452, 3190.370
485.6273, 3180.855
486.1094, 3157.872
486.5916, 3130.354
487.0737, 3105.372
487.5558, 3082.224
488.0379, 3053.525
488.5200, 3009.076
489.0021, 2956.853
489.4843, 2920.864
489.9664, 2903.224
490.4485, 2885.618
490.9306, 2862.157
491.4127, 2832.480
491.8948, 2798.502
492.3770, 2759.696
492.8591, 2711.604
493.3412, 2643.487
493.8233, 2571.984
494.3054, 2518.338
494.7875, 2481.919
495.2697, 2446.917
495.7518, 2402.321
496.2339, 2349.523
496.7160, 2296.833
497.1981, 2253.499
497.6802, 2195.841
498.1624, 2103.642
498.6445, 2010.244
499.1266, 1945.081
499.6087, 1909.180
500.0908, 1880.343
500.5729, 1844.202
501.0551, 1799.120
501.5372, 1735.924
502.0193, 1649.042
502.5014, 1568.982
502.9835, 1509.640
503.4656, 1466.129
503.9478, 1432.445
504.4299, 1412.550
504.9120, 1377.391
505.3941, 1298.553
505.8762, 1208.046
506.3583, 1146.564
506.8405, 1115.794
507.3226, 1089.744
507.8047, 1049.394
508.2868, 997.0195
508.7689, 947.9038
509.2510, 900.8687
509.7332, 858.9043
510.2153, 828.6328
510.6974, 797.5444
511.1795, 751.6597
511.6616, 693.3486
512.1437, 643.1445
512.6259, 623.6077
513.1080, 623.6365
513.5901, 604.7529
514.0722, 561.2778
514.5543, 523.2139
515.0364, 507.6313
515.5186, 503.2119
516.0007, 490.3445
516.4828, 468.5286
516.9649, 443.7610
517.4470, 415.0994
517.9291, 384.1165
518.4113, 350.1885
518.8934, 315.2090
519.3755, 285.2061
519.8576, 264.3284
520.3397, 251.0208
520.8218, 239.4487
521.3040, 231.7258
521.7861, 221.9473
522.2682, 205.6541
522.7503, 190.6123
523.2324, 184.7297
523.7145, 185.8997
524.1967, 183.1716
524.6788, 165.9214
525.1609, 142.7715
525.6430, 132.1582
526.1251, 134.3691
526.6072, 134.8564
527.0894, 129.2344
527.5715, 117.9573
528.0536, 98.49292
528.5357, 67.88794
529.0178, 47.17871
529.4999, 46.08765
529.9821, 50.62012
530.4642, 51.35547
530.9463, 48.19287
531.4284, 44.48193
531.9105, 42.07349
532.3926, 39.63892
532.8748, 33.19458
533.3569, 19.64478
533.8390, 12.56177
534.3211, 17.95776
534.8032, 25.42627
535.2853, 33.96704
535.7675, 40.89038
536.2496, 37.53857
536.7317, 13.06519
537.2138, 13.00830
537.6959, 16.01221
538.1780, 2.268799
538.6602, 0.8244630
539.1423, 16.30273
539.6244, 33.95972
540.1065, 27.07397
540.5886, 9.402100
541.0707, 28.18286
541.5529, 17.34473
542.0350, 4.211670
542.5171, 2.713623
542.9992, 5.854492
543.4813, 9.201904
543.9634, 14.01392
544.4456, 18.98267
544.9277, 23.30078
545.4098, 26.88745
545.8919, 27.46924
546.3740, 25.40479
546.8561, 19.23755
547.3383, 0.5920410
547.8204, 20.47021
548.3025, 24.60352
548.7846, 1.246826
549.2667, 17.89648
549.7488, 13.92432
550.2310, 0.3544920
550.7131, 7.649902
551.1952, 6.384766
551.6773, 5.596436
552.1594, 13.26904
552.6415, 26.84790
553.1237, 31.26660
553.6058, 18.74902
554.0879, 10.42554
554.5700, 13.81006
555.0521, 18.02808
555.5342, 14.29077
556.0164, 3.156738
556.4985, 8.151855
556.9806, 19.99194
557.4627, 26.35986
557.9448, 11.48267
558.4269, 22.91284
558.9091, 48.96558
559.3912, 56.81372
559.8733, 51.00562
560.3554, 34.43994
560.8375, 0.4284670
561.3196, 14.81250
561.8018, 12.75146
562.2839, 39.59668
562.7660, 44.55981
563.2481, 33.48218
563.7302, 17.41577
564.2123, 0.7675780
564.6945, 13.76660
565.1766, 21.94824
565.6587, 23.74341
566.1408, 24.56567
566.6229, 26.67578
567.1050, 23.94531
567.5872, 10.42993
568.0693, 10.26489
568.5514, 34.14697
569.0335, 70.50879
569.5156, 89.69897
569.9977, 62.51636
570.4799, 17.73315
570.9620, 7.896240
571.4441, 9.879639
571.9262, 0.2214360
572.4083, 14.12793
572.8904, 30.34058
573.3726, 32.78662
573.8547, 9.907471
574.3368, 4.544678
574.8189, 2.311035
575.3010, 6.533691
575.7831, 17.98267
576.2653, 30.80225
576.7474, 42.03223
577.2295, 51.51587
577.7116, 57.70435
578.1937, 57.25391
578.6758, 51.38232
579.1580, 45.43848
579.6401, 40.76978
580.1222, 38.73169
580.6042, 41.33862
581.0864, 49.29932
581.5685, 57.92603
582.0506, 71.58789
582.5327, 80.82471
583.0148, 79.84888
583.4969, 73.81714
583.9791, 69.11694
584.4612, 67.53369
584.9433, 67.12231
585.4254, 68.64600
585.9075, 70.09497
586.3896, 58.99170
586.8718, 31.41504
587.3539, 12.05664
587.8360, 15.05396
588.3181, 33.61523
588.8002, 54.25244
589.2823, 81.78662
589.7645, 98.17944
590.2466, 94.23047
590.7287, 83.26709
591.2108, 74.45728
591.6929, 67.34375
592.1750, 55.61865
592.6572, 35.09521
593.1393, 15.50732
593.6214, 18.70654
594.1035, 47.55688
594.5856, 68.21069
595.0677, 75.81738
595.5499, 75.84106
596.0320, 67.02783
596.5141, 53.76782
596.9962, 47.28955
597.4783, 51.93140
597.9604, 59.53564
598.4426, 69.15112
598.9247, 77.50415
599.4068, 82.14966
599.8889, 82.58960
600.3710, 77.91895
600.8531, 66.15259
601.3353, 50.39111
601.8174, 45.66919
602.2995, 57.47412
602.7816, 66.83130
603.2637, 71.97388
603.7458, 72.37793
604.2280, 65.43164
604.7101, 52.89062
605.1922, 42.72754
605.6743, 35.58984
606.1564, 32.01880
606.6385, 35.38184
607.1207, 41.23291
607.6028, 39.82544
608.0849, 29.06274
608.5670, 23.61865
609.0491, 44.06104
609.5313, 90.64014
610.0134, 105.5889
610.4955, 55.76074
610.9776, 22.34888
611.4597, 32.90967
611.9418, 58.34302
612.4240, 72.63794
612.9061, 73.13892
613.3882, 73.23267
613.8703, 85.82349
614.3524, 98.41138
614.8345, 89.50830
615.3167, 64.14990
615.7988, 49.97388
616.2809, 58.05127
616.7630, 75.35107
617.2451, 84.11426
617.7272, 82.95386
618.2094, 78.95142
618.6915, 65.77295
619.1736, 55.81812
619.6557, 54.80298
620.1378, 59.80566
620.6199, 70.20093
621.1021, 85.65283
621.5842, 101.0029
622.0663, 118.9192
622.5484, 130.6382
623.0305, 111.2881
623.5126, 63.27197
623.9948, 29.01660
624.4769, 31.10132
624.9590, 52.72412
625.4411, 58.36865
625.9232, 37.94775
626.4053, 29.14746
626.8875, 44.67188
627.3696, 56.16113
627.8517, 44.00098
628.3338, 23.08423
628.8159, 17.78369
629.2980, 37.35693
629.7802, 61.92749
630.2623, 76.13892
630.7444, 79.77759
631.2265, 66.31299
631.7086, 34.73853
632.1907, 14.72144
632.6729, 27.23828
633.1550, 57.22827
633.6371, 68.76025
634.1192, 49.67139
634.6013, 39.51855
635.0834, 42.84766
635.5656, 48.43408
636.0477, 50.54199
636.5298, 50.65942
637.0119, 51.78027
637.4940, 54.92407
637.9761, 60.19971
638.4583, 70.22705
638.9404, 82.49561
639.4225, 86.62866
639.9046, 81.19873
640.3867, 82.15576
640.8688, 103.0134
641.3510, 131.3459
641.8331, 133.9326
642.3152, 90.23291
642.7973, 59.03101
643.2794, 43.36450
643.7615, 36.68506
644.2437, 38.87769
644.7258, 46.46973
645.2079, 56.08472
645.6900, 68.14673
646.1721, 74.98340
646.6542, 59.40479
647.1364, 31.74829
647.6185, 28.38843
648.1006, 53.49756
648.5827, 79.18433
649.0648, 90.43799
649.5469, 89.09082
650.0291, 78.73096
650.5112, 43.71265
650.9933, 29.29614
651.4754, 55.15796
651.9575, 82.29834
652.4396, 91.08838
652.9218, 86.05151
653.4039, 77.43335
653.8860, 68.49023
654.3681, 59.84790
654.8502, 49.18237
655.3323, 40.13525
655.8145, 44.31763
656.2966, 62.38257
656.7787, 80.24927
657.2608, 91.17285
657.7429, 94.31396
658.2250, 86.75757
658.7072, 58.91382
659.1893, 41.22656
659.6714, 42.02759
660.1535, 43.51270
660.6356, 35.91406
661.1177, 24.23096
661.5999, 17.96460
662.0820, 20.53662
662.5641, 23.73438
663.0462, 17.82422
663.5283, 9.313232
664.0104, 11.19312
664.4926, 23.60400
664.9747, 39.39551
665.4568, 56.00610
665.9389, 68.56665
666.4210, 65.41577
666.9031, 36.88330
667.3853, 23.52051
667.8674, 39.16626
668.3495, 55.32422
668.8316, 63.13354
669.3137, 65.32837
669.7958, 65.77954
670.2780, 65.38623
670.7601, 60.46387
671.2422, 42.98584
671.7243, 23.58130
672.2064, 18.40967
672.6885, 24.44507
673.1707, 24.38745
673.6528, 10.23267
674.1349, 6.380371
674.6170, 4.987305
675.0991, 18.51123
675.5812, 27.69849
676.0634, 12.36792
676.5455, 0.4858400
677.0276, 4.000244
677.5097, 13.98438
677.9918, 15.82007
678.4739, 7.775879
678.9561, 0.5583500
679.4382, 3.808838
679.9203, 4.302734
680.4024, 6.393799
680.8845, 20.46460
681.3666, 16.66846
681.8488, 10.58496
682.3309, 35.94019
682.8130, 26.12427
683.2951, 14.30444
683.7772, 35.19360
684.2593, 30.91260
684.7415, 27.21533
685.2236, 33.83496
685.7057, 43.61084
686.1878, 48.78564
686.6699, 49.68359
687.1520, 45.33398
687.6342, 30.08447
688.1163, 15.54370
688.5984, 3.624512
689.0805, 2.808838
689.5626, 4.969238
690.0447, 24.75610
690.5269, 36.51733
691.0090, 17.72900
691.4911, 15.06763
691.9732, 18.55420
692.4553, 6.521240
692.9374, 26.48169
693.4196, 32.54321
693.9017, 32.38623
694.3838, 33.42114
694.8659, 35.38110
695.3480, 32.21899
695.8301, 12.60303
696.3123, 3.426270
696.7944, 13.73364
697.2765, 31.27734
697.7586, 50.70801
698.2407, 68.83423
698.7228, 79.51489
699.2050, 77.93115
699.6871, 71.66040
700.1692, 67.12964
700.6513, 64.57715
701.1334, 67.17505
701.6155, 74.77319
702.0977, 75.87500
702.5798, 60.93994
703.0619, 36.42700
703.5440, 24.05396
704.0261, 29.84546
704.5082, 32.23486
704.9904, 25.09912
705.4725, 19.86816
705.9546, 25.01709
706.4367, 34.89917
706.9188, 39.08105
707.4009, 34.72998
707.8831, 28.16919
708.3652, 18.57617
708.8473, 10.97876
709.3294, 14.40308
709.8115, 24.58789
710.2936, 26.75073
710.7758, 14.44141
711.2579, 0.3815920
711.7400, 6.575684
712.2221, 31.97729
712.7042, 41.41211
713.1863, 29.93628
713.6685, 20.62476
714.1506, 24.15796
714.6327, 33.71167
715.1148, 39.55908
715.5969, 41.51587
716.0790, 41.48584
716.5612, 36.67773
717.0433, 33.28882
717.5254, 36.18311
718.0075, 40.52954
718.4896, 37.00854
718.9717, 26.32275
719.4539, 23.88647
719.9360, 48.09497
720.4181, 80.88428
720.9002, 93.60327
721.3823, 88.46973
721.8644, 74.02197
722.3465, 51.94312
722.8286, 28.76758
723.3107, 9.065186
723.7928, 5.904541
724.2750, 6.576172
724.7571, 16.65698
725.2392, 35.33032
725.7213, 42.84448
726.2034, 48.00879
726.6855, 58.25732
727.1677, 69.88989
727.6498, 72.38867
728.1319, 59.05298
728.6140, 45.52197
729.0961, 42.08911
729.5782, 40.91260
730.0604, 30.34521
730.5425, 13.50830
731.0246, 2.958252
731.5067, 4.882568
731.9888, 14.73975
732.4709, 30.70947
732.9531, 52.06689
733.4352, 61.63232
733.9173, 57.12549
734.3994, 47.04248
734.8815, 30.31763
735.3636, 16.47046
735.8458, 24.05371
736.3279, 61.89868
736.8100, 84.26196
737.2921, 83.84229
737.7742, 77.35693
738.2563, 65.19434
738.7385, 53.13306
739.2206, 48.20557
739.7027, 49.90576
740.1848, 50.61865
740.6669, 52.41455
741.1490, 51.46631
741.6312, 10.34155
742.1133, 37.26758
742.5954, 53.08838
743.0775, 58.40356
743.5596, 21.75269
744.0417, 39.26343
744.5239, 35.07080
745.0060, 30.11230
745.4881, 57.10083
745.9702, 27.07422
746.4523, 51.63892
746.9344, 54.04321
747.4166, 66.66431
747.8987, 57.52954
748.3808, 81.58545
748.8629, 89.72095
749.3450, 90.76855
749.8271, 84.53149
750.3093, 76.10034
750.7914, 59.79272
751.2735, 44.26978
751.7556, 48.75269
752.2377, 78.79883
752.7198, 106.9292
753.2020, 99.68604
753.6841, 76.23633
754.1662, 81.87183
754.6483, 111.3650
755.1304, 121.6704
755.6125, 96.54028
756.0947, 67.85498
756.5768, 74.93408
757.0589, 115.0591
757.5410, 136.7854
758.0231, 133.7026
758.5052, 125.8726
758.9874, 113.9128
759.4695, 101.7556
759.9516, 94.86548
760.4337, 91.47632
760.9158, 83.83813
761.3979, 63.97949
761.8801, 50.35767
762.3622, 54.51880
762.8443, 63.29272
763.3264, 67.68701
763.8085, 66.26953
764.2906, 56.02271
764.7728, 34.90015
765.2549, 15.79736
765.7370, 16.68237
766.2191, 30.50464
766.7012, 36.22437
767.1833, 33.54346
767.6655, 35.83618
768.1476, 49.94727
768.6297, 64.68774
769.1118, 61.76172
769.5939, 39.34229
770.0760, 38.23486
770.5582, 75.97217
771.0403, 102.0518
771.5224, 93.12598
772.0045, 76.10059
772.4866, 75.08691
772.9688, 87.40747
773.4509, 93.48584
773.9330, 87.54370
774.4151, 77.43481
774.8972, 58.20093
775.3793, 41.96558
775.8615, 45.06689
776.3436, 62.03516
776.8257, 73.18896
777.3078, 68.34448
777.7899, 58.73877
778.2720, 55.68457
778.7542, 58.47632
779.2363, 68.50098
779.7184, 84.12427
780.2005, 91.65356
780.6826, 84.04004
781.1647, 72.25781
781.6469, 73.65576
782.1290, 89.52466
782.6111, 96.07617
783.0932, 90.60156
783.5753, 80.46094
784.0574, 61.51025
784.5396, 44.32690
785.0217, 39.81616
785.5038, 46.91089
785.9859, 56.53857
786.4680, 76.15405
786.9501, 87.37329
787.4323, 74.37720
787.9144, 59.50244
788.3965, 68.92603
788.8786, 92.87012
789.3607, 99.52148
789.8428, 72.69238
790.3250, 42.04395
790.8071, 38.75366
791.2892, 49.84204
791.7713, 50.80444
792.2534, 41.22852
792.7355, 37.94507
793.2177, 47.62231
793.6998, 58.73633
794.1819, 55.48169
794.6640, 39.14038
795.1461, 27.23828
795.6282, 19.88232
796.1104, 17.27466
796.5925, 23.08521
797.0746, 27.50879
797.5567, 18.53052
798.0388, 1.563721
798.5209, 11.10156
799.0031, 2.557861
799.4852, 4.804199
799.9673, 6.358398
800.4494, 9.057373
800.9315, 24.93506
801.4136, 43.14966
801.8958, 37.85083
802.3779, 2.527832
802.8600, 31.87769
803.3421, 11.20068
803.8242, 22.51807
804.3063, 29.68140
804.7885, 19.21899
805.2706, 17.72217
805.7527, 31.81006
806.2348, 45.24048
806.7169, 42.12207
807.1990, 27.83154
807.6812, 14.66821
808.1633, 2.977783
808.6454, 0.9907230
809.1275, 11.50024
809.6096, 22.38965
810.0917, 23.59546
810.5739, 19.31836
811.0560, 24.44141
811.5381, 47.35156
812.0202, 57.82324
812.5023, 47.84790
812.9844, 35.49023
813.4666, 24.49341
813.9487, 17.47290
814.4308, 21.75684
814.9129, 39.73389
815.3950, 45.19702
815.8771, 14.81812
816.3593, 8.352783
816.8414, 5.237549
817.3235, 30.61304
817.8056, 38.48633
818.2877, 28.15381
818.7698, 17.65845
819.2520, 17.76758
819.7341, 19.37769
820.2162, 9.875000
820.6983, 3.918945
821.1804, 9.594727
821.6625, 6.300049
822.1447, 4.363037
822.6268, 21.96582
823.1089, 37.45068
823.5910, 33.20190
824.0731, 11.73413
824.5552, 9.660156
825.0374, 29.90625
825.5195, 47.86719
826.0016, 57.00439
826.4837, 58.14551
826.9658, 50.65698
827.4479, 35.30249
827.9301, 21.80444
828.4122, 6.781982
828.8943, 0.4699710
829.3764, 8.827148
829.8585, 17.96460
830.3406, 15.39893
830.8228, 7.306885
831.3049, 6.064941
831.7870, 14.90503
832.2691, 24.12158
832.7512, 33.71362
833.2333, 39.69604
833.7155, 36.41504
834.1976, 29.60059
834.6797, 29.36377
835.1618, 36.05591
835.6439, 36.85059
836.1260, 17.52417
836.6082, 3.278564
837.0903, 0.3293460
837.5724, 17.08691
838.0545, 29.88477
838.5366, 35.61914
839.0187, 38.72852
839.5009, 41.58618
839.9830, 44.35596
840.4651, 50.03687
840.9472, 57.61108
841.4293, 48.74707
841.9114, 20.57031
842.3936, 0.8955080
842.8757, 6.129883
843.3578, 1.809326
843.8399, 5.803223
844.3220, 16.35059
844.8041, 23.55029
845.2863, 26.56445
845.7684, 27.99683
846.2505, 26.45288
846.7326, 25.30640
847.2147, 30.30737
847.6968, 36.27954
848.1790, 29.73975
848.6611, 1.588867
849.1432, 10.85400
849.6253, 13.51855
850.1074, 39.87085
850.5895, 54.14868
851.0717, 58.23950
851.5538, 52.33472
852.0359, 38.57349
852.5180, 26.98682
853.0001, 23.94092
853.4822, 23.46924
853.9644, 21.37329
854.4465, 18.39355
854.9286, 15.27051
855.4107, 12.30688
855.8928, 9.604736
856.3749, 6.921631
856.8571, 5.955078
857.3392, 8.585449
857.8213, 13.28809
858.3034, 16.21362
858.7855, 17.13501
859.2676, 13.35522
859.7498, 3.372559
860.2319, 4.916016
860.7140, 2.143066
861.1961, 12.00342
861.6782, 24.05664
862.1603, 33.70508
862.6425, 38.94165
863.1245, 37.82495
863.6066, 36.91699
864.0887, 40.79712
864.5709, 46.23511
865.0530, 46.02930
865.5351, 36.78027
866.0172, 36.92627
866.4993, 63.80029
866.9814, 78.28711
867.4636, 57.45288
867.9457, 31.95801
868.4278, 32.32764
868.9099, 52.17432
869.3920, 58.72583
869.8741, 36.04980
870.3563, 18.26245
870.8384, 18.27075
871.3205, 24.70142
871.8026, 32.81006
872.2847, 40.00464
872.7668, 41.72314
873.2490, 37.31445
873.7311, 35.68091
874.2132, 47.63086
874.6953, 60.20435
875.1774, 59.72217
875.6595, 50.19727
876.1417, 34.30762
876.6238, 15.83423
877.1059, 7.785645
877.5880, 18.59790
878.0701, 35.02417
878.5522, 38.36377
879.0344, 31.46167
879.5165, 24.12573
879.9986, 17.47021
880.4807, 15.27759
880.9628, 19.06787
881.4449, 24.61255
881.9271, 26.88428
882.4092, 26.10034
882.8913, 24.02979
883.3734, 20.41504
883.8555, 17.17334
884.3376, 13.68408
884.8198, 14.16089
885.3019, 22.81738
885.7840, 34.43872
886.2661, 37.83716
886.7482, 30.54956
887.2303, 30.15698
887.7125, 44.06763
888.1946, 51.47925
888.6767, 40.65723
889.1588, 27.06079
889.6409, 26.76343
890.1230, 36.10400
890.6052, 37.92041
891.0873, 18.63892
891.5694, 13.98901
892.0515, 42.70557
892.5336, 70.45825
893.0157, 79.05029
893.4979, 76.00806
893.9800, 70.63721
894.4621, 64.36816
894.9442, 61.92383
895.4263, 68.86133
895.9084, 74.89819
896.3906, 76.20483
896.8727, 72.93237
897.3548, 62.26050
897.8369, 47.23584
898.3190, 34.26685
898.8011, 25.44165
899.2833, 22.86499
899.7654, 34.84131
900.2475, 48.55566
900.7296, 45.31494
901.2117, 33.30371
901.6938, 31.03125
902.1760, 40.73145
902.6581, 49.84619
903.1402, 50.06592
903.6223, 43.68408
904.1044, 28.85474
904.5865, 11.09741
905.0687, 10.77173
905.5508, 26.21484
906.0329, 33.80322
906.5150, 22.67529
906.9971, 8.739258
907.4792, 14.80396
907.9614, 33.87231
908.4435, 37.77808
908.9256, 26.71411
909.4077, 20.52295
909.8898, 22.69409
910.3719, 29.69678
910.8541, 40.24194
911.3362, 51.91699
911.8183, 60.60986
912.3004, 66.68701
912.7825, 64.08008
913.2646, 49.16113
913.7468, 37.33032
914.2289, 33.59619
914.7110, 33.18970
915.1931, 33.85303
915.6752, 35.24756
916.1573, 27.94604
916.6395, 2.202881
917.1216, 13.65845
917.6037, 7.298584
918.0858, 29.89893
918.5679, 46.30054
919.0500, 56.71021
919.5322, 60.11621
920.0143, 56.57446
920.4964, 49.95728
920.9785, 35.62598
921.4606, 25.21558
921.9427, 24.05713
922.4249, 24.05103
922.9070, 20.80444
923.3891, 14.81934
923.8712, 6.198242
924.3533, 5.744385
924.8354, 12.58789
925.3176, 10.80518
925.7997, 4.675781
926.2818, 5.865723
926.7639, 18.25635
927.2460, 31.16016
927.7281, 43.55396
928.2103, 53.97388
928.6924, 62.86694
929.1745, 66.04248
929.6566, 50.20630
930.1387, 37.90771
930.6208, 61.02271
931.1030, 95.68115
931.5851, 99.06592
932.0672, 68.78955
932.5493, 37.59961
933.0314, 21.96362
933.5135, 17.22046
933.9957, 27.71118
934.4778, 40.76221
934.9599, 31.68457
935.4420, 9.543457
935.9241, 4.737061
936.4063, 24.86548
936.8884, 44.99023
937.3705, 43.84619
937.8526, 30.21777
938.3347, 13.55396
938.8168, 3.134521
939.2990, 13.55542
939.7811, 16.17041
940.2632, 4.484863
940.7453, 24.54077
941.2274, 51.39429
941.7095, 48.33276
942.1917, 25.79932
942.6738, 17.40991
943.1559, 20.83398
943.6380, 21.24121
944.1201, 15.90405
944.6022, 9.281738
945.0844, 4.044678
945.5665, 0.5937500
946.0486, 0.6115720
946.5307, 0.4958500
947.0128, 5.585449
947.4949, 14.81030
947.9771, 22.46362
948.4592, 26.95044
948.9413, 29.41040
949.4234, 30.96411
949.9055, 31.39722
950.3876, 28.13672
950.8698, 20.42358
951.3519, 18.54712
951.8340, 24.23267
952.3161, 28.22339
952.7982, 27.21826
953.2803, 22.87500
953.7625, 14.68726
954.2446, 5.645996
954.7267, 13.95654
955.2088, 46.28833
955.6909, 69.93018
956.1730, 82.03467
956.6552, 87.12891
957.1373, 87.38574
957.6194, 80.94116
958.1015, 62.17822
958.5836, 32.01855
959.0657, 17.52954
959.5479, 25.82886
960.0300, 33.53931
960.5121, 39.29272
960.9942, 42.58740
961.4763, 44.60425
961.9584, 42.78662
962.4406, 30.42114
962.9227, 5.503418
963.4048, 7.444580
963.8869, 1.593994
964.3690, 4.657471
964.8511, 10.12817
965.3333, 14.12354
965.8154, 12.48608
966.2975, 10.04907
966.7796, 18.81201
967.2617, 43.45728
967.7438, 58.72876
968.2260, 57.30615
968.7081, 55.00635
969.1902, 51.25293
969.6723, 51.49023
970.1544, 67.53589
970.6365, 89.55249
971.1187, 90.82031
971.6008, 63.56494
972.0829, 36.17017
972.5650, 2.642090
973.0471, 18.85693
973.5292, 18.75879
974.0114, 7.339355
974.4935, 10.16968
974.9756, 30.52710
975.4577, 46.50317
975.9398, 54.64600
976.4219, 61.13623
976.9041, 67.88135
977.3862, 72.46729
977.8683, 75.14282
978.3504, 74.19556
978.8325, 63.91870
979.3146, 47.68237
979.7968, 40.87671
980.2789, 49.93213
980.7610, 61.45776
981.2431, 80.51782
981.7252, 90.80322
982.2073, 73.75854
982.6895, 48.72925
983.1716, 39.20776
983.6537, 45.79175
984.1358, 55.33228
984.6179, 65.89795
985.1000, 74.33521
985.5822, 83.71631
986.0643, 86.10181
986.5464, 68.41138
987.0285, 45.55371
987.5106, 38.51221
987.9927, 47.88525
988.4749, 55.79980
988.9570, 56.03369
989.4391, 55.06567
989.9212, 56.57935
990.4033, 56.35278
990.8854, 49.44849
991.3676, 39.62207
991.8497, 32.28149
992.3318, 28.48560
992.8139, 28.49194
993.2960, 34.22510
993.7781, 40.57568
994.2603, 45.58789
994.7424, 50.60327
995.2245, 59.47314
995.7066, 68.09961
996.1887, 70.17285
996.6708, 63.96899
997.1530, 50.97852
997.6351, 19.52417
998.1172, 0.6328130
998.5993, 17.27051
999.0814, 43.91382
999.5635, 66.17603
1000.046, 80.66504
1000.528, 84.07275
1001.010, 76.24780
1001.492, 63.77612
1001.974, 39.79639
1002.456, 24.34912
1002.938, 35.46387
1003.420, 51.47632
1003.903, 51.75439
1004.385, 44.04053
1004.867, 46.36523
1005.349, 61.41504
1005.831, 72.18457
1006.313, 68.73730
1006.795, 62.76318
1007.277, 58.96240
1007.759, 55.95190
1008.242, 53.90161
1008.724, 51.20728
1009.206, 42.89526
1009.688, 28.71387
1010.170, 22.03882
1010.652, 31.19434
1011.134, 45.76123
1011.616, 67.59253
1012.099, 86.33716
1012.581, 92.24170
1013.063, 89.42773
1013.545, 86.68481
1014.027, 85.57886
1014.509, 80.90869
1014.991, 70.18066
1015.473, 56.07056
1015.955, 29.71753
1016.438, 9.967529
1016.920, 19.43945
1017.402, 43.29175
1017.884, 53.98682
1018.366, 47.16284
1018.848, 41.14966
1019.330, 41.56299
1019.812, 44.79297
1020.294, 59.05225
1020.777, 66.24097
1021.259, 43.54688
1021.741, 8.837158
1022.223, 9.482666
1022.705, 7.849854
1023.187, 3.097168
1023.669, 4.708496
1024.151, 8.265625
1024.634, 1.076172
1025.116, 8.857422
1025.598, 4.288818
1026.080, 7.603271
1026.562, 21.24146
1027.044, 35.31079
1027.526, 40.71875
1028.008, 26.05103
1028.490, 16.24121
1028.973, 20.10522
1029.455, 27.06323
1029.937, 29.98364
1030.419, 32.59033
1030.901, 42.81909
1031.383, 61.32471
1031.865, 68.31348
1032.347, 46.91162
1032.830, 33.94946
1033.312, 44.81250
1033.794, 54.00317
1034.276, 43.75098
1034.758, 28.09229
1035.240, 24.87573
1035.722, 34.04370
1036.204, 44.56787
1036.687, 69.95068
1037.169, 74.35156
1037.651, 28.85278
1038.133, 5.134033
1038.615, 4.425049
1039.097, 31.64038
1039.579, 53.69165
1040.061, 69.79224
1040.543, 73.66064
1041.026, 58.18433
1041.508, 43.67554
1041.990, 29.23120
1042.472, 17.36694
1042.954, 10.86841
1043.436, 4.937256
1043.918, 6.466309
1044.400, 21.23193
1044.882, 30.07983
1045.365, 36.55591
1045.847, 24.48389
1046.329, 22.38843
1046.811, 48.66821
1047.293, 28.47046
1047.775, 0.5117190
1048.257, 6.193604
1048.739, 4.465332
1049.222, 8.314209
1049.704, 1.250732
1050.186, 12.50439
1050.668, 48.74658
1051.150, 77.24829
1051.632, 89.37207
1052.114, 92.68652
1052.596, 92.37402
1053.078, 87.70825
1053.561, 73.44116
1054.043, 49.09229
1054.525, 52.12524
1055.007, 85.62939
1055.489, 110.6277
1055.971, 119.0471
1056.453, 116.2441
1056.935, 104.1777
1057.417, 89.03491
1057.900, 79.81421
1058.382, 76.61597
1058.864, 84.62329
1059.346, 101.8228
1059.828, 98.80688
1060.310, 71.89697
1060.792, 44.60254
1061.274, 28.40503
1061.757, 24.44556
1062.239, 38.79419
1062.721, 62.12573
1063.203, 65.39575
1063.685, 55.45850
1064.167, 61.87280
1064.649, 83.76001
1065.131, 94.76245
1065.614, 85.44800
1066.096, 73.54688
1066.578, 73.67383
1067.060, 83.52930
1067.542, 105.6956
1068.024, 131.8301
1068.506, 144.0779
1068.988, 145.3220
1069.470, 148.9902
1069.953, 158.0354
1070.435, 163.6028
1070.917, 158.5200
1071.399, 151.1521
1071.881, 150.8201
1072.363, 152.0886
1072.845, 144.8369
1073.327, 135.8359
1073.809, 141.9160
1074.292, 161.1145
1074.774, 170.3809
1075.256, 156.8076
1075.738, 142.5977
1076.220, 140.9883
1076.702, 143.8892
1077.184, 142.7087
1077.666, 144.3867
1078.148, 164.9878
1078.631, 195.7595
1079.113, 205.5718
1079.595, 182.3635
1080.077, 162.7991
1080.559, 160.1526
1081.041, 162.6052
1081.523, 167.3704
1082.005, 173.2117
1082.488, 176.0881
1082.970, 180.3059
1083.452, 198.1689
1083.934, 233.1201
1084.416, 257.2585
1084.898, 272.8123
1085.380, 270.5908
1085.862, 227.0410
1086.344, 192.8928
1086.827, 203.4758
1087.309, 227.6558
1087.791, 220.2498
1088.273, 184.4480
1088.755, 169.9358
1089.237, 182.6062
1089.719, 201.7964
1090.201, 233.7136
1090.683, 250.4277
1091.166, 236.0447
1091.648, 216.8977
1092.130, 220.0571
1092.612, 236.8501
1093.094, 239.7871
1093.576, 228.4485
1094.058, 204.2046
1094.540, 165.2002
1095.023, 154.2021
1095.505, 183.4551
1095.987, 215.0474
1096.469, 223.2168
1096.951, 218.7803
1097.433, 219.9817
1097.915, 224.0918
1098.397, 216.3730
1098.880, 200.9644
1099.362, 201.8135
1099.844, 218.9048
1100.326, 221.0879
1100.808, 196.4421
1101.290, 170.7859
1101.772, 169.4336
1102.254, 180.0012
1102.736, 188.0620
1103.219, 193.9441
1103.701, 197.7883
1104.183, 201.0769
1104.665, 207.1465
1105.147, 216.2000
1105.629, 221.7131
1106.111, 218.2129
1106.593, 214.2600
1107.075, 218.1924
1107.558, 221.5073
1108.040, 216.9468
1108.522, 207.1626
1109.004, 192.1450
1109.486, 175.6570
1109.968, 170.4260
1110.450, 183.0901
1110.932, 194.1045
1111.415, 203.5090
1111.897, 203.3425
1112.379, 174.6499
1112.861, 151.1047
1113.343, 170.4634
1113.825, 209.2366
1114.307, 214.6943
1114.789, 181.8350
1115.271, 167.0837
1115.754, 186.5823
1116.236, 190.2073
1116.718, 163.4580
1117.200, 140.3569
1117.682, 136.1272
1118.164, 142.9919
1118.646, 153.6787
1119.128, 166.6501
1119.610, 172.9927
1120.093, 171.9229
1120.575, 177.7900
1121.057, 192.1624
1121.539, 195.3176
1122.021, 181.2014
1122.503, 166.4622
1122.985, 163.7231
1123.467, 164.7415
1123.950, 153.0576
1124.432, 134.3801
1124.914, 126.8083
1125.396, 128.8579
1125.878, 139.4792
1126.360, 154.9138
1126.842, 159.3218
1127.324, 146.8274
1127.807, 134.3369
1128.289, 138.8628
1128.771, 146.9744
1129.253, 141.7969
1129.735, 133.9121
1130.217, 142.7114
1130.699, 156.1521
1131.181, 141.7893
1131.663, 101.9551
1132.146, 85.94385
1132.628, 123.9133
1133.110, 156.8989
1133.592, 162.4136
1134.074, 156.3938
1134.556, 141.3037
1135.038, 122.9509
1135.520, 102.9016
1136.002, 84.70239
1136.485, 78.19067
1136.967, 86.80371
1137.449, 92.23804
1137.931, 96.70166
1138.413, 93.25610
1138.895, 77.85205
1139.377, 59.28003
1139.859, 36.02856
1140.342, 24.71655
1140.824, 48.68579
1141.306, 96.06909
1141.788, 109.6094
1142.270, 87.66992
1142.752, 83.16943
1143.234, 98.64429
1143.716, 106.1646
1144.198, 97.87817
1144.681, 91.06592
1145.163, 98.60645
1145.645, 110.5544
1146.127, 109.7942
1146.609, 99.50708
1147.091, 85.83594
1147.573, 71.30371
1148.055, 62.23340
1148.537, 58.37891
1149.020, 56.75171
1149.502, 55.93481
1149.984, 54.71997
1150.466, 51.25317
1150.948, 49.08691
1151.430, 48.30640
1151.912, 51.29639
1152.394, 58.85498
1152.877, 72.18848
1153.359, 101.5789
1153.841, 139.0745
1154.323, 149.2490
1154.805, 118.1096
1155.287, 85.43433
1155.769, 54.08984
1156.251, 24.40137
1156.734, 15.94922
1157.216, 37.64636
1157.698, 15.76001
1158.180, 26.73779
1158.662, 56.62842
1159.144, 74.48389
1159.626, 81.91406
1160.108, 78.73535
1160.590, 63.75732
1161.073, 34.99072
1161.555, 26.67358
1162.037, 50.60962
1162.519, 75.85205
1163.001, 78.58936
1163.483, 69.98926
1163.965, 70.47461
1164.447, 73.18701
1164.929, 54.72900
1165.412, 25.77539
1165.894, 13.92310
1166.376, 18.29272
1166.858, 21.82227
1167.340, 18.60242
1167.822, 13.75037
1168.304, 10.57068
1168.786, 6.762695
1169.269, 0.3710940
1169.751, 7.514038
1170.233, 16.15771
1170.715, 20.27539
1171.197, 5.945313
1171.679, 20.34302
1172.161, 28.17505
1172.643, 4.969482
1173.125, 6.942139
1173.608, 0.9868160
1174.090, 10.36755
1174.572, 22.18127
1175.054, 27.28430
1175.536, 17.82166
1176.018, 4.414063
1176.500, 1.192017
1176.982, 6.314453
1177.464, 9.389038
1177.947, 10.67566
1178.429, 29.03601
1178.911, 62.93762
1179.393, 69.47119
1179.875, 40.21484
1180.357, 14.53625
1180.839, 16.83472
1181.321, 28.09729
1181.804, 25.37012
1182.286, 18.37573
1182.768, 21.75842
1183.250, 29.50549
1183.732, 32.87866
1184.214, 32.79663
1184.696, 30.20325
1185.178, 27.07068
1185.661, 33.14978
1186.143, 63.62683
1186.625, 78.16577
1187.107, 42.60925
1187.589, 13.77051
1188.071, 28.81079
1188.553, 49.63928
1189.035, 40.75574
1189.517, 16.77698
1190.000, 6.237305
1190.482, 9.331665
1190.964, 9.303345
1191.446, 4.311890
1191.928, 6.850708
1192.410, 19.13440
1192.892, 28.97290
1193.374, 31.91162
1193.856, 33.39758
1194.339, 38.08850
1194.821, 43.11536
1195.303, 44.35339
1195.785, 41.76599
1196.267, 34.53076
1196.749, 23.90100
1197.231, 6.722534
1197.713, 10.72229
1198.196, 6.829834
1198.678, 22.64038
1199.160, 48.37415
1199.642, 57.54175
1200.124, 54.55273
1200.606, 29.34351
1201.088, 7.081543
1201.570, 9.801025
1202.052, 17.54761
1202.535, 5.174194
1203.017, 18.58301
1203.499, 26.30066
1203.981, 16.76624
1204.463, 2.928223
1204.945, 19.89136
1205.427, 28.50464
1205.909, 15.38464
1206.391, 12.16174
1206.874, 32.93372
1207.356, 49.48145
1207.838, 34.21252
1208.320, 8.889160
1208.802, 20.83923
1209.284, 51.98169
1209.766, 45.77954
1210.248, 18.53271
1210.731, 27.70044
1211.213, 63.96313
1211.695, 82.50122
1212.177, 70.58557
1212.659, 57.59265
1213.141, 61.36816
1213.623, 63.69543
1214.105, 53.99634
1214.588, 42.22205
1215.070, 33.72461
1215.552, 26.48743
1216.034, 13.03650
1216.516, 0.9129640
1216.998, 6.085449
1217.480, 38.06970
1217.962, 58.69568
1218.444, 69.00757
1218.927, 67.36584
1219.409, 51.86218
1219.891, 37.05493
1220.373, 28.14441
1220.855, 19.96619
1221.337, 7.314209
1221.819, 0.3331300
1222.301, 23.41675
1222.783, 58.02600
1223.266, 64.89038
1223.748, 56.30151
1224.230, 53.28369
1224.712, 57.75317
1225.194, 68.39539
1225.676, 83.63135
1226.158, 95.44104
1226.640, 101.9495
1227.122, 100.9395
1227.605, 85.83569
1228.087, 71.48438
1228.569, 62.50244
1229.051, 57.80334
1229.533, 58.68591
1230.015, 60.57202
1230.497, 52.26099
1230.979, 42.64844
1231.462, 44.24744
1231.944, 57.27588
1232.426, 65.79761
1232.908, 65.21167
1233.390, 56.11890
1233.872, 48.54480
1234.354, 39.08423
1234.836, 26.67090
1235.318, 17.15552
1235.801, 18.21973
1236.283, 22.08850
1236.765, 12.22754
1237.247, 4.118042
1237.729, 17.92493
1238.211, 43.80652
1238.693, 68.47437
1239.175, 88.08276
1239.657, 96.05200
1240.140, 97.06628
1240.622, 82.13562
1241.104, 28.79736
1241.586, 3.287231
1242.068, 26.95996
1242.550, 44.11694
1243.032, 30.99683
1243.514, 8.258667
1243.997, 2.698486
1244.479, 2.466553
1244.961, 13.64075
1245.443, 38.14062
1245.925, 42.05603
1246.407, 32.30554
1246.889, 27.86951
1247.371, 31.56482
1247.854, 46.56580
1248.336, 71.34009
1248.818, 81.28198
1249.300, 54.68738
1249.782, 30.87988
1250.264, 31.90930
1250.746, 34.97107
1251.228, 22.18372
1251.710, 8.181763
1252.193, 2.219116
1252.675, 5.248535
1253.157, 13.51538
1253.639, 20.67834
1254.121, 23.18335
1254.603, 15.01831
1255.085, 15.74622
1255.567, 25.75098
1256.049, 28.84961
1256.532, 22.62769
1257.014, 22.99402
1257.496, 35.64893
1257.978, 44.41101
1258.460, 27.00647
1258.942, 5.065063
1259.424, 2.493042
1259.906, 5.947998
1260.389, 3.908691
1260.871, 0.3062740
1261.353, 0.6481930
1261.835, 3.592773
1262.317, 0.0000000E+00
##END=



