##NAMES=Philipsbornite
##RRUFFID=R070065
##IDEAL CHEMISTRY=Pb^2+^Al_3_(As^5+^O_4_)(As^5+^O_3_OH)(OH)_6_
##LOCALITY=Hat Yai Province, Thailand
##OWNER=RRUFF
##SOURCE=Bob Jenkins
##DESCRIPTION=Colorless pyramidal crystals, associated with yellow mimetite
##STATUS=The identification of this mineral is not yet confirmed.
##URL=rruff.info/R070065
140.5396, 0.0000000E+00
141.0217, 0.2097170
141.5038, 0.6589360
141.9859, 0.3676760
142.4680, 6.954346
142.9501, 15.52856
143.4323, 32.46460
143.9144, 59.83203
144.3965, 97.65308
144.8786, 137.5513
145.3607, 179.8003
145.8428, 222.1602
146.3250, 260.9524
146.8071, 290.3870
147.2892, 323.0935
147.7713, 364.5425
148.2534, 424.9995
148.7355, 479.4417
149.2177, 518.7749
149.6998, 548.2686
150.1819, 583.1951
150.6640, 627.0452
151.1461, 674.4080
151.6282, 723.4966
152.1104, 777.4792
152.5925, 829.4824
153.0746, 882.1506
153.5567, 933.5388
154.0388, 976.0103
154.5209, 1003.806
155.0031, 1038.242
155.4852, 1085.247
155.9673, 1150.964
156.4494, 1205.359
156.9315, 1217.524
157.4136, 1194.006
157.8958, 1165.590
158.3779, 1133.948
158.8600, 1098.846
159.3421, 1053.882
159.8242, 988.1545
160.3063, 919.2422
160.7885, 854.1389
161.2706, 794.0273
161.7527, 732.5620
162.2348, 664.8684
162.7169, 594.5986
163.1990, 527.1387
163.6811, 462.9082
164.1633, 403.0493
164.6454, 348.6626
165.1275, 299.3625
165.6096, 256.0310
166.0917, 223.4666
166.5738, 197.7163
167.0560, 169.4868
167.5381, 130.4844
168.0202, 88.33838
168.5023, 49.93164
168.9844, 15.19312
169.4665, 13.61841
169.9487, 32.72046
170.4308, 43.47363
170.9129, 51.47827
171.3950, 63.99878
171.8771, 75.00122
172.3592, 75.62671
172.8414, 55.53784
173.3235, 31.04980
173.8056, 20.67578
174.2877, 23.47949
174.7698, 25.94238
175.2519, 15.96533
175.7341, 2.028809
176.2162, 19.41846
176.6983, 29.54321
177.1804, 38.00708
177.6625, 52.41064
178.1446, 72.71265
178.6267, 97.00928
179.1089, 125.2722
179.5910, 156.2244
180.0731, 187.1567
180.5552, 215.3545
181.0373, 242.4287
181.5194, 268.9253
182.0016, 293.9646
182.4837, 323.2314
182.9658, 366.8210
183.4479, 423.0586
183.9300, 478.0808
184.4121, 518.6257
184.8943, 551.2168
185.3764, 600.6880
185.8585, 672.4670
186.3406, 754.7590
186.8227, 827.0073
187.3048, 889.2698
187.7870, 950.4578
188.2691, 1015.262
188.7512, 1084.117
189.2333, 1152.542
189.7154, 1218.983
190.1975, 1286.500
190.6796, 1361.979
191.1618, 1445.600
191.6439, 1529.995
192.1260, 1608.170
192.6081, 1680.058
193.0902, 1751.414
193.5723, 1821.837
194.0545, 1891.872
194.5366, 1960.650
195.0187, 2027.914
195.5008, 2098.534
195.9829, 2183.680
196.4650, 2284.597
196.9472, 2370.418
197.4293, 2429.158
197.9114, 2464.888
198.3935, 2501.064
198.8756, 2540.568
199.3577, 2573.919
199.8399, 2586.632
200.3220, 2575.819
200.8041, 2566.116
201.2862, 2570.197
201.7683, 2587.400
202.2504, 2582.507
202.7325, 2552.181
203.2147, 2505.154
203.6968, 2451.916
204.1789, 2391.244
204.6610, 2329.511
205.1431, 2268.351
205.6252, 2207.877
206.1074, 2151.066
206.5895, 2101.051
207.0716, 2050.664
207.5537, 1984.584
208.0358, 1898.108
208.5179, 1810.265
209.0001, 1729.403
209.4822, 1657.850
209.9643, 1584.545
210.4464, 1505.024
210.9285, 1426.507
211.4106, 1368.730
211.8928, 1342.253
212.3749, 1312.226
212.8570, 1256.063
213.3391, 1161.954
213.8212, 1084.634
214.3033, 1031.016
214.7855, 994.4177
215.2676, 950.9648
215.7497, 893.4688
216.2318, 841.9253
216.7139, 812.5923
217.1960, 818.2090
217.6781, 807.6501
218.1603, 768.6379
218.6424, 708.9412
219.1245, 672.3850
219.6066, 670.0032
220.0887, 674.3823
220.5708, 665.9788
221.0530, 639.2605
221.5351, 612.6885
222.0172, 586.7083
222.4993, 561.9204
222.9814, 546.7654
223.4635, 542.2356
223.9457, 545.9111
224.4278, 558.2480
224.9099, 587.4841
225.3920, 606.4849
225.8741, 604.6978
226.3562, 583.3396
226.8384, 582.0559
227.3205, 610.7290
227.8026, 648.0825
228.2847, 674.7446
228.7668, 689.9624
229.2489, 696.5061
229.7310, 692.3982
230.2132, 677.6584
230.6953, 668.9539
231.1774, 668.0972
231.6595, 671.2559
232.1416, 675.1274
232.6237, 682.0681
233.1059, 685.9827
233.5880, 684.6897
234.0701, 676.8137
234.5522, 672.6011
235.0343, 678.5464
235.5164, 682.7463
235.9986, 668.6692
236.4807, 622.0916
236.9628, 582.1838
237.4449, 561.3064
237.9270, 564.0291
238.4091, 556.2935
238.8913, 531.6077
239.3734, 501.1589
239.8555, 480.2627
240.3376, 473.5161
240.8197, 468.5366
241.3018, 461.4595
241.7840, 450.8181
242.2661, 445.5242
242.7482, 449.8596
243.2303, 456.6328
243.7124, 453.5466
244.1945, 431.3669
244.6767, 414.9351
245.1588, 412.7454
245.6409, 428.3784
246.1230, 444.2734
246.6051, 459.9309
247.0872, 476.2798
247.5694, 494.4980
248.0515, 513.1455
248.5336, 536.3491
249.0157, 567.2383
249.4978, 610.7720
249.9799, 643.8369
250.4621, 660.7231
250.9442, 670.1938
251.4263, 688.2126
251.9084, 717.8418
252.3905, 750.1501
252.8726, 781.6318
253.3548, 810.9634
253.8369, 845.1155
254.3190, 887.8721
254.8011, 933.1396
255.2832, 967.2439
255.7653, 982.7932
256.2474, 1000.460
256.7296, 1028.782
257.2117, 1070.628
257.6938, 1113.399
258.1759, 1159.981
258.6580, 1205.256
259.1401, 1238.643
259.6223, 1256.009
260.1044, 1269.330
260.5865, 1283.434
261.0686, 1299.189
261.5507, 1312.408
262.0328, 1323.381
262.5150, 1331.500
262.9971, 1335.397
263.4792, 1334.671
263.9613, 1330.736
264.4434, 1325.864
264.9255, 1323.319
265.4077, 1306.933
265.8898, 1275.389
266.3719, 1230.991
266.8540, 1175.732
267.3361, 1104.997
267.8182, 1036.705
268.3004, 979.7424
268.7825, 935.0679
269.2646, 896.0830
269.7467, 866.8206
270.2288, 839.3496
270.7109, 796.4290
271.1931, 733.9497
271.6752, 669.8669
272.1573, 610.7625
272.6394, 556.9399
273.1215, 509.3423
273.6036, 469.7585
274.0857, 433.5769
274.5678, 390.2029
275.0500, 337.1238
275.5321, 287.8467
276.0142, 247.5376
276.4963, 216.5171
276.9784, 195.0286
277.4605, 186.1941
277.9427, 182.3296
278.4248, 169.3530
278.9069, 146.6897
279.3890, 120.2439
279.8711, 89.66919
280.3532, 55.06714
280.8354, 28.27344
281.3175, 9.861572
281.7996, 1.177490
282.2817, 3.578857
282.7638, 3.395508
283.2459, 7.959717
283.7281, 1.903320
284.2102, 13.56152
284.6923, 23.12476
285.1744, 25.58667
285.6565, 23.94189
286.1386, 23.13525
286.6208, 23.09399
287.1029, 20.37085
287.5850, 11.59180
288.0671, 1.910645
288.5492, 12.64673
289.0313, 20.02686
289.5135, 25.92065
289.9956, 33.59961
290.4777, 42.73267
290.9598, 49.53564
291.4419, 48.13525
291.9240, 42.58130
292.4062, 48.12817
292.8883, 66.45996
293.3704, 88.95508
293.8525, 104.4929
294.3346, 114.4551
294.8167, 126.2268
295.2989, 143.4282
295.7810, 164.7422
296.2631, 189.1277
296.7452, 217.2673
297.2273, 243.6843
297.7094, 258.6824
298.1916, 266.5176
298.6737, 280.6028
299.1558, 316.4065
299.6379, 358.8684
300.1200, 380.5337
300.6021, 379.6267
301.0842, 378.8723
301.5663, 400.4556
302.0485, 438.1704
302.5306, 478.0974
303.0127, 516.9734
303.4948, 553.9155
303.9769, 586.8616
304.4590, 616.1367
304.9412, 643.7087
305.4233, 667.0532
305.9054, 690.4922
306.3875, 720.5352
306.8696, 765.8337
307.3517, 814.9563
307.8339, 858.7666
308.3160, 897.8745
308.7981, 936.0510
309.2802, 973.6455
309.7623, 1011.769
310.2444, 1051.081
310.7266, 1091.515
311.2087, 1133.273
311.6908, 1175.911
312.1729, 1220.126
312.6550, 1268.931
313.1371, 1334.369
313.6193, 1400.897
314.1014, 1453.949
314.5835, 1479.297
315.0656, 1499.605
315.5477, 1521.280
316.0298, 1544.887
316.5120, 1573.735
316.9941, 1613.050
317.4762, 1656.321
317.9583, 1699.901
318.4404, 1748.232
318.9225, 1789.629
319.4047, 1815.697
319.8868, 1830.365
320.3689, 1849.253
320.8510, 1887.117
321.3331, 1922.862
321.8152, 1944.438
322.2974, 1940.290
322.7795, 1936.448
323.2616, 1937.194
323.7437, 1941.486
324.2258, 1946.043
324.7079, 1956.207
325.1901, 1961.999
325.6721, 1958.739
326.1543, 1940.429
326.6364, 1922.794
327.1185, 1912.010
327.6006, 1901.617
328.0827, 1879.004
328.5648, 1827.593
329.0470, 1781.491
329.5291, 1752.023
330.0112, 1745.802
330.4933, 1736.172
330.9754, 1727.338
331.4576, 1713.843
331.9397, 1686.062
332.4218, 1634.270
332.9039, 1583.458
333.3860, 1542.159
333.8681, 1512.415
334.3503, 1475.504
334.8324, 1426.758
335.3145, 1376.307
335.7966, 1336.836
336.2787, 1313.130
336.7608, 1287.851
337.2430, 1256.216
337.7251, 1218.821
338.2072, 1181.178
338.6893, 1141.387
339.1714, 1106.026
339.6535, 1087.135
340.1357, 1088.575
340.6178, 1073.282
341.0999, 1027.046
341.5820, 959.3606
342.0641, 908.8066
342.5462, 877.5400
343.0284, 853.4622
343.5105, 829.6233
343.9926, 805.4316
344.4747, 774.7852
344.9568, 733.1719
345.4389, 688.0298
345.9211, 657.2178
346.4032, 640.1875
346.8853, 624.0388
347.3674, 597.5466
347.8495, 564.2800
348.3316, 537.0212
348.8138, 519.1077
349.2959, 503.1755
349.7780, 479.0549
350.2601, 447.6724
350.7422, 413.4326
351.2243, 371.1543
351.7064, 329.8416
352.1885, 308.2361
352.6707, 311.8748
353.1528, 315.6414
353.6349, 290.9209
354.1170, 247.8579
354.5991, 209.3096
355.0812, 186.0308
355.5634, 172.3330
356.0455, 166.6787
356.5276, 169.7212
357.0097, 168.3247
357.4918, 148.9011
357.9739, 121.1865
358.4561, 98.06299
358.9382, 88.10815
359.4203, 81.16577
359.9024, 72.13989
360.3845, 61.05371
360.8666, 50.76514
361.3488, 42.50220
361.8309, 35.49902
362.3130, 29.11865
362.7951, 23.38647
363.2772, 18.06274
363.7593, 15.08545
364.2415, 13.26709
364.7236, 6.433105
365.2057, 13.83423
365.6878, 34.41577
366.1699, 48.48853
366.6520, 56.46851
367.1342, 56.40649
367.6163, 40.16602
368.0984, 15.35181
368.5805, 2.578369
369.0626, 8.840332
369.5447, 20.18286
370.0269, 32.98950
370.5090, 50.40186
370.9911, 61.01880
371.4732, 62.74023
371.9553, 58.96680
372.4374, 54.79980
372.9196, 50.58789
373.4017, 44.97388
373.8838, 35.07959
374.3659, 19.78711
374.8480, 19.04150
375.3301, 38.31177
375.8123, 62.46680
376.2944, 75.33813
376.7765, 75.56152
377.2586, 72.73413
377.7407, 68.37085
378.2228, 62.80029
378.7049, 57.43530
379.1870, 52.52759
379.6692, 46.87695
380.1513, 37.36035
380.6334, 24.93042
381.1155, 19.39453
381.5976, 24.41309
382.0797, 34.07861
382.5619, 37.99902
383.0440, 36.43359
383.5261, 32.60034
384.0082, 28.22949
384.4903, 23.13452
384.9724, 16.06519
385.4546, 6.241943
385.9367, 2.699951
386.4188, 3.942383
386.9009, 0.7287600
387.3830, 1.547119
387.8651, 14.46436
388.3473, 31.27124
388.8294, 44.23022
389.3115, 52.97559
389.7936, 59.35156
390.2757, 62.02393
390.7578, 63.81250
391.2400, 68.29956
391.7221, 83.10449
392.2042, 95.27100
392.6863, 94.96899
393.1684, 83.95752
393.6505, 78.12720
394.1327, 85.65771
394.6148, 99.24341
395.0969, 113.6313
395.5790, 128.8228
396.0611, 143.6521
396.5432, 157.9033
397.0254, 171.6396
397.5075, 185.0562
397.9896, 195.5825
398.4717, 208.1025
398.9538, 225.2507
399.4359, 251.9426
399.9181, 271.5273
400.4002, 279.6675
400.8823, 282.7607
401.3644, 290.8142
401.8465, 307.7114
402.3286, 322.3923
402.8108, 329.4592
403.2928, 328.2327
403.7750, 339.4558
404.2571, 366.1548
404.7392, 399.9880
405.2213, 434.9075
405.7034, 471.5537
406.1855, 501.5261
406.6677, 519.0581
407.1498, 530.8052
407.6319, 561.9648
408.1140, 613.7175
408.5961, 669.0212
409.0782, 718.7761
409.5604, 762.7683
410.0425, 795.5879
410.5246, 813.0271
411.0067, 829.6936
411.4888, 870.4829
411.9709, 930.3860
412.4531, 988.3796
412.9352, 1029.570
413.4173, 1063.342
413.8994, 1106.101
414.3815, 1159.082
414.8636, 1211.058
415.3458, 1254.030
415.8279, 1290.117
416.3100, 1323.507
416.7921, 1348.999
417.2742, 1377.438
417.7563, 1417.770
418.2385, 1468.606
418.7206, 1518.227
419.2027, 1558.621
419.6848, 1597.056
420.1669, 1640.728
420.6490, 1703.880
421.1312, 1751.320
421.6133, 1759.065
422.0954, 1744.543
422.5775, 1747.327
423.0596, 1788.917
423.5417, 1833.556
424.0239, 1870.714
424.5060, 1902.075
424.9881, 1923.065
425.4702, 1928.544
425.9523, 1929.053
426.4344, 1935.613
426.9166, 1953.608
427.3987, 1962.782
427.8808, 1956.355
428.3629, 1935.975
428.8450, 1923.226
429.3271, 1921.458
429.8092, 1921.669
430.2914, 1917.071
430.7735, 1907.339
431.2556, 1895.981
431.7377, 1882.654
432.2198, 1869.889
432.7019, 1864.147
433.1841, 1864.019
433.6662, 1856.576
434.1483, 1830.781
434.6304, 1793.729
435.1125, 1767.626
435.5946, 1754.251
436.0768, 1741.659
436.5589, 1717.855
437.0410, 1685.470
437.5231, 1650.416
438.0052, 1611.162
438.4873, 1573.786
438.9695, 1549.009
439.4516, 1533.221
439.9337, 1508.601
440.4158, 1458.829
440.8979, 1399.570
441.3800, 1343.438
441.8622, 1290.374
442.3443, 1246.167
442.8264, 1219.547
443.3085, 1203.435
443.7906, 1184.376
444.2727, 1156.534
444.7549, 1125.905
445.2370, 1094.088
445.7191, 1060.778
446.2012, 1030.237
446.6833, 1005.642
447.1654, 981.9385
447.6476, 954.3120
448.1297, 914.3843
448.6118, 884.1677
449.0939, 869.0303
449.5760, 866.0918
450.0581, 860.4307
450.5403, 852.0234
451.0224, 840.8181
451.5045, 827.5259
451.9866, 812.5674
452.4687, 789.6550
452.9508, 755.8896
453.4330, 719.7917
453.9151, 694.7241
454.3972, 680.3325
454.8793, 672.2004
455.3614, 669.6875
455.8435, 671.7397
456.3256, 679.2305
456.8077, 692.2334
457.2899, 698.2295
457.7720, 673.4233
458.2541, 636.0583
458.7362, 623.9697
459.2183, 658.8862
459.7004, 698.3164
460.1826, 700.3362
460.6647, 676.4336
461.1468, 657.8557
461.6289, 659.7192
462.1110, 672.8098
462.5931, 694.1948
463.0753, 725.5342
463.5574, 751.7603
464.0395, 762.6714
464.5216, 768.1682
465.0037, 778.7837
465.4858, 803.9878
465.9680, 826.4365
466.4501, 839.5442
466.9322, 844.9663
467.4143, 858.5645
467.8964, 886.0779
468.3785, 915.5400
468.8607, 941.7197
469.3428, 965.0896
469.8249, 982.6709
470.3070, 990.1333
470.7891, 995.9287
471.2712, 1015.278
471.7534, 1050.557
472.2355, 1086.548
472.7176, 1120.099
473.1997, 1150.450
473.6818, 1172.097
474.1639, 1184.607
474.6461, 1194.865
475.1282, 1207.583
475.6103, 1222.947
476.0924, 1243.581
476.5745, 1273.781
477.0566, 1300.742
477.5388, 1305.299
478.0209, 1292.706
478.5030, 1279.607
478.9851, 1275.307
479.4672, 1273.767
479.9493, 1270.552
480.4315, 1265.391
480.9136, 1257.456
481.3957, 1246.365
481.8778, 1232.157
482.3599, 1215.204
482.8420, 1192.831
483.3241, 1170.481
483.8062, 1149.694
484.2884, 1129.895
484.7705, 1109.366
485.2526, 1088.611
485.7347, 1066.336
486.2168, 1042.784
486.6989, 1020.230
487.1811, 988.4846
487.6632, 940.5820
488.1453, 890.3416
488.6274, 855.6694
489.1095, 839.9543
489.5916, 825.9312
490.0738, 811.7231
490.5559, 796.0598
491.0380, 772.7158
491.5201, 740.8257
492.0022, 710.7461
492.4843, 695.3574
492.9665, 689.7227
493.4486, 670.0220
493.9307, 629.5188
494.4128, 590.4412
494.8949, 583.2744
495.3770, 598.3279
495.8592, 610.9773
496.3413, 604.0862
496.8234, 589.9150
497.3055, 580.1406
497.7876, 574.9443
498.2697, 570.0237
498.7519, 559.4922
499.2340, 549.8794
499.7161, 546.1426
500.1982, 549.8162
500.6803, 557.8240
501.1624, 574.2578
501.6446, 594.7854
502.1267, 610.7041
502.6088, 612.0378
503.0909, 617.3784
503.5730, 630.7666
504.0551, 652.3462
504.5373, 676.3193
505.0194, 702.3479
505.5015, 731.4607
505.9836, 766.2859
506.4657, 808.1208
506.9478, 842.2539
507.4299, 866.2456
507.9120, 885.9561
508.3942, 908.9143
508.8763, 935.5730
509.3584, 971.0405
509.8405, 1020.215
510.3226, 1078.000
510.8047, 1134.049
511.2869, 1188.342
511.7690, 1244.810
512.2511, 1306.550
512.7332, 1371.692
513.2153, 1437.475
513.6974, 1502.866
514.1796, 1570.420
514.6617, 1645.086
515.1438, 1723.166
515.6259, 1798.056
516.1080, 1861.119
516.5901, 1926.496
517.0723, 2003.055
517.5544, 2091.829
518.0365, 2173.162
518.5186, 2242.870
519.0007, 2306.707
519.4828, 2367.861
519.9650, 2429.173
520.4471, 2482.317
520.9292, 2526.647
521.4113, 2563.508
521.8934, 2596.565
522.3755, 2627.164
522.8577, 2646.862
523.3398, 2652.219
523.8219, 2644.476
524.3040, 2628.397
524.7861, 2603.900
525.2682, 2574.795
525.7504, 2543.542
526.2325, 2510.416
526.7146, 2474.771
527.1967, 2436.837
527.6788, 2394.988
528.1609, 2347.262
528.6431, 2293.758
529.1252, 2235.372
529.6073, 2188.033
530.0894, 2123.010
530.5715, 2010.036
531.0536, 1853.271
531.5358, 1711.236
532.0179, 1612.587
532.5000, 1526.833
532.9821, 1434.168
533.4642, 1326.876
533.9464, 1224.016
534.4285, 1129.143
534.9106, 1037.898
535.3927, 940.6416
535.8748, 828.8088
536.3569, 732.6853
536.8391, 663.5437
537.3212, 616.2463
537.8033, 565.3071
538.2854, 509.2253
538.7675, 457.7771
539.2496, 423.8389
539.7318, 402.7434
540.2139, 366.3428
540.6960, 309.9280
541.1781, 251.7827
541.6602, 213.1531
542.1423, 188.8833
542.6245, 169.1064
543.1066, 152.1252
543.5887, 136.3330
544.0708, 121.6077
544.5529, 107.2314
545.0350, 90.02075
545.5172, 61.75293
545.9993, 35.71167
546.4813, 21.67285
546.9634, 24.88452
547.4456, 22.35083
547.9277, 3.679443
548.4098, 18.60718
548.8919, 32.30249
549.3740, 29.73267
549.8561, 32.70093
550.3383, 47.27612
550.8204, 67.72461
551.3025, 73.55273
551.7846, 60.11133
552.2667, 52.07666
552.7488, 68.43823
553.2310, 103.4509
553.7131, 109.0684
554.1952, 83.30664
554.6773, 52.24316
555.1594, 40.48853
555.6415, 41.90430
556.1237, 42.31860
556.6058, 38.20630
557.0879, 33.43237
557.5700, 29.13428
558.0521, 26.80469
558.5342, 29.56006
559.0164, 47.42188
559.4985, 63.01025
559.9806, 66.19604
560.4627, 56.95215
560.9448, 48.61792
561.4269, 45.07397
561.9091, 42.45435
562.3912, 38.77246
562.8733, 34.41089
563.3554, 27.94629
563.8375, 18.12744
564.3196, 7.261475
564.8018, 1.557129
565.2839, 8.373779
565.7660, 12.29321
566.2481, 10.74976
566.7302, 7.609863
567.2123, 16.76416
567.6945, 37.94141
568.1766, 58.79639
568.6587, 72.06079
569.1408, 79.50684
569.6229, 84.23682
570.1050, 86.36206
570.5872, 87.11963
571.0693, 85.62427
571.5514, 83.98853
572.0335, 84.99146
572.5156, 91.77100
572.9977, 98.09424
573.4799, 98.81641
573.9620, 97.45166
574.4441, 102.3916
574.9262, 129.3025
575.4083, 147.6807
575.8904, 146.1882
576.3726, 124.1963
576.8547, 109.2917
577.3368, 100.3994
577.8189, 100.4839
578.3010, 116.3271
578.7831, 149.7759
579.2653, 168.3826
579.7474, 166.0708
580.2295, 158.8037
580.7116, 173.0996
581.1937, 203.7048
581.6758, 226.0146
582.1580, 229.6025
582.6401, 222.4517
583.1222, 210.4402
583.6043, 195.0032
584.0864, 182.4185
584.5685, 178.0068
585.0507, 176.4980
585.5328, 172.5396
586.0149, 164.2249
586.4970, 164.4636
586.9791, 186.4666
587.4612, 212.7605
587.9434, 228.8232
588.4255, 230.4878
588.9076, 227.5417
589.3897, 216.6152
589.8718, 203.3970
590.3539, 200.0129
590.8361, 208.4739
591.3182, 218.5408
591.8003, 229.3367
592.2824, 238.6836
592.7645, 234.6636
593.2466, 217.3538
593.7288, 201.2190
594.2109, 195.5535
594.6930, 198.6189
595.1751, 211.3350
595.6572, 235.8889
596.1393, 252.8716
596.6215, 235.2302
597.1036, 206.0254
597.5857, 193.0459
598.0677, 220.9219
598.5499, 246.8606
599.0320, 261.0012
599.5141, 264.1338
599.9962, 258.1565
600.4783, 229.8296
600.9604, 209.4600
601.4426, 207.3157
601.9247, 222.9993
602.4068, 233.2744
602.8889, 237.9504
603.3710, 238.0571
603.8531, 231.8066
604.3353, 219.6646
604.8174, 214.2170
605.2995, 217.3633
605.7816, 221.9744
606.2637, 215.8171
606.7458, 203.8499
607.2280, 200.1890
607.7101, 216.9126
608.1922, 231.7317
608.6743, 220.9482
609.1564, 194.6455
609.6385, 179.3328
610.1207, 191.3218
610.6028, 206.8455
611.0849, 214.8337
611.5670, 215.7947
612.0491, 221.4998
612.5313, 237.9990
613.0134, 253.4065
613.4955, 260.5615
613.9776, 257.2817
614.4597, 253.1899
614.9418, 247.9399
615.4240, 242.6338
615.9061, 238.4226
616.3882, 235.3521
616.8703, 233.6633
617.3524, 234.5930
617.8345, 236.1565
618.3167, 234.6553
618.7988, 230.9009
619.2809, 228.0505
619.7630, 230.3799
620.2451, 233.0417
620.7272, 231.3911
621.2094, 225.7500
621.6915, 222.4490
622.1736, 227.8794
622.6557, 232.1038
623.1378, 227.8574
623.6199, 205.6257
624.1021, 196.7698
624.5842, 210.1658
625.0663, 228.8599
625.5484, 231.1243
626.0305, 212.2527
626.5126, 200.1384
626.9948, 200.7051
627.4769, 208.9587
627.9590, 214.8208
628.4411, 218.6523
628.9232, 223.1631
629.4053, 232.1079
629.8875, 241.0635
630.3696, 242.0955
630.8517, 236.4980
631.3338, 233.3662
631.8159, 241.2339
632.2980, 251.1506
632.7802, 256.2192
633.2623, 253.8765
633.7444, 252.1448
634.2265, 257.7122
634.7086, 261.6228
635.1907, 254.5828
635.6729, 224.6882
636.1550, 212.1050
636.6371, 226.1023
637.1192, 252.0586
637.6013, 259.9006
638.0834, 248.6345
638.5656, 244.4016
639.0477, 261.5129
639.5298, 286.8154
640.0119, 290.5088
640.4940, 275.8120
640.9761, 262.2439
641.4583, 264.6797
641.9404, 272.3870
642.4225, 275.5762
642.9046, 273.3323
643.3867, 270.2275
643.8688, 262.3413
644.3510, 257.9055
644.8331, 263.8401
645.3152, 294.4358
645.7973, 311.7356
646.2794, 309.8586
646.7615, 299.2915
647.2437, 293.2742
647.7258, 293.0906
648.2079, 291.7322
648.6900, 288.2407
649.1721, 282.3477
649.6542, 271.8198
650.1363, 257.4492
650.6184, 244.7712
651.1005, 238.3374
651.5826, 233.7969
652.0648, 225.4346
652.5469, 213.9900
653.0290, 203.1946
653.5111, 192.4321
653.9932, 184.6072
654.4753, 183.3394
654.9575, 191.8945
655.4396, 195.1733
655.9217, 189.1555
656.4038, 178.5059
656.8859, 166.3254
657.3680, 153.1125
657.8502, 136.3220
658.3323, 113.4958
658.8144, 90.64771
659.2965, 78.90015
659.7786, 77.25903
660.2607, 71.11377
660.7429, 52.48120
661.2250, 32.68604
661.7071, 30.99854
662.1892, 42.24536
662.6713, 49.42651
663.1534, 40.02026
663.6356, 27.20312
664.1177, 20.09302
664.5998, 19.62451
665.0819, 19.27612
665.5640, 17.03979
666.0461, 10.75195
666.5283, 0.8461910
667.0104, 19.72974
667.4925, 30.14380
667.9746, 31.70874
668.4567, 28.67041
668.9388, 23.47974
669.4210, 15.83594
669.9031, 10.41748
670.3852, 8.675537
670.8673, 8.115723
671.3494, 5.792236
671.8315, 1.160156
672.3137, 6.025146
672.7958, 19.99536
673.2779, 30.01318
673.7600, 24.39160
674.2421, 9.798584
674.7242, 1.573242
675.2064, 4.361572
675.6885, 12.89380
676.1706, 30.80664
676.6527, 56.29199
677.1348, 67.72363
677.6169, 60.56787
678.0991, 48.54028
678.5812, 34.35693
679.0633, 18.65869
679.5454, 24.03516
680.0275, 52.62622
680.5096, 83.79907
680.9918, 101.2419
681.4739, 107.4307
681.9560, 104.9050
682.4381, 91.40039
682.9202, 81.65381
683.4023, 91.91040
683.8845, 109.7715
684.3666, 120.7205
684.8487, 113.6846
685.3308, 108.1331
685.8129, 104.8735
686.2950, 105.3376
686.7772, 114.5630
687.2593, 140.1284
687.7414, 155.3774
688.2235, 152.3000
688.7056, 135.1711
689.1877, 113.9126
689.6699, 88.51978
690.1520, 74.34399
690.6341, 88.67578
691.1162, 115.3347
691.5983, 129.4236
692.0804, 131.2249
692.5626, 129.5542
693.0447, 126.5427
693.5268, 124.2800
694.0089, 124.9502
694.4910, 130.0569
694.9731, 132.6909
695.4553, 131.0054
695.9374, 127.1685
696.4195, 121.6689
696.9016, 112.0247
697.3837, 110.4622
697.8658, 120.7654
698.3480, 132.6899
698.8301, 130.3694
699.3122, 115.9636
699.7943, 103.4626
700.2764, 95.68750
700.7585, 92.53076
701.2407, 97.47876
701.7228, 106.8381
702.2048, 112.3867
702.6870, 106.7075
703.1691, 100.6387
703.6512, 100.0107
704.1333, 103.3538
704.6154, 103.3643
705.0975, 96.86914
705.5797, 90.55176
706.0618, 86.70142
706.5439, 85.05151
707.0260, 80.40723
707.5081, 71.42358
707.9902, 67.05249
708.4724, 80.50464
708.9545, 103.0022
709.4366, 104.3652
709.9187, 83.26660
710.4008, 62.24683
710.8829, 60.96777
711.3651, 67.24219
711.8472, 67.92700
712.3293, 58.03564
712.8114, 50.82666
713.2935, 51.80103
713.7756, 56.30835
714.2578, 59.81177
714.7399, 62.04419
715.2220, 63.23560
715.7041, 61.96973
716.1862, 61.42432
716.6683, 71.36890
717.1505, 90.66284
717.6326, 95.06055
718.1147, 71.70947
718.5968, 40.16675
719.0789, 30.20508
719.5610, 35.42822
720.0432, 38.44971
720.5253, 31.90771
721.0074, 19.99927
721.4895, 2.307861
721.9716, 30.48901
722.4537, 40.91943
722.9359, 9.845459
723.4180, 16.01440
723.9001, 18.07153
724.3822, 2.729492
724.8643, 6.264160
725.3464, 12.71826
725.8286, 32.01440
726.3107, 33.07080
726.7928, 21.09521
727.2749, 19.12085
727.7570, 28.73975
728.2391, 36.65527
728.7213, 25.96289
729.2034, 10.61841
729.6855, 6.850342
730.1676, 21.30518
730.6497, 31.23779
731.1318, 22.47852
731.6140, 10.87109
732.0961, 10.51636
732.5782, 27.39746
733.0603, 40.74927
733.5424, 50.55762
734.0245, 57.15918
734.5067, 59.70947
734.9888, 57.99268
735.4709, 54.91406
735.9530, 50.48145
736.4351, 46.76953
736.9172, 46.67554
737.3994, 48.83447
737.8815, 50.75171
738.3636, 49.30103
738.8457, 49.87817
739.3278, 55.60205
739.8099, 64.92261
740.2921, 74.23462
740.7742, 88.46948
741.2563, 94.10742
741.7384, 83.14551
742.2205, 61.75757
742.7026, 58.88501
743.1848, 75.39209
743.6669, 94.99902
744.1490, 110.8069
744.6311, 123.4453
745.1132, 131.2129
745.5953, 135.2356
746.0775, 142.5154
746.5596, 160.5664
747.0417, 180.7605
747.5238, 198.7119
748.0059, 214.6401
748.4880, 222.9844
748.9702, 212.3857
749.4523, 205.6987
749.9344, 216.6130
750.4165, 248.5132
750.8986, 271.9983
751.3807, 286.0681
751.8629, 295.0535
752.3450, 298.5178
752.8271, 300.2461
753.3092, 314.0759
753.7913, 343.7751
754.2734, 368.0686
754.7555, 361.9370
755.2376, 346.2839
755.7197, 344.0654
756.2018, 368.3372
756.6840, 390.1758
757.1661, 406.9839
757.6482, 417.6409
758.1303, 419.0007
758.6124, 407.5994
759.0945, 399.9592
759.5767, 397.8198
760.0588, 400.3071
760.5409, 409.1729
761.0230, 422.0762
761.5051, 430.2874
761.9872, 432.1768
762.4694, 426.2012
762.9515, 402.3960
763.4336, 370.9102
763.9157, 350.9526
764.3978, 369.9714
764.8799, 376.9006
765.3621, 345.8618
765.8442, 295.4331
766.3263, 272.7563
766.8084, 287.6182
767.2905, 300.0063
767.7726, 300.4216
768.2548, 288.6902
768.7369, 254.8311
769.2190, 203.5974
769.7011, 167.5872
770.1832, 182.1716
770.6653, 206.7056
771.1475, 200.2810
771.6296, 168.3186
772.1117, 138.9395
772.5938, 125.4128
773.0759, 113.0376
773.5580, 91.99487
774.0402, 63.55859
774.5223, 55.89966
775.0044, 78.11328
775.4865, 94.63892
775.9686, 80.81714
776.4507, 44.04858
776.9329, 24.76758
777.4150, 22.71802
777.8971, 22.37842
778.3792, 11.38696
778.8613, -19.13328
779.3434, 8.653426
779.8256, 24.24043
780.3077, 28.28332
780.7898, -13.79386
781.2719, 3.683455
781.7540, -2.705967
782.2361, -10.07404
782.7183, 15.78529
783.2004, -19.58381
783.6825, 5.748610
784.1646, 6.850084
784.6467, 19.04146
785.1288, 7.218709
785.6110, 2.813132
786.0931, 22.42942
786.5752, 28.74462
787.0573, 14.15744
787.5394, 27.05376
788.0215, -9.154213
788.5037, -2.272507
788.9858, 23.20049
789.4679, 9.820748
789.9500, 23.15613
790.4321, 26.31690
790.9142, -16.76157
791.3964, 20.57466
791.8785, 23.13417
792.3606, -10.01444
792.8427, 24.56645
793.3248, -3.659389
793.8069, -9.467067
794.2891, 1.596352
794.7712, -4.927741
795.2533, 16.27695
795.7354, 10.76849
796.2175, 13.13721
796.6996, 27.46338
797.1818, 43.82715
797.6639, 62.69580
798.1460, 86.98828
798.6281, 118.6982
799.1102, 143.1836
799.5923, 157.2002
800.0745, 165.0015
800.5566, 169.2383
801.0387, 173.4233
801.5208, 185.9326
802.0029, 210.7236
802.4850, 240.7441
802.9672, 274.1401
803.4493, 308.8276
803.9314, 341.6050
804.4135, 370.8887
804.8956, 399.4092
805.3777, 426.0884
805.8599, 452.7329
806.3419, 483.0088
806.8240, 517.2754
807.3062, 547.2217
807.7883, 569.8330
808.2704, 589.0757
808.7525, 606.2544
809.2346, 624.6357
809.7167, 651.3887
810.1989, 700.3398
810.6810, 746.2583
811.1631, 774.8604
811.6452, 793.1567
812.1273, 818.0601
812.6094, 852.6084
813.0916, 888.9878
813.5737, 925.8149
814.0558, 964.1470
814.5379, 1010.653
815.0200, 1063.979
815.5021, 1104.497
815.9843, 1116.500
816.4664, 1125.242
816.9485, 1160.237
817.4306, 1214.195
817.9127, 1269.846
818.3948, 1322.762
818.8770, 1375.331
819.3591, 1427.235
819.8412, 1479.353
820.3233, 1532.250
820.8054, 1586.512
821.2875, 1641.100
821.7697, 1696.247
822.2518, 1751.739
822.7339, 1806.123
823.2160, 1861.244
823.6981, 1923.659
824.1802, 2007.502
824.6624, 2088.408
825.1445, 2148.712
825.6266, 2193.791
826.1087, 2236.431
826.5908, 2268.660
827.0729, 2312.737
827.5551, 2373.668
828.0372, 2449.006
828.5193, 2539.378
829.0014, 2646.879
829.4835, 2741.895
829.9656, 2809.052
830.4478, 2865.390
830.9299, 2936.439
831.4120, 3020.035
831.8941, 3108.685
832.3762, 3217.209
832.8583, 3313.363
833.3405, 3365.303
833.8226, 3394.411
834.3047, 3467.645
834.7868, 3607.924
835.2689, 3739.873
835.7510, 3845.241
836.2332, 3931.604
836.7153, 4014.271
837.1974, 4093.527
837.6795, 4173.223
838.1616, 4251.239
838.6437, 4333.118
839.1259, 4427.144
839.6080, 4529.302
840.0901, 4628.820
840.5722, 4717.785
841.0543, 4805.134
841.5364, 4885.761
842.0186, 4969.355
842.5007, 5082.991
842.9828, 5230.785
843.4649, 5364.812
843.9470, 5470.065
844.4291, 5560.164
844.9113, 5648.772
845.3934, 5739.163
845.8755, 5839.522
846.3576, 5974.575
846.8397, 6097.362
847.3218, 6176.217
847.8040, 6231.508
848.2861, 6310.482
848.7682, 6424.479
849.2503, 6534.103
849.7324, 6629.154
850.2145, 6721.236
850.6967, 6837.424
851.1788, 6972.248
851.6609, 7102.911
852.1430, 7222.912
852.6251, 7332.239
853.1072, 7420.924
853.5894, 7500.688
854.0715, 7590.477
854.5536, 7710.358
855.0357, 7820.118
855.5178, 7910.790
855.9999, 7992.197
856.4821, 8081.350
856.9642, 8179.128
857.4463, 8276.873
857.9283, 8374.163
858.4105, 8470.583
858.8926, 8576.266
859.3747, 8681.718
859.8568, 8764.428
860.3389, 8794.021
860.8210, 8845.535
861.3032, 8972.340
861.7853, 9125.096
862.2674, 9238.765
862.7495, 9293.510
863.2316, 9371.496
863.7137, 9487.859
864.1959, 9605.912
864.6780, 9670.492
865.1601, 9695.662
865.6422, 9720.317
866.1243, 9748.667
866.6064, 9793.979
867.0886, 9875.173
867.5707, 9973.380
868.0528, 10070.25
868.5349, 10176.55
869.0170, 10252.03
869.4991, 10287.66
869.9813, 10303.77
870.4634, 10320.36
870.9455, 10336.32
871.4276, 10332.20
871.9097, 10304.69
872.3918, 10277.91
872.8740, 10282.94
873.3561, 10296.53
873.8382, 10293.14
874.3203, 10267.83
874.8024, 10231.33
875.2845, 10185.52
875.7667, 10128.82
876.2488, 10062.10
876.7309, 9986.776
877.2130, 9878.427
877.6951, 9733.496
878.1772, 9591.688
878.6594, 9500.803
879.1415, 9427.035
879.6236, 9317.850
880.1057, 9170.467
880.5878, 9002.872
881.0699, 8787.391
881.5521, 8589.292
882.0342, 8456.731
882.5163, 8385.718
882.9984, 8274.168
883.4805, 8120.449
883.9626, 7942.061
884.4448, 7731.752
884.9269, 7506.159
885.4090, 7324.685
885.8911, 7178.500
886.3732, 7020.157
886.8553, 6801.259
887.3375, 6583.001
887.8196, 6407.538
888.3017, 6271.968
888.7838, 6121.842
889.2659, 5943.257
889.7480, 5767.952
890.2302, 5605.768
890.7123, 5455.606
891.1944, 5323.428
891.6765, 5205.741
892.1586, 5081.995
892.6407, 4932.302
893.1229, 4776.751
893.6050, 4626.932
894.0871, 4483.810
894.5692, 4354.636
895.0513, 4253.133
895.5334, 4147.503
896.0156, 4031.250
896.4977, 3911.768
896.9798, 3806.881
897.4619, 3713.396
897.9440, 3607.427
898.4261, 3477.986
898.9083, 3346.411
899.3904, 3226.220
899.8725, 3120.672
900.3546, 3028.966
900.8367, 2969.092
901.3188, 2892.689
901.8010, 2783.418
902.2831, 2667.316
902.7652, 2568.944
903.2473, 2489.658
903.7294, 2406.922
904.2115, 2318.096
904.6937, 2232.676
905.1758, 2166.688
905.6579, 2106.395
906.1400, 2032.463
906.6221, 1939.194
907.1042, 1851.540
907.5864, 1775.317
908.0685, 1709.164
908.5506, 1655.692
909.0327, 1616.246
909.5148, 1562.508
909.9969, 1492.233
910.4790, 1423.537
910.9611, 1373.462
911.4432, 1330.920
911.9254, 1274.657
912.4075, 1206.831
912.8896, 1147.849
913.3717, 1114.713
913.8538, 1083.695
914.3359, 1044.279
914.8181, 998.1880
915.3002, 958.8828
915.7823, 928.5356
916.2644, 886.6968
916.7465, 816.4253
917.2286, 739.8457
917.7108, 695.1484
918.1929, 675.5107
918.6750, 662.9663
919.1571, 657.7744
919.6392, 649.0552
920.1213, 631.6729
920.6035, 608.7651
921.0856, 586.7620
921.5677, 568.3486
922.0498, 537.7495
922.5319, 488.4062
923.0140, 436.5811
923.4962, 404.8032
923.9783, 387.0195
924.4604, 370.9072
924.9425, 354.8643
925.4246, 335.9519
925.9067, 308.0020
926.3889, 280.1970
926.8710, 260.5325
927.3531, 251.5134
927.8352, 243.7588
928.3173, 238.5415
928.7994, 229.3477
929.2816, 208.7087
929.7637, 179.9600
930.2458, 147.3975
930.7279, 111.4507
931.2100, 85.53735
931.6921, 89.25708
932.1743, 93.02246
932.6564, 74.99365
933.1385, 37.26099
933.6206, 4.539768
934.1027, 23.15317
934.5848, 33.63344
935.0670, 36.41764
935.5491, 8.455120
936.0312, 20.19560
936.5133, 16.02492
936.9954, 11.20179
937.4775, 28.53029
937.9597, 5.039828
938.4418, 22.01704
938.9239, 22.84029
939.4060, 31.05681
939.8881, 23.26390
940.3702, 20.41579
940.8524, 33.58226
941.3345, 37.88132
941.8166, 28.24547
942.2987, 36.93195
942.7808, 12.88223
943.2629, 17.55897
943.7451, 34.62991
944.2272, 25.79901
944.7093, 34.77820
945.1914, 36.97432
945.6735, 8.344261
946.1556, 33.32402
946.6378, 35.11930
947.1199, 13.10916
947.6020, 36.25202
948.0841, 17.52372
948.5662, 13.74087
949.0483, 21.20542
949.5305, 16.94496
950.0126, 31.17035
950.4947, 27.58698
950.9768, 22.41249
951.4589, 24.18176
951.9410, 6.274519
952.4232, 24.87118
952.9053, 18.53258
953.3874, 24.58875
953.8695, 33.45435
954.3516, 20.80817
954.8337, 30.93607
955.3159, 5.746756
955.7980, 10.10865
956.2801, 11.28841
956.7622, 31.35669
957.2443, 6.339510
957.7264, 9.880357
958.2086, 70.62842
958.6907, 110.2522
959.1728, 133.6628
959.6549, 147.3000
960.1370, 150.9880
960.6191, 152.3594
961.1013, 161.8789
961.5834, 183.5063
962.0654, 203.7537
962.5475, 215.7168
963.0297, 230.7695
963.5118, 256.7180
963.9939, 293.2085
964.4760, 327.2537
964.9581, 358.9451
965.4402, 380.7024
965.9224, 375.4705
966.4045, 367.1514
966.8866, 377.7727
967.3687, 405.4897
967.8508, 438.2468
968.3329, 478.8384
968.8151, 517.4094
969.2972, 553.5615
969.7793, 585.4387
970.2614, 610.6968
970.7435, 628.8501
971.2256, 635.3455
971.7078, 622.5322
972.1899, 614.6382
972.6720, 636.5139
973.1541, 671.1519
973.6362, 698.6538
974.1183, 709.3809
974.6005, 729.1182
975.0826, 762.1667
975.5647, 795.6902
976.0468, 818.6089
976.5289, 832.6113
977.0110, 844.4155
977.4932, 854.8928
977.9753, 866.1086
978.4574, 877.7100
978.9395, 888.0869
979.4216, 896.0774
979.9037, 902.8721
980.3859, 914.6294
980.8680, 933.8005
981.3501, 948.0015
981.8322, 950.3567
982.3143, 947.2856
982.7964, 951.3909
983.2786, 960.9736
983.7607, 971.9670
984.2428, 988.1772
984.7249, 997.4712
985.2070, 991.2598
985.6891, 979.5918
986.1713, 972.9783
986.6534, 972.4136
987.1355, 968.0886
987.6176, 959.1487
988.0997, 948.0315
988.5818, 931.9751
989.0640, 918.0989
989.5461, 915.2651
990.0282, 924.3892
990.5103, 939.1316
990.9924, 964.0815
991.4745, 986.3201
991.9567, 998.5259
992.4388, 1004.791
992.9209, 1028.575
993.4030, 1067.512
993.8851, 1095.358
994.3672, 1087.300
994.8494, 1081.092
995.3315, 1116.751
995.8136, 1171.103
996.2957, 1202.302
996.7778, 1190.564
997.2599, 1189.481
997.7421, 1205.076
998.2242, 1230.815
998.7063, 1260.726
999.1884, 1292.341
999.6705, 1321.036
1000.153, 1346.297
1000.635, 1372.522
1001.117, 1404.810
1001.599, 1437.723
1002.081, 1466.448
1002.563, 1491.901
1003.045, 1521.344
1003.527, 1552.173
1004.010, 1591.152
1004.492, 1650.051
1004.974, 1713.725
1005.456, 1758.901
1005.938, 1789.095
1006.420, 1814.088
1006.902, 1826.477
1007.384, 1846.970
1007.867, 1890.459
1008.349, 1935.866
1008.831, 1953.136
1009.313, 1943.427
1009.795, 1946.529
1010.277, 1967.024
1010.759, 1981.081
1011.241, 1963.754
1011.723, 1935.118
1012.206, 1916.257
1012.688, 1910.784
1013.170, 1883.625
1013.652, 1826.326
1014.134, 1766.182
1014.616, 1715.446
1015.098, 1667.298
1015.580, 1606.850
1016.062, 1536.781
1016.545, 1463.471
1017.027, 1385.875
1017.509, 1309.332
1017.991, 1236.316
1018.473, 1166.287
1018.955, 1099.238
1019.437, 1036.184
1019.919, 968.3530
1020.401, 894.4692
1020.884, 824.4490
1021.366, 773.0237
1021.848, 728.2891
1022.330, 673.3486
1022.812, 607.0889
1023.294, 546.2368
1023.776, 498.6853
1024.258, 452.6189
1024.741, 405.0811
1025.223, 356.5784
1025.705, 306.4507
1026.187, 256.3062
1026.669, 216.3550
1027.151, 195.8276
1027.633, 176.6924
1028.115, 138.8198
1028.598, 98.62134
1029.080, 79.02856
1029.562, 92.35278
1030.044, 91.22070
1030.526, 71.90894
1031.008, 50.68677
1031.490, 45.41724
1031.972, 47.05688
1032.454, 37.56177
1032.937, 17.96021
1033.419, 4.560059
1033.901, 13.27393
1034.383, 17.63428
1034.865, 5.299072
1035.347, 14.91650
1035.829, 17.15356
1036.311, 2.764648
1036.793, 10.71289
1037.276, 19.68872
1037.758, 23.09521
1038.240, 14.32983
1038.722, 2.669434
1039.204, 0.7487790
1039.686, 9.497559
1040.168, 13.33374
1040.650, 7.449463
1041.132, 4.632813
1041.615, 17.19312
1042.097, 38.28247
1042.579, 52.74341
1043.061, 60.89868
1043.543, 64.91479
1044.025, 64.01270
1044.507, 61.24072
1044.989, 59.10400
1045.472, 54.90894
1045.954, 40.80298
1046.436, 17.14258
1046.918, 2.261230
1047.400, 0.2946780
1047.882, 2.301514
1048.364, 4.052979
1048.846, 7.123535
1049.328, 15.02710
1049.811, 29.55640
1050.293, 37.77539
1050.775, 38.70605
1051.257, 35.34790
1051.739, 27.25146
1052.221, 17.24194
1052.703, 11.24341
1053.185, 8.878662
1053.667, 9.082275
1054.150, 11.87549
1054.632, 16.70581
1055.114, 28.06494
1055.596, 37.86450
1056.078, 35.00781
1056.560, 19.11157
1057.042, 14.75317
1057.524, 23.99219
1058.007, 31.98511
1058.489, 25.90820
1058.971, 14.27881
1059.453, 1.286865
1059.935, 18.11963
1060.417, 13.64038
1060.899, 27.11206
1061.381, 46.63892
1061.864, 21.67407
1062.346, 17.06152
1062.828, 13.52197
1063.310, 15.18750
1063.792, 33.14819
1064.274, 29.20972
1064.756, 20.42114
1065.238, 5.301270
1065.720, 6.645508
1066.203, 10.51465
1066.685, 6.279297
1067.167, 11.40381
1067.649, 41.01245
1068.131, 61.18237
1068.613, 43.95166
1069.095, 28.00513
1069.577, 47.55151
1070.059, 86.26929
1070.542, 104.1145
1071.024, 92.43188
1071.506, 86.45044
1071.988, 90.80176
1072.470, 98.29614
1072.952, 100.3162
1073.434, 100.5664
1073.916, 106.4114
1074.399, 118.7664
1074.881, 124.4014
1075.363, 113.6206
1075.845, 103.9146
1076.327, 100.1533
1076.809, 101.5652
1077.291, 109.5293
1077.773, 121.5286
1078.255, 125.4248
1078.738, 112.6240
1079.220, 101.4150
1079.702, 101.1104
1080.184, 108.5977
1080.666, 122.7991
1081.148, 146.9712
1081.630, 150.7031
1082.112, 132.3672
1082.594, 117.9446
1083.077, 134.7043
1083.559, 156.8569
1084.041, 152.0884
1084.523, 129.8098
1085.005, 123.9827
1085.487, 150.9766
1085.969, 169.3491
1086.451, 173.0144
1086.934, 169.9219
1087.416, 170.5867
1087.898, 172.1731
1088.380, 167.6492
1088.862, 156.1482
1089.344, 147.3552
1089.826, 145.3826
1090.308, 146.5991
1090.791, 151.3955
1091.273, 157.4407
1091.755, 154.3418
1092.237, 143.3425
1092.719, 135.8799
1093.201, 136.7251
1093.683, 138.2166
1094.165, 133.5085
1094.647, 128.0591
1095.130, 127.8828
1095.612, 134.3779
1096.094, 136.8152
1096.576, 134.1113
1097.058, 134.0596
1097.540, 147.5723
1098.022, 163.6436
1098.504, 168.8440
1098.986, 163.6436
1099.469, 154.5054
1099.951, 139.8240
1100.433, 125.4312
1100.915, 109.0007
1101.397, 98.96582
1101.879, 111.5303
1102.361, 136.5718
1102.843, 151.2019
1103.325, 153.0503
1103.808, 146.6472
1104.290, 120.1270
1104.772, 100.0154
1105.254, 98.39502
1105.736, 108.3093
1106.218, 108.7244
1106.700, 101.2329
1107.182, 97.55005
1107.665, 101.7739
1108.147, 107.3689
1108.629, 109.9185
1109.111, 111.6313
1109.593, 114.9749
1110.075, 120.1980
1110.557, 120.8967
1111.039, 116.4458
1111.521, 115.8359
1112.004, 129.1086
1112.486, 143.2871
1112.968, 143.3811
1113.450, 133.9312
1113.932, 123.3550
1114.414, 111.0786
1114.896, 101.6177
1115.378, 95.38232
1115.860, 91.15674
1116.343, 87.88892
1116.825, 85.76904
1117.307, 85.47949
1117.789, 86.12988
1118.271, 86.74854
1118.753, 90.13232
1119.235, 87.92090
1119.717, 74.64282
1120.200, 59.12769
1120.682, 63.23950
1121.164, 80.35767
1121.646, 80.80811
1122.128, 58.07812
1122.610, 40.03003
1123.092, 48.32788
1123.574, 59.74927
1124.057, 61.26489
1124.539, 55.16699
1125.021, 52.03979
1125.503, 51.55786
1125.985, 49.83057
1126.467, 44.32251
1126.949, 39.93433
1127.431, 45.75781
1127.913, 51.76514
1128.396, 44.26855
1128.878, 19.08398
1129.360, 7.886475
1129.842, 11.76636
1130.324, 21.35742
1130.806, 33.92700
1131.288, 46.60083
1131.770, 58.77441
1132.252, 68.14404
1132.735, 69.07812
1133.217, 51.73755
1133.699, 45.50684
1134.181, 55.04272
1134.663, 66.25781
1135.145, 63.69995
1135.627, 54.02539
1136.109, 48.15503
1136.592, 46.41309
1137.074, 46.52588
1137.556, 51.80640
1138.038, 52.92700
1138.520, 46.64893
1139.002, 37.57788
1139.484, 35.40771
1139.966, 36.59399
1140.448, 26.84888
1140.931, 2.433105
1141.413, 10.84912
1141.895, 14.60986
1142.377, 36.96313
1142.859, 36.32739
1143.341, 19.04688
1143.823, 5.846680
1144.305, 3.350342
1144.787, 7.551758
1145.270, 4.555908
1145.752, 2.219238
1146.234, 8.599609
1146.716, 15.20825
1147.198, 15.35083
1147.680, 9.041748
1148.162, 3.718750
1148.644, 22.74561
1149.126, 32.80200
1149.609, 14.88599
1150.091, 1.621826
1150.573, 14.71094
1151.055, 44.29883
1151.537, 56.90332
1152.019, 47.31909
1152.501, 35.13745
1152.983, 19.69067
1153.466, 9.037842
1153.948, 17.69702
1154.430, 27.57690
1154.912, 12.21777
1155.394, 18.84888
1155.876, 30.41187
1156.358, 9.968994
1156.840, 5.082764
1157.323, 10.96899
1157.805, 11.02856
1158.287, 2.773193
1158.769, 5.757324
1159.251, 2.750244
1159.733, 27.30518
1160.215, 34.56567
1160.697, 3.974365
1161.179, 12.48926
1161.661, 1.261963
1162.144, 25.81567
1162.626, 27.83398
1163.108, 17.39307
1163.590, 14.97095
1164.072, 25.02222
1164.554, 35.77075
1165.036, 49.45947
1165.518, 55.20483
1166.001, 45.56836
1166.483, 28.04565
1166.965, 21.03442
1167.447, 22.85376
1167.929, 29.94824
1168.411, 45.58081
1168.893, 53.81274
1169.375, 35.46460
1169.858, 23.25537
1170.340, 41.24243
1170.822, 81.14746
1171.304, 94.67505
1171.786, 85.88281
1172.268, 73.78760
1172.750, 62.06958
1173.232, 55.38159
1173.714, 61.42188
1174.197, 69.06348
1174.679, 68.48340
1175.161, 59.09595
1175.643, 49.28760
1176.125, 39.51709
1176.607, 34.44653
1177.089, 41.24414
1177.571, 48.14209
1178.053, 51.82007
1178.536, 52.24487
1179.018, 48.21826
1179.500, 39.48633
1179.982, 31.25562
1180.464, 23.94312
1180.946, 24.98511
1181.428, 55.34229
1181.910, 80.91138
1182.393, 66.90186
1182.875, 32.89746
1183.357, 34.58228
1183.839, 75.16089
1184.321, 88.89307
1184.803, 62.66089
1185.285, 30.90869
1185.767, 14.32275
1186.250, 14.11792
1186.732, 40.37915
1187.214, 84.98535
1187.696, 101.8721
1188.178, 87.98315
1188.660, 76.78979
1189.142, 77.30933
1189.624, 81.82251
1190.106, 84.70386
1190.589, 84.76685
1191.071, 79.66650
1191.553, 69.74951
1192.035, 67.72217
1192.517, 73.33813
1192.999, 80.96387
1193.481, 91.95703
1193.963, 98.40894
1194.445, 81.88232
1194.928, 60.64746
1195.410, 60.55713
1195.892, 89.88110
1196.374, 105.0439
1196.856, 104.8464
1197.338, 96.25073
1197.820, 76.78369
1198.302, 58.42480
1198.784, 59.88037
1199.267, 70.34106
1199.749, 73.05615
1200.231, 62.38892
1200.713, 53.62988
1201.195, 46.62061
1201.677, 41.05322
1202.159, 37.07251
1202.641, 34.16064
1203.124, 29.05981
1203.606, 24.91309
1204.088, 30.70703
1204.570, 57.16431
1205.052, 65.90552
1205.534, 52.52173
1206.016, 38.45166
1206.498, 43.13599
1206.980, 54.80176
1207.463, 56.85742
1207.945, 52.95850
1208.427, 58.83276
1208.909, 85.59277
1209.391, 92.21729
1209.873, 71.40210
1210.355, 45.68066
1210.837, 36.43628
1211.319, 36.34937
1211.802, 41.03955
1212.284, 47.64771
1212.766, 41.34570
1213.248, 11.46948
1213.730, 3.847656
1214.212, 4.548584
1214.694, 22.85522
1215.176, 44.09644
1215.659, 60.91772
1216.141, 62.35010
1216.623, 48.44751
1217.105, 32.39526
1217.587, 11.71411
1218.069, 5.3222999E-02
1218.551, 1.093018
1219.033, 9.149658
1219.516, 25.69751
1219.998, 41.30444
1220.480, 40.95996
1220.962, 22.98975
1221.444, 18.93701
1221.926, 35.55151
1222.408, 45.06616
1222.890, 37.55566
1223.372, 25.00171
1223.854, 23.30225
1224.337, 26.00610
1224.819, 23.79297
1225.301, 14.51782
1225.783, 10.61914
1226.265, 13.43726
1226.747, 15.94604
1227.229, 14.70728
1227.711, 14.24170
1228.194, 24.28003
1228.676, 36.62085
1229.158, 39.81445
1229.640, 30.36719
1230.122, 24.74268
1230.604, 23.79443
1231.086, 20.65527
1231.568, 8.386963
1232.051, 9.1063999E-02
1232.533, 22.89526
1233.015, 53.07275
1233.497, 52.48901
1233.979, 8.816406
1234.461, 5.578125
1234.943, 12.69580
1235.425, 29.68115
1235.907, 24.26172
1236.390, 14.94873
1236.872, 25.74927
1237.354, 42.38867
1237.836, 42.33301
1238.318, 19.81860
1238.800, 10.02466
1239.282, 13.29932
1239.764, 22.38452
1240.246, 38.13989
1240.729, 52.01392
1241.211, 58.60449
1241.693, 57.33936
1242.175, 46.82690
1242.657, 25.01709
1243.139, 5.237061
1243.621, 12.54614
1244.103, 22.74121
1244.586, 18.07739
1245.068, 8.528076
1245.550, 3.934082
1246.032, 14.28247
1246.514, 13.90503
1246.996, 1.891602
1247.478, 0.5439450
1247.960, 10.51465
1248.442, 16.95117
1248.925, 3.072266
1249.407, 9.016357
1249.889, 5.581299
1250.371, 6.841309
1250.853, 21.40283
1251.335, 37.98682
1251.817, 50.03589
1252.299, 57.23242
1252.781, 58.61499
1253.264, 45.94141
1253.746, 36.36938
1254.228, 41.77271
1254.710, 51.35474
1255.192, 50.28101
1255.674, 40.64600
1256.156, 41.85059
1256.638, 52.69873
1257.120, 56.09619
1257.603, 29.12622
1258.085, 11.35596
1258.567, 20.76465
1259.049, 37.87427
1259.531, 33.49707
1260.013, 14.86938
1260.495, 9.108643
1260.977, 16.96606
1261.460, 26.43555
1261.942, 38.00610
1262.424, 40.61841
1262.906, 25.72534
1263.388, 12.22095
1263.870, 37.17407
1264.352, 79.88696
1264.834, 79.15601
1265.317, 36.51709
1265.799, 14.17969
1266.281, 51.24634
1266.763, 78.71240
1267.245, 84.31128
1267.727, 78.38770
1268.209, 70.40967
1268.691, 61.82373
1269.173, 54.78467
1269.656, 49.48584
1270.138, 47.21216
1270.620, 47.68994
1271.102, 51.85571
1271.584, 60.44165
1272.066, 69.74707
1272.548, 78.34937
1273.030, 82.90601
1273.512, 78.48901
1273.995, 64.18433
1274.477, 56.39722
1274.959, 55.29346
1275.441, 52.87744
1275.923, 46.37378
1276.405, 44.33789
1276.887, 66.69678
1277.369, 88.99805
1277.852, 87.08838
1278.334, 64.83179
1278.816, 40.05249
1279.298, 18.46948
1279.780, 5.796387
1280.262, 2.068359
1280.744, 1.434570
1281.226, 22.89404
1281.708, 42.09863
1282.191, 41.20874
1282.673, 27.87329
1283.155, 26.63354
1283.637, 36.07642
1284.119, 45.45728
1284.601, 33.01782
1285.083, 50.58813
1285.565, 59.79858
1286.047, 60.63794
1286.530, 30.89014
1287.012, 40.37842
1287.494, 34.24219
1287.976, 27.80371
1288.458, 43.07422
1288.940, 17.74756
1289.422, 33.27100
1289.904, 32.01831
1290.387, 38.73999
1290.869, 29.24609
1291.351, 24.71387
1291.833, 36.29663
1292.315, 28.53076
1292.797, 30.35400
1293.279, 31.94604
1293.761, 33.58691
1294.244, 34.12573
1294.726, 38.08252
1295.208, 47.46606
1295.690, 58.24146
1296.172, 68.24634
1296.654, 73.28516
1297.136, 66.87231
1297.618, 56.58252
1298.100, 46.13306
1298.583, 35.16602
1299.065, 23.10010
1299.547, 8.396973
1300.029, 0.1469730
1300.511, 16.49243
1300.993, 35.13989
1301.475, 31.32251
1301.957, 15.00391
1302.439, 21.99414
1302.922, 50.42700
1303.404, 53.73120
1303.886, 21.00122
1304.368, 6.549316
1304.850, 5.609131
1305.332, 22.16870
1305.814, 25.98486
1306.296, 22.11938
1306.778, 17.40381
1307.261, 17.95386
1307.743, 22.83594
1308.225, 32.78198
1308.707, 40.43018
1309.189, 30.22388
1309.671, 29.57910
1310.153, 31.32373
1310.635, 31.89502
1311.118, 22.93652
1311.600, 11.36597
1312.082, 3.245850
1312.564, 0.2858890
1313.046, 0.0000000E+00
##END=



