##NAMES=Philipsburgite
##RRUFFID=R061036
##IDEAL CHEMISTRY=(Cu^2+^,Zn^2+^)_6_(As^5+^O_4_,PO_4_)_2_(OH)_6_&#183;H_2_O
##LOCALITY=Black Pine mine, Granite county, Montana, USA
##OWNER=RRUFF
##SOURCE=Michael Scott
##DESCRIPTION=Dark green, almost black subparallel rosettes, associated with lighter greenish blue spherules of zapatalite
##STATUS=The identification of this mineral is not yet confirmed.
##URL=rruff.info/R061036
121.0400, 0.0000000E+00
121.5221, 93.88818
122.0042, 32.18848
122.4864, 18.19531
122.9685, 82.95312
123.4506, 243.8662
123.9327, 448.3799
124.4148, 680.6270
124.8969, 933.6719
125.3791, 1220.281
125.8612, 1554.165
126.3433, 1924.482
126.8254, 2303.367
127.3075, 2694.194
127.7896, 3079.894
128.2718, 3426.534
128.7539, 3729.002
129.2360, 4001.706
129.7181, 4275.906
130.2002, 4545.033
130.6823, 4788.071
131.1645, 4990.490
131.6466, 5153.441
132.1287, 5281.959
132.6108, 5364.037
133.0929, 5419.425
133.5750, 5492.941
134.0572, 5586.916
134.5393, 5686.850
135.0214, 5783.738
135.5035, 5877.180
135.9856, 5975.275
136.4677, 6069.061
136.9499, 6164.132
137.4320, 6320.414
137.9141, 6559.438
138.3962, 6813.271
138.8783, 7002.747
139.3604, 7120.477
139.8426, 7195.354
140.3247, 7234.570
140.8068, 7235.938
141.2889, 7209.599
141.7710, 7148.412
142.2531, 7063.611
142.7353, 6982.225
143.2174, 6920.037
143.6995, 6833.541
144.1816, 6701.230
144.6637, 6505.697
145.1458, 6294.018
145.6280, 6054.422
146.1101, 5794.344
146.5922, 5557.678
147.0743, 5368.800
147.5564, 5181.326
148.0385, 4963.748
148.5207, 4656.686
149.0028, 4397.284
149.4849, 4215.048
149.9670, 4114.705
150.4491, 4013.267
150.9312, 3872.335
151.4134, 3748.359
151.8955, 3694.863
152.3776, 3760.941
152.8597, 3854.052
153.3418, 3950.719
153.8239, 4038.915
154.3060, 4172.523
154.7882, 4387.320
155.2703, 4646.609
155.7524, 4894.070
156.2345, 5091.340
156.7166, 5297.545
157.1987, 5536.772
157.6809, 5829.509
158.1630, 6123.014
158.6451, 6388.275
159.1272, 6638.504
159.6093, 6913.967
160.0914, 7252.723
160.5736, 7601.018
161.0557, 7924.250
161.5378, 8203.627
162.0199, 8465.855
162.5020, 8724.819
162.9841, 8975.462
163.4663, 9202.849
163.9484, 9420.919
164.4305, 9604.861
164.9126, 9730.989
165.3947, 9749.859
165.8768, 9742.588
166.3590, 9759.672
166.8411, 9803.684
167.3232, 9831.954
167.8053, 9835.143
168.2874, 9805.665
168.7695, 9731.952
169.2517, 9586.749
169.7338, 9408.876
170.2159, 9235.022
170.6980, 9077.551
171.1801, 8892.434
171.6622, 8629.603
172.1444, 8312.259
172.6265, 7996.023
173.1086, 7701.205
173.5907, 7432.262
174.0728, 7180.146
174.5549, 6937.488
175.0371, 6727.294
175.5192, 6579.495
176.0013, 6486.739
176.4834, 6410.489
176.9655, 6331.713
177.4476, 6261.236
177.9298, 6208.197
178.4119, 6174.723
178.8940, 6124.689
179.3761, 6089.719
179.8582, 6070.060
180.3403, 6051.885
180.8224, 6016.504
181.3046, 5970.793
181.7867, 5935.125
182.2688, 5924.158
182.7509, 5922.188
183.2330, 5898.652
183.7151, 5852.891
184.1973, 5794.994
184.6794, 5753.996
185.1615, 5717.520
185.6436, 5627.735
186.1257, 5411.260
186.6078, 5120.882
187.0900, 4940.824
187.5721, 4886.188
188.0542, 4870.554
188.5363, 4794.156
189.0184, 4660.201
189.5005, 4498.341
189.9827, 4305.885
190.4648, 4092.418
190.9469, 3907.423
191.4290, 3758.447
191.9111, 3633.545
192.3932, 3518.992
192.8754, 3415.906
193.3575, 3309.688
193.8396, 3182.207
194.3217, 3035.424
194.8038, 2921.674
195.2859, 2850.161
195.7681, 2808.331
196.2502, 2772.475
196.7323, 2745.030
197.2144, 2709.544
197.6965, 2647.923
198.1786, 2559.450
198.6608, 2488.272
199.1429, 2450.035
199.6250, 2429.256
200.1071, 2361.374
200.5892, 2232.257
201.0714, 2107.982
201.5535, 2055.179
202.0356, 2086.119
202.5177, 2089.467
202.9998, 2036.599
203.4819, 1935.390
203.9641, 1848.078
204.4462, 1774.582
204.9283, 1712.406
205.4104, 1665.419
205.8925, 1640.512
206.3746, 1598.535
206.8568, 1524.990
207.3389, 1420.756
207.8210, 1327.322
208.3031, 1243.717
208.7852, 1173.670
209.2673, 1126.665
209.7494, 1111.073
210.2316, 1088.075
210.7137, 1036.743
211.1958, 951.8672
211.6779, 915.1748
212.1600, 944.1611
212.6421, 998.1914
213.1243, 1013.298
213.6064, 977.0264
214.0885, 936.5176
214.5706, 913.0732
215.0527, 916.6748
215.5348, 884.1982
216.0170, 792.8193
216.4991, 680.1611
216.9812, 630.9434
217.4633, 684.5156
217.9454, 718.5059
218.4275, 670.4941
218.9097, 496.6299
219.3918, 382.4141
219.8739, 354.8271
220.3560, 377.9336
220.8381, 358.4189
221.3202, 277.7510
221.8024, 188.6602
222.2845, 117.3828
222.7666, 69.38574
223.2487, 25.34766
223.7308, 12.71387
224.2129, 46.91992
224.6951, 86.83496
225.1772, 142.4287
225.6593, 189.6758
226.1414, 213.9824
226.6235, 203.5244
227.1056, 196.9160
227.5878, 195.7139
228.0699, 200.5156
228.5520, 215.7715
229.0341, 247.4775
229.5162, 281.9453
229.9983, 314.2861
230.4805, 357.0557
230.9626, 369.1660
231.4447, 333.9775
231.9268, 258.2148
232.4089, 206.0264
232.8910, 187.6025
233.3732, 179.5088
233.8553, 165.5928
234.3374, 147.7920
234.8195, 119.1133
235.3016, 74.29004
235.7837, 14.28906
236.2658, 37.65039
236.7480, 78.88965
237.2301, 115.4873
237.7122, 151.2881
238.1943, 181.0947
238.6764, 220.1455
239.1585, 272.1416
239.6407, 337.4043
240.1228, 409.3135
240.6049, 496.3242
241.0870, 582.2393
241.5691, 650.3916
242.0512, 691.3271
242.5334, 731.0195
243.0155, 774.0928
243.4976, 820.5322
243.9797, 865.6270
244.4618, 913.4580
244.9439, 954.5918
245.4261, 976.0557
245.9082, 961.8672
246.3903, 956.5703
246.8724, 975.4707
247.3545, 1023.548
247.8366, 1047.345
248.3188, 1041.271
248.8009, 1016.272
249.2830, 984.6270
249.7651, 947.6201
250.2472, 903.9590
250.7293, 851.3721
251.2115, 788.1748
251.6936, 734.6279
252.1757, 696.1660
252.6578, 663.9854
253.1399, 625.3867
253.6220, 578.3379
254.1042, 529.0723
254.5863, 476.3506
255.0684, 416.2305
255.5505, 376.8682
256.0326, 365.2832
256.5147, 368.1641
256.9969, 368.9648
257.4790, 373.2168
257.9611, 361.9668
258.4432, 322.4229
258.9253, 244.5527
259.4074, 193.6406
259.8896, 178.0850
260.3717, 180.7734
260.8538, 176.4746
261.3359, 162.3408
261.8180, 146.7441
262.3001, 132.6543
262.7823, 121.2109
263.2644, 103.7559
263.7465, 77.91895
264.2286, 48.33398
264.7107, 24.56445
265.1928, 9.524414
265.6750, 8.207031
266.1571, 35.40918
266.6392, 74.56055
267.1213, 100.1748
267.6034, 109.7930
268.0855, 108.4980
268.5677, 104.8594
269.0498, 100.1387
269.5319, 84.05273
270.0140, 49.83203
270.4961, 4.149414
270.9782, 53.41797
271.4604, 98.77539
271.9425, 138.0117
272.4246, 164.4033
272.9067, 173.1777
273.3888, 192.1162
273.8709, 231.3379
274.3531, 293.6709
274.8352, 378.7852
275.3173, 484.8223
275.7994, 603.2607
276.2815, 729.5361
276.7636, 865.5059
277.2457, 994.4893
277.7278, 1107.011
278.2100, 1204.190
278.6921, 1303.724
279.1742, 1400.666
279.6563, 1503.251
280.1384, 1628.675
280.6205, 1776.862
281.1027, 1928.525
281.5848, 2089.028
282.0669, 2257.146
282.5490, 2363.393
283.0311, 2388.519
283.5132, 2384.814
283.9954, 2432.710
284.4775, 2537.713
284.9596, 2653.105
285.4417, 2755.459
285.9238, 2848.291
286.4059, 2971.558
286.8881, 3130.320
287.3702, 3292.232
287.8523, 3416.077
288.3344, 3501.992
288.8165, 3566.056
289.2986, 3620.525
289.7808, 3664.059
290.2629, 3674.314
290.7450, 3646.205
291.2271, 3606.516
291.7092, 3585.602
292.1913, 3582.314
292.6735, 3587.871
293.1556, 3607.748
293.6377, 3634.188
294.1198, 3640.147
294.6019, 3623.580
295.0840, 3600.600
295.5662, 3596.150
296.0483, 3603.565
296.5304, 3593.411
297.0125, 3539.369
297.4946, 3463.300
297.9767, 3404.430
298.4589, 3361.999
298.9410, 3342.889
299.4231, 3373.798
299.9052, 3436.047
300.3873, 3478.113
300.8694, 3458.799
301.3516, 3415.061
301.8337, 3399.422
302.3158, 3411.711
302.7979, 3434.106
303.2800, 3453.042
303.7621, 3470.423
304.2443, 3491.523
304.7264, 3522.381
305.2085, 3554.177
305.6906, 3579.898
306.1727, 3599.279
306.6548, 3611.027
307.1370, 3622.315
307.6191, 3624.081
308.1012, 3601.695
308.5833, 3520.678
309.0654, 3438.769
309.5475, 3411.840
310.0297, 3433.770
310.5118, 3451.461
310.9939, 3433.739
311.4760, 3393.700
311.9581, 3345.133
312.4402, 3286.074
312.9224, 3226.110
313.4045, 3173.287
313.8866, 3125.426
314.3687, 3071.658
314.8508, 3016.327
315.3329, 2947.948
315.8151, 2856.523
316.2972, 2725.243
316.7793, 2586.771
317.2614, 2441.573
317.7435, 2295.491
318.2256, 2170.642
318.7078, 2097.094
319.1899, 2033.037
319.6720, 1950.165
320.1541, 1820.319
320.6362, 1702.127
321.1183, 1622.406
321.6005, 1568.021
322.0826, 1500.967
322.5647, 1396.327
323.0468, 1288.971
323.5289, 1193.540
324.0110, 1099.418
324.4932, 1035.069
324.9753, 1054.043
325.4574, 1108.197
325.9395, 1084.914
326.4216, 886.5508
326.9037, 682.8271
327.3859, 535.2373
327.8680, 470.7881
328.3501, 419.6611
328.8322, 394.0059
329.3143, 377.9795
329.7964, 344.5986
330.2786, 289.7090
330.7607, 219.9863
331.2428, 129.9668
331.7249, 2.772461
332.2070, 79.82715
332.6891, 97.28418
333.1712, 81.44824
333.6534, 75.91699
334.1355, 78.69629
334.6176, 96.97070
335.0997, 139.2412
335.5818, 210.0684
336.0639, 260.1025
336.5461, 284.6768
337.0282, 294.6953
337.5103, 299.2822
337.9924, 294.9209
338.4745, 300.8359
338.9566, 331.1133
339.4388, 381.5508
339.9209, 387.0791
340.4030, 334.6895
340.8851, 270.5957
341.3672, 243.9287
341.8493, 256.4160
342.3315, 269.2998
342.8136, 276.3096
343.2957, 276.2617
343.7778, 264.0596
344.2599, 239.3975
344.7420, 204.1582
345.2242, 159.6348
345.7063, 105.4629
346.1884, 48.24219
346.6705, 10.63672
347.1526, 71.68066
347.6347, 131.9141
348.1169, 190.8320
348.5990, 256.2744
349.0811, 325.8301
349.5632, 403.1807
350.0453, 503.7158
350.5274, 634.4941
351.0096, 772.8047
351.4917, 896.2988
351.9738, 1004.795
352.4559, 1101.850
352.9380, 1172.332
353.4201, 1238.056
353.9023, 1326.271
354.3844, 1440.724
354.8665, 1576.042
355.3486, 1744.972
355.8307, 1931.045
356.3128, 2104.343
356.7950, 2233.066
357.2771, 2349.893
357.7592, 2481.811
358.2413, 2631.635
358.7234, 2781.955
359.2055, 2911.600
359.6877, 3038.445
360.1698, 3185.496
360.6519, 3374.115
361.1340, 3572.936
361.6161, 3775.031
362.0982, 3979.213
362.5804, 4170.541
363.0625, 4345.393
363.5446, 4504.012
364.0267, 4646.666
364.5088, 4750.549
364.9909, 4862.943
365.4731, 4990.684
365.9552, 5135.299
366.4373, 5304.297
366.9194, 5531.334
367.4015, 5760.744
367.8836, 5965.293
368.3658, 6126.541
368.8479, 6284.639
369.3300, 6430.861
369.8121, 6574.201
370.2942, 6733.938
370.7763, 6909.037
371.2585, 7102.941
371.7406, 7320.021
372.2227, 7566.107
372.7048, 7812.410
373.1869, 8057.553
373.6690, 8299.312
374.1512, 8536.285
374.6333, 8765.465
375.1154, 8996.459
375.5975, 9229.242
376.0796, 9463.422
376.5617, 9731.000
377.0439, 10037.14
377.5260, 10365.58
378.0081, 10703.59
378.4902, 11059.76
378.9723, 11374.22
379.4544, 11615.15
379.9366, 11806.86
380.4187, 12073.82
380.9008, 12423.58
381.3829, 12786.77
381.8650, 13104.61
382.3471, 13385.29
382.8293, 13651.02
383.3114, 13902.79
383.7935, 14150.34
384.2756, 14431.66
384.7577, 14739.11
385.2398, 15013.94
385.7219, 15234.16
386.2040, 15397.36
386.6862, 15492.18
387.1683, 15504.13
387.6504, 15489.73
388.1325, 15524.72
388.6146, 15579.48
389.0967, 15577.04
389.5789, 15481.20
390.0610, 15309.28
390.5431, 15067.90
391.0252, 14755.96
391.5073, 14422.84
391.9894, 14108.37
392.4716, 13783.65
392.9537, 13412.79
393.4358, 12941.77
393.9179, 12458.80
394.4000, 12007.38
394.8821, 11588.24
395.3643, 11142.11
395.8464, 10627.35
396.3285, 10090.10
396.8106, 9567.512
397.2927, 9081.736
397.7748, 8586.430
398.2570, 8072.393
398.7391, 7545.617
399.2212, 7027.447
399.7033, 6500.293
400.1854, 5992.914
400.6675, 5516.967
401.1497, 5088.824
401.6318, 4668.221
402.1139, 4250.391
402.5960, 3844.740
403.0781, 3465.926
403.5602, 3112.229
404.0424, 2791.635
404.5245, 2509.098
405.0066, 2266.898
405.4887, 2036.688
405.9708, 1815.068
406.4529, 1607.668
406.9351, 1414.295
407.4172, 1233.367
407.8993, 1086.352
408.3814, 991.6055
408.8635, 929.2305
409.3456, 824.4316
409.8278, 674.5781
410.3099, 524.6660
410.7920, 400.6523
411.2741, 304.5137
411.7562, 251.1973
412.2383, 253.3594
412.7205, 277.5234
413.2026, 269.1152
413.6847, 239.1055
414.1668, 234.1562
414.6489, 300.0352
415.1310, 397.3750
415.6132, 478.8965
416.0953, 540.1484
416.5774, 590.8906
417.0595, 626.3418
417.5416, 659.7168
418.0237, 712.6855
418.5059, 823.7676
418.9880, 931.4453
419.4701, 986.3359
419.9522, 993.0879
420.4343, 1023.926
420.9164, 1124.670
421.3986, 1250.980
421.8807, 1371.443
422.3628, 1472.012
422.8449, 1574.635
423.3270, 1674.783
423.8091, 1777.688
424.2913, 1903.480
424.7734, 2091.846
425.2555, 2267.410
425.7376, 2394.539
426.2197, 2438.340
426.7018, 2526.629
427.1840, 2678.010
427.6661, 2862.674
428.1482, 3037.824
428.6303, 3196.225
429.1124, 3366.684
429.5945, 3567.078
430.0767, 3792.783
430.5588, 3981.807
431.0409, 4130.504
431.5230, 4248.467
432.0051, 4333.760
432.4872, 4386.121
432.9694, 4453.623
433.4515, 4554.684
433.9336, 4664.816
434.4157, 4724.002
434.8978, 4735.043
435.3799, 4748.104
435.8621, 4825.643
436.3442, 4926.006
436.8263, 4939.750
437.3084, 4850.668
437.7905, 4720.734
438.2726, 4600.211
438.7548, 4485.525
439.2369, 4369.258
439.7190, 4248.812
440.2011, 4123.781
440.6832, 3996.990
441.1653, 3867.252
441.6474, 3728.035
442.1295, 3562.721
442.6117, 3392.824
443.0938, 3238.076
443.5759, 3118.059
444.0580, 2993.346
444.5401, 2843.037
445.0222, 2679.381
445.5044, 2537.676
445.9865, 2423.852
446.4686, 2334.287
446.9507, 2268.197
447.4328, 2223.596
447.9149, 2208.205
448.3971, 2235.930
448.8792, 2284.963
449.3613, 2331.682
449.8434, 2373.678
450.3255, 2417.719
450.8076, 2465.811
451.2898, 2516.996
451.7719, 2559.830
452.2540, 2588.045
452.7361, 2622.430
453.2182, 2679.037
453.7003, 2757.752
454.1825, 2850.918
454.6646, 2967.314
455.1467, 3078.736
455.6288, 3108.285
456.1109, 3065.457
456.5930, 3058.701
457.0752, 3171.984
457.5573, 3355.658
458.0394, 3499.109
458.5215, 3600.455
459.0036, 3685.244
459.4857, 3773.299
459.9679, 3862.027
460.4500, 3944.154
460.9321, 4020.361
461.4142, 4087.920
461.8963, 4141.479
462.3784, 4184.016
462.8606, 4227.551
463.3427, 4252.744
463.8248, 4298.418
464.3069, 4393.529
464.7890, 4557.684
465.2711, 4729.826
465.7533, 4919.572
466.2354, 5104.871
466.7175, 5250.643
467.1996, 5296.943
467.6817, 5358.871
468.1638, 5465.646
468.6460, 5616.359
469.1281, 5749.596
469.6102, 5842.652
470.0923, 5945.072
470.5744, 6099.008
471.0565, 6327.883
471.5387, 6525.488
472.0208, 6681.795
472.5029, 6806.012
472.9850, 6912.596
473.4671, 6999.191
473.9492, 7094.020
474.4314, 7208.184
474.9135, 7339.820
475.3956, 7492.730
475.8777, 7673.275
476.3598, 7845.094
476.8419, 7956.354
477.3241, 8026.326
477.8062, 8103.828
478.2883, 8198.205
478.7704, 8310.256
479.2525, 8453.230
479.7346, 8623.172
480.2168, 8788.475
480.6989, 8929.916
481.1810, 9060.568
481.6631, 9187.533
482.1452, 9308.525
482.6273, 9434.910
483.1095, 9587.178
483.5916, 9739.551
484.0737, 9859.471
484.5558, 9915.197
485.0379, 9963.756
485.5201, 10024.51
486.0022, 10094.89
486.4843, 10133.58
486.9664, 10100.49
487.4485, 10078.56
487.9306, 10117.29
488.4128, 10259.91
488.8949, 10355.66
489.3770, 10402.24
489.8591, 10407.37
490.3412, 10371.32
490.8233, 10285.02
491.3055, 10216.56
491.7876, 10189.24
492.2697, 10198.23
492.7518, 10233.85
493.2339, 10297.86
493.7160, 10350.67
494.1982, 10361.49
494.6803, 10334.21
495.1624, 10275.99
495.6445, 10178.02
496.1266, 10072.49
496.6087, 9993.350
497.0908, 9931.771
497.5729, 9862.689
498.0551, 9783.201
498.5372, 9686.627
499.0193, 9559.084
499.5014, 9400.254
499.9835, 9256.076
500.4656, 9163.998
500.9478, 9084.920
501.4299, 8986.979
501.9120, 8876.408
502.3941, 8732.930
502.8762, 8528.322
503.3583, 8288.328
503.8405, 8082.203
504.3226, 7945.691
504.8047, 7793.168
505.2868, 7590.361
505.7689, 7331.555
506.2510, 7099.182
506.7332, 6910.219
507.2153, 6719.480
507.6974, 6468.830
508.1795, 6157.828
508.6616, 5886.676
509.1437, 5691.953
509.6259, 5524.512
510.1080, 5273.713
510.5901, 4947.734
511.0722, 4623.273
511.5543, 4355.293
512.0364, 4116.668
512.5186, 3857.340
513.0007, 3570.770
513.4828, 3304.975
513.9649, 3129.299
514.4470, 2985.670
514.9291, 2795.471
515.4113, 2484.611
515.8934, 2184.527
516.3755, 1966.738
516.8576, 1809.588
517.3397, 1641.979
517.8218, 1421.391
518.3040, 1208.225
518.7861, 1026.771
519.2682, 882.0938
519.7503, 746.6016
520.2324, 623.4434
520.7145, 511.5820
521.1967, 408.1504
521.6788, 313.0801
522.1609, 209.5391
522.6430, 90.43555
523.1251, 32.23242
523.6072, 130.2148
524.0894, 206.2930
524.5715, 253.5059
525.0536, 247.8242
525.5357, 199.2617
526.0178, 175.6641
526.4999, 186.8145
526.9821, 211.6328
527.4642, 225.9980
527.9463, 230.3535
528.4284, 230.4844
528.9105, 228.1406
529.3926, 234.0098
529.8748, 257.5703
530.3569, 291.9277
530.8390, 325.4688
531.3211, 369.5703
531.8032, 400.4219
532.2853, 397.1719
532.7675, 351.8047
533.2496, 318.9746
533.7317, 334.2676
534.2138, 352.7969
534.6959, 338.0879
535.1780, 277.1406
535.6602, 198.5137
536.1423, 88.51758
536.6244, 33.75586
537.1065, 111.0762
537.5886, 115.9824
538.0707, 158.9062
538.5529, 298.5273
539.0350, 523.4424
539.5171, 707.9902
539.9992, 848.5430
540.4813, 971.4238
540.9634, 1083.494
541.4456, 1195.569
541.9277, 1347.738
542.4098, 1558.580
542.8919, 1783.012
543.3740, 1971.957
543.8561, 2131.490
544.3383, 2274.672
544.8204, 2395.154
545.3025, 2511.412
545.7846, 2647.851
546.2667, 2802.511
546.7488, 2918.520
547.2310, 2956.963
547.7131, 2962.607
548.1952, 2965.240
548.6773, 2996.913
549.1594, 2977.137
549.6415, 2874.979
550.1237, 2734.147
550.6058, 2625.710
551.0879, 2575.485
551.5700, 2498.339
552.0521, 2361.664
552.5342, 2179.777
553.0164, 2039.396
553.4985, 1945.062
553.9806, 1862.662
554.4627, 1760.787
554.9448, 1648.521
555.4269, 1573.882
555.9091, 1544.096
556.3912, 1528.386
556.8733, 1490.785
557.3554, 1443.955
557.8375, 1413.635
558.3196, 1417.234
558.8018, 1432.519
559.2839, 1446.591
559.7660, 1459.799
560.2481, 1472.569
560.7302, 1485.810
561.2123, 1497.817
561.6945, 1507.652
562.1766, 1515.389
562.6587, 1519.980
563.1408, 1519.217
563.6229, 1516.702
564.1050, 1517.775
564.5872, 1534.165
565.0693, 1523.729
565.5514, 1476.778
566.0335, 1403.993
566.5156, 1325.188
566.9977, 1238.776
567.4799, 1170.643
567.9620, 1150.982
568.4441, 1157.451
568.9262, 1108.655
569.4083, 1004.305
569.8904, 901.5498
570.3726, 860.4639
570.8547, 845.2090
571.3368, 793.0908
571.8189, 679.3701
572.3010, 571.2852
572.7831, 526.3945
573.2653, 512.7676
573.7474, 483.7998
574.2295, 411.4434
574.7116, 334.7471
575.1937, 258.0098
575.6758, 183.0391
576.1580, 130.4521
576.6401, 123.6592
577.1222, 111.6738
577.6042, 66.27832
578.0864, 28.43652
578.5685, 79.74805
579.0506, 76.67871
579.5327, 54.74121
580.0148, 57.50488
580.4969, 83.62598
580.9791, 90.33789
581.4612, 61.73145
581.9433, 26.94824
582.4254, 51.40723
582.9075, 115.4746
583.3896, 145.9150
583.8718, 68.68652
584.3539, 33.55566
584.8360, 71.71777
585.3181, 46.65918
585.8002, 40.51270
586.2823, 127.5195
586.7645, 228.0840
587.2466, 280.8740
587.7287, 240.8301
588.2108, 219.9277
588.6929, 245.2539
589.1750, 289.9414
589.6572, 321.0674
590.1393, 326.3096
590.6214, 351.8438
591.1035, 412.5713
591.5856, 495.1240
592.0677, 558.8770
592.5499, 605.3496
593.0320, 637.9648
593.5141, 648.3740
593.9962, 646.1172
594.4783, 668.9326
594.9604, 715.0215
595.4426, 755.3789
595.9247, 747.3486
596.4068, 722.5859
596.8889, 732.9062
597.3710, 810.5332
597.8531, 883.5879
598.3353, 905.1689
598.8174, 896.1260
599.2995, 892.5928
599.7816, 912.6016
600.2637, 931.1836
600.7458, 936.9180
601.2280, 931.9287
601.7101, 941.1875
602.1922, 970.8311
602.6743, 1004.675
603.1564, 1034.472
603.6385, 1059.380
604.1207, 1090.075
604.6028, 1129.376
605.0849, 1165.875
605.5670, 1179.478
606.0491, 1176.198
606.5313, 1190.411
607.0134, 1236.492
607.4955, 1286.637
607.9776, 1293.764
608.4597, 1277.778
608.9418, 1288.139
609.4240, 1381.930
609.9061, 1481.421
610.3882, 1536.145
610.8703, 1548.483
611.3524, 1557.648
611.8345, 1563.847
612.3167, 1579.231
612.7988, 1614.561
613.2809, 1684.869
613.7630, 1728.803
614.2451, 1726.558
614.7272, 1720.604
615.2094, 1759.007
615.6915, 1847.033
616.1736, 1947.972
616.6557, 2064.591
617.1378, 2176.542
617.6199, 2241.537
618.1021, 2264.062
618.5842, 2273.646
619.0663, 2273.795
619.5484, 2275.459
620.0305, 2294.657
620.5126, 2328.802
620.9948, 2361.760
621.4769, 2381.289
621.9590, 2398.749
622.4411, 2422.136
622.9232, 2453.838
623.4053, 2487.414
623.8875, 2527.056
624.3696, 2563.573
624.8517, 2590.345
625.3338, 2612.178
625.8159, 2615.031
626.2980, 2590.592
626.7802, 2552.300
627.2623, 2527.251
627.7444, 2515.905
628.2265, 2513.914
628.7086, 2528.529
629.1907, 2547.188
629.6729, 2536.548
630.1550, 2498.912
630.6371, 2452.665
631.1192, 2405.165
631.6013, 2358.597
632.0834, 2314.796
632.5656, 2273.237
633.0477, 2233.878
633.5298, 2196.851
634.0119, 2161.322
634.4940, 2128.298
634.9761, 2104.223
635.4583, 2068.798
635.9404, 2010.736
636.4225, 1944.414
636.9046, 1894.680
637.3867, 1872.555
637.8688, 1832.131
638.3510, 1756.748
638.8331, 1658.729
639.3152, 1571.087
639.7973, 1495.509
640.2794, 1431.600
640.7615, 1389.417
641.2437, 1356.912
641.7258, 1313.822
642.2079, 1260.747
642.6900, 1212.684
643.1721, 1208.480
643.6542, 1198.771
644.1364, 1133.653
644.6185, 968.1143
645.1006, 833.4355
645.5827, 758.5371
646.0648, 723.2344
646.5469, 711.2803
647.0291, 751.0801
647.5112, 760.3711
647.9933, 715.0293
648.4754, 640.3896
648.9575, 607.8887
649.4396, 619.9727
649.9218, 628.8945
650.4039, 607.9326
650.8860, 572.6318
651.3681, 566.5596
651.8502, 587.0000
652.3323, 606.8389
652.8145, 611.9404
653.2966, 609.2109
653.7787, 593.6426
654.2608, 556.3438
654.7429, 536.3525
655.2250, 575.9658
655.7072, 629.7354
656.1893, 658.5820
656.6714, 642.5967
657.1535, 619.5645
657.6356, 586.9023
658.1177, 549.5566
658.5999, 511.1094
659.0820, 466.8975
659.5641, 447.7969
660.0462, 467.5205
660.5283, 509.9189
661.0104, 547.3799
661.4926, 578.6328
661.9747, 590.1182
662.4568, 554.8574
662.9389, 506.0283
663.4210, 481.6738
663.9031, 482.4883
664.3853, 496.0518
664.8674, 535.8809
665.3495, 570.6602
665.8316, 577.5029
666.3137, 543.7695
666.7958, 512.6709
667.2780, 472.8672
667.7601, 447.0967
668.2422, 461.1406
668.7243, 531.1572
669.2064, 577.7598
669.6885, 595.3984
670.1707, 584.4551
670.6528, 524.6064
671.1349, 427.1221
671.6170, 370.4824
672.0991, 402.1152
672.5812, 459.0469
673.0634, 461.9219
673.5455, 425.5547
674.0276, 393.2930
674.5097, 381.6885
674.9918, 385.2080
675.4739, 414.7197
675.9561, 468.2617
676.4382, 490.2363
676.9203, 436.4512
677.4024, 385.5537
677.8845, 374.2764
678.3666, 412.1846
678.8488, 434.4287
679.3309, 440.9229
679.8130, 430.6211
680.2951, 387.1475
680.7772, 321.3525
681.2593, 303.8525
681.7415, 355.8740
682.2236, 411.6123
682.7057, 386.3809
683.1878, 315.9863
683.6699, 264.6602
684.1520, 264.5293
684.6342, 275.5342
685.1163, 288.5869
685.5984, 299.6133
686.0805, 299.0576
686.5626, 270.2217
687.0447, 247.2393
687.5268, 238.6055
688.0089, 242.2832
688.4910, 246.8848
688.9731, 254.3359
689.4553, 255.0615
689.9374, 241.5352
690.4195, 216.2568
690.9016, 188.4775
691.3837, 156.3203
691.8658, 135.5332
692.3480, 150.1807
692.8301, 177.5283
693.3122, 184.0547
693.7943, 161.1396
694.2764, 143.6279
694.7585, 150.8828
695.2407, 170.1318
695.7228, 180.1348
696.2049, 192.9072
696.6870, 182.6035
697.1691, 139.6309
697.6512, 81.38672
698.1334, 30.45312
698.6155, 14.32910
699.0976, 39.34961
699.5797, 34.92773
700.0618, 15.44629
700.5439, 20.04102
701.0261, 42.60547
701.5082, 64.54297
701.9903, 90.64355
702.4724, 101.8877
702.9545, 71.41602
703.4366, 7.691406
703.9188, 48.42871
704.4009, 81.16211
704.8830, 101.6719
705.3651, 112.1270
705.8472, 112.5137
706.3293, 117.4111
706.8115, 132.9307
707.2936, 145.1016
707.7757, 143.7930
708.2578, 127.0039
708.7399, 102.6562
709.2220, 73.21289
709.7042, 38.97852
710.1863, 20.66895
710.6684, 81.28125
711.1505, 84.22852
711.6326, 0.5439450
712.1147, 81.22754
712.5969, 86.24414
713.0790, 56.45898
713.5611, 43.07910
714.0432, 75.46387
714.5253, 103.6162
715.0074, 120.6025
715.4896, 129.8525
715.9717, 138.2861
716.4538, 144.9346
716.9359, 153.8467
717.4180, 170.9316
717.9001, 187.9707
718.3823, 169.8369
718.8644, 123.1299
719.3465, 98.83691
719.8286, 159.5693
720.3107, 235.3867
720.7928, 239.2598
721.2750, 180.1113
721.7571, 127.3701
722.2392, 113.2314
722.7213, 113.8311
723.2034, 117.3125
723.6855, 122.1406
724.1677, 135.1973
724.6498, 162.7715
725.1319, 188.6328
725.6140, 202.1787
726.0961, 202.9834
726.5782, 205.1738
727.0604, 211.1387
727.5425, 206.2188
728.0246, 152.3389
728.5067, 80.36621
728.9888, 60.26953
729.4709, 121.3857
729.9531, 185.1865
730.4352, 199.3125
730.9173, 186.9443
731.3994, 176.0322
731.8815, 181.7314
732.3636, 177.2588
732.8458, 149.7617
733.3279, 116.1963
733.8100, 111.3740
734.2921, 145.2666
734.7742, 157.6992
735.2563, 127.7529
735.7385, 76.57617
736.2206, 37.75195
736.7027, 14.97754
737.1848, 28.26953
737.6669, 142.4014
738.1490, 255.2764
738.6312, 254.6846
739.1133, 166.1826
739.5954, 90.66992
740.0775, 58.34766
740.5596, 51.71191
741.0417, 77.82227
741.5239, 133.4248
742.0060, 154.9395
742.4881, 128.1465
742.9702, 97.51172
743.4523, 84.71875
743.9344, 88.56445
744.4166, 105.1045
744.8987, 134.8184
745.3808, 161.6416
745.8629, 174.5439
746.3450, 175.5000
746.8271, 164.3906
747.3093, 139.8135
747.7914, 115.3008
748.2735, 3.197266
748.7556, 117.3154
749.2377, 182.1982
749.7198, 194.5557
750.2020, 1.636719
750.6841, 72.00000
751.1662, 37.66406
751.6483, 1.372070
752.1304, 109.7227
752.6125, 56.20605
753.0947, 52.72363
753.5768, 52.05273
754.0589, 101.6533
754.5410, 42.46094
755.0231, 16.38574
755.5052, 98.26953
755.9874, 119.1758
756.4695, 44.48828
756.9516, 93.27930
757.4337, 79.97559
757.9158, 111.7041
758.3979, 166.8018
758.8801, 193.6064
759.3622, 202.0537
759.8443, 217.6924
760.3264, 240.3965
760.8085, 254.7607
761.2906, 254.2061
761.7728, 242.3779
762.2549, 215.0967
762.7370, 177.6699
763.2191, 150.5732
763.7012, 148.5693
764.1833, 157.4531
764.6655, 182.9150
765.1476, 218.5498
765.6297, 217.9834
766.1118, 127.1729
766.5939, 51.10840
767.0760, 27.60547
767.5582, 54.43164
768.0403, 80.61816
768.5224, 109.0254
769.0045, 122.2881
769.4866, 96.40430
769.9688, 46.74902
770.4509, 9.240234
770.9330, 14.47461
771.4151, 30.01172
771.8972, 39.37793
772.3793, 45.29492
772.8615, 48.05957
773.3436, 46.29980
773.8257, 50.63477
774.3078, 51.18555
774.7899, 69.86523
775.2720, 127.5039
775.7542, 235.6172
776.2363, 313.2773
776.7184, 355.5029
777.2005, 386.3252
777.6826, 424.4268
778.1647, 470.9150
778.6469, 534.1230
779.1290, 618.0010
779.6111, 696.9932
780.0932, 754.5859
780.5753, 798.9150
781.0574, 834.3867
781.5396, 836.2871
782.0217, 879.1289
782.5038, 992.5000
782.9859, 1128.398
783.4680, 1239.293
783.9501, 1324.856
784.4323, 1387.490
784.9144, 1419.816
785.3965, 1450.014
785.8786, 1520.577
786.3607, 1619.022
786.8428, 1715.438
787.3250, 1796.499
787.8071, 1884.688
788.2892, 2005.466
788.7713, 2139.479
789.2534, 2260.854
789.7355, 2357.620
790.2177, 2445.779
790.6998, 2519.629
791.1819, 2588.905
791.6640, 2678.398
792.1461, 2789.631
792.6282, 2901.345
793.1104, 3015.733
793.5925, 3115.626
794.0746, 3157.483
794.5567, 3162.365
795.0388, 3193.450
795.5209, 3294.117
796.0031, 3410.741
796.4852, 3524.574
796.9672, 3634.282
797.4493, 3740.849
797.9315, 3859.154
798.4136, 3950.738
798.8957, 3996.410
799.3778, 4015.771
799.8599, 4061.600
800.3420, 4133.302
800.8242, 4229.445
801.3063, 4366.146
801.7884, 4510.593
802.2705, 4606.216
802.7526, 4664.713
803.2347, 4723.457
803.7169, 4803.967
804.1990, 4883.654
804.6811, 4955.088
805.1632, 5016.992
805.6453, 5066.414
806.1274, 5095.291
806.6096, 5127.131
807.0917, 5169.603
807.5738, 5219.973
808.0559, 5260.812
808.5380, 5295.273
809.0201, 5348.373
809.5023, 5467.320
809.9844, 5590.756
810.4665, 5630.084
810.9486, 5607.555
811.4307, 5607.146
811.9128, 5697.362
812.3950, 5781.311
812.8771, 5816.400
813.3592, 5807.576
813.8413, 5797.164
814.3234, 5778.502
814.8055, 5781.444
815.2877, 5832.314
815.7698, 5911.997
816.2519, 5935.557
816.7340, 5911.492
817.2161, 5893.654
817.6982, 5934.805
818.1804, 5980.585
818.6625, 5984.121
819.1446, 5947.424
819.6267, 5915.110
820.1088, 5882.631
820.5909, 5875.178
821.0731, 5912.698
821.5552, 5988.328
822.0373, 6013.012
822.5194, 5977.096
823.0015, 5962.780
823.4836, 6039.496
823.9658, 6174.137
824.4479, 6287.133
824.9300, 6380.148
825.4121, 6487.401
825.8942, 6689.857
826.3763, 6861.902
826.8585, 6910.814
827.3406, 6823.582
827.8227, 6783.043
828.3048, 6775.333
828.7869, 6842.699
829.2690, 7047.282
829.7512, 7358.485
830.2333, 7503.670
830.7154, 7488.047
831.1975, 7461.047
831.6796, 7535.768
832.1617, 7648.710
832.6439, 7726.232
833.1260, 7767.930
833.6081, 7824.320
834.0902, 7962.375
834.5723, 8069.186
835.0544, 8073.540
835.5366, 7978.232
836.0187, 7972.088
836.5008, 8075.481
836.9829, 8183.521
837.4650, 8219.354
837.9471, 8216.328
838.4293, 8289.461
838.9114, 8426.317
839.3935, 8512.695
839.8756, 8432.282
840.3577, 8314.194
840.8398, 8231.463
841.3220, 8189.871
841.8041, 8190.653
842.2862, 8253.260
842.7683, 8324.653
843.2504, 8387.693
843.7325, 8441.021
844.2147, 8470.409
844.6968, 8475.598
845.1789, 8479.641
845.6610, 8485.522
846.1431, 8505.451
846.6252, 8565.095
847.1074, 8659.559
847.5895, 8746.803
848.0716, 8786.646
848.5537, 8839.218
849.0358, 8936.643
849.5179, 9074.877
850.0001, 9195.245
850.4822, 9284.314
850.9643, 9398.985
851.4464, 9591.992
851.9285, 9830.807
852.4106, 9999.097
852.8928, 10116.35
853.3749, 10273.22
853.8570, 10524.36
854.3391, 10824.59
854.8212, 11175.76
855.3033, 11568.04
855.7855, 11896.73
856.2676, 12103.04
856.7497, 12339.09
857.2318, 12654.66
857.7139, 13029.71
858.1960, 13406.46
858.6782, 13788.73
859.1603, 14185.60
859.6424, 14624.24
860.1245, 15068.79
860.6066, 15460.10
861.0887, 15825.48
861.5709, 16230.87
862.0530, 16772.32
862.5351, 17272.54
863.0172, 17686.51
863.4993, 18029.20
863.9814, 18377.23
864.4636, 18735.71
864.9457, 19035.65
865.4278, 19250.98
865.9099, 19395.51
866.3920, 19494.89
866.8741, 19539.38
867.3563, 19505.99
867.8384, 19391.38
868.3205, 19190.02
868.8026, 18875.38
869.2847, 18475.46
869.7668, 18055.15
870.2490, 17621.88
870.7311, 17153.42
871.2132, 16646.13
871.6953, 16111.07
872.1774, 15585.09
872.6595, 15060.99
873.1417, 14512.43
873.6238, 13917.93
874.1059, 13306.07
874.5880, 12667.23
875.0701, 12038.19
875.5522, 11477.93
876.0344, 11073.30
876.5165, 10618.91
876.9986, 10069.18
877.4807, 9508.336
877.9628, 9064.437
878.4449, 8733.084
878.9271, 8389.732
879.4092, 8013.678
879.8913, 7624.789
880.3734, 7213.982
880.8555, 6815.309
881.3376, 6481.609
881.8198, 6266.303
882.3019, 6014.562
882.7840, 5647.029
883.2661, 5269.355
883.7482, 4974.634
884.2303, 4777.457
884.7125, 4542.869
885.1946, 4257.531
885.6767, 3976.068
886.1588, 3759.235
886.6409, 3584.351
887.1230, 3422.572
887.6052, 3273.230
888.0873, 3102.355
888.5694, 2858.015
889.0515, 2617.571
889.5336, 2429.381
890.0157, 2300.296
890.4979, 2182.258
890.9800, 2077.104
891.4621, 1978.554
891.9442, 1879.868
892.4263, 1784.917
892.9084, 1706.219
893.3906, 1642.114
893.8727, 1571.542
894.3548, 1467.993
894.8369, 1365.339
895.3190, 1297.256
895.8011, 1261.394
896.2833, 1175.727
896.7654, 1015.840
897.2475, 865.5352
897.7296, 767.5703
898.2117, 704.1992
898.6938, 622.5879
899.1760, 526.7080
899.6581, 440.2480
900.1402, 378.6299
900.6223, 327.4414
901.1044, 277.9336
901.5865, 231.0059
902.0687, 193.2559
902.5508, 173.4170
903.0329, 145.7178
903.5150, 102.2959
903.9971, 50.30859
904.4792, 7.269531
904.9614, 28.21484
905.4435, 63.09570
905.9256, 95.92480
906.4077, 136.4238
906.8898, 215.3457
907.3719, 301.3936
907.8540, 346.8633
908.3361, 289.2061
908.8182, 262.5820
909.3004, 286.3418
909.7825, 329.7656
910.2646, 360.3555
910.7467, 377.6455
911.2288, 367.7041
911.7109, 323.4873
912.1931, 282.4238
912.6752, 285.1826
913.1573, 308.5537
913.6394, 329.0400
914.1215, 346.2090
914.6036, 345.7295
915.0858, 317.5205
915.5679, 280.2686
916.0500, 246.4951
916.5321, 216.6816
917.0142, 169.2129
917.4963, 102.8662
917.9785, 40.26074
918.4606, 15.67676
918.9427, 6.228516
919.4248, 70.33398
919.9069, 176.3584
920.3890, 284.2363
920.8712, 358.9248
921.3533, 460.2148
921.8354, 621.4395
922.3175, 827.0156
922.7996, 987.3242
923.2817, 1100.886
923.7639, 1216.441
924.2460, 1349.270
924.7281, 1505.242
925.2102, 1714.309
925.6923, 1954.259
926.1744, 2169.412
926.6566, 2325.102
927.1387, 2466.714
927.6208, 2575.332
928.1029, 2692.553
928.5850, 2914.041
929.0671, 3248.953
929.5493, 3553.711
930.0314, 3803.585
930.5135, 4009.215
930.9956, 4140.869
931.4777, 4247.462
931.9598, 4404.711
932.4420, 4666.416
932.9241, 4902.994
933.4062, 5095.413
933.8883, 5243.806
934.3704, 5340.152
934.8525, 5377.908
935.3347, 5425.941
935.8168, 5487.796
936.2989, 5541.701
936.7810, 5580.080
937.2631, 5591.795
937.7452, 5557.037
938.2274, 5474.227
938.7095, 5373.953
939.1916, 5242.996
939.6737, 5121.204
940.1558, 5031.930
940.6379, 4969.773
941.1201, 4877.344
941.6022, 4753.742
942.0843, 4634.319
942.5664, 4531.674
943.0485, 4449.088
943.5306, 4397.312
944.0128, 4371.013
944.4949, 4355.393
944.9770, 4368.255
945.4591, 4361.287
945.9412, 4308.998
946.4233, 4243.451
946.9055, 4218.594
947.3876, 4234.500
947.8697, 4294.889
948.3518, 4409.307
948.8339, 4536.479
949.3160, 4611.695
949.7982, 4677.205
950.2803, 4793.205
950.7624, 4988.695
951.2445, 5197.295
951.7266, 5410.315
952.2087, 5631.457
952.6909, 5856.006
953.1730, 6084.102
953.6551, 6364.783
954.1372, 6697.423
954.6193, 7060.166
955.1014, 7438.843
955.5836, 7831.602
956.0657, 8226.908
956.5478, 8626.616
957.0299, 9074.363
957.5120, 9586.503
957.9941, 10128.87
958.4763, 10688.62
958.9584, 11266.46
959.4405, 11848.64
959.9226, 12439.15
960.4047, 13075.68
960.8868, 13790.59
961.3690, 14526.09
961.8511, 15240.93
962.3332, 15943.65
962.8153, 16664.61
963.2974, 17411.87
963.7795, 18182.10
964.2617, 19002.96
964.7438, 19813.00
965.2259, 20523.49
965.7080, 21145.75
966.1901, 21683.45
966.6722, 22123.61
967.1544, 22540.62
967.6365, 23048.38
968.1186, 23510.72
968.6007, 23799.77
969.0828, 23901.31
969.5649, 23910.47
970.0471, 23833.29
970.5292, 23644.21
971.0113, 23313.77
971.4934, 22864.90
971.9755, 22361.01
972.4576, 21797.60
972.9398, 21124.60
973.4219, 20218.46
973.9040, 19293.29
974.3861, 18442.26
974.8682, 17641.27
975.3503, 16813.39
975.8325, 15932.69
976.3146, 15087.59
976.7967, 14291.61
977.2788, 13533.34
977.7609, 12788.29
978.2430, 12057.18
978.7252, 11327.67
979.2073, 10575.35
979.6894, 9893.637
980.1715, 9382.937
980.6536, 8919.755
981.1357, 8421.134
981.6179, 7882.557
982.1000, 7348.213
982.5821, 6810.645
983.0642, 6320.619
983.5463, 5952.209
984.0284, 5633.393
984.5106, 5284.521
984.9927, 4907.480
985.4748, 4536.678
985.9569, 4173.020
986.4390, 3827.925
986.9211, 3500.135
987.4033, 3195.946
987.8854, 2932.045
988.3675, 2704.169
988.8496, 2473.416
989.3317, 2220.461
989.8138, 1978.277
990.2960, 1778.540
990.7781, 1604.077
991.2602, 1436.681
991.7423, 1253.237
992.2244, 1117.908
992.7065, 1048.955
993.1887, 989.7666
993.6708, 881.3438
994.1529, 741.1182
994.6350, 629.0137
995.1171, 546.1582
995.5992, 472.7949
996.0814, 396.5527
996.5635, 327.6729
997.0456, 271.6270
997.5277, 228.0469
998.0098, 196.9404
998.4919, 177.6123
998.9741, 175.5010
999.4562, 203.6416
999.9383, 230.3721
1000.420, 178.7275
1000.903, 91.62109
1001.385, 57.76758
1001.867, 142.5898
1002.349, 222.0869
1002.831, 279.0039
1003.313, 307.8301
1003.795, 278.9873
1004.277, 187.1572
1004.759, 211.5742
1005.242, 365.7217
1005.724, 526.2646
1006.206, 600.0303
1006.688, 630.8936
1007.170, 637.9902
1007.652, 628.4141
1008.134, 688.2266
1008.616, 869.4082
1009.099, 1037.848
1009.581, 1155.559
1010.063, 1234.841
1010.545, 1298.122
1011.027, 1351.889
1011.509, 1421.803
1011.991, 1527.443
1012.473, 1630.352
1012.955, 1724.041
1013.438, 1794.315
1013.920, 1824.765
1014.402, 1802.298
1014.884, 1788.770
1015.366, 1787.760
1015.848, 1782.367
1016.330, 1748.305
1016.812, 1704.342
1017.294, 1696.416
1017.777, 1719.106
1018.259, 1702.335
1018.741, 1586.979
1019.223, 1464.943
1019.705, 1364.573
1020.187, 1280.827
1020.669, 1192.202
1021.151, 1100.062
1021.633, 1021.817
1022.116, 966.6826
1022.598, 918.3740
1023.080, 860.6182
1023.562, 798.2695
1024.044, 738.9746
1024.526, 686.2529
1025.008, 623.9756
1025.490, 541.6582
1025.973, 471.1777
1026.455, 451.3613
1026.937, 462.7666
1027.419, 445.0283
1027.901, 397.6025
1028.383, 342.1914
1028.865, 264.5352
1029.347, 207.4502
1029.829, 206.8916
1030.312, 237.8184
1030.794, 233.7822
1031.276, 190.6191
1031.758, 169.0605
1032.240, 190.3730
1032.722, 217.6221
1033.204, 199.5723
1033.686, 168.1152
1034.169, 166.0381
1034.651, 215.5254
1035.133, 248.7832
1035.615, 253.0840
1036.097, 252.8398
1036.579, 253.7178
1037.061, 260.4531
1037.543, 320.8281
1038.026, 421.5391
1038.508, 482.3604
1038.990, 396.5166
1039.472, 327.2598
1039.954, 378.3887
1040.436, 497.4629
1040.918, 577.4023
1041.400, 614.5205
1041.882, 629.7598
1042.365, 622.4766
1042.847, 611.4014
1043.329, 612.3936
1043.811, 625.6523
1044.293, 652.5088
1044.775, 693.9639
1045.257, 742.2139
1045.739, 800.1797
1046.221, 857.5596
1046.704, 910.0322
1047.186, 957.7959
1047.668, 998.8545
1048.150, 1035.783
1048.632, 1081.624
1049.114, 1149.646
1049.596, 1218.829
1050.078, 1287.460
1050.561, 1345.060
1051.043, 1370.156
1051.525, 1339.975
1052.007, 1381.181
1052.489, 1508.791
1052.971, 1654.714
1053.453, 1765.811
1053.935, 1851.311
1054.417, 1919.599
1054.900, 1971.083
1055.382, 2011.675
1055.864, 2025.142
1056.346, 2056.073
1056.828, 2125.506
1057.310, 2210.655
1057.792, 2267.885
1058.274, 2296.672
1058.756, 2287.753
1059.239, 2224.949
1059.721, 2159.465
1060.203, 2132.076
1060.685, 2113.053
1061.167, 2078.544
1061.649, 2030.789
1062.131, 1937.443
1062.613, 1792.100
1063.096, 1664.220
1063.578, 1616.282
1064.060, 1590.941
1064.542, 1523.093
1065.024, 1426.264
1065.506, 1335.675
1065.988, 1260.608
1066.470, 1171.244
1066.953, 1054.123
1067.435, 942.7441
1067.917, 894.5566
1068.399, 891.3281
1068.881, 879.6035
1069.363, 853.3994
1069.845, 800.8975
1070.327, 688.3320
1070.809, 573.8945
1071.292, 486.6133
1071.774, 424.3066
1072.256, 378.4766
1072.738, 350.3652
1073.220, 322.3057
1073.702, 290.2432
1074.184, 250.2334
1074.666, 187.1738
1075.148, 118.9258
1075.630, 74.08594
1076.113, 78.09863
1076.595, 58.67285
1077.077, 8.627930
1077.559, 44.09766
1078.041, 73.07617
1078.523, 87.25781
1079.005, 115.4678
1079.487, 154.4219
1079.970, 175.6846
1080.452, 145.8447
1080.934, 120.9424
1081.416, 126.3096
1081.898, 137.9395
1082.380, 97.75586
1082.862, 15.20605
1083.344, 10.21094
1083.827, 42.59082
1084.309, 104.7793
1084.791, 135.9482
1085.273, 144.5918
1085.755, 127.3232
1086.237, 85.05078
1086.719, 63.43945
1087.201, 67.61230
1087.683, 75.61621
1088.166, 78.45020
1088.648, 74.14160
1089.130, 51.30957
1089.612, 22.62891
1090.094, 12.70898
1090.576, 49.05078
1091.058, 66.34766
1091.540, 49.78809
1092.022, 30.89551
1092.505, 45.85449
1092.987, 79.17285
1093.469, 72.80566
1093.951, 29.59473
1094.433, 25.78516
1094.915, 111.2061
1095.397, 169.0625
1095.879, 154.4355
1096.362, 112.9072
1096.844, 133.4600
1097.326, 214.2617
1097.808, 240.1660
1098.290, 186.8662
1098.772, 136.6982
1099.254, 175.4863
1099.736, 235.5381
1100.219, 259.0439
1100.701, 242.3096
1101.183, 230.1279
1101.665, 223.9434
1102.147, 215.2412
1102.629, 195.5996
1103.111, 180.5869
1103.593, 207.7051
1104.075, 251.8154
1104.557, 269.1064
1105.040, 233.8184
1105.522, 204.9629
1106.004, 185.2090
1106.486, 176.3193
1106.968, 188.1299
1107.450, 209.7002
1107.932, 195.6201
1108.414, 153.8594
1108.897, 117.0352
1109.379, 101.4453
1109.861, 94.32227
1110.343, 97.84766
1110.825, 102.9648
1111.307, 93.32227
1111.789, 70.65527
1112.271, 73.91895
1112.754, 107.4121
1113.236, 128.6162
1113.718, 87.33496
1114.200, 37.56348
1114.682, 21.37109
1115.164, 32.45215
1115.646, 28.41602
1116.128, 4.225586
1116.610, 1.094727
1117.093, 35.58496
1117.575, 75.31152
1118.057, 83.88184
1118.539, 73.73242
1119.021, 59.76660
1119.503, 44.98535
1119.985, 19.27344
1120.467, 30.96484
1120.949, 54.19336
1121.432, 4.477539
1121.914, 69.71387
1122.396, 43.96191
1122.878, 39.12109
1123.360, 75.73047
1123.842, 2.465820
1124.324, 81.30957
1124.806, 150.9678
1125.289, 204.8877
1125.771, 236.9902
1126.253, 247.6963
1126.735, 233.7939
1127.217, 198.1309
1127.699, 164.2070
1128.181, 134.0996
1128.663, 121.4863
1129.146, 145.6416
1129.628, 183.7559
1130.110, 198.3984
1130.592, 189.9844
1131.074, 185.3594
1131.556, 188.2129
1132.038, 193.2461
1132.520, 197.5850
1133.002, 201.7910
1133.484, 205.7598
1133.967, 210.2334
1134.449, 221.9600
1134.931, 245.0947
1135.413, 242.8975
1135.895, 193.7549
1136.377, 149.9873
1136.859, 192.1973
1137.341, 262.8809
1137.824, 289.8633
1138.306, 252.3701
1138.788, 219.7842
1139.270, 186.8828
1139.752, 171.6416
1140.234, 194.1846
1140.716, 234.5117
1141.198, 249.8018
1141.681, 248.3223
1142.163, 250.8789
1142.645, 293.6475
1143.127, 287.7559
1143.609, 198.4854
1144.091, 119.5781
1144.573, 154.6426
1145.055, 253.9824
1145.537, 244.0664
1146.020, 143.5752
1146.502, 58.70020
1146.984, 16.05078
1147.466, 31.29004
1147.948, 137.3164
1148.430, 261.6895
1148.912, 309.9395
1149.394, 294.0986
1149.876, 276.9658
1150.359, 262.5537
1150.841, 254.8027
1151.323, 263.6533
1151.805, 279.7812
1152.287, 298.6699
1152.769, 317.0859
1153.251, 338.3164
1153.733, 361.5889
1154.216, 355.2354
1154.698, 303.2012
1155.180, 278.2236
1155.662, 381.2822
1156.144, 502.9219
1156.626, 542.3359
1157.108, 508.3662
1157.590, 502.9639
1158.073, 530.1729
1158.555, 518.7666
1159.037, 417.2988
1159.519, 321.7500
1160.001, 358.9307
1160.483, 445.9395
1160.965, 475.1846
1161.447, 422.0244
1161.929, 390.7090
1162.411, 385.4580
1162.894, 377.7266
1163.376, 337.9219
1163.858, 299.3574
1164.340, 321.3213
1164.822, 374.4766
1165.304, 400.1348
1165.786, 362.7090
1166.268, 347.4912
1166.751, 359.5283
1167.233, 379.1689
1167.715, 397.4863
1168.197, 409.8721
1168.679, 384.7041
1169.161, 341.9434
1169.643, 358.2832
1170.125, 555.6270
1170.608, 654.5830
1171.090, 601.1631
1171.572, 496.6191
1172.054, 453.1348
1172.536, 455.2881
1173.018, 485.2822
1173.500, 535.4199
1173.982, 552.6670
1174.464, 487.3291
1174.947, 429.6631
1175.429, 394.3750
1175.911, 382.2031
1176.393, 410.8447
1176.875, 463.1709
1177.357, 491.7578
1177.839, 487.6357
1178.321, 467.7598
1178.803, 418.1182
1179.286, 389.0059
1179.768, 403.9258
1180.250, 442.1543
1180.732, 465.4453
1181.214, 473.5225
1181.696, 459.8213
1182.178, 410.2441
1182.660, 370.0596
1183.142, 366.2422
1183.625, 371.0977
1184.107, 370.5459
1184.589, 365.4707
1185.071, 358.1572
1185.553, 350.8955
1186.035, 358.7236
1186.517, 402.7793
1186.999, 436.1406
1187.482, 428.0342
1187.964, 404.3369
1188.446, 383.6719
1188.928, 366.2881
1189.410, 355.3164
1189.892, 350.0820
1190.374, 343.2246
1190.856, 318.6279
1191.339, 305.4053
1191.821, 334.1533
1192.303, 371.6416
1192.785, 379.0859
1193.267, 355.1719
1193.749, 323.2432
1194.231, 285.3779
1194.713, 276.2305
1195.195, 367.3916
1195.677, 439.9824
1196.160, 400.1562
1196.642, 303.6943
1197.124, 234.7227
1197.606, 193.1426
1198.088, 213.6338
1198.570, 299.9316
1199.052, 381.2852
1199.534, 415.4336
1200.017, 415.7637
1200.499, 374.3604
1200.981, 309.3018
1201.463, 262.7539
1201.945, 234.3496
1202.427, 217.8320
1202.909, 212.1406
1203.391, 220.3896
1203.874, 269.3730
1204.356, 310.6729
1204.838, 291.5908
1205.320, 233.0254
1205.802, 228.8496
1206.284, 280.8779
1206.766, 312.2197
1207.248, 302.0254
1207.730, 283.4785
1208.213, 286.3916
1208.695, 294.0576
1209.177, 292.8848
1209.659, 283.0840
1210.141, 262.9805
1210.623, 231.5459
1211.105, 220.8770
1211.587, 240.6426
1212.069, 274.5010
1212.552, 322.4121
1213.034, 364.0371
1213.516, 381.5068
1213.998, 375.4492
1214.480, 335.2217
1214.962, 259.0654
1215.444, 201.1055
1215.926, 192.1113
1216.409, 191.4951
1216.891, 151.8525
1217.373, 110.0889
1217.855, 111.9961
1218.337, 161.9434
1218.819, 194.4697
1219.301, 209.1787
1219.783, 215.3457
1220.266, 216.1816
1220.748, 212.8447
1221.230, 205.7188
1221.712, 194.5996
1222.194, 177.1641
1222.676, 151.7803
1223.158, 120.8457
1223.640, 83.76758
1224.122, 74.11914
1224.604, 153.0576
1225.087, 227.1045
1225.569, 207.1816
1226.051, 151.6367
1226.533, 154.1836
1227.015, 229.0723
1227.497, 235.5732
1227.979, 172.3135
1228.461, 114.8486
1228.944, 117.8105
1229.426, 141.0264
1229.908, 166.1436
1230.390, 190.1621
1230.872, 210.9766
1231.354, 229.6895
1231.836, 231.7891
1232.318, 216.5947
1232.801, 188.6396
1233.283, 129.9277
1233.765, 80.57715
1234.247, 69.06738
1234.729, 83.28418
1235.211, 106.4756
1235.693, 138.6973
1236.175, 169.1338
1236.657, 196.1729
1237.140, 213.6914
1237.622, 208.6768
1238.104, 199.7920
1238.586, 203.4092
1239.068, 209.8906
1239.550, 201.9277
1240.032, 180.2695
1240.514, 143.6484
1240.996, 92.14941
1241.479, 68.97949
1241.961, 141.3652
1242.443, 203.3018
1242.925, 202.2373
1243.407, 158.1348
1243.889, 83.61133
1244.371, 7.266602
1244.853, 6.110352
1245.336, 142.5918
1245.818, 248.9385
1246.300, 207.5713
1246.782, 147.1484
1247.264, 111.7598
1247.746, 101.7695
1248.228, 137.2539
1248.710, 202.6250
1249.193, 215.0742
1249.675, 157.4971
1250.157, 122.5420
1250.639, 191.6553
1251.121, 243.2168
1251.603, 233.2012
1252.085, 185.8281
1252.567, 137.0869
1253.049, 94.97363
1253.531, 86.92090
1254.014, 122.5801
1254.496, 148.2041
1254.978, 139.9414
1255.460, 124.9268
1255.942, 104.8701
1256.424, 91.22070
1256.906, 128.7627
1257.388, 187.5303
1257.871, 200.3447
1258.353, 146.8711
1258.835, 106.0732
1259.317, 93.03418
1259.799, 90.61230
1260.281, 99.48340
1260.763, 104.4092
1261.245, 65.66406
1261.728, 7.398438
1262.210, 20.09570
1262.692, 4.503906
1263.174, 3.620117
1263.656, 0.8417970
1264.138, 3.868164
1264.620, 0.3720700
1265.102, 8.278320
1265.584, 13.12891
1266.067, 18.87988
1266.549, 35.87109
1267.031, 70.00488
1267.513, 64.82910
1267.995, 9.538086
1268.477, 21.78125
1268.959, 9.038086
1269.441, 56.89941
1269.923, 76.69727
1270.406, 76.23828
1270.888, 80.23438
1271.370, 86.24316
1271.852, 75.75879
1272.334, 47.16016
1272.816, 45.49219
1273.298, 106.4912
1273.780, 147.0957
1274.263, 129.3906
1274.745, 88.75781
1275.227, 73.83105
1275.709, 82.40918
1276.191, 69.10742
1276.673, 37.64844
1277.155, 11.38086
1277.637, 0.1552730
1278.120, 0.0000000E+00
##END=



