##NAMES=Phlogopite
##RRUFFID=R070330
##IDEAL CHEMISTRY=KMg_3_(Si_3_Al)O_10_(OH)_2_
##LOCALITY=Little Chief mine, Whitehorse, Yukon Territory, Canada
##OWNER=RRUFF
##SOURCE=Mark Mauthner
##DESCRIPTION=Green micaceous
##STATUS=The identification of this mineral has been confirmed by X-ray diffraction and chemical analysis
##URL=rruff.info/R070330
##MEASURED CHEMISTRY=gray phase: K_1.00_(Mg_2.65_Fe^2+^_0.34_Ti_0.01_)_Σ=3_(Si_2.98_Al_1.02_)O_10_((OH)_1.77_F_0.23_)_Σ=2_; trace amounts of Mn; OH by charge balance; light phase is diopside: Ca_1.00_(Mg_0.96_Fe_0.04_)_Σ=1_Si_2.00_O_6_; dark phase: Mg-rich chlorite
164.6075, 0.0000000E+00
165.0896, 8.486328
165.5717, 6.103027
166.0538, 0.9648440
166.5359, 2.469482
167.0180, 0.5793460
167.5002, 3.452881
167.9823, 10.02661
168.4644, 19.73145
168.9465, 32.63159
169.4286, 47.04663
169.9107, 63.91211
170.3929, 81.27759
170.8750, 95.75317
171.3571, 98.70557
171.8392, 100.4932
172.3213, 112.1648
172.8034, 135.4177
173.2856, 166.7861
173.7677, 209.0422
174.2498, 258.6968
174.7319, 302.9980
175.2140, 329.9961
175.6961, 347.8801
176.1783, 367.3613
176.6604, 387.1245
177.1425, 414.2949
177.6246, 462.6829
178.1067, 529.1367
178.5888, 596.8433
179.0710, 651.6958
179.5531, 697.8950
180.0352, 743.2239
180.5173, 787.7964
180.9994, 833.7764
181.4815, 879.6042
181.9637, 926.1272
182.4458, 984.2207
182.9279, 1071.994
183.4100, 1182.097
183.8921, 1287.009
184.3742, 1372.675
184.8564, 1450.853
185.3385, 1546.352
185.8206, 1660.756
186.3027, 1785.800
186.7848, 1917.842
187.2669, 2055.613
187.7491, 2194.235
188.2312, 2331.790
188.7133, 2468.139
189.1954, 2610.057
189.6775, 2759.644
190.1596, 2901.270
190.6418, 3020.252
191.1239, 3115.980
191.6060, 3189.827
192.0881, 3250.002
192.5702, 3292.984
193.0524, 3285.654
193.5345, 3224.882
194.0166, 3122.611
194.4987, 2992.707
194.9808, 2832.254
195.4629, 2657.521
195.9451, 2470.450
196.4272, 2269.509
196.9093, 2089.895
197.3914, 1940.854
197.8735, 1808.942
198.3556, 1667.623
198.8378, 1513.855
199.3199, 1365.588
199.8020, 1238.020
200.2841, 1133.335
200.7662, 1038.265
201.2483, 955.7295
201.7305, 883.6995
202.2126, 810.4744
202.6947, 740.6355
203.1768, 674.0225
203.6589, 617.4956
204.1410, 575.4502
204.6232, 538.9624
205.1053, 508.7893
205.5874, 485.1238
206.0695, 465.1399
206.5516, 448.5491
207.0337, 432.2820
207.5159, 414.1909
207.9980, 393.5759
208.4801, 366.8193
208.9622, 334.7822
209.4443, 302.1331
209.9264, 275.9714
210.4086, 244.6345
210.8907, 216.0574
211.3728, 201.3940
211.8549, 207.4927
212.3370, 204.5837
212.8191, 184.6414
213.3013, 151.5132
213.7834, 139.2561
214.2655, 157.4473
214.7476, 181.1665
215.2297, 188.0063
215.7118, 172.1904
216.1940, 155.6597
216.6761, 142.1553
217.1582, 131.4849
217.6403, 120.1323
218.1224, 107.3516
218.6045, 95.00684
219.0867, 84.69971
219.5688, 76.19336
220.0509, 70.50439
220.5330, 68.45117
221.0151, 70.13232
221.4972, 72.39893
221.9794, 78.62305
222.4615, 82.44238
222.9436, 72.93994
223.4257, 38.12891
223.9078, 15.30518
224.3899, 17.98535
224.8721, 49.39404
225.3542, 64.04883
225.8363, 55.63770
226.3184, 36.61035
226.8005, 20.07031
227.2827, 2.520996
227.7648, 5.310059
228.2469, 2.060059
228.7290, 27.37109
229.2111, 46.75586
229.6932, 61.38965
230.1754, 68.89746
230.6575, 64.54590
231.1396, 39.76709
231.6217, 18.15234
232.1038, 5.056152
232.5859, 0.1811520
233.0681, 7.250000
233.5502, 36.42236
234.0323, 70.19824
234.5144, 81.67432
234.9965, 56.62598
235.4786, 33.18555
235.9608, 24.64990
236.4429, 36.37891
236.9250, 37.54834
237.4071, 21.27979
237.8892, 1.315918
238.3713, 11.72656
238.8535, 1.886719
239.3356, 6.519043
239.8177, 4.778809
240.2998, 12.81006
240.7819, 17.99414
241.2640, 3.601074
241.7462, 19.17334
242.2283, 30.52979
242.7104, 24.51709
243.1925, 16.76904
243.6746, 12.19482
244.1567, 12.19141
244.6389, 10.69287
245.1210, 7.726563
245.6031, 3.263672
246.0852, 3.003906
246.5673, 12.19727
247.0494, 21.31299
247.5316, 29.66016
248.0137, 37.85791
248.4958, 43.13477
248.9779, 45.04102
249.4600, 44.25195
249.9421, 42.25146
250.4243, 39.90234
250.9064, 34.73730
251.3885, 25.22363
251.8706, 9.494141
252.3527, 5.462402
252.8348, 23.31006
253.3170, 38.15869
253.7991, 35.80957
254.2812, 4.692383
254.7633, 21.45020
255.2454, 28.40625
255.7275, 10.02979
256.2097, 5.314453
256.6918, 18.37012
257.1739, 27.69775
257.6560, 29.08203
258.1381, 16.97705
258.6202, 8.419922
259.1024, 10.93555
259.5845, 27.66455
260.0666, 42.10938
260.5487, 53.64307
261.0308, 63.31689
261.5129, 73.19141
261.9951, 82.19580
262.4772, 93.73975
262.9593, 110.9902
263.4414, 137.3726
263.9235, 152.2261
264.4056, 149.6289
264.8878, 141.2227
265.3699, 149.7148
265.8520, 181.8896
266.3341, 211.9043
266.8162, 227.7329
267.2983, 225.5312
267.7805, 233.3613
268.2626, 254.0269
268.7447, 281.5928
269.2268, 306.5889
269.7089, 329.0332
270.1910, 348.7026
270.6732, 365.0498
271.1553, 377.5566
271.6374, 389.9326
272.1195, 400.3169
272.6016, 413.3486
273.0837, 438.3120
273.5659, 478.1421
274.0480, 515.4854
274.5301, 543.8086
275.0122, 562.7007
275.4943, 579.2222
275.9764, 593.1265
276.4586, 605.1265
276.9407, 615.4326
277.4228, 623.4492
277.9049, 633.4482
278.3870, 650.1631
278.8691, 672.8291
279.3513, 683.0215
279.8334, 679.1987
280.3155, 666.8628
280.7976, 652.0449
281.2798, 634.7593
281.7619, 616.4067
282.2440, 598.5542
282.7261, 580.9478
283.2082, 560.9502
283.6903, 539.1533
284.1725, 512.7705
284.6546, 475.4253
285.1367, 427.5029
285.6188, 380.7104
286.1009, 339.6133
286.5830, 304.1016
287.0652, 271.9336
287.5473, 243.0542
288.0294, 218.7373
288.5115, 203.5298
288.9936, 196.0679
289.4757, 184.8940
289.9579, 160.7197
290.4400, 131.3833
290.9221, 122.6191
291.4042, 136.1772
291.8863, 150.6709
292.3684, 144.2700
292.8506, 120.3828
293.3327, 93.35742
293.8148, 63.45703
294.2969, 35.64648
294.7790, 20.55420
295.2611, 17.99023
295.7433, 17.79248
296.2254, 11.67285
296.7075, 2.785156
297.1896, 3.637695
297.6717, 5.646973
298.1538, 6.783203
298.6360, 10.58936
299.1181, 15.57666
299.6002, 18.81445
300.0823, 21.98486
300.5644, 22.58350
301.0465, 14.05762
301.5287, 12.11914
302.0108, 39.84277
302.4929, 49.41260
302.9750, 42.91602
303.4571, 31.79883
303.9392, 15.58887
304.4214, 1.532715
304.9035, 2.054688
305.3856, 29.90869
305.8677, 57.12646
306.3498, 53.82129
306.8319, 27.67139
307.3141, 5.259766
307.7962, 6.464355
308.2783, 17.19189
308.7604, 23.41846
309.2425, 19.78857
309.7246, 17.50391
310.2068, 25.61035
310.6889, 40.41943
311.1710, 52.69922
311.6531, 49.55957
312.1352, 46.51953
312.6173, 56.47559
313.0995, 87.10449
313.5816, 120.2959
314.0637, 151.3022
314.5458, 177.7129
315.0279, 195.8403
315.5100, 200.8013
315.9922, 199.3140
316.4743, 191.1147
316.9564, 172.0327
317.4385, 166.0757
317.9206, 188.2695
318.4027, 226.1538
318.8849, 262.3135
319.3670, 300.5923
319.8491, 328.8716
320.3312, 337.3350
320.8133, 320.4126
321.2954, 314.1304
321.7776, 334.3110
322.2597, 365.1182
322.7418, 389.6763
323.2239, 401.3501
323.7060, 410.7607
324.1881, 420.8228
324.6703, 431.9639
325.1524, 439.4233
325.6345, 430.2231
326.1166, 423.8018
326.5987, 435.9976
327.0808, 494.1162
327.5630, 538.6719
328.0451, 556.8511
328.5272, 550.2202
329.0093, 553.0889
329.4914, 571.1821
329.9735, 593.3569
330.4557, 611.9639
330.9378, 621.6699
331.4199, 637.8120
331.9020, 667.1099
332.3841, 704.7686
332.8662, 725.3193
333.3484, 716.5308
333.8305, 708.8164
334.3126, 721.2764
334.7947, 763.3862
335.2768, 794.9595
335.7589, 809.4185
336.2411, 814.7261
336.7232, 833.2529
337.2053, 869.7466
337.6874, 905.1406
338.1695, 930.3384
338.6516, 944.0283
339.1338, 955.0522
339.6159, 960.2241
340.0980, 967.8574
340.5801, 994.3965
341.0622, 1042.238
341.5443, 1090.691
342.0265, 1135.520
342.5086, 1175.498
342.9907, 1199.319
343.4728, 1203.307
343.9549, 1204.646
344.4370, 1227.423
344.9192, 1269.333
345.4013, 1308.307
345.8834, 1332.303
346.3655, 1347.875
346.8476, 1372.200
347.3297, 1405.677
347.8119, 1443.486
348.2940, 1487.043
348.7761, 1531.911
349.2582, 1562.875
349.7403, 1570.002
350.2225, 1568.023
350.7046, 1579.040
351.1867, 1601.595
351.6688, 1623.420
352.1509, 1640.625
352.6331, 1650.256
353.1152, 1645.864
353.5973, 1619.830
354.0794, 1591.145
354.5615, 1580.579
355.0436, 1582.000
355.5258, 1577.200
356.0079, 1556.535
356.4900, 1525.008
356.9721, 1486.396
357.4542, 1440.798
357.9363, 1390.005
358.4185, 1324.643
358.9006, 1256.315
359.3827, 1204.574
359.8648, 1198.545
360.3469, 1193.251
360.8290, 1162.871
361.3112, 1101.689
361.7933, 1040.268
362.2754, 976.5771
362.7575, 921.5928
363.2396, 887.1206
363.7217, 916.8643
364.2039, 926.8271
364.6860, 882.5430
365.1681, 782.7490
365.6502, 703.2803
366.1323, 665.8623
366.6144, 642.8701
367.0966, 615.3242
367.5787, 585.2778
368.0608, 547.3511
368.5429, 492.4243
369.0250, 426.3813
369.5071, 380.8413
369.9893, 365.6255
370.4714, 359.5073
370.9535, 354.0469
371.4356, 354.5527
371.9177, 342.4609
372.3998, 310.3369
372.8820, 269.0581
373.3641, 244.1206
373.8462, 240.7046
374.3283, 240.4604
374.8104, 239.5420
375.2925, 239.2212
375.7747, 218.2979
376.2568, 167.6494
376.7389, 114.1514
377.2210, 100.9897
377.7031, 131.5430
378.1852, 152.9009
378.6674, 142.2773
379.1495, 109.8711
379.6316, 102.8462
380.1137, 123.6362
380.5958, 148.1514
381.0779, 152.1621
381.5601, 139.6230
382.0422, 130.0156
382.5243, 128.8760
383.0064, 131.1035
383.4885, 126.6152
383.9706, 116.5269
384.4528, 109.2427
384.9349, 110.2158
385.4170, 117.7710
385.8991, 130.9580
386.3812, 152.1704
386.8633, 171.1523
387.3455, 176.2461
387.8276, 171.7139
388.3097, 167.3901
388.7918, 164.8857
389.2739, 166.7344
389.7560, 175.4443
390.2382, 191.4434
390.7203, 211.4585
391.2024, 238.3779
391.6845, 266.6768
392.1666, 290.3403
392.6487, 309.2124
393.1309, 321.0913
393.6130, 325.8340
394.0951, 323.2847
394.5772, 311.0103
395.0593, 275.3931
395.5414, 238.0620
396.0236, 212.9165
396.5057, 224.5820
396.9878, 221.4360
397.4699, 188.9512
397.9520, 136.9023
398.4341, 96.28613
398.9163, 71.90723
399.3984, 54.09131
399.8805, 40.45801
400.3626, 33.42285
400.8447, 23.09424
401.3268, 6.956055
401.8090, 10.60449
402.2911, 24.64502
402.7732, 36.87256
403.2553, 40.36035
403.7374, 29.93994
404.2195, 6.794922
404.7017, 6.816895
405.1838, 9.082520
405.6659, 6.733887
406.1480, 4.561523
406.6301, 2.514648
407.1122, 3.864258
407.5944, 10.83594
408.0765, 19.86230
408.5586, 21.00732
409.0407, 14.79150
409.5228, 9.115234
410.0049, 7.193848
410.4871, 9.783203
410.9692, 19.03076
411.4513, 36.04541
411.9334, 56.27637
412.4155, 80.43164
412.8976, 105.3452
413.3798, 120.3535
413.8619, 109.1953
414.3440, 90.38916
414.8261, 81.72266
415.3082, 83.83496
415.7903, 95.50781
416.2725, 123.0845
416.7546, 157.5645
417.2367, 188.5054
417.7188, 217.6826
418.2009, 234.9146
418.6830, 226.3667
419.1652, 200.6250
419.6473, 187.2212
420.1294, 202.6523
420.6115, 227.5752
421.0937, 253.8047
421.5758, 284.2520
422.0579, 306.2480
422.5400, 314.3657
423.0221, 312.9697
423.5042, 309.3911
423.9864, 295.3774
424.4685, 289.3794
424.9506, 301.9600
425.4327, 336.3506
425.9148, 345.3530
426.3969, 312.0845
426.8791, 274.1777
427.3612, 265.4653
427.8433, 298.7637
428.3254, 328.3252
428.8075, 350.9189
429.2896, 364.1567
429.7718, 354.2637
430.2539, 316.1606
430.7360, 281.7705
431.2181, 275.2119
431.7002, 293.9844
432.1823, 299.8750
432.6645, 288.6958
433.1466, 272.2778
433.6287, 269.6772
434.1108, 277.5591
434.5929, 278.8936
435.0750, 258.8740
435.5572, 231.2847
436.0393, 221.3467
436.5214, 228.4863
437.0035, 240.5786
437.4856, 255.1880
437.9677, 266.7158
438.4499, 266.1416
438.9320, 245.8652
439.4141, 222.0210
439.8962, 205.5830
440.3783, 194.5518
440.8604, 183.3169
441.3426, 163.9863
441.8247, 148.0156
442.3068, 143.2881
442.7889, 152.8892
443.2710, 162.9224
443.7531, 174.8472
444.2353, 183.2837
444.7174, 182.4922
445.1995, 151.5044
445.6816, 133.3271
446.1637, 144.9116
446.6458, 181.9053
447.1280, 197.3037
447.6101, 172.5337
448.0922, 146.6147
448.5743, 143.2959
449.0564, 176.4185
449.5385, 194.5112
450.0207, 192.0630
450.5028, 177.8438
450.9849, 167.1001
451.4670, 159.9312
451.9491, 156.0083
452.4312, 153.6187
452.9134, 153.8252
453.3955, 169.6460
453.8776, 203.7778
454.3597, 233.9668
454.8418, 223.5845
455.3239, 186.3730
455.8061, 184.8096
456.2882, 249.5825
456.7703, 330.2471
457.2524, 354.5889
457.7345, 331.4678
458.2166, 297.0796
458.6988, 266.3677
459.1809, 239.0283
459.6630, 216.2617
460.1451, 198.5015
460.6272, 179.9590
461.1093, 150.9277
461.5915, 121.5405
462.0736, 104.7075
462.5557, 121.4434
463.0378, 134.1426
463.5199, 126.9336
464.0020, 101.9673
464.4842, 76.43408
464.9663, 48.84570
465.4484, 25.50635
465.9305, 9.533203
466.4126, 1.108887
466.8947, 0.1816410
467.3769, 9.702637
467.8590, 24.91602
468.3411, 37.26318
468.8232, 50.39844
469.3053, 52.42725
469.7874, 35.72949
470.2696, 1.947266
470.7517, 17.42236
471.2338, 19.62109
471.7159, 15.86816
472.1980, 14.04492
472.6801, 14.19629
473.1623, 19.20264
473.6444, 32.23828
474.1265, 44.93457
474.6086, 38.88037
475.0907, 17.06396
475.5728, 1.196777
476.0550, 2.426758
476.5371, 5.262207
477.0192, 8.412109
477.5013, 6.520020
477.9834, 5.418945
478.4655, 12.88428
478.9477, 22.84766
479.4298, 27.18018
479.9119, 20.84961
480.3940, 11.71289
480.8761, 2.412598
481.3582, 6.651855
481.8404, 14.17334
482.3225, 22.66943
482.8046, 27.08838
483.2867, 21.00000
483.7688, 4.886230
484.2509, 10.75391
484.7331, 25.44971
485.2152, 73.54346
485.6973, 106.5322
486.1794, 119.7808
486.6615, 124.9443
487.1436, 118.3228
487.6258, 104.6318
488.1079, 108.3892
488.5900, 135.2207
489.0721, 163.9316
489.5542, 182.1489
490.0363, 189.8672
490.5185, 199.5112
491.0006, 211.2812
491.4827, 225.0581
491.9648, 244.6245
492.4470, 267.6836
492.9291, 280.1074
493.4112, 269.5630
493.8933, 252.0137
494.3754, 254.0474
494.8575, 273.0869
495.3397, 292.7075
495.8218, 302.3491
496.3039, 307.0435
496.7860, 311.0068
497.2681, 313.7422
497.7502, 320.6265
498.2324, 338.3721
498.7145, 360.9307
499.1966, 380.4507
499.6787, 399.3193
500.1608, 409.8218
500.6429, 404.4795
501.1251, 384.7183
501.6072, 373.0718
502.0893, 370.4331
502.5714, 376.6743
503.0535, 393.6416
503.5356, 430.7334
504.0178, 455.7246
504.4999, 465.7173
504.9820, 465.9370
505.4641, 462.1450
505.9462, 452.4639
506.4283, 448.9111
506.9105, 457.1362
507.3926, 473.6479
507.8747, 484.3594
508.3568, 489.0688
508.8389, 492.3184
509.3210, 500.3794
509.8032, 509.6934
510.2853, 507.4087
510.7674, 488.6357
511.2495, 472.3877
511.7316, 487.7983
512.2137, 519.7144
512.6959, 537.1128
513.1780, 511.0981
513.6601, 479.7598
514.1422, 468.0688
514.6243, 474.0073
515.1064, 482.2861
515.5886, 485.5908
516.0707, 488.6602
516.5528, 494.6069
517.0349, 501.7012
517.5170, 516.1304
517.9991, 551.7085
518.4813, 589.6943
518.9634, 605.2534
519.4455, 585.8076
519.9276, 565.3667
520.4097, 549.5791
520.8918, 539.5742
521.3740, 532.3843
521.8561, 524.5781
522.3382, 523.8687
522.8203, 542.3877
523.3024, 578.0464
523.7845, 595.8511
524.2667, 591.5762
524.7488, 577.0132
525.2309, 563.7603
525.7130, 551.6870
526.1951, 541.1938
526.6772, 527.2842
527.1594, 519.7026
527.6415, 541.7041
528.1236, 587.0444
528.6057, 616.2886
529.0878, 594.3223
529.5699, 552.2549
530.0521, 510.3828
530.5342, 469.0488
531.0163, 446.9458
531.4984, 463.5454
531.9805, 494.2964
532.4626, 514.5518
532.9448, 516.5161
533.4269, 515.0767
533.9090, 508.9858
534.3911, 499.0137
534.8732, 490.2266
535.3553, 481.7607
535.8375, 478.5566
536.3196, 483.0781
536.8017, 497.3164
537.2838, 500.7148
537.7659, 490.7090
538.2480, 481.6870
538.7302, 491.7510
539.2123, 517.8066
539.6944, 540.3804
540.1765, 553.2329
540.6586, 564.2437
541.1407, 589.5649
541.6229, 623.9990
542.1050, 650.3799
542.5871, 651.2041
543.0692, 644.6846
543.5513, 649.8604
544.0334, 667.5684
544.5156, 684.7759
544.9977, 691.3105
545.4798, 697.1812
545.9619, 710.6226
546.4440, 741.8979
546.9261, 767.8140
547.4083, 783.5654
547.8904, 792.3223
548.3725, 800.1641
548.8546, 812.6113
549.3367, 814.8037
549.8188, 799.6646
550.3010, 769.1792
550.7831, 748.2153
551.2652, 740.0093
551.7473, 730.4595
552.2294, 708.5098
552.7115, 675.5005
553.1937, 642.4922
553.6758, 610.3174
554.1579, 579.0146
554.6400, 546.5127
555.1221, 514.5405
555.6042, 488.8989
556.0864, 475.2466
556.5685, 464.5088
557.0506, 452.1333
557.5327, 436.4287
558.0148, 411.0708
558.4969, 355.6377
558.9791, 302.5454
559.4612, 274.1719
559.9433, 277.4854
560.4254, 281.3179
560.9075, 280.0625
561.3896, 276.9482
561.8718, 275.4102
562.3539, 282.2861
562.8360, 278.0815
563.3181, 254.9678
563.8002, 222.9990
564.2823, 208.8638
564.7645, 217.5703
565.2466, 221.8511
565.7287, 208.7905
566.2108, 182.3345
566.6929, 162.4297
567.1750, 149.4922
567.6572, 136.8691
568.1393, 116.1387
568.6214, 92.38574
569.1035, 75.80078
569.5856, 67.57861
570.0677, 67.69287
570.5499, 90.58691
571.0320, 118.8003
571.5141, 124.9717
571.9962, 65.42578
572.4783, 15.43750
572.9604, 15.60352
573.4426, 55.61719
573.9247, 80.65186
574.4068, 68.53906
574.8889, 51.77881
575.3710, 42.84863
575.8531, 43.98584
576.3353, 41.67578
576.8174, 35.66699
577.2995, 26.56738
577.7816, 10.62207
578.2637, 14.22803
578.7458, 20.09375
579.2280, 2.448730
579.7101, 35.81152
580.1922, 48.70361
580.6743, 43.76953
581.1564, 35.95361
581.6385, 30.97314
582.1207, 27.66504
582.6028, 24.78027
583.0849, 22.30371
583.5670, 20.10254
584.0491, 26.24658
584.5313, 27.42236
585.0134, 8.052246
585.4955, 46.16455
585.9776, 81.32373
586.4597, 65.90625
586.9418, 31.63574
587.4240, 15.00146
587.9061, 32.66650
588.3882, 43.69727
588.8703, 43.35693
589.3524, 33.69629
589.8345, 18.40430
590.3167, 5.525391
590.7988, 23.58545
591.2809, 27.90381
591.7630, 20.79639
592.2451, 9.356445
592.7272, 6.961426
593.2094, 14.27490
593.6915, 13.18945
594.1736, 55.00879
594.6557, 68.20801
595.1378, 39.70801
595.6199, 7.567871
596.1021, 0.2133790
596.5842, 6.443359
597.0663, 13.43799
597.5485, 21.55859
598.0306, 23.32178
598.5127, 9.406250
598.9948, 14.75439
599.4769, 25.56934
599.9590, 12.75488
600.4412, 2.603027
600.9233, 15.08496
601.4054, 25.01611
601.8875, 26.73535
602.3696, 16.72607
602.8517, 7.073730
603.3339, 9.038086
603.8160, 21.77588
604.2981, 34.78467
604.7802, 47.16162
605.2623, 58.18848
605.7444, 70.81201
606.2266, 81.50732
606.7087, 79.55713
607.1908, 46.69092
607.6729, 14.78467
608.1550, 17.06641
608.6371, 42.64062
609.1193, 56.27539
609.6014, 21.74854
610.0835, 9.124023
610.5656, 3.472168
611.0477, 48.62695
611.5298, 72.25781
612.0120, 42.38135
612.4941, 5.969238
612.9762, 4.511719
613.4583, 19.76904
613.9404, 37.22314
614.4225, 43.62305
614.9047, 47.31543
615.3868, 67.53369
615.8689, 101.8301
616.3510, 112.0947
616.8331, 73.60400
617.3152, 23.29980
617.7974, 25.03125
618.2795, 66.78027
618.7616, 101.8633
619.2437, 95.77734
619.7258, 79.72656
620.2079, 76.97559
620.6901, 88.77393
621.1722, 101.3447
621.6543, 109.1230
622.1364, 116.7065
622.6185, 127.4727
623.1006, 145.4761
623.5828, 157.7734
624.0649, 160.0420
624.5470, 160.5771
625.0291, 170.6772
625.5112, 192.8467
625.9933, 211.2852
626.4755, 222.9780
626.9576, 229.3501
627.4397, 228.8999
627.9218, 223.3267
628.4039, 225.6016
628.8860, 246.3047
629.3682, 276.4414
629.8503, 306.6797
630.3324, 335.8496
630.8145, 359.5654
