##NAMES=Phlogopite
##RRUFFID=R050068
##IDEAL CHEMISTRY=KMg_3_(Si_3_Al)O_10_(OH)_2_
##LOCALITY=S.W. Jasper County, Georgia, USA
##OWNER=RRUFF
##SOURCE=Rock Currier
##DESCRIPTION=Dark brown micaceous single crystal
##STATUS=The identification of this mineral has been confirmed by X-ray diffraction and chemical analysis
##URL=rruff.info/R050068
##MEASURED CHEMISTRY=(K_0.94_Na_0.05_[box]_0.01_)(Mg_0.94_Fe_0.06_)_3_(Si_3.00_Al_1.00_)O_10_((OH)_0.53_F_0.47_)_2_
154.4830, 0.0000000E+00
154.9651, 4.408325
155.4472, 0.1268310
155.9293, 0.7584230
156.4115, 0.4312740
156.8936, 0.4309080
157.3757, 1.604004
157.8578, 2.958374
158.3399, 4.722046
158.8221, 6.294678
159.3042, 7.316284
159.7863, 5.337036
160.2684, 4.992065
160.7505, 8.125854
161.2326, 14.48230
161.7148, 21.84290
162.1969, 31.76746
162.6790, 41.29968
163.1611, 47.45251
163.6432, 45.54053
164.1253, 43.02661
164.6075, 43.99609
165.0896, 48.60181
165.5717, 53.89856
166.0538, 59.25964
166.5359, 64.11023
167.0180, 67.65601
167.5002, 64.46155
167.9823, 63.03088
168.4644, 71.78101
168.9465, 92.72791
169.4286, 114.0333
169.9107, 125.8483
170.3929, 131.5120
170.8750, 138.4053
171.3571, 153.5308
171.8392, 170.2866
172.3213, 179.9600
172.8034, 179.0392
173.2856, 178.6763
173.7677, 191.5010
174.2498, 214.4984
174.7319, 236.5732
175.2140, 251.1437
175.6961, 260.4185
176.1783, 266.2162
176.6604, 265.6689
177.1425, 267.5037
177.6246, 283.7823
178.1067, 312.9935
178.5888, 346.3091
179.0710, 378.6071
179.5531, 409.8632
180.0352, 439.1407
180.5173, 464.6299
180.9994, 489.3669
181.4815, 517.8771
181.9637, 550.3325
182.4458, 584.0599
182.9279, 615.7070
183.4100, 646.6232
183.8921, 682.5967
184.3742, 726.9916
184.8564, 776.8481
185.3385, 824.2122
185.8206, 869.3865
186.3027, 913.4397
186.7848, 957.1686
187.2669, 1000.723
187.7491, 1046.521
188.2312, 1093.921
188.7133, 1143.917
189.1954, 1206.311
189.6775, 1284.281
190.1596, 1358.556
190.6418, 1401.751
191.1239, 1414.384
191.6060, 1427.063
192.0881, 1457.289
192.5702, 1501.536
193.0524, 1529.138
193.5345, 1541.946
194.0166, 1542.592
194.4987, 1529.280
194.9808, 1502.576
195.4629, 1461.844
195.9451, 1402.964
196.4272, 1325.578
196.9093, 1247.774
197.3914, 1165.138
197.8735, 1086.916
198.3556, 1045.151
198.8378, 1046.414
199.3199, 1032.574
199.8020, 959.4697
200.2841, 820.9109
200.7662, 710.4673
201.2483, 638.3663
201.7305, 592.1735
202.2126, 544.6223
202.6947, 495.8649
203.1768, 451.4854
203.6589, 416.1866
204.1410, 391.6193
204.6232, 366.7009
205.1053, 339.9471
205.5874, 312.4563
206.0695, 287.7686
206.5516, 265.9781
207.0337, 246.7449
207.5159, 229.8115
207.9980, 215.5232
208.4801, 203.4729
208.9622, 194.4468
209.4443, 187.6190
209.9264, 179.1084
210.4086, 168.9833
210.8907, 156.9858
211.3728, 141.4829
211.8549, 119.3976
212.3370, 104.5995
212.8191, 101.9788
213.3013, 109.3790
213.7834, 107.3247
214.2655, 91.57275
214.7476, 73.07495
215.2297, 61.13623
215.7118, 56.73010
216.1940, 56.14209
216.6761, 59.83240
217.1582, 67.55151
217.6403, 74.28406
218.1224, 82.74268
218.6045, 86.50269
219.0867, 76.72681
219.5688, 44.40710
220.0509, 20.20740
220.5330, 12.60938
221.0151, 21.90894
221.4972, 29.47644
221.9794, 35.99646
222.4615, 40.11560
222.9436, 39.72449
223.4257, 31.67053
223.9078, 25.69751
224.3899, 25.08472
224.8721, 30.53601
225.3542, 31.83801
225.8363, 26.95935
226.3184, 19.87708
226.8005, 15.20374
227.2827, 13.72131
227.7648, 13.24976
228.2469, 13.47278
228.7290, 14.50854
229.2111, 15.38379
229.6932, 16.59253
230.1754, 17.22168
230.6575, 16.24524
231.1396, 14.19507
231.6217, 9.401123
232.1038, 0.3481450
232.5859, 17.48828
233.0681, 26.10962
233.5502, 23.17212
234.0323, 13.92859
234.5144, 5.439941
234.9965, 2.921143
235.4786, 9.319702
235.9608, 12.90356
236.4429, 13.01392
236.9250, 13.32312
237.4071, 14.95740
237.8892, 16.06958
238.3713, 13.12390
238.8535, 2.505371
239.3356, 6.067139
239.8177, 8.570313
240.2998, 2.348999
240.7819, 0.5402830
241.2640, 5.319702
241.7462, 13.20227
242.2283, 18.23303
242.7104, 19.45190
243.1925, 19.41833
243.6746, 19.26428
244.1567, 19.87854
244.6389, 16.71204
245.1210, 6.752197
245.6031, 5.188599
246.0852, 10.05640
246.5673, 4.182617
247.0494, 2.547729
247.5316, 7.051514
248.0137, 9.418213
248.4958, 8.945313
248.9779, 4.096558
249.4600, 2.725464
249.9421, 6.673096
250.4243, 5.972290
250.9064, 5.654541
251.3885, 7.925537
251.8706, 14.19336
252.3527, 18.21948
252.8348, 19.04346
253.3170, 18.23877
253.7991, 18.46082
254.2812, 19.02051
254.7633, 21.92383
255.2454, 29.19861
255.7275, 43.57178
256.2097, 51.42114
256.6918, 49.94849
257.1739, 43.77136
257.6560, 40.63892
258.1381, 39.28052
258.6202, 43.77283
259.1024, 58.27612
259.5845, 87.51331
260.0666, 105.6470
260.5487, 108.1019
261.0308, 102.8805
261.5129, 105.2313
261.9951, 117.8463
262.4772, 131.5245
262.9593, 142.0341
263.4414, 148.0978
263.9235, 157.9427
264.4056, 173.2311
264.8878, 190.8948
265.3699, 205.8750
265.8520, 217.6725
266.3341, 228.5686
266.8162, 238.6740
267.2983, 247.0702
267.7805, 260.8999
268.2626, 282.8932
268.7447, 307.1431
269.2268, 321.5347
269.7089, 322.2681
270.1910, 326.7889
270.6732, 344.5646
271.1553, 377.7212
271.6374, 400.9351
272.1195, 410.3947
272.6016, 415.5446
273.0837, 433.4993
273.5659, 467.6772
274.0480, 497.5663
274.5301, 514.2015
275.0122, 516.9882
275.4943, 520.7888
275.9764, 526.1613
276.4586, 531.5029
276.9407, 536.0496
277.4228, 540.4639
277.9049, 538.0485
278.3870, 524.1157
278.8691, 499.2156
279.3513, 476.3646
279.8334, 456.2465
280.3155, 436.4164
280.7976, 412.6882
281.2798, 385.0371
281.7619, 358.5979
282.2440, 335.6949
282.7261, 315.8890
283.2082, 296.0903
283.6903, 276.4266
284.1725, 256.3021
284.6546, 232.8060
285.1367, 206.4360
285.6188, 185.4203
286.1009, 174.2238
286.5830, 170.9136
287.0652, 167.7836
287.5473, 164.9531
288.0294, 161.6930
288.5115, 157.3492
288.9936, 151.8989
289.4757, 145.2147
289.9579, 135.4274
290.4400, 123.7194
290.9221, 116.2203
291.4042, 113.9431
291.8863, 113.4141
292.3684, 111.6071
292.8506, 108.3907
293.3327, 102.6331
293.8148, 90.00366
294.2969, 76.95593
294.7790, 77.76965
295.2611, 92.61292
295.7433, 108.2177
296.2254, 110.7097
296.7075, 104.3790
297.1896, 101.6980
297.6717, 108.4803
298.1538, 120.0760
298.6360, 129.9131
299.1181, 137.5708
299.6002, 141.2393
300.0823, 135.6254
300.5644, 126.0602
301.0465, 122.4137
301.5287, 128.6241
302.0108, 140.0073
302.4929, 152.9121
302.9750, 167.5897
303.4571, 182.4388
303.9392, 196.6636
304.4214, 209.5027
304.9035, 219.8728
305.3856, 225.4131
305.8677, 231.8159
306.3498, 246.3118
306.8319, 266.7234
307.3141, 284.9185
307.7962, 289.9858
308.2783, 292.5166
308.7604, 305.5710
309.2425, 338.6526
309.7246, 366.8855
310.2068, 366.7032
310.6889, 348.3152
311.1710, 338.2650
311.6531, 358.4037
312.1352, 386.2614
312.6173, 404.7915
313.0995, 408.5197
313.5816, 410.2930
314.0637, 416.1455
314.5458, 424.2416
315.0279, 431.1730
315.5100, 435.7693
315.9922, 438.7540
316.4743, 439.4486
316.9564, 436.4387
317.4385, 436.7085
317.9206, 445.7593
318.4027, 458.7449
318.8849, 468.8923
319.3670, 472.3716
319.8491, 474.4767
320.3312, 477.9038
320.8133, 483.6918
321.2954, 485.6497
321.7776, 481.8737
322.2597, 474.0046
322.7418, 463.7894
323.2239, 445.5742
323.7060, 430.9252
324.1881, 424.6243
324.6703, 427.7593
325.1524, 426.7444
325.6345, 418.4856
326.1166, 406.8749
326.5987, 394.9553
327.0808, 381.9128
327.5630, 369.5815
328.0451, 358.9025
328.5272, 349.7195
329.0093, 338.6844
329.4914, 326.7748
329.9735, 312.3540
330.4557, 293.2052
330.9378, 259.2307
331.4199, 239.4202
331.9020, 244.1783
332.3841, 265.9288
332.8662, 266.9435
333.3484, 236.0764
333.8305, 201.6646
334.3126, 178.8615
334.7947, 170.9893
335.2768, 166.3179
335.7589, 167.0950
336.2411, 169.1593
336.7232, 160.0520
337.2053, 135.5261
337.6874, 112.4014
338.1695, 98.29297
338.6516, 93.89893
339.1338, 94.82837
339.6159, 103.6012
340.0980, 113.5551
340.5801, 111.6027
341.0622, 96.37988
341.5443, 81.93091
342.0265, 74.37317
342.5086, 72.77454
342.9907, 68.44299
343.4728, 60.65088
343.9549, 54.10596
344.4370, 57.59265
344.9192, 69.71582
345.4013, 76.99646
345.8834, 71.72559
346.3655, 58.96069
346.8476, 52.71875
347.3297, 53.20032
347.8119, 54.71826
348.2940, 50.95264
348.7761, 43.81201
349.2582, 39.71350
349.7403, 44.12073
350.2225, 48.56958
350.7046, 35.48792
351.1867, 7.570923
351.6688, 13.49365
352.1509, 5.660645
352.6331, 17.30518
353.1152, 35.34497
353.5973, 44.58875
354.0794, 46.76929
354.5615, 38.38623
355.0436, 23.13049
355.5258, 12.21960
356.0079, 16.24500
356.4900, 24.85229
356.9721, 28.33228
357.4542, 23.38354
357.9363, 19.46765
358.4185, 23.70935
358.9006, 32.38342
359.3827, 39.04187
359.8648, 42.04578
360.3469, 41.69421
360.8290, 35.80493
361.3112, 22.71143
361.7933, 15.21326
362.2754, 22.46924
362.7575, 35.43225
363.2396, 44.30554
363.7217, 41.30542
364.2039, 39.46057
364.6860, 44.99475
365.1681, 58.09998
365.6502, 63.16187
366.1323, 48.57971
366.6144, 31.40308
367.0966, 23.42126
367.5787, 37.29370
368.0608, 45.32300
368.5429, 42.79443
369.0250, 32.09875
369.5071, 25.71021
369.9893, 26.89685
370.4714, 28.59607
370.9535, 27.13428
371.4356, 20.14539
371.9177, 15.57251
372.3998, 14.61218
372.8820, 15.55383
373.3641, 14.25623
373.8462, 9.468140
374.3283, 5.719727
374.8104, 5.409180
375.2925, 8.977173
375.7747, 10.53967
376.2568, 9.568726
376.7389, 7.670288
377.2210, 7.317505
377.7031, 8.683960
378.1852, 8.967773
378.6674, 6.250000
379.1495, 1.816406
379.6316, 1.947388
380.1137, 7.096558
380.5958, 12.70593
381.0779, 14.28638
381.5601, 12.52209
382.0422, 10.71802
382.5243, 9.666504
383.0064, 8.827637
383.4885, 6.984497
383.9706, 4.300171
384.4528, 2.115845
384.9349, 2.892456
385.4170, 4.357788
385.8991, 1.824829
386.3812, 6.863281
386.8633, 14.90210
387.3455, 14.40063
387.8276, 8.329956
388.3097, 3.469238
388.7918, 6.439941
389.2739, 9.971191
389.7560, 6.295166
390.2382, 6.053101
390.7203, 15.02844
391.2024, 10.42029
391.6845, 0.1323240
392.1666, 6.791626
392.6487, 6.034668
393.1309, 2.545898
393.6130, 3.796631
394.0951, 12.42603
394.5772, 17.38452
395.0593, 13.94983
395.5414, 8.403320
396.0236, 4.698486
396.5057, 5.630371
396.9878, 5.742188
397.4699, 4.319702
397.9520, 1.692017
398.4341, 1.192139
398.9163, 7.426880
399.3984, 10.68884
399.8805, 8.231812
400.3626, 2.087769
400.8447, 12.07605
401.3268, 23.29150
401.8090, 33.00732
402.2911, 37.12878
402.7732, 34.00342
403.2553, 29.30237
403.7374, 23.25171
404.2195, 16.18237
404.7017, 15.30908
405.1838, 22.68555
405.6659, 30.71875
406.1480, 31.61511
406.6301, 25.25928
407.1122, 20.34558
407.5944, 18.66064
408.0765, 19.07373
408.5586, 17.81982
409.0407, 15.09082
409.5228, 15.67090
410.0049, 27.60278
410.4871, 46.12268
410.9692, 57.63660
411.4513, 60.29333
411.9334, 57.04858
412.4155, 47.21667
412.8976, 33.54089
413.3798, 24.13782
413.8619, 23.79065
414.3440, 28.20105
414.8261, 34.39294
415.3082, 42.40259
415.7903, 49.20874
416.2725, 52.06482
416.7546, 52.90430
417.2367, 53.97949
417.7188, 54.76453
418.2009, 57.42700
418.6830, 66.72998
419.1652, 79.64868
419.6473, 84.97986
420.1294, 67.51562
420.6115, 50.06372
421.0937, 46.39417
421.5758, 67.92993
422.0579, 82.78723
422.5400, 82.00427
423.0221, 73.28052
423.5042, 69.00903
423.9864, 71.29150
424.4685, 75.99182
424.9506, 83.48987
425.4327, 94.28882
425.9148, 101.6807
426.3969, 105.1803
426.8791, 105.8376
427.3612, 103.7618
427.8433, 97.27869
428.3254, 93.13220
428.8075, 91.67200
429.2896, 93.45435
429.7718, 101.9851
430.2539, 118.7762
430.7360, 134.3549
431.2181, 142.9426
431.7002, 144.8546
432.1823, 144.3517
432.6645, 141.3759
433.1466, 136.8650
433.6287, 130.2583
434.1108, 122.5264
434.5929, 118.7252
435.0750, 123.7410
435.5572, 132.8336
436.0393, 137.8190
436.5214, 138.8167
437.0035, 138.3922
437.4856, 137.8452
437.9677, 137.3304
438.4499, 137.1694
438.9320, 137.8688
439.4141, 138.2073
439.8962, 135.2512
440.3783, 131.0642
440.8604, 130.8745
441.3426, 140.6787
441.8247, 152.3530
442.3068, 161.8705
442.7889, 168.9476
443.2710, 173.0619
443.7531, 173.4038
444.2353, 170.8230
444.7174, 166.2975
445.1995, 152.3431
445.6816, 145.6136
446.1637, 153.5776
446.6458, 173.9617
447.1280, 184.9294
447.6101, 181.9987
448.0922, 175.0212
448.5743, 168.9863
449.0564, 164.0227
449.5385, 159.6542
450.0207, 156.2700
450.5028, 153.0245
450.9849, 147.9783
451.4670, 140.8909
451.9491, 133.1145
452.4312, 124.2125
452.9134, 114.7532
453.3955, 108.9918
453.8776, 107.1014
454.3597, 107.7151
454.8418, 110.1901
455.3239, 114.2487
455.8061, 119.2007
456.2882, 126.5361
456.7703, 132.0029
457.2524, 128.7023
457.7345, 118.2758
458.2166, 106.6515
458.6988, 95.40833
459.1809, 85.49585
459.6630, 79.06970
460.1451, 76.88696
460.6272, 73.59473
461.1093, 62.75317
461.5915, 49.78284
462.0736, 41.65710
462.5557, 38.67517
463.0378, 42.85205
463.5199, 63.52734
464.0020, 96.60986
464.4842, 112.8646
464.9663, 92.42212
465.4484, 63.57153
465.9305, 40.93604
466.4126, 27.56323
466.8947, 15.64160
467.3769, 4.997437
467.8590, 4.095337
468.3411, 11.21301
468.8232, 15.84729
469.3053, 19.50732
469.7874, 23.12122
470.2696, 26.50732
470.7517, 25.65210
471.2338, 19.55505
471.7159, 12.33008
472.1980, 7.728882
472.6801, 5.658936
473.1623, 2.756348
473.6444, 1.961304
474.1265, 6.780396
474.6086, 8.000000
475.0907, 6.201050
475.5728, 5.148438
476.0550, 6.230225
476.5371, 9.552368
477.0192, 16.26636
477.5013, 26.48584
477.9834, 36.19275
478.4655, 44.25085
478.9477, 49.33801
479.4298, 49.23840
479.9119, 37.78613
480.3940, 27.99304
480.8761, 26.72998
481.3582, 32.50110
481.8404, 41.10852
482.3225, 58.09778
482.8046, 71.91333
483.2867, 75.30725
483.7688, 62.56555
484.2509, 57.17346
484.7331, 66.28552
485.2152, 80.97485
485.6973, 93.42151
486.1794, 103.5037
486.6615, 111.2401
487.1436, 114.5836
487.6258, 115.5175
488.1079, 125.6194
488.5900, 149.6129
489.0721, 169.5063
489.5542, 172.3101
490.0363, 157.8551
490.5185, 151.2219
491.0006, 154.3772
491.4827, 161.0895
491.9648, 161.3888
492.4470, 157.1624
492.9291, 159.2809
493.4112, 174.7736
493.8933, 195.6572
494.3754, 210.7098
494.8575, 220.2517
495.3397, 225.3624
495.8218, 222.0383
496.3039, 217.0520
496.7860, 218.1017
497.2681, 227.3113
497.7502, 238.6581
498.2324, 253.8809
498.7145, 267.9792
499.1966, 274.4508
499.6787, 260.0813
500.1608, 249.0507
500.6429, 251.9840
501.1251, 267.7952
501.6072, 276.8523
502.0893, 271.0839
502.5714, 264.3502
503.0535, 263.6158
503.5356, 273.4386
504.0178, 278.1902
504.4999, 276.3225
504.9820, 270.7168
505.4641, 265.0286
505.9462, 258.8673
506.4283, 254.8717
506.9105, 254.7390
507.3926, 257.1693
507.8747, 256.5831
508.3568, 252.8193
508.8389, 248.9598
509.3210, 247.8751
509.8032, 248.4302
510.2853, 247.9731
510.7674, 246.5670
511.2495, 242.4546
511.7316, 231.2429
512.2137, 216.3978
512.6959, 204.7123
513.1780, 199.7455
513.6601, 196.7588
514.1422, 193.9427
514.6243, 191.2064
515.1064, 187.6417
515.5886, 180.9596
516.0707, 175.2474
516.5528, 173.0862
517.0349, 176.8346
517.5170, 177.8236
517.9991, 174.4628
518.4813, 169.2223
518.9634, 151.1782
519.4455, 165.1017
519.9276, 171.8436
520.4097, 171.6450
520.8918, 144.7415
521.3740, 151.5176
521.8561, 145.2639
522.3382, 139.2682
522.8203, 152.4017
523.3024, 130.6249
523.7845, 142.9440
524.2667, 141.0981
524.7488, 145.0565
525.2309, 134.8295
525.7130, 129.4303
526.1951, 128.7321
526.6772, 125.8979
527.1594, 122.9022
527.6415, 122.9904
528.1236, 125.5171
528.6057, 126.6317
529.0878, 124.7384
529.5699, 120.0487
530.0521, 110.6646
530.5342, 94.05896
531.0163, 82.16919
531.4984, 82.38794
531.9805, 87.70789
532.4626, 90.55554
532.9448, 89.12305
533.4269, 86.01794
533.9090, 78.95679
534.3911, 70.08972
534.8732, 67.38525
535.3553, 73.05652
535.8375, 80.81494
536.3196, 88.82971
536.8017, 97.39050
537.2838, 101.3578
537.7659, 99.92834
538.2480, 96.24487
538.7302, 93.50623
539.2123, 91.70264
539.6944, 90.12000
540.1765, 88.63965
540.6586, 87.15637
541.1407, 86.07910
541.6229, 85.10205
542.1050, 83.13928
542.5871, 75.52246
543.0692, 69.32422
543.5513, 72.08008
544.0334, 84.08557
544.5156, 97.37244
544.9977, 111.8059
545.4798, 123.9197
545.9619, 130.6833
546.4440, 128.9745
546.9261, 125.7163
547.4083, 120.6028
547.8904, 114.7360
548.3725, 109.8549
548.8546, 103.8845
549.3367, 102.6343
549.8188, 110.4788
550.3010, 125.8661
550.7831, 129.4296
551.2652, 118.6779
551.7473, 104.3654
552.2294, 93.08093
552.7115, 84.73474
553.1937, 78.30872
553.6758, 73.11279
554.1579, 72.37915
554.6400, 85.02490
555.1221, 105.9540
555.6042, 120.3315
556.0864, 121.5065
556.5685, 115.4669
557.0506, 104.4700
557.5327, 90.19458
558.0148, 79.06177
558.4969, 77.23083
558.9791, 77.21448
559.4612, 74.04578
559.9433, 66.28613
560.4254, 60.25037
560.9075, 55.83044
561.3896, 54.42346
561.8718, 57.63049
562.3539, 72.94446
562.8360, 79.47986
563.3181, 71.19214
563.8002, 55.30066
564.2823, 50.44446
564.7645, 59.43262
565.2466, 66.71606
565.7287, 63.42188
566.2108, 53.15417
566.6929, 58.35315
567.1750, 79.88745
567.6572, 95.90247
568.1393, 81.88806
568.6214, 49.99744
569.1035, 23.77661
569.5856, 6.308228
570.0677, 3.671265
570.5499, 3.396729
571.0320, 2.734619
571.5141, 7.758789
571.9962, 10.34033
572.4783, 10.12927
572.9604, 4.473755
573.4426, 5.053833
573.9247, 10.55566
574.4068, 5.132690
574.8889, 0.6053470
575.3710, 2.438843
575.8531, 12.75330
576.3353, 18.17249
576.8174, 17.51367
577.2995, 13.66650
577.7816, 7.423828
578.2637, 1.998169
578.7458, 3.739014
579.2280, 6.057373
579.7101, 20.00854
580.1922, 25.07031
580.6743, 22.30737
581.1564, 17.72070
581.6385, 12.91980
582.1207, 8.475464
582.6028, 5.100342
583.0849, 2.834106
583.5670, 1.650024
584.0491, 1.862671
584.5313, 2.951538
585.0134, 5.560913
585.4955, 11.89185
585.9776, 12.79736
586.4597, 0.6369630
586.9418, 15.95898
587.4240, 27.12097
587.9061, 31.37915
588.3882, 32.17810
588.8703, 29.10803
589.3524, 23.02283
589.8345, 15.11340
590.3167, 3.630005
590.7988, 2.835205
591.2809, 0.9504390
591.7630, 13.05884
592.2451, 24.77942
592.7272, 36.21814
593.2094, 44.69324
593.6915, 46.75244
594.1736, 44.50818
594.6557, 41.62427
595.1378, 38.45203
595.6199, 35.78479
596.1021, 33.28088
596.5842, 31.91724
597.0663, 33.09607
597.5485, 44.19226
598.0306, 50.56409
598.5127, 42.57800
598.9948, 24.63489
599.4769, 16.06567
599.9590, 26.00342
600.4412, 35.63269
600.9233, 38.61707
601.4054, 34.52710
601.8875, 29.74817
602.3696, 22.02014
602.8517, 19.26245
603.3339, 33.18457
603.8160, 61.90442
604.2981, 77.45911
604.7802, 74.77161
605.2623, 64.84131
605.7444, 60.33203
606.2266, 59.81995
606.7087, 59.57605
607.1908, 57.59131
607.6729, 55.99121
608.1550, 57.34436
608.6371, 60.63611
609.1193, 62.67236
609.6014, 57.34937
610.0835, 54.61011
610.5656, 60.20068
611.0477, 75.62610
611.5298, 90.55835
612.0120, 109.0657
612.4941, 122.4730
612.9762, 122.5825
613.4583, 102.8741
613.9404, 94.41736
614.4225, 101.4080
614.9047, 114.7737
615.3868, 121.0913
615.8689, 121.0742
616.3510, 123.8378
616.8331, 134.5232
617.3152, 146.0995
617.7974, 145.2625
618.2795, 135.1366
618.7616, 127.9117
619.2437, 133.4349
619.7258, 142.0703
620.2079, 145.7688
620.6901, 144.1597
621.1722, 145.4139
621.6543, 153.9756
622.1364, 165.2389
622.6185, 176.2976
623.1006, 187.3062
623.5828, 197.5563
624.0649, 207.1614
624.5470, 215.9050
625.0291, 223.1179
625.5112, 228.2927
625.9933, 235.1938
626.4755, 245.7021
626.9576, 256.5137
627.4397, 258.9380
627.9218, 253.8457
628.4039, 249.7352
628.8860, 252.9689
629.3682, 258.4956
629.8503, 257.7272
630.3324, 251.7616
630.8145, 249.3855
631.2966, 257.3678
631.7787, 269.2664
632.2609, 281.2810
632.7430, 292.5029
633.2251, 304.4290
633.7072, 325.4817
634.1893, 341.5663
634.6714, 339.4897
635.1536, 305.3098
635.6357, 284.8357
636.1178, 284.1151
636.5999, 295.6484
637.0820, 309.9514
637.5641, 327.1030
638.0463, 333.8386
638.5284, 319.8472
639.0105, 298.9268
639.4926, 302.7223
639.9747, 326.9769
640.4568, 346.8455
640.9390, 343.1833
641.4211, 330.9332
641.9032, 323.0162
642.3853, 320.3369
642.8674, 319.4463
643.3495, 321.0417
643.8317, 322.5583
644.3138, 322.4305
644.7959, 316.0740
645.2780, 315.0996
645.7601, 323.0994
646.2422, 333.3162
646.7244, 336.3870
647.2065, 329.6812
647.6886, 330.5444
648.1707, 345.3230
648.6528, 364.1904
649.1349, 365.4785
649.6171, 351.6155
650.0992, 341.0168
650.5813, 344.0354
651.0634, 353.9309
651.5455, 362.8125
652.0276, 371.1758
652.5098, 381.9233
652.9919, 402.1589
653.4740, 421.1262
653.9561, 430.7568
654.4382, 428.4165
654.9203, 429.4368
655.4025, 440.1038
655.8846, 449.9368
656.3667, 449.8398
656.8488, 431.0359
657.3309, 433.0906
657.8130, 461.5732
658.2952, 501.9312
658.7773, 537.3970
659.2594, 568.0142
659.7415, 589.7651
660.2236, 599.0305
660.7057, 603.5273
661.1879, 612.4304
661.6700, 625.3938
662.1521, 641.4026
662.6342, 659.6206
663.1163, 681.0266
663.5984, 707.6287
664.0806, 738.7563
664.5627, 769.1934
665.0448, 792.0967
665.5269, 818.9231
666.0090, 855.8318
666.4911, 904.3730
666.9733, 948.4392
667.4554, 985.7524
667.9375, 1023.105
668.4196, 1066.462
668.9017, 1115.838
669.3839, 1165.995
669.8660, 1216.683
670.3481, 1266.215
670.8302, 1310.234
671.3123, 1351.604
671.7944, 1397.019
672.2766, 1450.569
672.7587, 1504.617
673.2408, 1554.398
673.7229, 1601.231
674.2050, 1648.705
674.6871, 1697.920
675.1693, 1747.736
675.6514, 1800.182
676.1335, 1854.079
676.6156, 1902.026
677.0977, 1943.315
677.5798, 1980.085
678.0620, 2012.773
678.5441, 2041.601
679.0262, 2067.378
679.5083, 2090.648
679.9904, 2105.357
680.4725, 2100.014
680.9547, 2084.881
681.4368, 2083.453
681.9189, 2101.366
682.4010, 2104.554
682.8831, 2056.753
683.3652, 1989.037
683.8474, 1933.816
684.3295, 1913.603
684.8116, 1881.760
685.2937, 1827.823
685.7758, 1760.132
686.2579, 1688.161
686.7401, 1608.775
687.2222, 1534.600
687.7043, 1469.770
688.1864, 1410.395
688.6685, 1349.190
689.1506, 1285.896
689.6328, 1216.211
690.1149, 1127.462
690.5970, 1037.395
691.0791, 978.7878
691.5612, 945.1755
692.0433, 905.4944
692.5255, 829.9998
693.0076, 752.3772
693.4897, 697.1560
693.9718, 668.6250
694.4539, 631.1345
694.9360, 569.6438
695.4182, 507.5842
695.9003, 455.6917
696.3824, 414.8975
696.8645, 384.9253
697.3466, 368.1138
697.8287, 355.9873
698.3109, 344.2043
698.7930, 330.5742
699.2751, 299.5122
699.7572, 243.6733
700.2393, 188.2559
700.7214, 163.2886
701.2036, 156.1702
701.6857, 145.7991
702.1678, 117.5176
702.6499, 93.05347
703.1320, 86.95703
703.6141, 90.49658
704.0963, 80.70850
704.5784, 39.91528
705.0605, 11.26953
705.5426, 7.559570
706.0247, 22.75415
706.5068, 30.99585
706.9890, 32.12134
707.4711, 28.10059
707.9532, 16.45801
708.4353, 1.172607
708.9174, 6.383789
709.3995, 6.870361
709.8817, 6.273682
710.3638, 7.220215
710.8459, 9.850098
711.3280, 16.07886
711.8101, 27.14600
712.2922, 32.30615
712.7744, 19.65234
713.2565, 6.704590
713.7386, 6.062500
714.2207, 25.96484
714.7028, 36.55054
715.1849, 35.78149
715.6671, 29.40649
716.1492, 23.07764
716.6313, 16.80835
717.1134, 10.52051
717.5955, 4.666992
718.0776, 2.552490
718.5598, 14.80054
719.0419, 29.75488
719.5240, 43.10864
720.0061, 58.59082
720.4882, 65.87378
720.9703, 52.25146
721.4525, 27.52808
721.9346, 14.01514
722.4167, 24.38892
722.8988, 33.28760
723.3809, 35.12769
723.8630, 32.10107
724.3452, 33.23120
724.8273, 38.98755
725.3094, 45.65137
725.7915, 53.56445
726.2736, 60.35693
726.7557, 56.30640
727.2379, 43.18530
727.7200, 34.96997
728.2021, 44.28345
728.6842, 59.77173
729.1663, 74.04590
729.6484, 86.47388
730.1306, 93.84375
730.6127, 94.71704
731.0948, 90.40161
731.5769, 80.13110
732.0590, 59.97095
732.5411, 50.63989
733.0233, 54.39282
733.5054, 63.91284
733.9875, 74.34692
734.4696, 85.23364
734.9517, 92.49731
735.4338, 95.40381
735.9160, 96.65186
736.3981, 99.99890
736.8802, 103.1335
737.3623, 102.0432
737.8444, 92.12415
738.3266, 84.72961
738.8087, 86.68665
739.2908, 92.85400
739.7729, 95.69214
740.2551, 93.12085
740.7372, 90.88757
741.2193, 91.45264
741.7014, 91.18811
742.1835, 78.52112
742.6656, 53.30127
743.1478, 38.18201
743.6299, 44.96948
744.1120, 59.89709
744.5941, 60.76160
745.0762, 51.32446
745.5583, 43.25488
746.0405, 42.89624
746.5226, 45.02625
747.0047, 49.21777
747.4868, 54.30115
747.9689, 53.83569
748.4510, 41.94360
748.9332, 31.03955
749.4153, 24.45703
749.8974, 22.16248
750.3795, 23.98181
750.8616, 30.35608
751.3438, 37.34277
751.8259, 43.53625
752.3080, 48.27783
752.7901, 49.46106
753.2722, 47.18262
753.7543, 44.32349
754.2365, 43.62659
754.7186, 42.56677
755.2007, 38.46082
755.6828, 30.09973
756.1649, 23.96826
756.6470, 18.99524
757.1292, 18.39563
757.6113, 25.58838
758.0934, 43.60229
758.5755, 56.01538
759.0576, 62.82239
759.5397, 64.31311
760.0219, 57.90857
760.5040, 46.32629
760.9861, 37.67944
761.4682, 32.89917
761.9503, 33.47205
762.4324, 43.91638
762.9146, 59.01123
763.3967, 72.57617
763.8788, 80.97595
764.3609, 90.96082
764.8430, 112.4656
765.3251, 131.4558
765.8073, 127.6620
766.2894, 91.07605
766.7715, 68.27332
767.2536, 67.64734
767.7357, 81.51587
768.2178, 100.6825
768.7000, 121.9095
769.1821, 137.7214
769.6642, 144.8923
770.1463, 148.9537
770.6284, 149.4563
771.1105, 148.8992
771.5927, 154.1383
772.0748, 178.0562
772.5569, 195.6523
773.0390, 199.4471
773.5211, 194.3992
774.0032, 190.5316
774.4854, 186.2321
774.9675, 185.7050
775.4496, 190.9572
775.9317, 200.4269
776.4138, 212.5093
776.8959, 225.9846
777.3781, 235.0879
777.8602, 236.4657
778.3423, 232.3621
778.8244, 224.5785
779.3065, 214.9707
779.7886, 211.0387
780.2708, 210.5654
780.7529, 218.5508
781.2350, 243.5215
781.7171, 280.3612
782.1992, 286.6885
782.6813, 251.7987
783.1635, 220.5813
783.6456, 220.8022
784.1277, 241.4191
784.6098, 242.8917
785.0919, 226.6443
785.5740, 210.9020
786.0562, 207.1666
786.5383, 208.9127
787.0204, 213.8370
787.5025, 220.8090
787.9846, 223.2166
788.4667, 215.0183
788.9489, 207.0496
789.4310, 205.4501
789.9131, 211.7887
790.3952, 207.7079
790.8773, 191.6454
791.3594, 176.9817
791.8416, 174.8210
792.3237, 181.1396
792.8058, 183.5651
793.2879, 181.1761
793.7700, 175.0964
794.2521, 162.0605
794.7343, 147.8506
795.2164, 136.9261
795.6985, 130.1139
796.1806, 124.5961
796.6627, 119.6985
797.1448, 116.5529
797.6270, 115.8655
798.1091, 118.1233
798.5912, 121.3618
799.0733, 126.2896
799.5554, 128.7185
800.0375, 122.5809
800.5197, 111.5657
801.0018, 103.6959
801.4839, 100.8185
801.9660, 94.81396
802.4481, 72.06726
802.9302, 49.44641
803.4124, 42.97888
803.8945, 69.28821
804.3766, 78.14331
804.8587, 60.26819
805.3408, 37.17297
805.8229, 28.92944
806.3051, 35.46265
806.7872, 42.82983
807.2693, 50.32654
807.7514, 55.60095
808.2335, 54.90161
808.7156, 50.97864
809.1978, 48.08472
809.6799, 47.54700
810.1620, 46.57031
810.6441, 44.32104
811.1262, 40.90979
811.6083, 36.22900
812.0905, 28.74280
812.5726, 23.62061
813.0547, 21.59021
813.5368, 20.81494
814.0189, 17.19043
814.5010, 12.21228
814.9832, 17.48352
815.4653, 37.65710
815.9474, 54.37585
816.4295, 45.49194
816.9116, 25.45129
817.3937, 12.16565
817.8759, 12.37854
818.3580, 15.08411
818.8401, 21.98132
819.3222, 27.84131
819.8043, 26.51025
820.2864, 15.38098
820.7686, 9.953857
821.2507, 13.11218
821.7328, 17.75903
822.2149, 11.73608
822.6970, 0.1505130
823.1791, 2.487549
823.6613, 10.56897
824.1434, 21.34753
824.6255, 12.64966
825.1076, 2.491455
825.5897, 9.434326
826.0718, 7.910400
826.5540, 13.00488
827.0361, 1.393188
827.5182, 19.77673
828.0003, 21.62463
828.4824, 7.170410
828.9645, 1.959229
829.4467, 2.334229
829.9288, 2.251099
830.4109, 12.05750
830.8930, 22.48901
831.3751, 26.01172
831.8572, 17.88647
832.3394, 9.017090
832.8215, 2.509155
833.3036, 2.531128
833.7857, 8.132813
834.2678, 17.73096
834.7499, 16.12292
835.2321, 15.06201
835.7142, 1.360840
836.1963, 10.85071
836.6784, 13.78247
837.1605, 9.442017
837.6426, 1.071777
838.1248, 1.959717
838.6069, 5.564331
839.0890, 9.648193
839.5711, 9.863770
840.0532, 5.014526
840.5353, 6.143433
841.0175, 13.54407
841.4996, 7.320923
841.9817, 5.294678
842.4638, 16.87244
842.9459, 20.89771
843.4280, 13.06091
843.9102, 20.79175
844.3923, 0.6741940
844.8744, 4.966187
845.3565, 19.78198
845.8386, 12.56042
846.3207, 20.47034
846.8029, 22.59888
847.2850, 1.496582
847.7671, 19.97632
848.2492, 21.72192
848.7313, 3.211304
849.2134, 23.08118
849.6956, 7.334229
850.1777, 4.279907
850.6598, 10.77478
851.1419, 7.284424
851.6240, 19.49878
852.1061, 16.55652
852.5883, 22.20618
853.0704, 35.81238
853.5525, 37.96973
854.0346, 19.04614
854.5167, 12.94092
854.9988, 30.04199
855.4810, 49.02747
855.9631, 53.43579
856.4452, 42.97742
856.9273, 37.42542
857.4094, 37.40271
857.8915, 40.16821
858.3737, 44.52905
858.8558, 49.63757
859.3379, 54.82288
859.8200, 60.06226
860.3021, 63.76770
860.7842, 63.24841
861.2664, 62.79724
861.7485, 65.83020
862.2306, 73.34143
862.7127, 73.17297
863.1948, 63.56006
863.6769, 54.04749
864.1591, 50.79626
864.6412, 52.79211
865.1233, 59.28467
865.6054, 69.78381
866.0875, 78.14624
866.5696, 82.60010
867.0518, 82.26050
867.5339, 74.01428
868.0160, 57.17236
868.4981, 47.51782
868.9802, 47.12927
869.4623, 49.51147
869.9445, 51.56189
870.4266, 53.90930
870.9087, 59.95337
871.3908, 69.52087
871.8729, 79.82129
872.3550, 93.22314
872.8372, 103.4896
873.3193, 102.6511
873.8014, 92.84509
874.2835, 86.55286
874.7656, 92.81042
875.2477, 94.86023
875.7299, 84.50439
876.2120, 67.68420
876.6941, 71.68726
877.1762, 96.41138
877.6583, 113.9396
878.1404, 106.7643
878.6226, 91.29517
879.1047, 91.45129
879.5869, 101.0927
880.0690, 104.3173
880.5511, 80.83508
881.0332, 66.36304
881.5153, 80.29895
881.9974, 107.5283
882.4796, 117.1396
882.9617, 105.1400
883.4438, 94.88550
883.9259, 93.18848
884.4080, 96.33020
884.8901, 101.5292
885.3723, 106.5155
885.8544, 108.2683
886.3365, 104.2094
886.8186, 100.8776
887.3007, 100.9285
887.7828, 102.6080
888.2650, 103.7483
888.7471, 105.2788
889.2292, 103.4196
889.7113, 97.48706
890.1934, 91.28870
890.6755, 90.21838
891.1577, 92.65869
891.6398, 93.75525
892.1219, 92.46021
892.6040, 90.42371
893.0861, 85.18860
893.5682, 82.25220
894.0504, 84.47974
894.5325, 96.04846
895.0146, 100.7345
895.4967, 97.93481
895.9788, 93.44299
896.4609, 92.28711
896.9431, 95.16675
897.4252, 100.6127
897.9073, 109.9666
898.3894, 116.6908
898.8715, 113.9285
899.3536, 109.4098
899.8358, 111.3174
900.3179, 122.3175
900.8000, 123.2249
901.2821, 102.6294
901.7642, 86.01050
902.2463, 86.04407
902.7285, 100.5176
903.2106, 105.4733
903.6927, 100.6971
904.1748, 95.55042
904.6569, 97.08472
905.1390, 98.80066
905.6212, 94.63428
906.1033, 85.84155
906.5854, 80.52100
907.0675, 87.59546
907.5496, 91.79089
908.0317, 88.75366
908.5139, 81.54919
908.9960, 78.95569
909.4781, 81.40015
909.9602, 81.82825
910.4423, 77.09973
910.9244, 71.01465
911.4066, 66.78979
911.8887, 64.32739
912.3708, 63.98682
912.8529, 70.00427
913.3350, 73.41736
913.8171, 67.67529
914.2993, 62.32520
914.7814, 73.51514
915.2635, 103.7664
915.7456, 115.8699
916.2277, 101.7491
916.7098, 80.64954
917.1920, 71.73230
917.6741, 71.58679
918.1562, 76.47668
918.6383, 87.46265
919.1204, 96.54797
919.6025, 104.3408
920.0847, 106.6779
920.5668, 97.87537
921.0489, 74.74829
921.5310, 68.53833
922.0131, 81.68689
922.4952, 96.28320
922.9774, 96.52185
923.4595, 89.60840
923.9416, 85.18982
924.4237, 83.94214
924.9058, 85.33643
925.3879, 95.84473
925.8701, 101.9883
926.3522, 95.44092
926.8343, 78.27576
927.3164, 72.11768
927.7985, 78.50464
928.2806, 82.93579
928.7628, 76.65759
929.2449, 66.55896
929.7270, 65.54456
930.2091, 69.72595
930.6912, 68.55286
931.1733, 48.76648
931.6555, 33.48083
932.1376, 31.36707
932.6197, 37.32483
933.1018, 44.13379
933.5839, 52.15002
934.0660, 58.85730
934.5482, 63.91577
935.0303, 67.39429
935.5124, 69.50818
935.9945, 70.15625
936.4766, 69.44751
936.9587, 68.21436
937.4409, 63.43799
937.9230, 51.36365
938.4051, 37.35425
938.8872, 23.56262
939.3693, 7.556519
939.8514, 9.606445
940.3336, 32.41663
940.8157, 53.07397
941.2978, 47.61072
941.7799, 30.51953
942.2620, 22.65405
942.7441, 25.00891
943.2263, 28.71094
943.7084, 35.58484
944.1905, 37.08875
944.6726, 26.68811
945.1547, 7.637573
945.6368, 1.887085
946.1190, 10.16309
946.6011, 18.93982
947.0832, 22.09875
947.5653, 22.59155
948.0474, 25.08228
948.5295, 28.04175
949.0117, 27.91150
949.4938, 17.83276
949.9759, 11.97876
950.4580, 15.69861
950.9401, 22.80481
951.4222, 22.78381
951.9044, 15.45166
952.3865, 13.70178
952.8686, 21.10083
953.3507, 27.14734
953.8328, 16.66699
954.3149, 6.5796003E-02
954.7971, 8.662109
955.2792, 3.503662
955.7613, 2.483765
956.2434, 16.46411
956.7255, 25.20105
957.2076, 10.98193
957.6898, 25.00085
958.1719, 33.22168
958.6540, 14.43799
959.1361, 2.986084
959.6182, 5.092529
960.1003, 19.10291
960.5825, 19.97217
961.0646, 9.927856
961.5467, 4.913086
962.0288, 8.466553
962.5109, 17.18774
962.9930, 34.16272
963.4752, 52.39612
963.9573, 50.68860
964.4394, 32.30444
964.9215, 17.21436
965.4036, 11.75525
965.8857, 11.72253
966.3679, 16.92712
966.8500, 24.10938
967.3321, 29.18018
967.8142, 33.98682
968.2963, 30.87781
968.7784, 15.98279
969.2606, 0.9572750
969.7427, 0.8415530
970.2248, 10.66895
970.7069, 10.36670
971.1890, 1.426025
971.6711, 10.16016
972.1533, 4.970337
972.6354, 5.468506
973.1175, 18.11035
973.5996, 32.30005
974.0817, 37.43066
974.5638, 31.63831
975.0460, 23.01367
975.5281, 12.70483
976.0102, 3.669556
976.4923, 5.500244
976.9744, 14.10083
977.4565, 17.44714
977.9387, 0.6225590
978.4208, 12.06091
978.9029, 0.6630860
979.3850, 21.94714
979.8671, 29.90015
980.3492, 21.45862
980.8314, 18.45630
981.3135, 24.66809
981.7956, 30.16589
982.2777, 20.64404
982.7598, 5.013184
983.2419, 5.454102
983.7241, 9.565308
984.2062, 4.242310
984.6883, 24.21362
985.1704, 49.45288
985.6525, 60.03687
986.1346, 56.84131
986.6168, 44.39001
987.0989, 23.25549
987.5810, 11.35913
988.0631, 30.85046
988.5452, 54.37622
989.0273, 53.12549
989.5095, 35.41431
989.9916, 22.62183
990.4737, 22.20593
990.9558, 21.54041
991.4379, 18.13367
991.9200, 15.39368
992.4022, 20.82544
992.8843, 31.98071
993.3664, 38.02979
993.8485, 36.36670
994.3306, 33.04224
994.8127, 32.07568
995.2949, 31.36768
995.7770, 27.30969
996.2591, 17.82544
996.7412, 21.37683
997.2233, 41.93115
997.7054, 60.91040
998.1876, 65.30554
998.6697, 60.87451
999.1518, 62.20728
999.6339, 66.74292
1000.116, 64.37036
1000.598, 37.07886
1001.080, 17.81006
1001.562, 23.29126
1002.044, 41.24707
1002.527, 50.22205
1003.009, 49.48962
1003.491, 49.72498
1003.973, 53.46118
1004.455, 55.88110
1004.937, 48.59412
1005.419, 38.27051
1005.901, 33.94568
1006.384, 38.95874
1006.866, 42.72656
1007.348, 46.13501
1007.830, 44.79407
1008.312, 33.22205
1008.794, 14.38562
1009.276, 5.544922
1009.758, 6.216919
1010.240, 11.82776
1010.723, 29.60303
1011.205, 41.71606
1011.687, 30.22473
1012.169, 4.894165
1012.651, 7.945068
1013.133, 4.454590
1013.615, 5.563843
1014.097, 23.41382
1014.580, 37.68494
1015.062, 28.66895
1015.544, 6.662231
1016.026, 9.327271
1016.508, 15.43994
1016.990, 16.53271
1017.472, 10.86938
1017.954, 3.584839
1018.436, 2.819580
1018.919, 8.284058
1019.401, 13.11707
1019.883, 17.32410
1020.365, 18.68774
1020.847, 13.82593
1021.329, 7.259155
1021.811, 0.5639650
1022.293, 4.089111
1022.776, 1.103882
1023.258, 21.31055
1023.740, 32.52893
1024.222, 25.44128
1024.704, 13.11792
1025.186, 13.32141
1025.668, 23.42847
1026.150, 36.73096
1026.632, 53.02136
1027.115, 62.83032
1027.597, 49.16064
1028.079, 36.70691
1028.561, 46.73975
1029.043, 77.69495
1029.525, 89.61169
1030.007, 80.51050
1030.489, 73.00977
1030.972, 79.66113
1031.454, 90.71814
1031.936, 93.74158
1032.418, 90.57275
1032.900, 85.16370
1033.382, 71.99390
1033.864, 66.77185
1034.346, 73.93066
1034.828, 85.19922
1035.311, 92.27771
1035.793, 95.30664
1036.275, 93.74780
1036.757, 88.58569
1037.239, 83.03638
1037.721, 79.30920
1038.203, 76.49084
1038.685, 73.28369
1039.167, 70.08618
1039.650, 71.37146
1040.132, 78.54602
1040.614, 84.27808
1041.096, 86.49634
1041.578, 84.61877
1042.060, 73.29004
1042.542, 58.52649
1043.024, 52.12292
1043.507, 64.09424
1043.989, 71.62891
1044.471, 66.74524
1044.953, 60.74182
1045.435, 64.46387
1045.917, 76.60449
1046.399, 78.30151
1046.881, 69.65723
1047.364, 60.46558
1047.846, 54.88525
1048.328, 53.29224
1048.810, 58.42957
1049.292, 68.20728
1049.774, 73.20422
1050.256, 71.29053
1050.738, 72.20715
1051.220, 78.53296
1051.703, 86.67603
1052.185, 94.31140
1052.667, 99.03784
1053.149, 94.67419
1053.631, 76.85889
1054.113, 65.20898
1054.595, 68.74194
1055.077, 75.35559
1055.559, 78.99805
1056.042, 80.43457
1056.524, 86.65210
1057.006, 96.78503
1057.488, 103.7539
1057.970, 100.9684
1058.452, 96.62708
1058.934, 95.36670
1059.416, 96.24536
1059.899, 97.01611
1060.381, 96.52856
1060.863, 100.5892
1061.345, 110.8065
1061.827, 120.8000
1062.309, 123.7008
1062.791, 122.3979
1063.273, 120.5502
1063.755, 118.5425
1064.238, 117.1694
1064.720, 115.3535
1065.202, 116.1981
1065.684, 121.9426
1066.166, 130.0288
1066.648, 130.4205
1067.130, 125.8459
1067.612, 130.3289
1068.094, 153.5944
1068.577, 174.2188
1069.059, 182.3729
1069.541, 179.7502
1070.023, 165.3081
1070.505, 133.0487
1070.987, 129.0415
1071.469, 155.8481
1071.951, 184.9403
1072.434, 197.5909
1072.916, 201.3652
1073.398, 203.2295
1073.880, 204.0270
1074.362, 205.7354
1074.844, 210.7437
1075.326, 209.9130
1075.808, 199.2552
1076.291, 190.9729
1076.773, 209.7134
1077.255, 244.1868
1077.737, 259.8975
1078.219, 251.0607
1078.701, 240.0294
1079.183, 235.2139
1079.665, 234.2839
1080.147, 237.1965
1080.630, 242.7189
1081.112, 242.1895
1081.594, 236.0576
1082.076, 235.0571
1082.558, 245.6030
1083.040, 256.8369
1083.522, 257.5663
1084.004, 253.4824
1084.486, 252.1108
1084.969, 254.4520
1085.451, 259.3599
1085.933, 267.7131
1086.415, 275.1748
1086.897, 279.3081
1087.379, 280.2898
1087.861, 276.1355
1088.343, 267.4670
1088.826, 259.5720
1089.308, 251.1710
1089.790, 249.0302
1090.272, 257.7235
1090.754, 268.8359
1091.236, 264.7622
1091.718, 250.8862
1092.200, 255.7975
1092.682, 285.1648
1093.165, 305.8499
1093.647, 284.2017
1094.129, 260.4543
1094.611, 259.6404
1095.093, 276.1819
1095.575, 283.9885
1096.057, 282.9988
1096.539, 277.8867
1097.022, 270.8210
1097.504, 259.6919
1097.986, 233.0642
1098.468, 204.9812
1098.950, 196.8417
1099.432, 223.3452
1099.914, 239.0283
1100.396, 243.3105
1100.879, 237.9406
1101.361, 215.5968
1101.843, 188.3048
1102.325, 181.3452
1102.807, 190.4950
1103.289, 199.2339
1103.771, 205.9707
1104.253, 204.7345
1104.735, 191.1377
1105.218, 174.0022
1105.700, 165.8112
1106.182, 164.9692
1106.664, 166.0151
1107.146, 168.4225
1107.628, 165.6914
1108.110, 145.2886
1108.592, 127.2543
1109.074, 126.0830
1109.557, 136.4514
1110.039, 137.8409
1110.521, 130.3088
1111.003, 116.8915
1111.485, 95.36951
1111.967, 75.57031
1112.449, 66.57520
1112.931, 65.45496
1113.414, 71.40784
1113.896, 87.62537
1114.378, 90.59302
1114.860, 77.72668
1115.342, 63.08142
1115.824, 53.07593
1116.306, 47.05774
1116.788, 44.11792
1117.271, 44.32556
1117.753, 47.83447
1118.235, 61.36572
1118.717, 68.63416
1119.199, 66.51904
1119.681, 59.49658
1120.163, 48.53064
1120.645, 36.56250
1121.127, 33.47253
1121.609, 38.91321
1122.092, 44.95825
1122.574, 53.42041
1123.056, 54.12537
1123.538, 39.45105
1124.020, 19.07288
1124.502, 15.27148
1124.984, 25.35376
1125.466, 24.26208
1125.949, 6.033081
1126.431, 10.19604
1126.913, 9.262451
1127.395, 2.799072
1127.877, 1.808960
1128.359, 4.401489
1128.841, 5.317505
1129.323, 4.522095
1129.806, 2.584106
1130.288, 0.2642820
1130.770, 4.188599
1131.252, 13.90625
1131.734, 22.59814
1132.216, 19.62756
1132.698, 1.297607
1133.180, 15.29968
1133.662, 21.97827
1134.145, 23.73547
1134.627, 19.24463
1135.109, 12.59021
1135.591, 11.05505
1136.073, 12.64160
1136.555, 12.16321
1137.037, 4.365723
1137.519, 0.2717290
1138.001, 1.674927
1138.484, 4.544434
1138.966, 1.791382
1139.448, 1.994629
1139.930, 7.734619
1140.412, 29.87976
1140.894, 46.75269
1141.376, 49.33179
1141.858, 47.85669
1142.341, 45.10632
1142.823, 40.24524
1143.305, 29.66211
1143.787, 15.15051
1144.269, 3.835571
1144.751, 3.305176
1145.233, 4.804321
1145.715, 4.184937
1146.198, 15.36536
1146.680, 26.38049
1147.162, 35.53442
1147.644, 31.84497
1148.126, 16.38123
1148.608, 3.736206
1149.090, 1.802002
1149.572, 2.334473
1150.054, 8.432983
1150.536, 17.69812
1151.019, 8.771729
1151.501, 21.70618
1151.983, 23.38025
1152.465, 4.983887
1152.947, 33.01331
1153.429, 43.64209
1153.911, 47.35352
1154.393, 55.49536
1154.876, 63.02759
1155.358, 59.42041
1155.840, 37.38062
1156.322, 26.74768
1156.804, 29.62415
1157.286, 35.59155
1157.768, 37.60022
1158.250, 37.02979
1158.733, 34.80896
1159.215, 31.27747
1159.697, 27.91992
1160.179, 25.43408
1160.661, 21.48535
1161.143, 13.95093
1161.625, 10.20618
1162.107, 23.84412
1162.589, 44.74683
1163.072, 56.47083
1163.554, 57.88733
1164.036, 53.80212
1164.518, 39.65369
1165.000, 30.19482
1165.482, 30.16968
1165.964, 34.55640
1166.446, 36.60767
1166.928, 35.48792
1167.411, 27.24915
1167.893, 9.405518
1168.375, 2.348267
1168.857, 0.9801030
1169.339, 5.573975
1169.821, 16.77197
1170.303, 29.42468
1170.785, 34.51636
1171.268, 33.11572
1171.750, 27.78687
1172.232, 15.60266
1172.714, 9.185669
1173.196, 16.71021
1173.678, 29.51453
1174.160, 47.16333
1174.642, 66.25830
1175.125, 55.42358
1175.607, 20.85376
1176.089, 2.854492
1176.571, 8.534180
1177.053, 23.49231
1177.535, 31.72485
1178.017, 34.31543
1178.499, 28.93738
1178.981, 15.79004
1179.464, 19.02856
1179.946, 37.67920
1180.428, 52.16077
1180.910, 43.76062
1181.392, 34.88977
1181.874, 41.24683
1182.356, 52.83936
1182.838, 52.71289
1183.320, 40.25366
1183.803, 35.40039
1184.285, 39.19482
1184.767, 44.92480
1185.249, 48.31897
1185.731, 50.98132
1186.213, 55.82043
1186.695, 60.23059
1187.177, 55.70776
1187.660, 41.47644
1188.142, 30.43140
1188.624, 24.93054
1189.106, 19.70227
1189.588, 5.876221
1190.070, 4.837646
1190.552, 0.6597900
1191.034, 18.86633
1191.516, 32.54211
1191.999, 42.07727
1192.481, 41.91528
1192.963, 28.27014
1193.445, 13.93359
1193.927, 10.11890
1194.409, 13.14893
1194.891, 22.10181
1195.373, 36.68433
1195.855, 40.99207
1196.338, 33.67810
1196.820, 28.21375
1197.302, 29.20508
1197.784, 33.61890
1198.266, 42.78894
1198.748, 50.69250
1199.230, 47.41113
1199.712, 28.99341
1200.195, 21.46008
1200.677, 26.24597
1201.159, 31.92737
1201.641, 32.35486
1202.123, 30.56702
1202.605, 28.24854
1203.087, 26.72607
1203.569, 28.78821
1204.052, 36.68359
1204.534, 40.69641
1205.016, 41.06421
1205.498, 36.29187
1205.980, 18.43542
1206.462, 0.3045650
1206.944, 0.1092530
1207.426, 10.28125
1207.908, 14.25256
1208.391, 1.771973
1208.873, 9.103149
1209.355, 40.78345
1209.837, 67.78467
1210.319, 58.37830
1210.801, 36.09741
1211.283, 29.91846
1211.765, 35.55151
1212.247, 33.93250
1212.730, 18.18567
1213.212, 14.26233
1213.694, 27.83594
1214.176, 41.43066
1214.658, 33.91699
1215.140, 18.58679
1215.622, 7.177979
1216.104, 1.074951
1216.587, 3.753662
1217.069, 18.51660
1217.551, 30.31860
1218.033, 36.97864
1218.515, 39.05530
1218.997, 34.99390
1219.479, 28.12463
1219.961, 20.65808
1220.443, 13.39734
1220.926, 12.91882
1221.408, 21.70117
1221.890, 27.67761
1222.372, 27.56433
1222.854, 25.48645
1223.336, 24.51843
1223.818, 25.47034
1224.300, 29.98401
1224.782, 38.44019
1225.265, 46.79578
1225.747, 56.48767
1226.229, 57.37781
1226.711, 44.60413
1227.193, 29.16028
1227.675, 24.38501
1228.157, 23.92822
1228.639, 19.21094
1229.122, 8.439453
1229.604, 7.341309
1230.086, 17.83142
1230.568, 24.33887
1231.050, 18.97717
1231.532, 11.55554
1232.014, 14.20764
1232.496, 20.95459
1232.979, 22.94971
1233.461, 18.09277
1233.943, 24.63989
1234.425, 45.35803
1234.907, 60.22070
1235.389, 56.53687
1235.871, 48.29468
1236.353, 50.21423
1236.835, 54.70752
1237.318, 49.64209
1237.800, 32.32666
1238.282, 24.83203
1238.764, 27.49805
1239.246, 34.39612
1239.728, 47.16907
1240.210, 56.48169
1240.692, 48.75073
1241.175, 27.45581
1241.657, 42.40649
1242.139, 50.96118
1242.621, 53.30347
1243.103, 29.49609
1243.585, 39.27686
1244.067, 35.59375
1244.549, 31.45190
1245.031, 46.14307
1245.514, 26.12061
1245.996, 40.50439
1246.478, 41.14746
1246.960, 48.03662
1247.442, 41.34619
1247.924, 38.86108
1248.406, 49.99805
1248.888, 31.38428
1249.370, 26.67212
1249.853, 22.39209
1250.335, 25.20410
1250.817, 34.81372
1251.299, 32.11060
1251.781, 17.40967
1252.263, 8.560059
1252.745, 29.37964
1253.227, 43.11255
1253.710, 23.31226
1254.192, 4.023926
1254.674, 2.833740
1255.156, 22.40186
1255.638, 33.74561
1256.120, 29.93896
1256.602, 27.98877
1257.084, 43.63062
1257.567, 53.96680
1258.049, 47.93213
1258.531, 37.68677
1259.013, 40.93335
1259.495, 54.35498
1259.977, 69.45190
1260.459, 84.37305
1260.941, 88.39307
1261.423, 63.54321
1261.906, 44.91968
1262.388, 41.03711
1262.870, 44.36890
1263.352, 45.90796
1263.834, 45.60083
1264.316, 41.80908
1264.798, 34.94849
1265.280, 31.33105
1265.762, 37.37671
1266.245, 38.20703
1266.727, 28.00977
1267.209, 19.06787
1267.691, 35.87866
1268.173, 61.74316
1268.655, 67.79199
1269.137, 52.54614
1269.619, 36.90674
1270.102, 22.85669
1270.584, 9.551514
1271.066, 4.806885
1271.548, 12.61450
1272.030, 2.022461
1272.512, 24.59766
1272.994, 39.18140
1273.476, 44.29053
1273.958, 41.94092
1274.441, 35.03809
1274.923, 31.95044
1275.405, 35.70288
1275.887, 40.65723
1276.369, 40.25073
1276.851, 38.74683
1277.333, 42.60132
1277.815, 49.78174
1278.297, 45.16211
1278.780, 28.03931
1279.262, 14.21680
1279.744, 7.128174
1280.226, 5.656250
1280.708, 9.781006
1281.190, 18.86597
1281.672, 37.75928
1282.154, 57.15088
1282.637, 49.14478
1283.119, 26.59668
1283.601, 13.52368
1284.083, 16.99878
1284.565, 24.43213
1285.047, 32.14233
1285.529, 37.47974
1286.011, 39.74487
1286.494, 37.69604
1286.976, 28.21191
1287.458, 15.69019
1287.940, 9.441895
1288.422, 12.09961
1288.904, 13.10303
1289.386, 4.161865
1289.868, 0.2456050
1290.350, 7.430176
1290.833, 18.91553
1291.315, 14.17163
1291.797, 0.6511230
1292.279, 3.5156000E-02
1292.761, 0.0000000E+00
##END=



