##NAMES=Phlogopite
##RRUFFID=R050068
##IDEAL CHEMISTRY=KMg_3_(Si_3_Al)O_10_(OH)_2_
##LOCALITY=S.W. Jasper County, Georgia, USA
##OWNER=RRUFF
##SOURCE=Rock Currier
##DESCRIPTION=Dark brown micaceous single crystal
##STATUS=The identification of this mineral has been confirmed by X-ray diffraction and chemical analysis
##URL=rruff.info/R050068
##MEASURED CHEMISTRY=(K_0.94_Na_0.05_[box]_0.01_)(Mg_0.94_Fe_0.06_)_3_(Si_3.00_Al_1.00_)O_10_((OH)_0.53_F_0.47_)_2_
131.6260, 0.0000000E+00
132.1081, 5.495361
132.5902, 30.02441
133.0723, 52.58203
133.5544, 76.70764
134.0366, 97.88525
134.5187, 116.8799
135.0008, 137.1497
135.4829, 161.4011
135.9650, 188.5237
136.4471, 203.9048
136.9293, 199.7490
137.4114, 192.7598
137.8935, 186.7935
138.3756, 181.3206
138.8577, 173.5969
139.3398, 161.5574
139.8220, 145.0332
140.3041, 125.9790
140.7862, 103.2673
141.2683, 79.75732
141.7504, 46.94360
142.2325, 11.47583
142.7147, 5.879395
143.1968, 11.20020
143.6789, 64.64404
144.1610, 132.9927
144.6431, 226.1106
145.1252, 323.5818
145.6074, 409.7742
146.0895, 486.6880
146.5716, 572.0095
147.0537, 682.3145
147.5358, 818.3054
148.0179, 944.5007
148.5001, 1063.764
148.9822, 1171.375
149.4643, 1257.078
149.9464, 1322.369
150.4285, 1392.033
150.9106, 1498.141
151.3928, 1632.534
151.8749, 1720.620
152.3570, 1751.037
152.8391, 1737.479
153.3212, 1683.966
153.8033, 1589.946
154.2855, 1479.716
154.7676, 1370.357
155.2497, 1259.355
155.7318, 1137.550
156.2139, 991.3726
156.6960, 839.6606
157.1782, 700.8281
157.6603, 575.3865
158.1424, 466.4670
158.6245, 380.2710
159.1066, 313.4922
159.5887, 262.5774
160.0709, 224.3555
160.5530, 202.6389
161.0351, 209.7246
161.5172, 253.0364
161.9993, 298.1980
162.4814, 312.6692
162.9636, 311.3564
163.4457, 322.3120
163.9278, 363.9775
164.4099, 421.2957
164.8920, 467.9717
165.3741, 503.3857
165.8563, 529.2334
166.3384, 538.4622
166.8205, 539.8635
167.3026, 548.8169
167.7847, 576.2913
168.2668, 613.7939
168.7490, 642.7244
169.2311, 660.7830
169.7132, 675.3867
170.1953, 691.0049
170.6774, 706.1104
171.1595, 717.8459
171.6417, 723.3608
172.1238, 725.3083
172.6059, 731.6462
173.0880, 747.2563
173.5701, 757.0305
174.0522, 752.1191
174.5344, 738.3635
175.0165, 723.4929
175.4986, 709.9512
175.9807, 698.4375
176.4628, 690.4912
176.9449, 685.6006
177.4271, 685.9265
177.9092, 688.3389
178.3913, 696.2148
178.8734, 715.1628
179.3555, 748.1345
179.8376, 792.1396
180.3197, 841.0444
180.8019, 906.3699
181.2840, 957.5491
181.7661, 973.3657
182.2482, 976.1089
182.7303, 993.1335
183.2124, 1041.855
183.6946, 1109.725
184.1767, 1166.760
184.6588, 1205.464
185.1409, 1254.255
185.6230, 1329.008
186.1051, 1416.373
186.5873, 1497.882
187.0694, 1567.371
187.5515, 1628.980
188.0336, 1694.351
188.5157, 1761.996
188.9978, 1839.751
189.4800, 1926.707
189.9621, 2021.047
190.4442, 2118.118
190.9263, 2214.806
191.4084, 2309.172
191.8905, 2397.493
192.3727, 2483.301
192.8548, 2556.493
193.3369, 2622.558
193.8190, 2674.824
194.3011, 2706.628
194.7832, 2715.293
195.2654, 2703.902
195.7475, 2681.250
196.2296, 2657.687
196.7117, 2598.079
197.1938, 2484.560
197.6759, 2347.162
198.1581, 2209.699
198.6402, 2080.025
199.1223, 1955.684
199.6044, 1832.134
200.0865, 1708.479
200.5686, 1587.141
201.0508, 1468.761
201.5329, 1351.747
202.0150, 1232.273
202.4971, 1109.844
202.9792, 994.7642
203.4613, 905.4031
203.9435, 855.1265
204.4256, 801.8230
204.9077, 735.8345
205.3898, 671.6042
205.8719, 619.7424
206.3540, 581.9072
206.8362, 551.3738
207.3183, 518.6104
207.8004, 481.4868
208.2825, 448.4189
208.7646, 423.7502
209.2467, 399.2766
209.7289, 369.2375
210.2110, 333.7446
210.6931, 297.6626
211.1752, 266.9087
211.6573, 243.2756
212.1395, 219.1152
212.6216, 193.5286
213.1037, 168.3467
213.5858, 141.6135
214.0679, 115.2861
214.5500, 95.58960
215.0322, 91.29346
215.5143, 106.6406
215.9964, 108.9397
216.4785, 84.84717
216.9606, 60.27783
217.4427, 43.95337
217.9249, 35.60010
218.4070, 30.79590
218.8891, 25.58374
219.3712, 19.79565
219.8533, 19.75708
220.3354, 37.82275
220.8176, 49.69897
221.2997, 44.57178
221.7818, 28.08594
222.2639, 11.44922
222.7460, 1.900879
223.2281, 0.6694340
223.7103, 3.685547
224.1924, 31.35620
224.6745, 47.74780
225.1566, 35.79443
225.6387, 10.04614
226.1208, 6.736084
226.6030, 0.3535160
227.0851, 22.39697
227.5672, 32.77246
228.0493, 21.74194
228.5314, 9.465332
229.0135, 3.906738
229.4957, 15.36426
229.9778, 20.97974
230.4599, 18.83667
230.9420, 11.89380
231.4241, 7.395996
231.9062, 6.763184
232.3884, 6.332275
232.8705, 3.779785
233.3526, 2.142090
233.8347, 6.036377
234.3168, 16.62329
234.7989, 27.71240
235.2811, 26.98047
235.7632, 6.080566
236.2453, 6.700439
236.7274, 2.261719
237.2095, 5.274658
237.6916, 5.290039
238.1738, 3.646240
238.6559, 13.81128
239.1380, 13.94507
239.6201, 0.6752930
240.1022, 7.659668
240.5843, 0.7160640
241.0665, 11.17627
241.5486, 17.89648
242.0307, 20.54346
242.5128, 21.82617
242.9949, 25.19458
243.4770, 31.23999
243.9592, 32.11670
244.4413, 23.45898
244.9234, 13.34302
245.4055, 4.671387
245.8876, 3.002441
246.3697, 11.71851
246.8519, 24.79370
247.3340, 40.91602
247.8161, 47.07764
248.2982, 35.09351
248.7803, 23.63794
249.2624, 19.11621
249.7446, 19.38281
250.2267, 20.98901
250.7088, 22.46338
251.1909, 23.67017
251.6730, 24.40503
252.1551, 25.30713
252.6373, 24.29150
253.1194, 22.83252
253.6015, 18.58398
254.0836, 7.059326
254.5657, 14.89795
255.0478, 38.78125
255.5300, 49.58252
256.0121, 43.38770
256.4942, 38.83447
256.9763, 38.74438
257.4584, 43.84766
257.9406, 55.71533
258.4227, 74.77930
258.9048, 98.60864
259.3869, 128.4644
259.8690, 165.0527
260.3511, 191.3499
260.8333, 194.5830
261.3154, 194.9399
261.7975, 207.1262
262.2796, 231.3088
262.7617, 258.7979
263.2438, 284.5110
263.7260, 308.6707
264.2081, 331.7842
264.6902, 352.1453
265.1723, 374.3276
265.6544, 402.2981
266.1365, 434.8147
266.6187, 467.5676
267.1008, 498.5769
267.5829, 528.4624
268.0650, 558.2070
268.5471, 587.4180
269.0292, 617.7012
269.5114, 650.9541
269.9935, 685.8279
270.4756, 720.2378
270.9577, 750.1675
271.4398, 782.2498
271.9219, 826.9744
272.4041, 884.8857
272.8862, 939.0833
273.3683, 976.3103
273.8504, 1006.959
274.3325, 1052.076
274.8146, 1122.315
275.2968, 1189.571
275.7789, 1233.603
276.2610, 1258.317
276.7431, 1281.288
277.2252, 1311.678
277.7073, 1338.479
278.1895, 1341.566
278.6716, 1317.653
279.1537, 1292.333
279.6358, 1283.540
280.1179, 1277.318
280.6000, 1247.150
281.0822, 1185.262
281.5643, 1110.527
282.0464, 1043.528
282.5285, 985.4011
283.0106, 924.9043
283.4927, 863.7905
283.9749, 797.5037
284.4570, 713.3875
284.9391, 613.3774
285.4212, 528.2378
285.9033, 487.5491
286.3854, 490.9714
286.8676, 477.2410
287.3497, 433.1912
287.8318, 386.2749
288.3139, 348.3823
288.7960, 318.7742
289.2781, 293.5613
289.7603, 270.7070
290.2424, 249.9878
290.7245, 231.1641
291.2066, 217.8611
291.6887, 201.4509
292.1708, 174.1194
292.6530, 144.7400
293.1351, 126.6602
293.6172, 125.3254
294.0993, 132.1626
294.5814, 132.1006
295.0635, 119.9722
295.5457, 110.1055
296.0278, 102.7859
296.5099, 98.09912
296.9920, 96.66064
297.4741, 97.46411
297.9562, 98.53540
298.4384, 97.78345
298.9205, 93.81909
299.4026, 97.77856
299.8847, 116.7715
300.3668, 136.0310
300.8489, 149.7175
301.3310, 159.8062
301.8131, 171.2893
302.2953, 187.5845
302.7774, 207.4695
303.2595, 225.2100
303.7416, 237.1467
304.2237, 252.3577
304.7058, 277.8062
305.1880, 304.3208
305.6701, 320.3984
306.1522, 322.2249
306.6343, 321.5103
307.1164, 340.3655
307.5985, 386.3447
308.0807, 421.9517
308.5628, 425.5793
309.0449, 427.2236
309.5270, 447.4514
310.0091, 486.9517
310.4912, 527.0457
310.9734, 548.7307
311.4555, 554.3770
311.9376, 569.5083
312.4197, 604.0474
312.9018, 636.5999
313.3839, 649.6907
313.8661, 650.1187
314.3482, 655.4958
314.8303, 675.4636
315.3124, 704.5569
315.7945, 734.7217
316.2766, 766.6001
316.7588, 795.3274
317.2409, 813.5037
317.7230, 828.2385
318.2051, 853.0000
318.6872, 897.7241
319.1693, 937.6768
319.6515, 949.8279
320.1336, 939.6848
320.6157, 932.3818
321.0978, 937.0798
321.5799, 947.1128
322.0620, 953.1096
322.5442, 955.8962
323.0263, 952.7842
323.5084, 938.2961
323.9905, 919.4675
324.4726, 906.0979
324.9547, 899.7524
325.4369, 894.7756
325.9190, 887.0771
326.4011, 876.4817
326.8832, 856.9854
327.3653, 820.1445
327.8474, 782.4250
328.3296, 753.6067
328.8117, 731.7581
329.2938, 709.8508
329.7759, 683.6135
330.2580, 654.1355
330.7401, 627.2068
331.2223, 607.0034
331.7044, 584.0093
332.1865, 555.8330
332.6686, 525.0012
333.1507, 492.2188
333.6328, 458.3389
334.1150, 427.5706
334.5971, 408.0388
335.0792, 409.6194
335.5613, 395.1956
336.0434, 350.2463
336.5255, 304.2244
337.0077, 271.8840
337.4898, 252.4355
337.9719, 237.3765
338.4540, 220.2444
338.9361, 201.6187
339.4182, 186.9429
339.9004, 178.9888
340.3825, 171.4297
340.8646, 164.6929
341.3467, 156.6890
341.8288, 143.5806
342.3109, 122.9976
342.7931, 101.0955
343.2752, 87.18994
343.7573, 82.05469
344.2394, 79.53467
344.7215, 80.47949
345.2036, 81.78442
345.6858, 80.29077
346.1679, 75.72290
346.6500, 72.44336
347.1321, 76.90894
347.6142, 85.61206
348.0963, 88.50366
348.5785, 84.05566
349.0606, 76.09009
349.5427, 65.24805
350.0248, 53.26782
350.5069, 45.15283
350.9890, 43.52637
351.4712, 44.90405
351.9533, 46.79004
352.4354, 48.74219
352.9175, 51.11792
353.3996, 54.86401
353.8817, 58.45972
354.3639, 57.04980
354.8460, 47.20630
355.3281, 40.62817
355.8102, 43.59521
356.2923, 49.53027
356.7744, 49.80396
357.2566, 42.83691
357.7387, 34.37207
358.2208, 30.92212
358.7029, 33.58960
359.1850, 35.33545
359.6671, 35.64697
360.1493, 35.70312
360.6314, 35.19141
361.1135, 34.87256
361.5956, 36.74316
362.0777, 42.33911
362.5598, 49.78027
363.0420, 51.61768
363.5241, 40.26709
364.0062, 35.74878
364.4883, 47.04688
364.9704, 61.21313
365.4525, 65.82202
365.9347, 58.92725
366.4168, 50.35449
366.8989, 52.83252
367.3810, 67.38696
367.8631, 75.72607
368.3452, 73.12500
368.8274, 68.80591
369.3095, 67.37280
369.7916, 67.98950
370.2737, 68.76562
370.7558, 70.79126
371.2379, 70.85522
371.7201, 59.90674
372.2022, 36.01685
372.6843, 20.44360
373.1664, 28.64038
373.6485, 46.58276
374.1306, 52.01758
374.6128, 41.06860
375.0949, 29.26953
375.5770, 24.51392
376.0591, 24.65552
376.5412, 25.50513
377.0233, 26.17798
377.5055, 27.94189
377.9876, 32.69092
378.4697, 40.83325
378.9518, 46.71826
379.4339, 50.84814
379.9160, 52.18335
380.3982, 48.68921
380.8803, 41.72607
381.3624, 34.40283
381.8445, 28.10864
382.3266, 23.60498
382.8087, 23.23291
383.2909, 33.05884
383.7730, 39.12915
384.2551, 40.25049
384.7372, 38.15918
385.2193, 33.19849
385.7014, 26.04517
386.1836, 18.73267
386.6657, 13.21826
387.1478, 9.547852
387.6299, 7.460205
388.1120, 9.464355
388.5941, 10.08838
389.0763, 5.955811
389.5584, 0.2883300
390.0405, 4.246826
390.5226, 3.744629
391.0047, 1.206055
391.4868, 0.8596190
391.9690, 3.094482
392.4511, 3.653809
392.9332, 8.5693002E-02
393.4153, 4.420898
393.8974, 6.301025
394.3795, 5.567383
394.8617, 5.981934
395.3438, 13.20239
395.8259, 21.45532
396.3080, 17.50488
396.7901, 0.7011720
397.2722, 14.01318
397.7544, 6.752441
398.2365, 17.03760
398.7186, 33.27173
399.2007, 42.02002
399.6828, 43.32153
400.1649, 31.63892
400.6471, 13.77637
401.1292, 1.560547
401.6113, 1.156250
402.0934, 6.6405997E-02
402.5755, 4.417969
403.0576, 19.45483
403.5398, 23.13428
404.0219, 2.506592
404.5040, 15.81519
404.9861, 14.17212
405.4682, 1.444336
405.9503, 13.50513
406.4325, 10.22998
406.9146, 3.401367
407.3967, 9.329834
407.8788, 3.902588
408.3609, 1.967041
408.8430, 11.47095
409.3252, 16.35693
409.8073, 7.295898
410.2894, 14.74927
410.7715, 35.53662
411.2536, 40.06421
411.7357, 32.47095
412.2179, 30.65161
412.7000, 37.50073
413.1821, 43.46155
413.6642, 37.73022
414.1463, 26.50842
414.6284, 23.58240
415.1106, 37.27002
415.5927, 53.58875
416.0748, 62.51318
416.5569, 66.00256
417.0390, 69.59021
417.5211, 74.70117
418.0033, 80.86292
418.4854, 87.52759
418.9675, 94.32397
419.4496, 102.4288
419.9317, 118.5004
420.4138, 130.2609
420.8960, 124.1720
421.3781, 106.2507
421.8602, 95.16675
422.3423, 103.5505
422.8244, 125.9543
423.3065, 135.6033
423.7887, 119.5883
424.2708, 110.8093
424.7529, 117.7589
425.2350, 129.2029
425.7171, 137.4480
426.1992, 140.6759
426.6814, 139.4261
427.1635, 131.4873
427.6456, 117.8046
428.1277, 110.8536
428.6098, 112.3607
429.0919, 117.4387
429.5741, 123.6721
430.0562, 131.7031
430.5383, 143.7671
431.0204, 163.5042
431.5025, 180.6246
431.9846, 185.9935
432.4668, 181.5596
432.9489, 173.0276
433.4310, 160.5898
433.9131, 148.7390
434.3952, 143.1801
434.8773, 144.6178
435.3595, 146.1116
435.8416, 146.2478
436.3237, 147.3228
436.8058, 150.8572
437.2879, 156.4907
437.7701, 164.2089
438.2522, 174.3862
438.7343, 184.0718
439.2164, 185.0005
439.6985, 167.6760
440.1806, 158.6448
440.6628, 161.8593
441.1449, 169.5114
441.6270, 179.6445
442.1091, 190.0571
442.5912, 196.0001
443.0733, 192.4836
443.5555, 182.2336
444.0376, 174.8518
444.5197, 169.0203
445.0018, 169.8561
445.4839, 189.6237
445.9660, 211.7302
446.4482, 217.4459
446.9303, 202.4153
447.4124, 187.4020
447.8945, 189.4286
448.3766, 199.6211
448.8587, 197.1519
449.3409, 178.3357
449.8230, 159.5372
450.3051, 154.3147
450.7872, 161.2260
451.2693, 163.2343
451.7514, 156.6278
452.2336, 149.8452
452.7157, 144.2734
453.1978, 140.6897
453.6799, 141.3407
454.1620, 146.4922
454.6441, 152.2438
455.1263, 153.9305
455.6084, 152.5742
456.0905, 144.2710
456.5726, 115.6940
457.0547, 93.68140
457.5368, 92.76477
458.0190, 102.3313
458.5011, 104.1230
458.9832, 89.39160
459.4653, 69.35742
459.9474, 60.87573
460.4295, 64.10986
460.9117, 64.93567
461.3938, 60.58203
461.8759, 54.60120
462.3580, 48.63550
462.8401, 42.67004
463.3222, 36.69604
463.8044, 27.84644
464.2865, 21.11145
464.7686, 24.47742
465.2507, 34.43457
465.7328, 36.10876
466.2149, 21.37622
466.6971, 0.7451170
467.1792, 3.785278
467.6613, 23.18896
468.1434, 34.65283
468.6255, 17.25391
469.1076, 4.005371
469.5898, 15.56140
470.0719, 17.25757
470.5540, 12.65344
471.0361, 2.984619
471.5182, 8.671265
472.0003, 13.19299
472.4825, 8.890015
472.9646, 1.958374
473.4467, 10.79456
473.9288, 22.52405
474.4109, 28.44983
474.8930, 28.57336
475.3752, 26.45447
475.8573, 24.82703
476.3394, 21.98462
476.8215, 12.39551
477.3036, 4.116821
477.7857, 14.47144
478.2679, 8.876221
478.7500, 4.340088
479.2321, 3.593750
479.7142, 17.90344
480.1963, 34.04895
480.6784, 32.99756
481.1606, 29.11182
481.6427, 36.59326
482.1248, 55.24158
482.6069, 75.76355
483.0890, 91.82031
483.5711, 103.3871
484.0533, 110.2814
484.5354, 108.8596
485.0175, 108.6583
485.4996, 113.9009
485.9817, 118.7771
486.4638, 114.8639
486.9460, 103.2891
487.4281, 98.23596
487.9102, 115.6611
488.3923, 147.8978
488.8744, 171.4238
489.3565, 184.9673
489.8387, 195.9561
490.3208, 207.9171
490.8029, 219.5325
491.2850, 227.1820
491.7671, 227.4448
492.2492, 233.5907
492.7314, 258.0186
493.2135, 286.1777
493.6956, 299.5879
494.1777, 297.8173
494.6598, 294.3473
495.1419, 299.2806
495.6241, 311.4109
496.1062, 323.1838
496.5883, 336.9347
497.0704, 346.7134
497.5525, 349.3062
498.0346, 349.7587
498.5168, 352.8162
498.9989, 358.5842
499.4810, 363.0149
499.9631, 361.8335
500.4452, 356.6787
500.9273, 353.0786
501.4095, 350.4442
501.8916, 351.9866
502.3737, 360.4274
502.8558, 373.3337
503.3379, 388.9929
503.8200, 410.6974
504.3022, 420.6936
504.7843, 399.6454
505.2664, 370.6145
505.7485, 360.1565
506.2306, 369.5856
506.7127, 388.6791
507.1949, 412.4722
507.6770, 437.9617
508.1591, 451.6931
508.6412, 444.9093
509.1233, 438.6414
509.6054, 431.0442
510.0876, 426.6023
510.5697, 432.1909
511.0518, 445.2927
511.5339, 454.4441
512.0161, 450.8796
512.4982, 437.8188
512.9803, 421.9766
513.4624, 402.1512
513.9445, 388.0403
514.4266, 387.5657
514.9088, 390.5814
515.3909, 380.5544
515.8730, 355.5708
516.3551, 341.8926
516.8372, 361.2109
517.3193, 385.8552
517.8015, 387.7045
518.2836, 369.3322
518.7657, 346.9001
519.2478, 328.1948
519.7299, 315.5728
520.2120, 314.6638
520.6942, 337.1071
521.1763, 347.9285
521.6584, 339.3043
522.1405, 328.0378
522.6226, 323.0924
523.1047, 323.0420
523.5869, 322.0907
524.0690, 316.5516
524.5511, 308.7737
525.0332, 303.7346
525.5153, 302.5896
525.9974, 303.7919
526.4796, 308.3317
526.9617, 311.3165
527.4438, 307.4454
527.9259, 298.4210
528.4080, 292.3809
528.8901, 291.7832
529.3723, 293.5181
529.8544, 296.7878
530.3365, 300.0859
530.8186, 300.3365
531.3007, 296.1913
531.7828, 288.4851
532.2650, 276.7738
532.7471, 258.9330
533.2292, 251.2246
533.7113, 262.1075
534.1934, 273.4312
534.6755, 281.8518
535.1577, 287.9454
535.6398, 291.5443
536.1219, 292.1523
536.6040, 288.9999
537.0861, 280.9215
537.5682, 270.5693
538.0504, 263.7479
538.5325, 261.6830
539.0146, 256.9500
539.4967, 240.3846
539.9788, 217.5354
540.4609, 214.9496
540.9431, 254.0115
541.4252, 281.6102
541.9073, 279.6901
542.3894, 266.3198
542.8715, 257.5468
543.3536, 255.4117
543.8358, 254.1737
544.3179, 248.9611
544.8000, 241.2285
545.2821, 237.1244
545.7642, 236.5374
546.2463, 239.9939
546.7285, 254.2847
547.2106, 267.6602
547.6926, 268.6709
548.1747, 258.2402
548.6569, 250.7484
549.1390, 257.0071
549.6211, 266.1273
550.1032, 263.7695
550.5853, 252.8595
551.0674, 248.7035
551.5496, 258.6252
552.0317, 271.3011
552.5138, 266.7592
552.9959, 234.7050
553.4780, 220.5812
553.9601, 241.6155
554.4423, 259.4192
554.9244, 255.5461
555.4065, 239.2164
555.8886, 225.3350
556.3707, 219.2775
556.8528, 217.9762
557.3350, 220.7395
557.8171, 226.3073
558.2992, 222.7770
558.7813, 206.0792
559.2634, 189.7214
559.7455, 182.7754
560.2277, 183.0995
560.7098, 183.2455
561.1919, 185.4955
561.6740, 183.4646
562.1561, 170.5388
562.6382, 155.1562
563.1204, 148.0950
563.6025, 148.7700
564.0846, 146.9294
564.5667, 134.3115
565.0488, 114.6270
565.5309, 102.5599
566.0131, 100.5316
566.4952, 100.0260
566.9773, 102.2211
567.4594, 103.3718
567.9415, 100.2867
568.4236, 93.73633
568.9058, 87.68311
569.3879, 84.46289
569.8700, 81.83374
570.3521, 77.33203
570.8342, 71.45642
571.3163, 65.84607
571.7985, 60.99329
572.2806, 56.80188
572.7627, 53.91296
573.2448, 53.13171
573.7269, 45.75293
574.2090, 19.34705
574.6912, 1.415649
575.1733, 6.882324
575.6554, 20.16382
576.1375, 22.87939
576.6196, 11.43372
577.1017, 2.581421
577.5839, 8.412720
578.0660, 8.415649
578.5481, 10.61938
579.0302, 15.39368
579.5123, 20.14661
579.9944, 24.00098
580.4766, 26.87903
580.9587, 28.30505
581.4408, 27.89673
581.9229, 27.96692
582.4050, 31.71436
582.8871, 33.42224
583.3693, 26.97791
583.8514, 15.76221
584.3335, 7.249878
584.8156, 4.916748
585.2977, 6.100342
585.7798, 7.735474
586.2620, 10.22314
586.7441, 7.501221
587.2262, 5.693726
587.7083, 15.94409
588.1904, 12.97131
588.6725, 2.768066
589.1547, 5.611572
589.6368, 11.54309
590.1189, 14.15808
590.6010, 11.90051
591.0831, 6.704102
591.5652, 0.9484860
592.0474, 5.176025
592.5295, 13.35327
593.0116, 25.36511
593.4937, 38.15991
593.9758, 42.01843
594.4579, 33.53442
594.9401, 24.17517
595.4222, 9.400024
595.9043, 0.9394530
596.3864, 0.9626460
596.8685, 7.500732
597.3506, 20.08484
597.8328, 37.72119
598.3149, 53.90564
598.7970, 63.44910
599.2791, 66.93945
599.7612, 63.75830
600.2433, 53.74536
600.7255, 45.68420
601.2076, 47.36609
601.6897, 57.59900
602.1718, 66.66467
602.6539, 73.40845
603.1360, 80.52405
603.6182, 88.20581
604.1003, 96.32190
604.5824, 106.2809
605.0645, 116.8945
605.5466, 123.6656
606.0287, 122.1255
606.5109, 118.0022
606.9930, 119.7112
607.4751, 126.8380
607.9572, 137.0804
608.4393, 151.1232
608.9214, 163.4760
609.4036, 168.5790
609.8857, 166.3737
610.3678, 162.0627
610.8499, 145.0521
611.3320, 139.4646
611.8141, 162.5328
612.2963, 192.3878
612.7784, 205.4606
613.2605, 200.6294
613.7426, 193.7874
614.2247, 195.2953
614.7068, 204.6426
615.1890, 224.2622
615.6711, 254.9683
616.1532, 276.4163
616.6353, 279.0978
617.1174, 276.9287
617.5995, 287.1925
618.0817, 310.2273
618.5638, 324.4120
619.0459, 319.6388
619.5280, 316.6057
620.0101, 323.2717
620.4922, 336.1914
620.9744, 352.5012
621.4565, 370.6156
621.9386, 387.0115
622.4207, 397.2424
622.9028, 403.7776
623.3849, 415.8662
623.8671, 433.6982
624.3492, 456.5436
624.8313, 487.2393
625.3134, 519.4341
625.7955, 546.2488
626.2776, 568.0354
626.7598, 584.0610
627.2419, 588.6035
627.7240, 593.3356
628.2061, 605.1796
628.6882, 620.4301
629.1703, 632.5686
629.6525, 640.5552
630.1346, 649.5997
630.6167, 665.4257
631.0988, 686.5895
631.5809, 704.9126
632.0630, 719.4453
632.5452, 733.9108
633.0273, 752.8552
633.5094, 770.8137
633.9915, 778.8953
634.4736, 777.5088
634.9557, 781.7236
635.4379, 800.3453
635.9200, 820.0914
636.4021, 835.7921
636.8842, 846.3151
637.3663, 848.3367
637.8484, 842.2937
638.3306, 836.4573
638.8127, 840.6343
639.2948, 852.0693
639.7769, 849.8865
640.2590, 826.5483
640.7411, 816.3481
641.2233, 840.1836
641.7054, 871.7595
642.1875, 881.0762
642.6696, 869.8752
643.1517, 864.0342
643.6339, 876.6074
644.1160, 887.5360
644.5981, 882.9700
645.0802, 871.7749
645.5623, 865.5490
646.0444, 866.9990
646.5266, 872.6216
647.0087, 879.3932
647.4908, 887.3389
647.9729, 897.9905
648.4550, 914.3606
648.9371, 921.6743
649.4193, 906.8474
649.9014, 891.6276
650.3835, 902.7252
650.8656, 935.1768
651.3477, 953.6270
651.8298, 940.3203
652.3120, 925.3396
652.7941, 922.0798
653.2762, 925.8894
653.7583, 929.9232
654.2404, 933.4342
654.7225, 942.0569
655.2047, 963.2473
655.6868, 990.5177
656.1689, 998.2280
656.6510, 981.1981
657.1331, 978.1132
657.6152, 1001.071
658.0974, 1033.109
658.5795, 1061.607
659.0616, 1086.650
659.5437, 1109.015
660.0258, 1123.510
660.5079, 1142.467
660.9901, 1176.440
661.4722, 1213.039
661.9543, 1232.329
662.4364, 1239.078
662.9185, 1263.160
663.4006, 1328.994
663.8828, 1410.849
664.3649, 1445.985
664.8470, 1431.901
665.3291, 1440.216
665.8112, 1488.556
666.2933, 1547.529
666.7755, 1597.869
667.2576, 1641.232
667.7397, 1684.985
668.2218, 1720.681
668.7039, 1768.926
669.1860, 1839.157
669.6682, 1919.669
670.1503, 2004.867
670.6324, 2092.658
671.1145, 2180.120
671.5966, 2265.960
672.0787, 2353.323
672.5609, 2449.248
673.0430, 2552.328
673.5251, 2650.174
674.0072, 2741.522
674.4893, 2832.524
674.9714, 2925.741
675.4536, 3022.365
675.9357, 3125.413
676.4178, 3246.033
676.8999, 3349.436
677.3820, 3425.349
677.8641, 3493.554
678.3463, 3562.802
678.8284, 3631.366
679.3105, 3695.351
679.7926, 3753.407
680.2747, 3805.808
680.7568, 3861.456
681.2390, 3909.006
681.7211, 3918.002
682.2032, 3888.355
682.6853, 3839.208
683.1674, 3775.042
683.6495, 3707.626
684.1317, 3657.684
684.6138, 3633.713
685.0959, 3582.761
685.5780, 3490.113
686.0601, 3386.843
686.5422, 3275.847
687.0244, 3160.398
687.5065, 3045.473
687.9886, 2930.426
688.4707, 2807.247
688.9528, 2662.948
689.4349, 2514.502
689.9171, 2383.707
690.3992, 2264.898
690.8813, 2137.334
691.3634, 1995.860
691.8455, 1861.691
692.3276, 1758.766
692.8098, 1682.732
693.2919, 1596.141
693.7740, 1491.948
694.2561, 1392.593
694.7382, 1302.611
695.2203, 1218.144
695.7025, 1136.614
696.1846, 1057.926
696.6667, 982.7827
697.1488, 913.0051
697.6309, 844.3213
698.1130, 771.1868
698.5952, 700.0946
699.0773, 642.2065
699.5594, 595.6355
700.0415, 545.6025
700.5236, 481.5740
701.0057, 415.7026
701.4879, 377.8748
701.9700, 369.9003
702.4521, 350.5187
702.9342, 312.6818
703.4163, 271.7979
703.8984, 233.7231
704.3806, 200.1644
704.8627, 175.6191
705.3448, 164.2314
705.8269, 149.2384
706.3090, 119.6985
706.7911, 94.46045
707.2733, 89.55164
707.7554, 95.11267
708.2375, 94.67371
708.7196, 83.10706
709.2017, 65.93237
709.6838, 45.70129
710.1660, 24.46899
710.6481, 4.698608
711.1302, 12.94275
711.6123, 15.13635
712.0944, 6.027710
712.5765, 30.84985
713.0587, 34.31567
713.5408, 15.32690
714.0229, 1.842407
714.5050, 21.64636
714.9871, 33.07874
715.4692, 31.94238
715.9514, 23.96216
716.4335, 8.763794
716.9156, 10.05457
717.3977, 19.43152
717.8798, 8.539429
718.3619, 5.530273
718.8441, 8.153320
719.3262, 5.108154
719.8083, 6.663086
720.2904, 13.63831
720.7725, 21.12500
721.2546, 26.32666
721.7368, 27.66064
722.2189, 18.42334
722.7010, 4.590820
723.1831, 15.14307
723.6652, 6.380371
724.1473, 5.508789
724.6295, 14.66882
725.1116, 19.56604
725.5937, 16.45349
726.0758, 1.921753
726.5579, 8.682251
727.0400, 10.71143
727.5222, 9.996704
728.0043, 6.449341
728.4864, 3.871582
728.9685, 11.45349
729.4506, 29.98853
729.9327, 42.76855
730.4149, 28.40076
730.8970, 5.7861000E-02
731.3791, 12.62842
731.8612, 10.72009
732.3433, 3.650269
732.8254, 6.242676
733.3076, 18.47864
733.7897, 33.67871
734.2718, 51.09839
734.7539, 61.40686
735.2360, 62.40283
735.7181, 59.83911
736.2003, 50.11523
736.6824, 41.09033
737.1645, 38.23743
737.6466, 39.95837
738.1287, 41.59973
738.6108, 42.37683
739.0930, 41.75977
739.5751, 38.09351
740.0572, 33.77393
740.5393, 30.25464
741.0214, 28.67041
741.5035, 33.28931
741.9857, 46.17810
742.4678, 58.57373
742.9499, 55.40234
743.4320, 38.17847
743.9141, 28.36218
744.3962, 26.96143
744.8784, 29.36707
745.3605, 36.30920
745.8426, 42.12341
746.3247, 22.33167
746.8068, 41.33105
747.2889, 51.25745
747.7711, 52.59741
748.2532, 19.62451
748.7353, 30.97498
749.2174, 24.57007
749.6995, 17.44153
750.1816, 35.04639
750.6638, 7.090454
751.1459, 19.17822
751.6280, 19.11670
752.1101, 28.97070
752.5922, 42.42908
753.0743, 46.45679
753.5565, 41.12830
754.0386, 35.55505
754.5207, 34.74634
755.0028, 37.34302
755.4849, 45.59216
755.9670, 61.73889
756.4492, 60.15747
756.9313, 32.28760
757.4134, 7.999512
757.8955, 0.1156010
758.3776, 2.559082
758.8597, 9.540649
759.3419, 21.17676
759.8240, 29.29871
760.3061, 31.48743
760.7882, 32.83008
761.2703, 33.30310
761.7524, 35.68677
762.2346, 44.20874
762.7167, 57.38403
763.1988, 67.85828
763.6809, 70.29053
764.1630, 69.79492
764.6451, 72.35547
765.1273, 77.50330
765.6094, 83.98755
766.0915, 91.14050
766.5736, 96.49597
767.0557, 98.35144
767.5378, 98.34314
768.0200, 100.8276
768.5021, 107.1461
768.9842, 110.3457
769.4663, 108.7036
769.9484, 104.9692
770.4305, 97.03687
770.9127, 91.41418
771.3948, 99.20911
771.8769, 121.4812
772.3590, 136.7711
772.8411, 136.7853
773.3232, 137.7019
773.8054, 148.3911
774.2875, 161.8518
774.7696, 170.3108
775.2517, 172.7269
775.7338, 171.5658
776.2159, 166.1290
776.6981, 161.9568
777.1802, 166.6719
777.6623, 177.2115
778.1444, 189.1840
778.6265, 200.1569
779.1086, 200.3185
779.5908, 183.5087
780.0729, 161.6779
780.5550, 156.6929
781.0371, 169.3868
781.5192, 181.2284
782.0013, 194.1693
782.4835, 200.9923
782.9656, 196.4897
783.4477, 186.8281
783.9298, 179.4208
784.4119, 173.9500
784.8940, 170.8580
785.3762, 169.4305
785.8583, 171.8252
786.3404, 183.0773
786.8225, 193.4332
787.3046, 192.4363
787.7867, 183.4197
788.2689, 180.2104
788.7510, 190.7535
789.2331, 200.9521
789.7152, 197.7006
790.1973, 188.3096
790.6794, 185.7936
791.1616, 188.2853
791.6437, 183.0166
792.1258, 164.4803
792.6079, 144.0624
793.0900, 138.7836
793.5721, 146.2770
794.0543, 142.2257
794.5364, 124.0853
795.0185, 111.4683
795.5006, 112.3342
795.9827, 115.1874
796.4648, 107.2029
796.9470, 90.08948
797.4291, 82.60999
797.9112, 97.01880
798.3933, 103.4934
798.8754, 96.48340
799.3575, 85.48389
799.8397, 72.15295
800.3218, 59.86121
800.8039, 55.02161
801.2860, 60.28015
801.7681, 64.71875
802.2502, 63.68530
802.7324, 58.69995
803.2145, 48.25940
803.6966, 35.82166
804.1787, 27.44336
804.6608, 24.58899
805.1429, 24.72925
805.6251, 26.17688
806.1072, 28.60901
806.5893, 32.84436
807.0714, 38.07227
807.5535, 36.49036
808.0356, 26.25964
808.5178, 18.34509
808.9999, 21.16125
809.4820, 28.72827
809.9641, 24.76416
810.4462, 3.528809
810.9283, 8.427734
811.4105, 10.22400
811.8926, 4.068726
812.3747, 20.25476
812.8568, 44.82935
813.3389, 45.82458
813.8210, 23.22913
814.3032, 6.218628
814.7853, 1.910645
815.2674, 0.1674800
815.7495, 2.615845
816.2316, 4.233643
816.7137, 1.123413
817.1959, 4.738770
817.6780, 7.502319
818.1601, 4.569824
818.6422, 1.291382
819.1243, 10.73438
819.6064, 19.97107
820.0886, 23.10327
820.5707, 20.55103
821.0528, 13.71179
821.5349, 3.378052
822.0170, 5.199219
822.4991, 5.378174
822.9813, 0.5092770
823.4634, 2.646729
823.9455, 0.9512940
824.4276, 3.489868
824.9097, 12.06775
825.3918, 16.24561
825.8740, 7.079224
826.3561, 9.525391
826.8382, 12.78955
827.3203, 6.621338
827.8024, 17.73474
828.2845, 12.61987
828.7667, 8.897583
829.2488, 15.87219
829.7309, 25.86145
830.2130, 29.46436
830.6951, 26.14172
831.1772, 22.39246
831.6594, 17.11108
832.1415, 14.94519
832.6236, 21.41284
833.1057, 29.38354
833.5878, 32.22510
834.0699, 29.74060
834.5521, 23.15796
835.0342, 11.70911
835.5163, 3.756958
835.9984, 12.28687
836.4805, 26.51807
836.9626, 25.26758
837.4448, 12.85559
837.9269, 10.92932
838.4090, 26.13049
838.8911, 41.58838
839.3732, 37.79346
839.8553, 21.49561
840.3375, 19.90833
840.8196, 33.45801
841.3017, 38.73145
841.7838, 30.57312
842.2659, 18.15332
842.7480, 5.689209
843.2302, 4.270020
843.7123, 5.122681
844.1944, 5.041748
844.6765, 18.56995
845.1586, 43.25647
845.6407, 59.68262
846.1229, 55.78369
846.6050, 44.43591
847.0871, 36.34546
847.5692, 31.82495
848.0513, 31.28259
848.5334, 41.08191
849.0156, 46.30261
849.4977, 36.87573
849.9798, 26.75769
850.4619, 25.54932
850.9440, 32.58044
851.4261, 47.01501
851.9083, 69.57410
852.3904, 84.97424
852.8725, 78.56946
853.3546, 64.02991
853.8367, 51.13049
854.3188, 42.77661
854.8010, 45.81311
855.2831, 59.80505
855.7652, 74.76282
856.2473, 84.18201
856.7294, 87.96240
857.2115, 82.27539
857.6937, 70.35852
858.1758, 68.81799
858.6579, 78.75183
859.1400, 84.55103
859.6221, 78.33240
860.1042, 69.29199
860.5864, 71.23218
861.0685, 83.61255
861.5506, 91.20789
862.0327, 92.89648
862.5148, 94.35962
862.9969, 97.62903
863.4791, 99.23792
863.9612, 94.89307
864.4433, 87.12170
864.9254, 85.22400
865.4075, 91.94873
865.8896, 98.84802
866.3718, 108.1516
866.8539, 114.9938
867.3360, 116.4011
867.8181, 115.2715
868.3002, 113.9618
868.7823, 112.4724
869.2645, 111.5961
869.7466, 115.0210
870.2287, 115.9814
870.7108, 107.6821
871.1929, 97.53479
871.6750, 91.25330
872.1572, 88.52625
872.6393, 88.64514
873.1214, 91.53113
873.6035, 93.70947
874.0856, 92.14465
874.5677, 89.49536
875.0499, 87.93970
875.5320, 87.45154
876.0141, 88.01953
876.4962, 89.45923
876.9783, 91.42786
877.4604, 93.99744
877.9426, 97.06091
878.4247, 102.2860
878.9068, 107.9171
879.3889, 103.7426
879.8710, 90.16528
880.3531, 83.15442
880.8353, 89.56921
881.3174, 96.53137
881.7995, 87.18066
882.2816, 65.62476
882.7637, 58.70056
883.2458, 68.60291
883.7280, 74.71814
884.2101, 71.89221
884.6922, 69.02454
885.1743, 72.94287
885.6564, 80.43909
886.1385, 86.08191
886.6207, 89.92017
887.1028, 91.99695
887.5849, 92.69995
888.0670, 90.81775
888.5491, 83.37549
889.0313, 75.41760
889.5134, 69.91113
889.9955, 67.37048
890.4776, 70.49109
890.9597, 87.55408
891.4418, 95.42505
891.9240, 78.37817
892.4061, 64.95605
892.8882, 78.01147
893.3703, 99.49121
893.8524, 101.2904
894.3345, 81.59363
894.8167, 69.62964
895.2988, 85.77637
895.7809, 103.1101
896.2630, 106.6368
896.7451, 102.8754
897.2272, 97.91345
897.7094, 92.68164
898.1915, 85.38184
898.6736, 75.30896
899.1557, 69.12708
899.6378, 75.38562
900.1199, 85.28455
900.6021, 88.36316
901.0842, 86.30103
901.5663, 84.33813
902.0484, 83.46655
902.5305, 79.27441
903.0126, 67.94141
903.4948, 57.16174
903.9769, 60.35571
904.4590, 73.24512
904.9411, 83.82458
905.4232, 91.81787
905.9053, 95.62915
906.3875, 94.27734
906.8696, 89.47131
907.3517, 81.51477
907.8338, 73.60242
908.3159, 79.99548
908.7980, 100.9929
909.2802, 106.7284
909.7623, 91.66980
910.2444, 80.09973
910.7265, 85.14600
911.2086, 95.31238
911.6907, 93.19897
912.1729, 79.03687
912.6550, 71.32520
913.1371, 70.86475
913.6192, 75.50171
914.1013, 90.73401
914.5834, 99.41052
915.0656, 85.07019
915.5477, 59.52783
916.0298, 50.72644
916.5119, 64.74609
916.9940, 72.66077
917.4761, 69.47266
917.9583, 67.24512
918.4404, 72.80261
918.9225, 76.95959
919.4046, 70.63269
919.8867, 56.85132
920.3688, 46.51196
920.8510, 39.51904
921.3331, 38.10657
921.8152, 50.02222
922.2973, 60.15759
922.7794, 57.97559
923.2615, 52.49426
923.7437, 55.21887
924.2258, 65.96729
924.7079, 75.41187
925.1900, 84.43335
925.6721, 85.68481
926.1542, 65.58752
926.6364, 46.46545
927.1185, 49.91809
927.6006, 65.90039
928.0827, 75.31409
928.5648, 74.50989
929.0469, 73.33118
929.5291, 81.71606
930.0112, 86.57227
930.4933, 72.70691
930.9754, 53.32715
931.4575, 46.22632
931.9396, 48.71118
932.4218, 47.73059
932.9039, 38.58533
933.3860, 28.88879
933.8681, 21.86853
934.3502, 20.66833
934.8323, 34.74011
935.3145, 55.12024
935.7966, 65.29407
936.2787, 63.49390
936.7608, 53.98889
937.2429, 38.88550
937.7250, 24.39697
938.2072, 18.36487
938.6893, 19.34680
939.1714, 26.66235
939.6535, 37.81921
940.1356, 42.92542
940.6177, 40.20569
941.0999, 35.54773
941.5820, 32.78577
942.0641, 32.20850
942.5462, 36.39709
943.0283, 43.53674
943.5104, 42.34253
943.9926, 33.22168
944.4747, 27.95374
944.9568, 30.21924
945.4389, 35.27026
945.9210, 39.41382
946.4031, 41.83020
946.8853, 39.98743
947.3674, 33.88904
947.8495, 24.66455
948.3316, 11.69226
948.8137, 4.580688
949.2958, 7.934937
949.7780, 13.97107
950.2601, 13.78845
950.7422, 8.897217
951.2243, 8.570557
951.7064, 14.69226
952.1885, 11.49133
952.6707, 6.083008
953.1528, 19.05359
953.6349, 17.31262
954.1170, 9.417358
954.5991, 7.234619
955.0812, 10.33264
955.5634, 7.429199
956.0455, 4.836182
956.5276, 12.31799
957.0097, 10.81421
957.4918, 9.990967
957.9739, 17.33228
958.4561, 25.84888
958.9382, 22.95886
959.4203, 7.305542
959.9024, 1.174316
960.3845, 0.3721920
960.8666, 3.626465
961.3488, 11.12305
961.8309, 14.72583
962.3130, 5.384155
962.7951, 9.119629
963.2772, 13.04224
963.7593, 4.246704
964.2415, 3.752930
964.7236, 13.00842
965.2057, 18.48694
965.6878, 17.24109
966.1699, 14.02698
966.6520, 11.07141
967.1342, 8.553833
967.6163, 6.976563
968.0984, 6.622314
968.5805, 6.106812
969.0626, 4.553955
969.5447, 3.913330
970.0269, 6.362915
970.5090, 8.363525
970.9911, 5.902466
971.4732, 1.026367
971.9553, 0.5507810
972.4374, 2.614380
972.9196, 5.770630
973.4017, 9.875122
973.8838, 11.84985
974.3659, 9.395752
974.8480, 5.370850
975.3301, 0.6812740
975.8123, 3.348145
976.2944, 2.199707
976.7765, 8.288940
977.2586, 12.34521
977.7407, 3.358032
978.2228, 14.26331
978.7050, 3.682983
979.1871, 12.23633
979.6692, 16.74939
980.1513, 11.86890
980.6334, 9.284180
981.1155, 11.66309
981.5977, 15.88879
982.0798, 25.31128
982.5619, 31.35266
983.0440, 28.56274
983.5261, 20.91187
984.0082, 8.438843
984.4904, 4.931274
984.9725, 5.514282
985.4546, 17.04761
985.9367, 32.29529
986.4188, 20.27515
986.9009, 8.052856
987.3831, 15.69287
987.8652, 29.04272
988.3473, 30.47278
988.8294, 20.63501
989.3115, 11.03931
989.7936, 4.855713
990.2758, 4.8340000E-02
990.7579, 3.828247
991.2400, 6.976563
991.7221, 12.07715
992.2042, 14.84094
992.6863, 5.932861
993.1685, 11.05261
993.6506, 17.52417
994.1327, 2.434937
994.6148, 9.326172
995.0969, 4.849121
995.5790, 4.706787
996.0612, 14.25061
996.5433, 22.74182
997.0254, 30.72717
997.5075, 37.22168
997.9896, 38.08740
998.4717, 30.04749
998.9539, 21.94482
999.4360, 17.32458
999.9181, 14.59546
1000.400, 10.37366
1000.882, 8.892212
1001.364, 19.47400
1001.847, 38.72009
1002.329, 49.46643
1002.811, 43.33923
1003.293, 35.97754
1003.775, 33.84314
1004.257, 33.92908
1004.739, 33.97839
1005.221, 35.18933
1005.703, 41.44238
1006.186, 50.67712
1006.668, 54.07642
1007.150, 47.08691
1007.632, 39.40820
1008.114, 33.76892
1008.596, 30.76599
1009.078, 33.12988
1009.560, 36.77917
1010.043, 37.94580
1010.525, 35.35010
1011.007, 26.68640
1011.489, 8.960938
1011.971, 1.466309
1012.453, 7.981323
1012.935, 19.17908
1013.417, 22.17114
1013.899, 21.20007
1014.382, 21.16687
1014.864, 21.32776
1015.346, 16.38037
1015.828, 2.952026
1016.310, 7.134277
1016.792, 10.06995
1017.274, 7.613892
1017.756, 3.703125
1018.239, 16.41333
1018.721, 21.39111
1019.203, 20.92688
1019.685, 24.89294
1020.167, 37.32776
1020.649, 44.59766
1021.131, 40.52271
1021.613, 34.12939
1022.095, 23.35046
1022.578, 16.37549
1023.060, 22.98877
1023.542, 39.27014
1024.024, 55.29395
1024.506, 69.91125
1024.988, 79.61169
1025.470, 77.07544
1025.952, 77.78943
1026.435, 93.27673
1026.917, 108.9191
1027.399, 109.3495
1027.881, 101.8402
1028.363, 104.5944
1028.845, 121.7974
1029.327, 132.8213
1029.809, 126.3297
1030.292, 123.7391
1030.774, 127.9752
1031.256, 140.6272
1031.738, 174.7445
1032.220, 213.0157
1032.702, 220.4874
1033.184, 191.6497
1033.666, 176.6564
1034.148, 194.0138
1034.630, 206.3796
1035.113, 206.2373
1035.595, 200.9009
1036.077, 191.5470
1036.559, 181.5547
1037.041, 174.0297
1037.523, 168.9037
1038.005, 163.5673
1038.487, 155.8571
1038.970, 151.3964
1039.452, 150.9108
1039.934, 153.3323
1040.416, 162.2533
1040.898, 170.4025
1041.380, 168.0320
1041.862, 156.1489
1042.344, 145.3967
1042.826, 134.3059
1043.309, 128.9143
1043.791, 133.2137
1044.273, 135.4340
1044.755, 130.0400
1045.237, 122.3898
1045.719, 116.9755
1046.201, 114.1504
1046.683, 116.5272
1047.166, 128.5251
1047.648, 128.6693
1048.130, 109.0137
1048.612, 101.8634
1049.094, 121.4025
1049.576, 144.7511
1050.058, 152.8523
1050.540, 151.0822
1051.022, 152.4801
1051.505, 157.5593
1051.987, 157.9460
1052.469, 152.3367
1052.951, 148.3975
1053.433, 147.8607
1053.915, 148.1971
1054.397, 147.3877
1054.879, 147.9258
1055.361, 155.7079
1055.844, 169.6643
1056.326, 176.5267
1056.808, 176.3635
1057.290, 176.2415
1057.772, 177.3484
1058.254, 180.1575
1058.736, 184.9585
1059.218, 191.1127
1059.701, 198.2401
1060.183, 205.6223
1060.665, 211.2427
1061.147, 214.9569
1061.629, 215.8285
1062.111, 213.8059
1062.593, 207.4834
1063.075, 196.7314
1063.557, 191.0570
1064.040, 201.0354
1064.522, 218.9810
1065.004, 232.8608
1065.486, 242.8727
1065.968, 247.7473
1066.450, 249.1671
1066.932, 253.9807
1067.414, 263.0343
1067.896, 268.2115
1068.379, 263.3846
1068.861, 254.6768
1069.343, 245.5372
1069.825, 239.4093
1070.307, 243.4280
1070.789, 253.5890
1071.271, 261.4609
1071.753, 265.9386
1072.236, 268.0742
1072.718, 267.4885
1073.200, 271.0146
1073.682, 289.4033
1074.164, 307.6469
1074.646, 311.8896
1075.128, 310.0436
1075.610, 309.0786
1076.093, 311.2571
1076.575, 322.2643
1077.057, 344.1417
1077.539, 361.1355
1078.021, 365.2616
1078.503, 364.4633
1078.985, 358.0321
1079.467, 353.1562
1079.949, 355.4790
1080.432, 362.7898
1080.914, 369.0315
1081.396, 374.2167
1081.878, 383.7124
1082.360, 403.1986
1082.842, 418.1281
1083.324, 429.2517
1083.806, 432.8074
1084.288, 420.5668
1084.771, 404.7148
1085.253, 398.7745
1085.735, 401.7216
1086.217, 405.8129
1086.699, 411.6466
1087.181, 414.3839
1087.663, 412.2007
1088.145, 413.4641
1088.628, 422.8248
1089.110, 431.3207
1089.592, 431.4313
1090.074, 428.3086
1090.556, 432.3342
1091.038, 443.9896
1091.520, 442.7667
1092.002, 425.5684
1092.484, 416.4019
1092.967, 420.1168
1093.449, 426.4176
1093.931, 430.3781
1094.413, 433.0482
1094.895, 435.8080
1095.377, 438.1536
1095.859, 440.6411
1096.341, 442.1941
1096.823, 430.6968
1097.306, 407.4639
1097.788, 390.0970
1098.270, 384.6780
1098.752, 383.4232
1099.234, 380.6445
1099.716, 376.9132
1100.198, 375.6281
1100.680, 372.6692
1101.163, 356.0614
1101.645, 331.9923
1102.127, 314.1892
1102.609, 305.6014
1103.091, 306.6873
1103.573, 318.2318
1104.055, 325.5632
1104.537, 310.6650
1105.020, 293.0980
1105.502, 295.2704
1105.984, 301.7454
1106.466, 291.2887
1106.948, 269.9027
1107.430, 254.0426
1107.912, 247.3212
1108.394, 244.6438
1108.876, 253.3643
1109.359, 251.4330
1109.841, 220.8401
1110.323, 188.1842
1110.805, 167.3585
1111.287, 155.4202
1111.769, 150.5444
1112.251, 151.0474
1112.733, 149.4065
1113.215, 139.6627
1113.698, 136.5474
1114.180, 152.9528
1114.662, 158.6592
1115.144, 141.7280
1115.626, 119.1426
1116.108, 98.62354
1116.590, 83.76807
1117.072, 83.59717
1117.555, 98.23047
1118.037, 97.93103
1118.519, 78.91919
1119.001, 66.35315
1119.483, 63.62793
1119.965, 65.75269
1120.447, 71.79150
1120.929, 73.59961
1121.411, 61.34363
1121.894, 41.80615
1122.376, 33.17310
1122.858, 33.74316
1123.340, 34.99146
1123.822, 36.46399
1124.304, 40.07385
1124.786, 45.01599
1125.268, 41.27209
1125.750, 22.54749
1126.233, 3.495728
1126.715, 3.922729
1127.197, 11.16479
1127.679, 4.007080
1128.161, 6.250000
1128.643, 3.628906
1129.125, 25.93823
1129.607, 33.75598
1130.090, 21.59143
1130.572, 12.48572
1131.054, 23.28772
1131.536, 30.46741
1132.018, 15.93445
1132.500, 7.0679002E-02
1132.982, 5.429443
1133.464, 2.691772
1133.947, 10.58972
1134.429, 29.11426
1134.911, 33.48413
1135.393, 16.37915
1135.875, 2.406616
1136.357, 10.46228
1136.839, 13.46387
1137.321, 4.514771
1137.803, 18.24915
1138.286, 9.946289
1138.768, 6.684204
1139.250, 11.75940
1139.732, 6.206299
1140.214, 1.910889
1140.696, 13.66174
1141.178, 19.64136
1141.660, 19.24097
1142.142, 11.43616
1142.625, 4.711914
1143.107, 17.77393
1143.589, 19.04773
1144.071, 11.63245
1144.553, 3.064453
1145.035, 20.84119
1145.517, 30.04004
1145.999, 30.81384
1146.482, 19.81177
1146.964, 1.030884
1147.446, 9.339233
1147.928, 5.666870
1148.410, 0.4831540
1148.892, 0.6594240
1149.374, 0.2663570
1149.856, 2.573730
1150.339, 5.868164
1150.821, 6.028809
1151.303, 4.624756
1151.785, 2.814331
1152.267, 1.820801
1152.749, 6.059082
1153.231, 19.87988
1153.713, 25.68469
1154.195, 8.893433
1154.677, 1.663452
1155.160, 10.23560
1155.642, 22.87561
1156.124, 21.95361
1156.606, 13.60266
1157.088, 4.885010
1157.570, 3.674683
1158.052, 4.973389
1158.534, 3.575439
1159.017, 7.131226
1159.499, 4.110474
1159.981, 0.7065430
1160.463, 1.598511
1160.945, 0.4768070
1161.427, 6.316772
1161.909, 14.53809
1162.391, 15.32605
1162.874, 12.90088
1163.356, 21.81531
1163.838, 37.64612
1164.320, 43.18677
1164.802, 38.81799
1165.284, 34.88367
1165.766, 34.59998
1166.248, 33.61902
1166.730, 27.56506
1167.213, 23.66260
1167.695, 33.33008
1168.177, 42.14258
1168.659, 35.97974
1169.141, 22.04382
1169.623, 4.046509
1170.105, 11.91614
1170.587, 10.12958
1171.069, 15.08875
1171.552, 33.05310
1172.034, 35.47620
1172.516, 35.07666
1172.998, 29.89514
1173.480, 28.18713
1173.962, 36.65918
1174.444, 45.65955
1174.926, 44.66785
1175.409, 36.84033
1175.891, 30.50488
1176.373, 25.71936
1176.855, 21.74097
1177.337, 18.56775
1177.819, 14.78455
1178.301, 10.23065
1178.783, 9.621216
1179.266, 15.25610
1179.748, 22.30029
1180.230, 25.80286
1180.712, 27.01196
1181.194, 27.32117
1181.676, 28.39697
1182.158, 36.46918
1182.640, 46.80225
1183.122, 47.67706
1183.604, 40.55420
1184.087, 34.69757
1184.569, 32.81665
1185.051, 32.51105
1185.533, 36.90845
1186.015, 36.93909
1186.497, 28.35242
1186.979, 20.95990
1187.461, 20.58765
1187.944, 23.51331
1188.426, 30.77203
1188.908, 44.19580
1189.390, 49.95355
1189.872, 44.00928
1190.354, 43.32245
1190.836, 53.61102
1191.318, 57.91180
1191.801, 52.31427
1192.283, 46.39783
1192.765, 46.20294
1193.247, 46.62689
1193.729, 38.27673
1194.211, 28.37177
1194.693, 35.05579
1195.175, 49.15356
1195.657, 49.02417
1196.140, 38.52484
1196.622, 26.30823
1197.104, 16.94586
1197.586, 13.07098
1198.068, 15.18835
1198.550, 19.50159
1199.032, 27.46222
1199.514, 31.75671
1199.996, 23.06158
1200.479, 14.40027
1200.961, 16.32098
1201.443, 21.97717
1201.925, 30.73578
1202.407, 42.26776
1202.889, 43.76611
1203.371, 30.96826
1203.853, 21.42853
1204.336, 14.93597
1204.818, 12.75214
1205.300, 15.75995
1205.782, 19.20148
1206.264, 21.73816
1206.746, 23.67493
1207.228, 25.93982
1207.710, 27.09467
1208.193, 19.82672
1208.675, 9.610168
1209.157, 16.36169
1209.639, 33.64172
1210.121, 40.50635
1210.603, 35.34454
1211.085, 27.12665
1211.567, 19.31665
1212.049, 12.16138
1212.531, 2.164490
1213.014, 2.322876
1213.496, 6.716980
1213.978, 18.81274
1214.460, 29.21661
1214.942, 36.59387
1215.424, 39.79272
1215.906, 39.32141
1216.388, 34.15979
1216.871, 22.05811
1217.353, 17.93951
1217.835, 23.61517
1218.317, 28.29309
1218.799, 30.94958
1219.281, 24.50110
1219.763, 4.437805
1220.245, 6.024048
1220.728, 17.20258
1221.210, 50.18420
1221.692, 44.75317
1222.174, 20.41547
1222.656, 15.72870
1223.138, 22.63007
1223.620, 32.52130
1224.102, 38.61713
1224.584, 35.32874
1225.067, 22.33374
1225.549, 12.51654
1226.031, 11.65234
1226.513, 7.377441
1226.995, 15.59375
1227.477, 21.06976
1227.959, 18.65222
1228.441, 13.49872
1228.923, 7.386658
1229.406, 1.800354
1229.888, 3.072571
1230.370, 9.427246
1230.852, 9.287598
1231.334, 1.930298
1231.816, 7.5684004E-02
1232.298, 0.0000000E+00
##END=



