##NAMES=Phlogopite
##RRUFFID=R050068
##IDEAL CHEMISTRY=KMg_3_(Si_3_Al)O_10_(OH)_2_
##LOCALITY=S.W. Jasper County, Georgia, USA
##OWNER=RRUFF
##SOURCE=Rock Currier
##DESCRIPTION=Dark brown micaceous single crystal
##STATUS=The identification of this mineral has been confirmed by X-ray diffraction and chemical analysis
##URL=rruff.info/R050068
##MEASURED CHEMISTRY=(K_0.94_Na_0.05_[box]_0.01_)(Mg_0.94_Fe_0.06_)_3_(Si_3.00_Al_1.00_)O_10_((OH)_0.53_F_0.47_)_2_
137.857, 0.000
139.243, 83.924
140.630, 134.729
142.016, 2.818
143.401, 57.659
144.787, 37.631
146.172, 16.243
147.557, 103.450
148.942, 5.998
150.327, 81.037
151.711, 91.079
153.096, 138.134
154.480, 108.356
155.863, 102.746
157.247, 174.636
158.630, 203.457
160.013, 164.627
161.396, 133.259
162.779, 187.093
164.161, 321.506
165.544, 253.514
166.926, 301.540
168.308, 336.615
169.689, 431.617
171.070, 525.680
172.452, 764.920
173.833, 793.431
175.213, 853.288
176.594, 1162.561
177.974, 1299.304
179.354, 1855.571
180.734, 2218.417
182.114, 2736.708
183.493, 3522.474
184.872, 4530.983
186.251, 5652.266
187.630, 7048.918
189.008, 8656.978
190.387, 12767.259
191.765, 12939.218
193.143, 13327.838
194.520, 11686.794
195.898, 10471.382
197.275, 9239.842
198.652, 7609.879
200.029, 6366.962
201.405, 5150.081
202.782, 4205.231
204.158, 3469.403
205.534, 3086.584
206.909, 2524.552
208.285, 2299.927
209.660, 1827.078
211.035, 1325.211
212.410, 924.326
213.784, 880.420
215.159, 706.493
216.533, 580.543
217.907, 509.570
219.281, 413.594
220.654, 375.655
222.027, 311.083
223.400, 255.889
224.773, 216.019
226.146, 183.296
227.518, 136.095
228.891, 148.362
230.263, 90.618
231.634, 89.387
233.006, 14.981
234.377, 36.566
235.748, 23.119
237.119, 9.371
238.490, 88.912
239.860, 37.506
241.231, 101.155
242.601, 123.860
243.970, 33.618
245.340, 16.567
246.709, 13.733
248.079, 74.744
249.448, 49.728
250.816, 38.357
252.185, 13.491
253.553, 53.272
254.921, 128.990
256.289, 254.645
257.657, 360.238
259.024, 576.771
260.391, 632.246
261.758, 801.664
263.125, 918.029
264.492, 1257.338
265.858, 1501.585
267.224, 1831.767
268.590, 2281.868
269.956, 3500.880
271.321, 3571.716
272.687, 4139.335
274.052, 5021.804
275.416, 5312.202
276.781, 5401.519
278.146, 5326.748
279.510, 4659.928
280.874, 4162.074
282.237, 3373.185
283.601, 2900.258
284.964, 2351.294
286.327, 1809.295
287.690, 1567.259
289.053, 1273.187
290.416, 1078.081
291.778, 958.939
293.140, 816.762
294.502, 774.551
295.863, 716.695
297.225, 697.859
298.586, 716.416
299.947, 743.264
301.308, 822.398
302.668, 896.464
304.029, 1035.069
305.389, 1253.565
306.749, 1489.575
308.108, 1690.249
309.468, 1882.172
310.827, 2153.979
312.186, 2385.254
313.545, 2603.591
314.903, 2989.498
316.262, 3289.666
317.620, 3527.515
318.978, 3733.664
320.336, 3990.565
321.693, 4134.906
323.051, 4122.010
324.408, 3998.716
325.765, 3688.128
327.121, 3621.753
328.478, 3278.757
329.834, 2995.509
331.190, 2789.440
332.546, 2545.866
333.902, 2307.061
335.257, 2076.611
336.612, 1858.521
337.967, 1705.378
339.322, 1517.186
340.677, 1407.947
342.031, 1268.663
343.385, 1228.335
344.739, 1142.123
346.093, 1117.126
347.446, 1060.095
348.799, 1132.577
350.153, 1152.981
351.505, 1226.286
352.858, 1146.384
354.210, 1221.204
355.563, 1230.919
356.915, 1204.581
358.267, 1231.148
359.618, 1308.662
360.969, 1346.004
362.321, 1388.953
363.672, 1423.086
365.022, 1439.529
366.373, 1403.107
367.723, 1362.933
369.073, 1295.850
370.423, 1194.226
371.773, 1141.584
373.122, 1009.926
374.471, 985.251
375.821, 962.560
377.169, 856.852
378.518, 867.127
379.866, 748.387
381.215, 669.629
382.563, 708.855
383.910, 642.065
385.258, 603.590
386.605, 685.764
387.952, 605.880
389.299, 503.836
390.646, 573.565
391.992, 561.314
393.339, 572.722
394.685, 557.083
396.031, 575.457
397.376, 603.197
398.722, 437.664
400.067, 463.662
401.412, 465.623
402.757, 428.765
404.101, 428.869
405.446, 411.997
406.790, 424.766
408.134, 417.806
409.478, 401.081
410.821, 440.887
412.165, 437.388
413.508, 434.298
414.851, 466.089
416.193, 458.537
417.536, 464.239
418.878, 470.159
420.220, 455.689
421.562, 453.570
422.904, 484.720
424.245, 578.548
425.586, 556.985
426.927, 622.400
428.268, 667.792
429.609, 581.162
430.949, 564.510
432.289, 642.836
433.629, 613.143
434.969, 529.428
436.309, 571.694
437.648, 515.941
438.987, 505.470
440.326, 610.380
441.665, 518.572
443.003, 561.746
444.342, 649.902
445.680, 543.040
447.018, 570.160
448.355, 498.263
449.693, 367.347
451.030, 446.415
452.367, 367.465
453.704, 358.499
455.041, 285.515
456.377, 252.512
457.713, 177.492
459.049, 238.451
460.385, 206.389
461.721, 137.303
463.056, 132.744
464.391, 62.960
465.726, 14.852
467.061, 19.387
468.395, 133.694
469.730, 106.128
471.064, 120.678
472.398, 240.349
473.731, 117.204
475.065, 236.178
476.398, 257.333
477.731, 205.680
479.064, 116.192
480.397, 81.821
481.729, 26.548
483.062, 7.656
484.394, 77.809
485.725, 32.073
487.057, 72.976
488.389, 36.989
489.720, 192.965
491.051, 130.912
492.382, 233.831
493.712, 217.724
495.043, 225.591
496.373, 366.433
497.703, 387.254
499.032, 440.053
500.362, 460.832
501.691, 506.588
503.020, 627.325
504.349, 572.041
505.678, 652.737
507.007, 739.412
508.335, 730.094
509.663, 785.774
510.991, 770.436
512.319, 727.124
513.646, 638.800
514.973, 625.481
516.300, 578.160
517.627, 617.873
518.954, 481.603
520.280, 409.321
521.607, 487.033
522.933, 423.764
524.259, 450.516
525.584, 388.261
526.910, 241.027
528.235, 377.787
529.560, 321.531
530.885, 400.275
532.209, 311.004
533.534, 298.742
534.858, 307.471
536.182, 252.192
537.506, 278.439
538.829, 285.603
540.152, 328.292
541.476, 320.969
542.799, 400.630
544.121, 161.289
545.444, 346.932
546.766, 288.562
548.088, 301.180
549.410, 361.784
550.732, 369.802
552.053, 432.964
553.375, 439.539
554.696, 353.101
556.017, 316.661
557.337, 424.210
558.658, 439.756
559.978, 325.302
561.298, 296.870
562.618, 408.446
563.938, 325.169
565.257, 297.947
566.576, 396.322
567.895, 126.960
569.214, 334.591
570.533, 207.216
571.851, 305.833
573.170, 168.460
574.488, 289.084
575.805, 196.701
577.123, 394.311
578.440, 311.909
579.758, 106.497
581.075, 260.071
582.391, 184.635
583.708, 277.189
585.024, 199.968
586.341, 352.120
587.657, 448.564
588.972, 492.293
590.288, 325.560
591.603, 430.579
592.918, 451.788
594.233, 531.265
595.548, 562.731
596.863, 488.189
598.177, 549.639
599.491, 663.079
600.805, 633.510
602.119, 752.933
603.432, 617.346
604.746, 719.752
606.059, 639.148
607.372, 699.537
608.685, 669.918
609.997, 669.021
611.309, 796.654
612.621, 727.010
613.933, 764.081
615.245, 898.010
616.557, 1037.620
617.868, 1041.479
619.179, 1032.200
620.490, 1241.580
621.801, 1140.920
623.111, 1475.573
624.421, 1290.170
625.731, 1733.737
627.041, 1543.143
628.351, 1938.293
629.660, 1887.549
630.970, 1985.315
632.279, 2237.838
633.588, 2170.924
634.896, 2318.716
636.205, 2327.789
637.513, 2539.525
638.821, 2376.467
640.129, 2543.926
641.437, 2628.584
642.744, 2601.600
644.051, 2624.868
645.358, 2781.882
646.665, 2765.458
647.972, 2931.221
649.278, 2747.736
650.584, 2983.695
651.890, 3039.602
653.196, 3333.555
654.502, 3199.870
655.807, 3549.193
657.113, 3552.520
658.418, 3945.854
659.722, 4145.191
661.027, 4306.537
662.331, 4655.888
663.636, 5019.244
664.940, 5449.499
666.244, 5739.672
667.547, 6385.045
668.851, 6852.048
670.154, 7921.220
671.457, 8558.626
672.760, 9719.968
674.062, 10944.708
675.365, 11799.617
676.667, 13076.415
677.969, 14294.660
679.271, 14878.885
680.572, 15585.052
681.874, 15379.574
683.175, 15733.873
684.476, 15111.981
685.777, 14120.421
687.077, 13249.720
688.378, 11663.161
689.678, 10704.410
690.978, 9438.180
692.278, 8237.599
693.577, 6897.023
694.877, 6463.537
696.176, 5433.684
697.475, 4691.144
698.774, 3969.606
700.072, 3577.247
701.371, 2983.201
702.669, 2665.893
703.967, 2210.498
705.265, 2132.976
706.562, 2049.914
707.860, 1824.398
709.157, 1449.887
710.454, 1499.379
711.751, 1363.874
713.047, 1435.373
714.344, 1194.875
715.640, 1278.382
716.936, 1144.893
718.232, 1162.405
719.527, 1221.923
720.823, 1259.442
722.118, 1293.966
723.413, 1221.664
724.708, 1300.128
726.002, 1342.252
727.297, 1349.679
728.591, 1218.443
729.885, 1266.121
731.179, 1242.190
732.472, 1253.778
733.766, 1276.336
735.059, 1252.898
736.352, 1226.092
737.645, 1300.662
738.937, 1214.202
740.230, 1271.783
741.522, 1188.367
742.814, 1050.957
744.106, 1083.551
745.397, 1077.149
746.689, 905.753
747.980, 817.362
749.271, 969.977
750.562, 693.595
751.853, 975.219
753.143, 732.848
754.433, 864.481
755.723, 719.121
757.013, 654.767
758.303, 800.417
759.592, 642.072
760.881, 737.734
762.170, 596.401
763.459, 755.074
764.748, 694.754
766.036, 722.438
767.325, 862.129
768.613, 694.825
769.901, 972.529
771.188, 929.240
772.476, 828.961
773.763, 1034.689
775.050, 851.428
776.337, 1034.175
777.624, 1235.933
778.910, 1139.705
780.196, 1237.494
781.482, 1276.313
782.768, 1124.190
784.054, 1093.116
785.339, 1164.098
786.625, 1270.164
787.910, 1108.285
789.195, 1165.490
790.479, 981.786
791.764, 955.156
793.048, 988.579
794.332, 859.046
795.616, 953.541
796.900, 728.055
798.183, 709.579
799.467, 576.133
800.750, 560.699
802.033, 474.060
803.316, 389.285
804.598, 416.463
805.880, 174.066
807.163, 330.679
808.445, 127.298
809.726, 151.775
811.008, 110.240
812.289, 157.188
813.570, 41.829
814.851, 13.476
816.132, 78.128
817.413, 43.786
818.693, 107.552
819.973, 72.937
821.253, 29.648
822.533, 181.761
823.813, 15.258
825.092, 91.759
826.371, 56.301
827.650, 191.866
828.929, 130.525
830.208, 5.245
831.486, 34.965
832.764, 134.700
834.042, 133.498
835.320, 39.360
836.598, 135.236
837.875, 33.179
839.152, 20.869
840.429, 53.079
841.706, 69.966
842.983, 85.982
844.259, 23.954
845.536, 16.932
846.812, 16.913
848.088, 4.099
849.363, 10.889
850.639, 12.123
851.914, 18.140
853.189, 39.821
854.464, 1.203
855.739, 12.237
857.013, 88.298
858.288, 26.364
859.562, 5.563
860.836, 82.525
862.110, 234.620
863.383, 39.722
864.656, 208.831
865.930, 108.945
867.203, 213.064
868.475, 244.189
869.748, 146.335
871.020, 342.486
872.292, 257.643
873.564, 151.812
874.836, 274.987
876.108, 148.179
877.379, 139.382
878.650, 209.257
879.922, 195.171
881.192, 265.075
882.463, 295.347
883.733, 204.642
885.004, 226.972
886.274, 255.310
887.544, 220.650
888.813, 401.998
890.083, 324.576
891.352, 362.719
892.621, 305.099
893.890, 239.483
895.159, 286.873
896.427, 275.269
897.695, 187.688
898.964, 280.112
900.232, 284.541
901.499, 244.980
902.767, 330.426
904.034, 335.875
905.301, 343.312
906.568, 297.789
907.835, 356.288
909.102, 300.790
910.368, 288.296
911.634, 248.804
912.900, 332.334
914.166, 300.868
915.432, 420.406
916.697, 340.954
917.962, 359.503
919.227, 342.058
920.492, 366.617
921.757, 380.181
923.021, 313.748
924.285, 481.317
925.550, 342.891
926.813, 426.468
928.077, 364.048
929.341, 315.631
930.604, 322.216
931.867, 380.802
933.130, 254.391
934.393, 351.980
935.655, 545.569
936.918, 226.159
938.180, 482.750
939.442, 396.341
940.703, 310.931
941.965, 329.521
943.226, 361.108
944.488, 304.695
945.749, 291.277
947.009, 439.858
948.270, 333.437
949.530, 427.011
950.791, 627.583
952.051, 405.151
953.311, 352.715
954.570, 259.277
955.830, 495.835
957.089, 491.390
958.348, 459.939
959.607, 397.486
960.866, 447.028
962.124, 486.567
963.383, 422.100
964.641, 576.630
965.899, 513.155
967.156, 591.676
968.414, 596.191
969.671, 493.703
970.928, 512.319
972.185, 554.019
973.442, 655.517
974.699, 623.389
975.955, 781.094
977.211, 670.562
978.468, 655.102
979.723, 731.243
980.979, 638.216
982.234, 564.302
983.490, 858.939
984.745, 480.602
986.000, 791.324
987.254, 785.056
988.509, 696.649
989.763, 806.663
991.017, 728.122
992.271, 810.164
993.525, 824.069
994.779, 883.509
996.032, 980.197
997.285, 988.144
998.538, 995.619
999.791, 1050.426
1001.044, 1082.920
1002.296, 1102.778
1003.548, 1184.367
1004.800, 1192.189
1006.052, 1217.833
1007.304, 1200.403
1008.555, 1187.198
1009.807, 1195.106
1011.058, 1120.208
1012.309, 1231.064
1013.559, 1172.297
1014.810, 1066.163
1016.060, 979.976
1017.310, 1095.695
1018.560, 1045.482
1019.810, 917.794
1021.060, 1104.469
1022.309, 1255.268
1023.558, 1257.443
1024.807, 1429.264
1026.056, 1480.724
1027.305, 2013.758
1028.553, 2023.348
1029.801, 2384.191
1031.049, 2316.762
1032.297, 2400.517
1033.545, 2535.109
1034.793, 2447.209
1036.040, 2468.990
1037.287, 2380.495
1038.534, 2314.552
1039.781, 2336.145
1041.027, 2155.692
1042.274, 2066.160
1043.520, 1732.815
1044.766, 1790.604
1046.012, 1637.468
1047.257, 1565.653
1048.503, 1518.350
1049.748, 1597.030
1050.993, 1520.426
1052.238, 1635.852
1053.483, 1521.414
1054.727, 1499.624
1055.971, 1612.843
1057.216, 1667.178
1058.459, 1554.448
1059.703, 1643.853
1060.947, 1559.398
1062.190, 1647.884
1063.433, 1703.453
1064.676, 1775.162
1065.919, 1596.738
1067.162, 1706.094
1068.404, 1894.844
1069.646, 1652.784
1070.888, 1814.597
1072.130, 1838.038
1073.372, 1905.278
1074.613, 1947.834
1075.855, 2032.441
1077.096, 2001.817
1078.337, 2093.651
1079.578, 2242.789
1080.818, 2221.809
1082.059, 2251.014
1083.299, 2199.156
1084.539, 2355.086
1085.779, 2320.161
1087.018, 2379.488
1088.258, 2345.379
1089.497, 2369.684
1090.736, 2342.597
1091.975, 2351.494
1093.213, 2252.540
1094.452, 2238.426
1095.690, 2199.157
1096.928, 2113.155
1098.166, 2155.000
1099.404, 2049.833
1100.642, 2082.657
1101.879, 1819.469
1103.116, 1852.373
1104.353, 1689.157
1105.590, 1539.929
1106.827, 1404.686
1108.063, 1322.090
1109.299, 1193.165
1110.536, 1167.886
1111.771, 1026.595
1113.007, 888.288
1114.243, 921.967
1115.478, 854.632
1116.713, 738.281
1117.948, 630.913
1119.183, 600.531
1120.418, 489.162
1121.652, 569.794
1122.886, 513.410
1124.120, 475.057
1125.354, 380.693
1126.588, 251.337
1127.821, 199.979
1129.055, 243.654
1130.288, 250.346
1131.521, 261.026
1132.753, 158.699
1133.986, 165.390
1135.218, 46.098
1136.450, 274.798
1137.682, 57.516
1138.914, 239.224
1140.146, 40.085
1141.377, 31.572
1142.609, 44.789
1143.840, 16.819
1145.071, 30.413
1146.301, 151.992
1147.532, 274.560
1148.762, 90.111
1149.992, 63.648
1151.222, 47.836
1152.452, 23.627
1153.682, 2.921
1154.911, 62.500
1156.140, 63.860
1157.369, 37.199
1158.598, 45.483
1159.827, 49.783
1161.055, 11.838
1162.284, 47.248
1163.512, 60.447
1164.740, 82.624
1165.967, 147.780
1167.195, 45.081
1168.422, 93.000
1169.650, 63.061
1170.877, 4.900
1172.103, 57.103
1173.330, 24.917
1174.557, 1.982
1175.783, 110.916
1177.009, 49.794
1178.235, 153.352
1179.461, 69.389
1180.686, 41.895
1181.912, 95.234
1183.137, 38.341
1184.362, 124.892
1185.587, 27.421
1186.811, 6.924
1188.036, 110.396
1189.260, 25.154
1190.484, 108.247
1191.708, 52.626
1192.932, 42.989
1194.155, 50.580
1195.378, 65.796
1196.602, 68.273
1197.825, 3.207
1199.047, 83.272
1200.270, 91.527
1201.492, 19.001
1202.715, 170.338
1203.937, 116.575
1205.159, 153.414
1206.380, 119.581
1207.602, 83.528
1208.823, 39.549
1210.044, 73.316
1211.265, 50.158
1212.486, 7.072
1213.707, 116.854
1214.927, 42.616
1216.147, 28.499
1217.367, 36.207
1218.587, 86.048
1219.807, 131.707
1221.027, 59.346
1222.246, 52.082
1223.465, 90.671
1224.684, 31.237
1225.903, 141.777
1227.121, 167.678
1228.340, 120.483
1229.558, 135.664
1230.776, 212.227
1231.994, 145.671
1233.212, 82.095
1234.429, 185.563
1235.646, 95.175
1236.864, 185.606
1238.081, 321.041
1239.297, 161.896
1240.514, 277.247
1241.730, 234.592
1242.947, 313.088
1244.163, 329.758
1245.378, 210.056
1246.594, 323.931
1247.810, 320.115
1249.025, 173.413
1250.240, 395.118
1251.455, 289.444
1252.670, 351.655
1253.885, 374.476
1255.099, 503.655
1256.313, 351.887
1257.527, 314.314
1258.741, 282.278
1259.955, 487.431
1261.168, 364.403
1262.382, 393.355
1263.595, 501.288
1264.808, 497.253
1266.021, 447.147
1267.233, 546.021
1268.446, 507.875
1269.658, 516.709
1270.870, 452.523
1272.082, 566.318
1273.294, 583.094
1274.505, 467.849
1275.716, 408.585
1276.928, 504.300
1278.139, 447.995
1279.349, 455.671
1280.560, 543.326
1281.770, 521.596
1282.981, 457.211
1284.191, 556.481
1285.401, 599.059
1286.610, 529.167
1287.820, 533.259
1289.029, 519.988
1290.239, 561.933
1291.448, 597.688
1292.656, 629.408
1293.865, 719.849
1295.073, 764.039
1296.282, 843.095
1297.490, 882.332
1298.698, 878.142
1299.906, 1051.118
1301.113, 1134.314
1302.320, 1139.267
1303.528, 1097.087
1304.735, 1148.238
1305.942, 1082.070
1307.148, 1013.507
1308.355, 1037.271
1309.561, 912.073
1310.767, 1022.888
1311.973, 799.921
1313.179, 674.694
1314.384, 658.424
1315.590, 704.001
1316.795, 625.166
1318.000, 698.656
1319.205, 440.482
1320.410, 600.694
1321.614, 414.320
1322.819, 351.670
1324.023, 520.269
1325.227, 392.660
1326.431, 364.189
1327.634, 262.339
1328.838, 163.483
1330.041, 285.029
1331.244, 249.999
1332.447, 260.409
1333.650, 218.838
1334.852, 189.214
1336.055, 159.597
1337.257, 137.715
1338.459, 114.811
1339.661, 108.400
1340.862, 78.362
1342.064, 61.654
1343.265, 61.215
1344.466, 108.360
1345.667, 50.522
1346.868, 75.011
1348.068, 192.463
1349.269, 155.777
1350.469, 73.129
1351.669, 152.325
1352.869, 203.359
1354.069, 187.433
1355.268, 270.402
1356.468, 91.208
1357.667, 144.959
1358.866, 131.143
1360.065, 77.010
1361.263, 182.506
1362.462, 73.411
1363.660, 175.370
1364.858, 169.515
1366.056, 80.325
1367.254, 199.087
1368.451, 167.050
1369.649, 108.544
1370.846, 21.963
1372.043, 34.338
1373.240, 19.662
1374.436, 81.577
1375.633, 104.911
1376.829, 225.411
1378.025, 90.314
1379.221, 107.349
1380.417, 88.554
1381.613, 57.426
1382.808, 48.569
1384.003, 90.984
1385.199, 87.604
1386.393, 46.190
1387.588, 13.735
1388.783, 84.130
1389.977, 19.402
1391.171, 102.029
1392.365, 69.003
1393.559, 0.761
1394.753, 52.075
1395.946, 74.357
1397.140, 26.607
1398.333, 18.176
1399.526, 54.007
1400.719, 13.157
1401.911, 69.274
1403.104, 103.357
1404.296, 122.407
1405.488, 168.426
1406.680, 95.417
1407.872, 80.410
1409.063, 93.417
1410.255, 236.398
1411.446, 116.350
1412.637, 331.294
1413.828, 142.244
1415.018, 305.230
1416.209, 292.215
1417.399, 330.203
1418.589, 432.173
1419.779, 454.120
1420.969, 469.093
1422.159, 509.018
1423.348, 476.033
1424.537, 500.027
1425.726, 575.073
1426.915, 501.199
1428.104, 694.431
1429.293, 859.660
1430.481, 881.900
1431.669, 910.172
1432.857, 1176.281
1434.045, 1329.088
1435.233, 1507.498
1436.420, 1663.626
1437.608, 1893.128
1438.795, 1861.263
1439.982, 2062.721
1441.169, 2039.246
1442.355, 2065.627
1443.542, 2097.939
1444.728, 2159.250
1445.914, 2002.846
1447.100, 1981.238
1448.286, 1886.869
1449.472, 1870.239
1450.657, 1730.468
1451.842, 1699.029
1453.027, 1668.422
1454.212, 1578.535
1455.397, 1773.542
1456.581, 1436.005
1457.766, 1581.014
1458.950, 1567.503
1460.134, 1321.957
1461.318, 1441.192
1462.501, 1201.953
1463.685, 1079.412
1464.868, 1017.885
1466.051, 935.594
1467.234, 911.146
1468.417, 690.841
1469.600, 875.499
1470.782, 820.139
1471.965, 753.760
1473.147, 534.357
1474.329, 719.936
1475.510, 558.486
1476.692, 411.008
1477.873, 420.488
1479.055, 516.923
1480.236, 380.496
1481.416, 430.333
1482.597, 240.029
1483.778, 369.298
1484.958, 316.489
1486.138, 208.600
1487.318, 232.613
1488.498, 344.612
1489.678, 230.791
1490.857, 222.538
1492.037, 115.419
1493.216, 211.464
1494.395, 215.646
1495.574, 124.989
1496.752, 221.380
1497.931, 80.816
1499.109, 93.278
1500.287, 22.297
1501.465, 97.504
1502.643, 58.540
1503.820, 5.898
1504.998, 41.114
1506.175, 63.320
1507.352, 56.780
1508.529, 39.511
1509.706, 66.477
1510.882, 91.679
1512.059, 7.138
1513.235, 145.311
1514.411, 120.382
1515.587, 31.666
1516.762, 191.078
1517.938, 7.445
1519.113, 90.375
1520.288, 156.684
1521.463, 174.982
1522.638, 84.390
1523.813, 70.996
1524.987, 0.000
##END=



