##NAMES=Phoenicochroite
##RRUFFID=R050587
##IDEAL CHEMISTRY=Pb^2+^_2_O(Cr^6+^O_4_)
##LOCALITY=Potter Cramer mine, Maricopa County, Arizona, USA
##OWNER=RRUFF
##SOURCE=Marcus Origlieri
##DESCRIPTION=Thin coating that includes red gemmy crystalline fragments in some places
##STATUS=The identification of this mineral is confirmed by single-crystal X-ray diffraction and chemical analysis.
##URL=rruff.info/R050587
##MEASURED CHEMISTRY=Pb_2.05_O(Cr_0.98_O_4_)
99.200, 0.000
99.682, 1.421
100.164, 8.300
100.647, 19.859
101.129, 33.888
101.611, 42.447
102.093, 48.204
102.575, 40.355
103.057, 26.925
103.539, 12.183
104.021, 0.318
104.504, 6.910
104.986, 6.211
105.468, 4.617
105.950, 1.898
106.432, 1.427
106.914, 5.502
107.396, 10.140
107.878, 14.366
108.360, 16.758
108.843, 16.439
109.325, 16.234
109.807, 12.620
110.289, 10.670
110.771, 15.165
111.253, 27.293
111.735, 46.723
112.217, 73.994
112.700, 110.022
113.182, 148.934
113.664, 185.793
114.146, 225.174
114.628, 276.743
115.110, 346.650
115.592, 425.450
116.074, 497.342
116.557, 562.932
117.039, 622.763
117.521, 679.112
118.003, 730.680
118.485, 771.315
118.967, 792.816
119.449, 806.469
119.931, 832.404
120.413, 875.175
120.896, 920.722
121.378, 961.142
121.860, 996.330
122.342, 1023.993
122.824, 1047.130
123.306, 1058.493
123.788, 1048.621
124.270, 1012.153
124.752, 960.037
125.235, 902.471
125.717, 837.837
126.199, 774.697
126.681, 714.575
127.163, 658.502
127.645, 607.877
128.127, 562.653
128.609, 523.947
129.092, 494.579
129.574, 475.540
130.056, 464.150
130.538, 455.683
131.020, 453.888
131.502, 464.442
131.984, 491.333
132.466, 531.750
132.948, 574.854
133.430, 609.310
133.913, 667.067
134.395, 756.053
134.877, 872.040
135.359, 1006.025
135.841, 1148.523
136.323, 1304.560
136.805, 1507.455
137.288, 1770.552
137.770, 2071.749
138.252, 2399.223
138.734, 2757.449
139.216, 3156.842
139.698, 3604.757
140.180, 4102.973
140.662, 4626.856
141.144, 5198.810
141.626, 5782.320
142.109, 6371.735
142.591, 6965.262
143.073, 7557.544
143.555, 8149.159
144.037, 8743.208
144.519, 9295.797
145.001, 9845.147
145.484, 10320.586
145.966, 10773.046
146.448, 11147.050
146.930, 11300.823
147.412, 11091.168
147.894, 10481.165
148.376, 9642.158
148.858, 8397.755
149.340, 7119.618
149.822, 5919.507
150.305, 4838.484
150.787, 3910.100
151.269, 3169.380
151.751, 2655.772
152.233, 2237.191
152.715, 1924.881
153.197, 1679.540
153.679, 1491.939
154.161, 1354.505
154.644, 1248.451
155.126, 1153.506
155.608, 1070.763
156.090, 998.567
156.572, 939.248
157.054, 886.342
157.536, 839.324
158.018, 797.399
158.501, 758.496
158.983, 719.632
159.465, 677.682
159.947, 646.122
160.429, 631.598
160.911, 623.334
161.393, 612.596
161.875, 597.246
162.357, 579.566
162.840, 563.075
163.322, 548.500
163.804, 533.264
164.286, 516.708
164.768, 499.612
165.250, 482.127
165.732, 464.244
166.214, 447.807
166.697, 436.211
167.179, 431.690
167.661, 425.161
168.143, 414.214
168.625, 401.434
169.107, 389.692
169.589, 379.728
170.071, 370.937
170.553, 362.747
171.036, 355.611
171.518, 347.433
172.000, 336.093
172.482, 324.135
172.964, 315.792
173.446, 312.645
173.928, 310.515
174.410, 302.307
174.893, 286.668
175.375, 272.339
175.857, 259.949
176.339, 250.200
176.821, 245.180
177.303, 246.222
177.785, 248.899
178.267, 246.468
178.749, 239.008
179.232, 229.221
179.714, 213.661
180.196, 197.116
180.678, 188.497
181.160, 191.376
181.642, 198.519
182.124, 198.454
182.606, 190.646
183.089, 183.526
183.571, 180.440
184.053, 179.748
184.535, 178.481
185.017, 176.104
185.499, 173.354
185.981, 170.844
186.463, 168.247
186.945, 165.247
187.428, 161.653
187.910, 158.613
188.392, 157.167
188.874, 157.510
189.356, 157.929
189.838, 155.559
190.320, 150.466
190.802, 147.934
191.285, 153.254
191.767, 161.333
192.249, 161.953
192.731, 151.171
193.213, 137.983
193.695, 133.844
194.177, 137.930
194.659, 143.180
195.141, 149.461
195.624, 155.607
196.106, 158.501
196.588, 156.979
197.070, 153.713
197.552, 150.757
198.034, 147.657
198.516, 145.494
198.998, 146.496
199.480, 149.943
199.963, 152.533
200.445, 151.951
200.927, 150.049
201.409, 148.858
201.891, 148.610
202.373, 149.389
202.855, 152.241
203.337, 155.807
203.820, 157.571
204.302, 156.280
204.784, 153.930
205.266, 150.988
205.748, 147.739
206.230, 147.027
206.712, 153.012
207.194, 160.665
207.676, 162.435
208.159, 156.892
208.641, 149.073
209.123, 142.675
209.605, 137.576
210.087, 133.884
210.569, 131.250
211.051, 130.202
211.533, 132.700
212.016, 139.404
212.498, 144.809
212.980, 143.075
213.462, 135.653
213.944, 129.411
214.426, 124.492
214.908, 121.760
215.390, 123.999
215.872, 131.595
216.355, 137.333
216.837, 135.085
217.319, 126.150
217.801, 117.135
218.283, 107.683
218.765, 99.075
219.247, 92.179
219.729, 87.032
220.212, 84.065
220.694, 84.520
221.176, 87.524
221.658, 88.994
222.140, 88.135
222.622, 86.210
223.104, 84.260
223.586, 82.180
224.068, 78.783
224.551, 72.400
225.033, 64.481
225.515, 60.011
225.997, 62.399
226.479, 64.630
226.961, 61.124
227.443, 53.425
227.925, 48.517
228.408, 51.202
228.890, 58.119
229.372, 58.871
229.854, 48.869
230.336, 39.873
230.818, 39.094
231.300, 43.600
231.782, 45.127
232.264, 39.384
232.747, 29.713
233.229, 24.720
233.711, 26.305
234.193, 27.659
234.675, 26.102
235.157, 22.905
235.639, 20.686
236.121, 20.601
236.604, 21.109
237.086, 18.964
237.568, 13.243
238.050, 7.740
238.532, 2.227
239.014, 2.333
239.496, 3.968
239.978, 1.980
240.460, 1.134
240.943, 1.771
241.425, 0.533
241.907, 4.159
242.389, 11.684
242.871, 19.084
243.353, 21.104
243.835, 17.019
244.317, 12.392
244.799, 14.111
245.282, 25.167
245.764, 31.794
246.246, 30.241
246.728, 27.072
247.210, 27.113
247.692, 30.600
248.174, 34.722
248.656, 36.863
249.139, 36.720
249.621, 36.741
250.103, 37.670
250.585, 38.092
251.067, 36.137
251.549, 32.763
252.031, 31.171
252.513, 34.141
252.995, 41.583
253.478, 46.466
253.960, 51.311
254.442, 51.426
254.924, 39.546
255.406, 22.090
255.888, 12.514
256.370, 19.885
256.852, 39.616
257.335, 47.064
257.817, 26.334
258.299, 10.649
258.781, 5.949
259.263, 8.119
259.745, 13.049
260.227, 18.999
260.709, 23.823
261.191, 21.542
261.674, 4.530
262.156, 8.369
262.638, 11.627
263.120, 12.887
263.602, 20.026
264.084, 35.022
264.566, 52.196
265.048, 61.720
265.530, 57.939
266.013, 59.801
266.495, 73.349
266.977, 88.019
267.459, 96.819
267.941, 99.274
268.423, 100.107
268.905, 103.277
269.387, 108.091
269.870, 119.339
270.352, 142.350
270.834, 167.841
271.316, 193.601
271.798, 219.017
272.280, 243.472
272.762, 265.683
273.244, 285.960
273.727, 309.714
274.209, 340.078
274.691, 369.621
275.173, 396.626
275.655, 420.660
276.137, 440.503
276.619, 453.142
277.101, 462.924
277.583, 482.465
278.065, 515.894
278.548, 548.869
279.030, 578.974
279.512, 604.125
279.994, 620.767
280.476, 626.176
280.958, 625.944
281.440, 626.618
281.922, 628.297
282.405, 629.949
282.887, 632.198
283.369, 633.564
283.851, 633.492
284.333, 632.674
284.815, 626.778
285.297, 608.325
285.779, 580.141
286.262, 559.185
286.744, 552.335
287.226, 550.409
287.708, 543.397
288.190, 531.516
288.672, 515.758
289.154, 493.700
289.636, 468.665
290.118, 446.998
290.601, 430.171
291.083, 414.339
291.565, 396.104
292.047, 375.542
292.529, 353.748
293.011, 331.247
293.493, 307.292
293.975, 278.417
294.457, 245.372
294.940, 217.903
295.422, 204.051
295.904, 202.542
296.386, 197.045
296.868, 184.125
297.350, 171.216
297.832, 161.563
298.314, 154.634
298.797, 148.215
299.279, 140.712
299.761, 133.615
300.243, 131.973
300.725, 140.596
301.207, 148.743
301.689, 153.630
302.171, 158.634
302.654, 167.142
303.136, 179.787
303.618, 195.495
304.100, 212.360
304.582, 226.990
305.064, 250.963
305.546, 288.419
306.028, 330.186
306.510, 369.765
306.992, 407.554
307.475, 449.454
307.957, 501.031
308.439, 563.029
308.921, 629.474
309.403, 691.623
309.885, 768.327
310.367, 868.412
310.849, 987.277
311.332, 1113.672
311.814, 1237.467
312.296, 1368.168
312.778, 1540.863
313.260, 1760.435
313.742, 2017.161
314.224, 2304.317
314.706, 2622.286
315.189, 2971.039
315.671, 3351.348
316.153, 3769.489
316.635, 4238.196
317.117, 4761.729
317.599, 5297.826
318.081, 5834.732
318.563, 6382.234
319.045, 6948.789
319.528, 7535.519
320.010, 8125.560
320.492, 8711.195
320.974, 9289.527
321.456, 9855.995
321.938, 10448.777
322.420, 10951.110
322.902, 11267.691
323.384, 11419.670
323.867, 11424.461
324.349, 11272.325
324.831, 10983.934
325.313, 10556.854
325.795, 9989.333
326.277, 9366.173
326.759, 8706.337
327.241, 8037.685
327.724, 7467.543
328.206, 7006.836
328.688, 6625.314
329.170, 6310.371
329.652, 6062.413
330.134, 5882.255
330.616, 5770.216
331.098, 5726.287
331.581, 5753.245
332.063, 5852.570
332.545, 6023.677
333.027, 6268.374
333.509, 6584.253
333.991, 6964.076
334.473, 7409.208
334.955, 7927.231
335.437, 8529.956
335.919, 9229.071
336.402, 9965.245
336.884, 10765.690
337.366, 11569.681
337.848, 12355.994
338.330, 13124.288
338.812, 13881.206
339.294, 14622.663
339.776, 15359.673
340.259, 16150.940
340.741, 17055.123
341.223, 17921.523
341.705, 18884.801
342.187, 19723.805
342.669, 20269.768
343.151, 20472.506
343.633, 20231.869
344.116, 19324.154
344.598, 17684.545
345.080, 15888.615
345.562, 13804.560
346.044, 11802.633
346.526, 10089.301
347.008, 8682.749
347.490, 7547.232
347.972, 6721.883
348.455, 6155.366
348.937, 5723.291
349.419, 5433.233
349.901, 5223.946
350.383, 5068.059
350.865, 4961.073
351.347, 4900.021
351.829, 4910.523
352.311, 4945.068
352.794, 4972.727
353.276, 4993.029
353.758, 5008.032
354.240, 5026.517
354.722, 5030.943
355.204, 4977.250
355.686, 4892.229
356.168, 4716.851
356.651, 4409.609
357.133, 4017.543
357.615, 3576.208
358.097, 3099.899
358.579, 2619.851
359.061, 2170.246
359.543, 1744.136
360.025, 1396.432
360.508, 1143.251
360.990, 940.478
361.472, 777.862
361.954, 649.530
362.436, 550.680
362.918, 479.732
363.400, 432.356
363.882, 387.183
364.364, 336.398
364.846, 301.129
365.329, 286.781
365.811, 286.724
366.293, 295.804
366.775, 311.896
367.257, 333.500
367.739, 358.944
368.221, 388.266
368.703, 426.269
369.186, 465.401
369.668, 524.299
370.150, 608.993
370.632, 720.103
371.114, 859.339
371.596, 1022.635
372.078, 1215.736
372.560, 1448.530
373.043, 1720.669
373.525, 2034.274
374.007, 2394.062
374.489, 2797.758
374.971, 3230.704
375.453, 3702.699
375.935, 4187.900
376.417, 4671.692
376.899, 5157.726
377.382, 5650.361
377.864, 6152.600
378.346, 6664.622
378.828, 7193.789
379.310, 7769.939
379.792, 8273.369
380.274, 8775.661
380.756, 9147.453
381.238, 9342.482
381.721, 9333.804
382.203, 9067.183
382.685, 8484.412
383.167, 7607.111
383.649, 6654.816
384.131, 5449.187
384.613, 4376.875
385.095, 3494.996
385.578, 2775.614
386.060, 2196.752
386.542, 1746.721
387.024, 1402.249
387.506, 1142.586
387.988, 978.625
388.470, 835.384
388.952, 709.526
389.435, 601.012
389.917, 510.615
390.399, 437.584
390.881, 377.490
391.363, 332.355
391.845, 297.462
392.327, 262.819
392.809, 227.579
393.291, 197.206
393.773, 176.732
394.256, 162.528
394.738, 146.506
395.220, 126.661
395.702, 108.097
396.184, 92.498
396.666, 80.096
397.148, 73.056
397.630, 72.554
398.113, 72.261
398.595, 63.133
399.077, 41.115
399.559, 26.684
400.041, 24.664
400.523, 25.737
401.005, 26.063
401.487, 24.950
401.970, 21.947
402.452, 16.561
402.934, 9.556
403.416, 4.308
403.898, 2.397
404.380, 0.251
404.862, 5.108
405.344, 10.256
405.826, 14.318
406.309, 16.927
406.791, 18.076
407.273, 16.736
407.755, 13.064
408.237, 12.205
408.719, 15.532
409.201, 19.999
409.683, 25.219
410.165, 30.168
410.648, 32.305
411.130, 30.306
411.612, 25.751
412.094, 18.596
412.576, 9.477
413.058, 3.577
413.540, 3.442
414.022, 6.762
414.504, 10.019
414.987, 13.905
415.469, 15.422
415.951, 10.701
416.433, 5.368
416.915, 6.103
417.397, 12.646
417.879, 18.671
418.362, 18.999
418.844, 13.919
419.326, 9.521
419.808, 5.145
420.290, 2.280
420.772, 1.683
421.254, 2.519
421.736, 3.446
422.218, 4.107
422.701, 6.087
423.183, 13.451
423.665, 27.937
424.147, 34.593
424.629, 26.591
425.111, 16.687
425.593, 11.313
426.075, 9.736
426.557, 9.493
427.040, 10.377
427.522, 11.314
428.004, 10.680
428.486, 8.497
428.968, 5.617
429.450, 1.692
429.932, 2.065
430.414, 3.114
430.897, 0.712
431.379, 1.359
431.861, 2.050
432.343, 1.924
432.825, 1.819
433.307, 1.712
433.789, 0.443
434.271, 3.377
434.753, 9.571
435.236, 12.845
435.718, 12.540
436.200, 10.058
436.682, 1.398
437.164, 7.483
437.646, 8.341
438.128, 1.086
438.610, 13.537
439.092, 19.086
439.575, 16.833
440.057, 15.576
440.539, 15.954
441.021, 17.304
441.503, 20.727
441.985, 24.791
442.467, 25.636
442.949, 18.853
443.431, 11.064
443.914, 10.746
444.396, 17.292
444.878, 24.903
445.360, 32.231
445.842, 38.417
446.324, 41.335
446.806, 40.249
447.289, 39.977
447.771, 42.445
448.253, 45.245
448.735, 46.145
449.217, 45.278
449.699, 44.089
450.181, 43.549
450.663, 43.664
451.145, 44.582
451.628, 47.674
452.110, 49.614
452.592, 48.683
453.074, 47.350
453.556, 47.153
454.038, 48.634
454.520, 52.529
455.002, 61.687
455.484, 75.126
455.967, 82.853
456.449, 82.801
456.931, 81.118
457.413, 79.533
457.895, 78.959
458.377, 81.456
458.859, 88.882
459.341, 96.835
459.823, 102.967
460.306, 107.294
460.788, 108.797
461.270, 106.803
461.752, 105.746
462.234, 111.458
462.716, 125.764
463.198, 135.448
463.680, 138.750
464.163, 139.661
464.645, 138.913
465.127, 137.373
465.609, 135.230
466.091, 132.349
466.573, 131.398
467.055, 139.837
467.537, 162.947
468.020, 176.202
468.502, 169.831
468.984, 159.845
469.466, 152.134
469.948, 147.708
470.430, 147.786
470.912, 154.921
471.394, 165.004
471.876, 171.947
472.358, 175.812
472.841, 179.176
473.323, 182.990
473.805, 187.544
474.287, 192.826
474.769, 198.481
475.251, 204.448
475.733, 210.809
476.216, 217.468
476.698, 225.305
477.180, 233.807
477.662, 240.772
478.144, 244.214
478.626, 245.624
479.108, 252.431
479.590, 271.387
480.072, 284.272
480.555, 284.582
481.037, 281.648
481.519, 283.638
482.001, 291.028
482.483, 297.199
482.965, 294.716
483.447, 285.966
483.929, 280.795
484.411, 280.339
484.894, 277.538
485.376, 266.997
485.858, 252.733
486.340, 243.429
486.822, 241.439
487.304, 238.864
487.786, 232.123
488.268, 223.180
488.750, 213.554
489.233, 203.920
489.715, 197.032
490.197, 196.336
490.679, 200.759
491.161, 195.775
491.643, 169.297
492.125, 148.296
492.607, 137.820
493.090, 133.393
493.572, 131.784
494.054, 131.783
494.536, 131.100
495.018, 127.967
495.500, 122.814
495.982, 115.997
496.464, 106.279
496.947, 97.879
497.429, 93.078
497.911, 91.199
498.393, 91.354
498.875, 95.235
499.357, 97.467
499.839, 94.610
500.321, 88.713
500.803, 82.011
501.285, 75.038
501.768, 69.486
502.250, 67.408
502.732, 68.707
503.214, 67.507
503.696, 59.593
504.178, 53.885
504.660, 53.931
505.142, 55.797
505.625, 54.957
506.107, 50.508
506.589, 45.597
507.071, 43.814
507.553, 44.659
508.035, 44.438
508.517, 42.974
508.999, 40.639
509.482, 36.778
509.964, 32.382
510.446, 29.277
510.928, 27.304
511.410, 27.219
511.892, 32.951
512.374, 39.450
512.856, 37.317
513.338, 25.728
513.821, 13.957
514.303, 10.307
514.785, 14.454
515.267, 19.181
515.749, 27.229
516.231, 32.275
516.713, 30.951
517.195, 27.661
517.677, 27.325
518.160, 30.585
518.642, 33.099
519.124, 29.846
519.606, 22.446
520.088, 17.643
520.570, 15.935
521.052, 15.339
521.534, 15.189
522.016, 15.337
522.499, 15.550
522.981, 16.392
523.463, 16.003
523.945, 11.244
524.427, 6.377
524.909, 7.268
525.391, 13.710
525.873, 20.248
526.356, 22.784
526.838, 21.843
527.320, 20.269
527.802, 17.441
528.284, 15.118
528.766, 13.509
529.248, 12.462
529.730, 12.444
530.213, 13.184
530.695, 12.977
531.177, 10.064
531.659, 5.681
532.141, 1.204
532.623, 3.379
533.105, 4.227
533.587, 1.424
534.070, 10.533
534.552, 17.634
535.034, 23.649
535.516, 25.314
535.998, 18.337
536.480, 10.259
536.962, 6.075
537.444, 5.465
537.926, 6.146
538.409, 6.919
538.891, 7.494
539.373, 6.404
539.855, 2.463
540.337, 2.111
540.819, 10.560
541.301, 18.387
541.783, 18.554
542.265, 12.840
542.748, 7.714
543.230, 5.735
543.712, 5.035
544.194, 3.844
544.676, 2.525
545.158, 2.336
545.640, 3.730
546.122, 5.769
546.604, 7.264
547.087, 8.066
547.569, 9.269
548.051, 11.603
548.533, 13.504
549.015, 14.654
549.497, 15.021
549.979, 14.726
550.461, 13.789
550.943, 11.725
551.426, 6.585
551.908, 0.690
552.390, 3.399
552.872, 0.232
553.354, 5.088
553.836, 11.510
554.318, 17.442
554.800, 19.092
555.283, 13.079
555.765, 9.532
556.247, 14.814
556.729, 22.214
557.211, 24.130
557.693, 20.378
558.175, 15.799
558.657, 13.970
559.140, 14.228
559.622, 13.425
560.104, 10.295
560.586, 9.051
561.068, 12.112
561.550, 16.194
562.032, 19.779
562.514, 22.600
562.997, 23.961
563.479, 22.621
563.961, 20.339
564.443, 19.273
564.925, 19.052
565.407, 17.883
565.889, 15.007
566.371, 11.644
566.853, 9.466
567.336, 8.523
567.818, 8.482
568.300, 10.203
568.782, 11.788
569.264, 12.319
569.746, 12.381
570.228, 13.153
570.710, 15.047
571.192, 16.325
571.675, 13.846
572.157, 8.725
572.639, 7.082
573.121, 9.914
573.603, 14.104
574.085, 18.523
574.567, 22.553
575.049, 24.520
575.531, 24.040
576.014, 22.392
576.496, 17.954
576.978, 13.803
577.460, 13.651
577.942, 16.818
578.424, 19.833
578.906, 20.416
579.388, 19.132
579.870, 17.018
580.353, 13.284
580.835, 12.464
581.317, 18.742
581.799, 24.546
582.281, 21.836
582.763, 12.899
583.245, 8.742
583.727, 17.340
584.210, 26.846
584.692, 28.497
585.174, 25.061
585.656, 22.066
586.138, 21.087
586.620, 20.854
587.102, 20.054
587.584, 18.698
588.067, 16.636
588.549, 12.980
589.031, 9.869
589.513, 8.238
589.995, 7.084
590.477, 4.920
590.959, 1.710
591.441, 0.094
591.924, 2.302
592.406, 6.251
592.888, 7.732
593.370, 6.690
593.852, 3.990
594.334, 0.527
594.816, 4.692
595.298, 4.159
595.780, 3.710
596.263, 9.223
596.745, 12.775
597.227, 13.873
597.709, 9.675
598.191, 3.655
598.673, 2.012
599.155, 7.251
599.637, 13.230
600.119, 12.103
600.602, 5.917
601.084, 3.579
601.566, 6.499
602.048, 9.550
602.530, 9.034
603.012, 6.074
603.494, 5.129
603.976, 7.148
604.458, 9.506
604.941, 13.072
605.423, 15.929
605.905, 16.310
606.387, 14.697
606.869, 12.505
607.351, 10.241
607.833, 8.860
608.315, 11.831
608.797, 19.098
609.280, 19.599
609.762, 8.677
610.244, 3.433
610.726, 9.328
611.208, 9.056
611.690, 4.476
612.172, 11.332
612.654, 22.861
613.137, 23.545
613.619, 18.705
614.101, 12.484
614.583, 6.417
615.065, 2.172
615.547, 1.067
616.029, 2.540
616.511, 5.131
616.994, 9.022
617.476, 13.262
617.958, 18.864
618.440, 23.259
618.922, 23.015
619.404, 18.891
619.886, 15.756
620.368, 15.099
620.851, 14.893
621.333, 13.472
621.815, 12.117
622.297, 13.544
622.779, 17.859
623.261, 21.398
623.743, 20.050
624.225, 14.913
624.707, 13.517
625.190, 17.155
625.672, 20.703
626.154, 22.249
626.636, 23.417
627.118, 26.611
627.600, 31.737
628.082, 34.554
628.564, 31.631
629.046, 28.164
629.529, 26.528
630.011, 32.426
630.493, 36.150
630.975, 37.834
631.457, 31.448
631.939, 35.488
632.421, 35.369
632.903, 35.104
633.385, 40.674
633.868, 35.497
634.350, 40.847
634.832, 23.336
635.314, 24.588
635.796, 32.473
636.278, 39.426
636.760, 43.631
637.242, 45.464
637.724, 43.300
638.207, 39.225
638.689, 37.791
639.171, 40.467
639.653, 44.936
640.135, 48.447
640.617, 51.013
641.099, 53.203
641.581, 54.378
642.064, 56.622
642.546, 62.545
643.028, 68.650
643.510, 71.312
643.992, 70.318
644.474, 67.501
644.956, 60.959
645.438, 55.053
645.920, 54.106
646.403, 56.428
646.885, 58.089
647.367, 57.713
647.849, 56.434
648.331, 55.955
648.813, 56.241
649.295, 53.593
649.778, 45.180
650.260, 40.204
650.742, 44.449
651.224, 52.461
651.706, 58.557
652.188, 62.561
652.670, 64.223
653.152, 61.662
653.634, 58.712
654.117, 59.498
654.599, 61.669
655.081, 59.234
655.563, 50.503
656.045, 41.113
656.527, 37.880
657.009, 40.552
657.491, 45.732
657.973, 56.215
658.456, 60.812
658.938, 50.168
659.420, 35.477
659.902, 32.044
660.384, 40.762
660.866, 47.798
661.348, 48.167
661.830, 47.633
662.312, 50.366
662.795, 54.933
663.277, 58.664
663.759, 60.545
664.241, 60.577
664.723, 58.449
665.205, 55.041
665.687, 54.571
666.169, 57.522
666.652, 59.287
667.134, 57.800
667.616, 55.511
668.098, 55.788
668.580, 58.662
669.062, 60.927
669.544, 60.575
670.026, 61.633
670.508, 68.090
670.991, 75.148
671.473, 75.905
671.955, 69.624
672.437, 62.108
672.919, 58.176
673.401, 57.392
673.883, 58.593
674.365, 61.479
674.847, 63.035
675.330, 62.430
675.812, 61.240
676.294, 61.264
676.776, 62.368
677.258, 62.196
677.740, 60.581
678.222, 58.184
678.705, 53.525
679.187, 49.231
679.669, 48.498
680.151, 51.211
680.633, 54.906
681.115, 57.089
681.597, 56.761
682.079, 54.251
682.561, 50.710
683.044, 49.982
683.526, 53.224
684.008, 56.188
684.490, 54.782
684.972, 50.027
685.454, 48.032
685.936, 49.736
686.418, 51.012
686.901, 51.991
687.383, 53.022
687.865, 54.995
688.347, 57.372
688.829, 58.890
689.311, 59.072
689.793, 58.590
690.275, 56.241
690.757, 53.624
691.240, 55.300
691.722, 61.202
692.204, 66.063
692.686, 66.180
693.168, 62.760
693.650, 58.090
694.132, 50.244
694.614, 48.225
695.096, 57.379
695.579, 66.487
696.061, 69.731
696.543, 68.510
697.025, 65.033
697.507, 58.673
697.989, 52.729
698.471, 47.400
698.953, 43.670
699.435, 42.835
699.918, 44.400
700.400, 47.564
700.882, 52.015
701.364, 55.466
701.846, 53.623
702.328, 46.992
702.810, 43.318
703.292, 43.503
703.774, 44.139
704.257, 44.002
704.739, 42.835
705.221, 39.881
705.703, 34.328
706.185, 30.544
706.667, 29.704
707.149, 29.690
707.631, 30.146
708.114, 30.681
708.596, 30.689
709.078, 29.973
709.560, 29.011
710.042, 28.249
710.524, 27.615
711.006, 27.278
711.488, 27.157
711.971, 25.958
712.453, 23.073
712.935, 19.473
713.417, 15.886
713.899, 12.385
714.381, 10.462
714.863, 11.570
715.345, 11.612
715.828, 8.862
716.310, 5.784
716.792, 4.153
717.274, 3.633
717.756, 2.719
718.238, 0.484
718.720, 1.944
719.202, 3.531
719.684, 10.865
720.167, 11.696
720.649, 6.428
721.131, 3.138
721.613, 7.435
722.095, 14.588
722.577, 13.124
723.059, 2.364
723.541, 2.607
724.023, 1.827
724.506, 6.126
724.988, 4.573
725.470, 1.040
725.952, 6.449
726.434, 12.258
726.916, 16.268
727.398, 18.878
727.880, 19.046
728.362, 14.961
728.845, 8.476
729.327, 1.603
729.809, 4.887
730.291, 8.819
730.773, 5.743
731.255, 0.069
731.737, 1.230
732.219, 7.871
732.701, 10.614
733.184, 6.041
733.666, 0.377
734.148, 2.194
734.630, 0.463
735.112, 2.545
735.594, 3.660
736.076, 4.922
736.558, 10.080
737.041, 12.362
737.523, 1.706
738.005, 17.693
738.487, 24.914
738.969, 5.668
739.451, 13.708
739.933, 23.888
740.415, 26.680
740.898, 21.599
741.380, 10.846
741.862, 0.652
742.344, 10.779
742.826, 16.864
743.308, 10.877
743.790, 4.538
744.272, 9.835
744.755, 2.343
745.237, 6.136
745.719, 9.340
746.201, 9.396
746.683, 10.847
747.165, 15.060
747.647, 16.285
748.129, 12.396
748.611, 8.100
749.094, 3.948
749.576, 0.459
750.058, 1.225
750.540, 1.089
751.022, 2.049
751.504, 7.689
751.986, 12.804
752.468, 12.239
752.950, 8.543
753.433, 6.450
753.915, 6.720
754.397, 6.409
754.879, 2.463
755.361, 2.663
755.843, 0.325
756.325, 10.003
756.807, 14.253
757.289, 8.440
757.772, 1.723
758.254, 1.117
758.736, 4.573
759.218, 4.709
759.700, 0.940
760.182, 5.926
760.664, 11.359
761.146, 14.880
761.628, 14.745
762.111, 12.186
762.593, 8.358
763.075, 3.474
763.557, 0.647
764.039, 2.578
764.521, 6.820
765.003, 12.421
765.485, 17.876
765.968, 19.226
766.450, 15.527
766.932, 10.059
767.414, 5.602
767.896, 2.502
768.378, 3.950
768.860, 11.074
769.342, 12.491
769.825, 3.078
770.307, 6.148
770.789, 4.725
771.271, 5.123
771.753, 10.459
772.235, 11.074
772.717, 7.338
773.199, 3.076
773.682, 15.314
774.164, 30.366
774.646, 44.195
775.128, 48.339
775.610, 39.127
776.092, 31.564
776.574, 39.147
777.056, 51.233
777.538, 53.533
778.021, 49.104
778.503, 48.627
778.985, 55.580
779.467, 66.124
779.949, 77.315
780.431, 87.470
780.913, 87.962
781.395, 77.869
781.877, 72.757
782.360, 76.155
782.842, 85.196
783.324, 99.503
783.806, 117.359
784.288, 128.394
784.770, 125.416
785.252, 126.971
785.734, 135.380
786.216, 146.920
786.699, 160.989
787.181, 176.465
787.663, 190.973
788.145, 203.393
788.627, 217.531
789.109, 237.176
789.591, 258.107
790.073, 276.968
790.555, 293.609
791.038, 306.874
791.520, 317.182
792.002, 331.407
792.484, 357.573
792.966, 390.978
793.448, 418.211
793.930, 440.020
794.412, 467.461
794.895, 503.947
795.377, 538.452
795.859, 560.688
796.341, 574.886
796.823, 596.635
797.305, 629.529
797.787, 659.103
798.269, 685.056
798.752, 707.445
799.234, 722.636
799.716, 735.856
800.198, 754.416
800.680, 779.445
801.162, 807.681
801.644, 844.268
802.126, 876.831
802.609, 892.265
803.091, 902.622
803.573, 922.892
804.055, 956.317
804.537, 1000.742
805.019, 1058.325
805.501, 1119.958
805.983, 1171.579
806.465, 1217.621
806.948, 1267.169
807.430, 1322.804
807.912, 1393.245
808.394, 1484.398
808.876, 1588.473
809.358, 1687.007
809.840, 1777.532
810.322, 1888.876
810.804, 2023.103
811.287, 2172.192
811.769, 2325.471
812.251, 2501.635
812.733, 2723.821
813.215, 2994.272
813.697, 3301.221
814.179, 3611.816
814.661, 4000.474
815.143, 4468.016
815.626, 5028.339
816.108, 5675.818
816.590, 6423.937
817.072, 7311.271
817.554, 8340.594
818.036, 9532.688
818.518, 10861.488
819.000, 12381.507
819.482, 14140.246
819.965, 16137.622
820.447, 18357.420
820.929, 20800.668
821.411, 23412.764
821.893, 26229.131
822.375, 29164.922
822.857, 32102.154
823.339, 35006.672
823.822, 37765.891
824.304, 40378.258
824.786, 42495.742
825.268, 43884.461
825.750, 44460.984
826.232, 43847.535
826.714, 41906.441
827.196, 39193.812
827.679, 35368.574
828.161, 31431.477
828.643, 27706.398
829.125, 24309.826
829.607, 21485.594
830.089, 19238.463
830.571, 17475.078
831.053, 16247.248
831.535, 15420.227
832.018, 15024.530
832.500, 14953.371
832.982, 15132.065
833.464, 15534.087
833.946, 16120.612
834.428, 16908.791
834.910, 17815.277
835.392, 18822.076
835.875, 19886.602
836.357, 21021.832
836.839, 22162.961
837.321, 23193.309
837.803, 24061.543
838.285, 24631.746
838.767, 24718.258
839.249, 24383.023
839.731, 23708.992
840.214, 22739.357
840.696, 21794.924
841.178, 20963.887
841.660, 20372.723
842.142, 20138.188
842.624, 20261.166
843.106, 20763.145
843.588, 21679.754
844.070, 22823.775
844.553, 24232.402
845.035, 25766.107
845.517, 27436.484
845.999, 29122.686
846.481, 30619.482
846.963, 31960.816
847.445, 32947.027
847.927, 33794.695
848.409, 34017.258
848.892, 33444.859
849.374, 32197.387
849.856, 30273.246
850.338, 27758.871
850.820, 25020.229
851.302, 21963.922
851.784, 19014.539
852.266, 16269.540
852.748, 13803.574
853.231, 11680.691
853.713, 9886.268
854.195, 8389.891
854.677, 7183.188
855.159, 6187.395
855.641, 5361.324
856.123, 4676.557
856.606, 4109.710
857.088, 3644.490
857.570, 3237.464
858.052, 2878.080
858.534, 2571.677
859.016, 2322.919
859.498, 2122.607
859.980, 1952.473
860.462, 1812.671
860.945, 1683.285
861.427, 1563.008
861.909, 1451.147
862.391, 1348.242
862.873, 1256.468
863.355, 1179.427
863.837, 1118.350
864.319, 1056.770
864.802, 992.660
865.284, 932.992
865.766, 877.340
866.248, 826.582
866.730, 782.304
867.212, 743.262
867.694, 706.800
868.176, 674.577
868.658, 642.246
869.141, 606.995
869.623, 573.825
870.105, 547.235
870.587, 523.492
871.069, 497.298
871.551, 468.076
872.033, 439.779
872.515, 414.569
872.997, 389.370
873.480, 362.093
873.962, 334.499
874.444, 307.279
874.926, 281.443
875.408, 259.917
875.890, 244.517
876.372, 230.814
876.854, 214.434
877.336, 196.714
877.819, 177.719
878.301, 159.299
878.783, 149.056
879.265, 148.496
879.747, 149.310
880.229, 144.604
880.711, 135.195
881.193, 121.365
881.675, 103.769
882.158, 90.581
882.640, 82.795
883.122, 79.233
883.604, 80.169
884.086, 82.401
884.568, 80.500
885.050, 74.054
885.532, 62.458
886.015, 40.884
886.497, 29.742
886.979, 38.142
887.461, 50.841
887.943, 56.093
888.425, 55.384
888.907, 54.872
889.389, 54.441
889.872, 54.641
890.354, 58.394
890.836, 58.847
891.318, 47.624
891.800, 35.646
892.282, 37.181
892.764, 52.064
893.246, 63.810
893.729, 68.077
894.211, 69.841
894.693, 68.638
895.175, 67.421
895.657, 68.570
896.139, 71.546
896.621, 76.028
897.103, 82.386
897.585, 83.397
898.068, 70.306
898.550, 54.516
899.032, 45.449
899.514, 40.653
899.996, 35.534
900.478, 29.787
900.960, 26.591
901.442, 28.473
901.924, 31.104
902.407, 29.020
902.889, 24.366
903.371, 21.149
903.853, 19.363
904.335, 17.876
904.817, 16.213
905.299, 14.235
905.781, 11.788
906.263, 8.867
906.746, 5.095
907.228, 0.610
907.710, 3.034
908.192, 5.640
908.674, 9.733
909.156, 17.063
909.638, 24.499
910.120, 26.125
910.602, 22.136
911.085, 21.082
911.567, 23.258
912.049, 26.442
912.531, 29.870
913.013, 35.378
913.495, 46.795
913.977, 59.591
914.459, 57.310
914.942, 32.031
915.424, 15.171
915.906, 10.029
916.388, 7.226
916.870, 2.762
917.352, 0.312
917.834, 3.417
918.316, 13.467
918.799, 16.234
919.281, 3.112
919.763, 4.308
920.245, 0.759
920.727, 4.578
921.209, 6.222
921.691, 7.029
922.173, 12.953
922.656, 25.234
923.138, 32.198
923.620, 29.971
924.102, 24.212
924.584, 13.577
925.066, 3.015
925.548, 2.584
926.030, 4.755
926.512, 8.295
926.995, 14.744
927.477, 21.041
927.959, 28.954
928.441, 32.899
928.923, 23.719
929.405, 11.319
929.887, 11.127
930.369, 22.081
930.851, 28.844
931.334, 22.199
931.816, 15.943
932.298, 23.270
932.780, 34.983
933.262, 41.360
933.744, 43.079
934.226, 42.592
934.708, 40.942
935.190, 39.605
935.673, 39.352
936.155, 40.518
936.637, 46.026
937.119, 52.250
937.601, 50.602
938.083, 42.295
938.565, 34.558
939.047, 30.344
939.529, 30.169
940.012, 37.944
940.494, 47.599
940.976, 41.095
941.458, 23.822
941.940, 20.291
942.422, 32.670
942.904, 41.984
943.386, 37.390
943.869, 27.343
944.351, 23.624
944.833, 25.708
945.315, 32.936
945.797, 44.679
946.279, 47.850
946.761, 39.099
947.243, 32.367
947.726, 38.839
948.208, 51.095
948.690, 49.882
949.172, 34.826
949.654, 33.835
950.136, 49.591
950.618, 59.171
951.100, 54.355
951.583, 44.842
952.065, 38.607
952.547, 36.619
953.029, 44.148
953.511, 63.896
953.993, 72.342
954.475, 64.740
954.957, 59.891
955.439, 67.129
955.922, 76.703
956.404, 76.247
956.886, 66.696
957.368, 63.295
957.850, 68.518
958.332, 73.857
958.814, 80.230
959.296, 83.574
959.778, 80.961
960.261, 74.629
960.743, 66.965
961.225, 57.675
961.707, 58.388
962.189, 80.252
962.671, 90.294
963.153, 73.779
963.635, 58.947
964.117, 64.966
964.600, 81.485
965.082, 89.874
965.564, 88.633
966.046, 86.920
966.528, 81.600
967.010, 79.990
967.492, 73.029
967.974, 69.267
968.456, 75.533
968.939, 78.666
969.421, 78.674
969.903, 66.742
970.385, 69.660
970.867, 66.172
971.349, 61.708
971.831, 64.862
972.313, 52.564
972.796, 57.096
973.278, 56.424
973.760, 58.831
974.242, 55.196
974.724, 53.606
975.206, 58.234
975.688, 59.275
976.170, 47.683
976.653, 41.457
977.135, 39.534
977.617, 39.829
978.099, 41.988
978.581, 47.706
979.063, 51.036
979.545, 48.462
980.027, 44.549
980.510, 39.830
980.992, 36.147
981.474, 36.784
981.956, 40.586
982.438, 42.117
982.920, 38.638
983.402, 35.597
983.884, 34.357
984.366, 34.132
984.849, 35.987
985.331, 37.557
985.813, 35.673
986.295, 30.526
986.777, 24.900
987.259, 17.194
987.741, 13.548
988.223, 21.149
988.705, 28.673
989.188, 25.990
989.670, 19.891
990.152, 21.899
990.634, 31.855
991.116, 38.644
991.598, 38.026
992.080, 34.291
992.562, 25.806
993.044, 18.365
993.527, 16.312
994.009, 18.020
994.491, 21.810
994.973, 26.762
995.455, 29.280
995.937, 25.623
996.419, 22.986
996.901, 27.022
997.383, 31.055
997.866, 28.568
998.348, 23.006
998.830, 20.531
999.312, 21.720
999.794, 22.763
1000.276, 23.519
1000.758, 22.390
1001.240, 16.715
1001.723, 10.465
1002.205, 6.274
1002.687, 4.457
1003.169, 5.774
1003.651, 9.925
1004.133, 12.970
1004.615, 12.560
1005.097, 11.644
1005.580, 11.925
1006.062, 12.460
1006.544, 12.217
1007.026, 11.540
1007.508, 11.560
1007.990, 12.619
1008.472, 13.805
1008.954, 17.182
1009.436, 17.241
1009.919, 5.779
1010.401, 4.654
1010.883, 1.109
1011.365, 9.628
1011.847, 16.276
1012.329, 16.756
1012.811, 13.569
1013.293, 2.884
1013.776, 4.567
1014.258, 1.523
1014.740, 3.853
1015.222, 6.363
1015.704, 6.312
1016.186, 3.836
1016.668, 0.513
1017.150, 1.938
1017.632, 4.321
1018.115, 9.392
1018.597, 8.025
1019.079, 6.117
1019.561, 9.672
1020.043, 14.694
1020.525, 13.803
1021.007, 6.679
1021.489, 1.508
1021.971, 1.544
1022.454, 2.805
1022.936, 5.569
1023.418, 7.578
1023.900, 7.075
1024.382, 5.051
1024.864, 2.429
1025.346, 0.441
1025.828, 1.743
1026.311, 0.342
1026.793, 1.490
1027.275, 3.622
1027.757, 5.640
1028.239, 7.181
1028.721, 8.539
1029.203, 10.612
1029.685, 13.177
1030.167, 13.692
1030.650, 8.084
1031.132, 6.385
1031.614, 14.736
1032.096, 22.156
1032.578, 22.859
1033.060, 20.095
1033.542, 17.236
1034.024, 14.470
1034.507, 11.725
1034.989, 9.373
1035.471, 6.327
1035.953, 1.652
1036.435, 5.260
1036.917, 5.092
1037.399, 16.980
1037.881, 15.273
1038.364, 2.901
1038.846, 2.026
1039.328, 5.277
1039.810, 10.663
1040.292, 13.471
1040.774, 15.274
1041.256, 15.611
1041.738, 16.080
1042.220, 18.467
1042.703, 22.113
1043.185, 24.629
1043.667, 26.295
1044.149, 25.899
1044.631, 22.227
1045.113, 18.806
1045.595, 16.693
1046.077, 15.076
1046.559, 12.733
1047.042, 10.501
1047.524, 10.522
1048.006, 12.546
1048.488, 16.571
1048.970, 20.593
1049.452, 22.924
1049.934, 23.680
1050.416, 18.136
1050.899, 20.679
1051.381, 19.918
1051.863, 19.025
1052.345, 22.724
1052.827, 18.082
1053.309, 21.723
1053.791, 22.006
1054.273, 23.767
1054.755, 22.271
1055.238, 21.799
1055.720, 24.603
1056.202, 25.536
1056.684, 23.568
1057.166, 25.364
1057.648, 20.462
1058.130, 21.463
1058.612, 24.985
1059.094, 23.120
1059.577, 24.824
1060.059, 25.167
1060.541, 19.273
1061.023, 6.643
1061.505, 11.038
1061.987, 22.160
1062.469, 24.561
1062.951, 18.367
1063.434, 16.300
1063.916, 22.665
1064.398, 28.924
1064.880, 26.870
1065.362, 21.674
1065.844, 23.019
1066.326, 28.002
1066.808, 30.659
1067.291, 30.377
1067.773, 25.753
1068.255, 17.018
1068.737, 9.802
1069.219, 7.378
1069.701, 8.132
1070.183, 10.223
1070.665, 13.550
1071.147, 16.751
1071.630, 20.286
1072.112, 25.588
1072.594, 31.311
1073.076, 31.755
1073.558, 23.538
1074.040, 14.647
1074.522, 9.971
1075.004, 8.227
1075.486, 9.460
1075.969, 11.859
1076.451, 14.476
1076.933, 16.432
1077.415, 15.715
1077.897, 11.679
1078.379, 8.299
1078.861, 6.788
1079.343, 6.381
1079.825, 7.675
1080.308, 9.488
1080.790, 10.836
1081.272, 12.017
1081.754, 14.374
1082.236, 17.904
1082.718, 18.184
1083.200, 10.400
1083.682, 5.524
1084.165, 8.593
1084.647, 11.311
1085.129, 7.892
1085.611, 2.822
1086.093, 1.938
1086.575, 4.771
1087.057, 7.018
1087.539, 7.881
1088.021, 10.095
1088.504, 15.666
1088.986, 18.149
1089.468, 13.899
1089.950, 8.838
1090.432, 8.137
1090.914, 10.482
1091.396, 12.073
1091.878, 12.824
1092.360, 13.240
1092.843, 13.064
1093.325, 14.836
1093.807, 19.744
1094.289, 21.027
1094.771, 13.996
1095.253, 5.892
1095.735, 10.397
1096.217, 23.762
1096.700, 24.714
1097.182, 15.067
1097.664, 8.746
1098.146, 7.474
1098.628, 8.935
1099.110, 12.075
1099.592, 15.117
1100.074, 16.368
1100.557, 16.336
1101.039, 15.306
1101.521, 13.923
1102.003, 14.059
1102.485, 15.081
1102.967, 14.927
1103.449, 13.115
1103.931, 10.063
1104.413, 5.339
1104.896, 1.998
1105.378, 3.581
1105.860, 7.193
1106.342, 12.005
1106.824, 15.494
1107.306, 12.580
1107.788, 5.102
1108.270, 0.470
1108.752, 1.282
1109.235, 2.521
1109.717, 1.134
1110.199, 0.868
1110.681, 4.936
1111.163, 9.339
1111.645, 10.858
1112.127, 10.391
1112.609, 9.580
1113.092, 8.575
1113.574, 8.411
1114.056, 10.783
1114.538, 11.385
1115.020, 8.356
1115.502, 5.827
1115.984, 6.379
1116.466, 6.919
1116.948, 3.518
1117.431, 2.355
1117.913, 4.857
1118.395, 3.966
1118.877, 0.874
1119.359, 11.368
1119.841, 18.139
1120.323, 18.691
1120.805, 15.776
1121.287, 10.751
1121.770, 5.361
1122.252, 2.235
1122.734, 1.219
1123.216, 2.076
1123.698, 4.600
1124.180, 7.877
1124.662, 11.404
1125.144, 12.979
1125.627, 11.730
1126.109, 7.772
1126.591, 0.189
1127.073, 7.531
1127.555, 5.606
1128.037, 10.197
1128.519, 2.076
1129.001, 7.437
1129.484, 4.974
1129.966, 5.135
1130.448, 12.049
1130.930, 10.750
1131.412, 6.703
1131.894, 0.360
1132.376, 4.308
1132.858, 3.601
1133.340, 0.911
1133.823, 1.368
1134.305, 2.565
1134.787, 1.167
1135.269, 3.287
1135.751, 4.839
1136.233, 2.971
1136.715, 2.532
1137.197, 20.318
1137.679, 30.305
1138.162, 18.388
1138.644, 1.613
1139.126, 1.288
1139.608, 5.889
1140.090, 6.369
1140.572, 2.517
1141.054, 3.928
1141.536, 3.701
1142.019, 9.305
1142.501, 10.156
1142.983, 10.156
1143.465, 11.915
1143.947, 12.692
1144.429, 6.735
1144.911, 9.101
1145.393, 0.426
1145.875, 9.216
1146.358, 15.669
1146.840, 17.676
1147.322, 14.692
1147.804, 7.349
1148.286, 1.799
1148.768, 2.500
1149.250, 6.217
1149.732, 12.041
1150.214, 17.001
1150.697, 16.864
1151.179, 14.332
1151.661, 12.388
1152.143, 12.068
1152.625, 15.281
1153.107, 23.126
1153.589, 28.916
1154.071, 27.488
1154.554, 27.759
1155.036, 36.620
1155.518, 43.639
1156.000, 40.934
1156.482, 33.410
1156.964, 26.275
1157.446, 20.246
1157.928, 21.450
1158.411, 33.801
1158.893, 41.155
1159.375, 42.405
1159.857, 41.565
1160.339, 39.194
1160.821, 37.167
1161.303, 36.720
1161.785, 37.654
1162.267, 39.934
1162.750, 43.174
1163.232, 46.316
1163.714, 48.934
1164.196, 47.526
1164.678, 43.133
1165.160, 43.493
1165.642, 50.417
1166.124, 55.461
1166.606, 51.767
1167.089, 46.613
1167.571, 46.718
1168.053, 49.653
1168.535, 56.089
1169.017, 61.459
1169.499, 57.806
1169.981, 47.799
1170.463, 40.560
1170.946, 38.170
1171.428, 39.640
1171.910, 50.217
1172.392, 56.527
1172.874, 51.870
1173.356, 46.016
1173.838, 41.728
1174.320, 41.085
1174.802, 48.986
1175.285, 61.732
1175.767, 62.520
1176.249, 48.567
1176.731, 39.464
1177.213, 35.072
1177.695, 36.392
1178.177, 44.119
1178.659, 49.678
1179.141, 48.250
1179.624, 44.010
1180.106, 41.254
1180.588, 40.640
1181.070, 47.183
1181.552, 55.445
1182.034, 49.124
1182.516, 33.865
1182.998, 28.688
1183.481, 35.490
1183.963, 40.344
1184.445, 36.110
1184.927, 31.994
1185.409, 35.816
1185.891, 39.792
1186.373, 39.726
1186.855, 38.359
1187.338, 38.854
1187.820, 41.082
1188.302, 45.599
1188.784, 52.120
1189.266, 51.333
1189.748, 36.309
1190.230, 29.490
1190.712, 34.115
1191.194, 41.326
1191.677, 50.510
1192.159, 54.348
1192.641, 46.495
1193.123, 34.091
1193.605, 29.129
1194.087, 30.777
1194.569, 36.330
1195.051, 44.257
1195.533, 48.237
1196.016, 48.151
1196.498, 45.671
1196.980, 41.937
1197.462, 41.081
1197.944, 46.293
1198.426, 51.284
1198.908, 51.256
1199.390, 48.762
1199.873, 42.359
1200.355, 37.024
1200.837, 39.866
1201.319, 47.318
1201.801, 51.488
1202.283, 51.380
1202.765, 51.317
1203.247, 52.897
1203.729, 52.381
1204.212, 47.588
1204.694, 44.904
1205.176, 46.858
1205.658, 50.634
1206.140, 54.968
1206.622, 57.615
1207.104, 53.306
1207.586, 43.909
1208.068, 40.053
1208.551, 41.240
1209.033, 46.803
1209.515, 54.968
1209.997, 57.808
1210.479, 53.542
1210.961, 46.383
1211.443, 37.666
1211.925, 33.137
1212.408, 41.852
1212.890, 52.251
1213.372, 54.508
1213.854, 53.329
1214.336, 53.815
1214.818, 55.048
1215.300, 53.835
1215.782, 49.955
1216.265, 47.596
1216.747, 45.470
1217.229, 48.851
1217.711, 63.752
1218.193, 69.255
1218.675, 56.038
1219.157, 44.117
1219.639, 47.632
1220.121, 56.791
1220.604, 56.484
1221.086, 49.462
1221.568, 45.402
1222.050, 43.516
1222.532, 40.725
1223.014, 37.240
1223.496, 34.634
1223.978, 33.346
1224.460, 33.389
1224.943, 34.852
1225.425, 36.939
1225.907, 40.358
1226.389, 42.613
1226.871, 41.526
1227.353, 39.335
1227.835, 36.902
1228.317, 35.121
1228.800, 35.593
1229.282, 37.905
1229.764, 39.486
1230.246, 40.705
1230.728, 39.380
1231.210, 34.643
1231.692, 31.384
1232.174, 30.551
1232.656, 30.902
1233.139, 31.954
1233.621, 32.075
1234.103, 29.333
1234.585, 25.264
1235.067, 22.079
1235.549, 19.906
1236.031, 18.883
1236.513, 19.075
1236.995, 22.111
1237.478, 26.284
1237.960, 25.191
1238.442, 17.140
1238.924, 13.531
1239.406, 22.976
1239.888, 30.625
1240.370, 34.213
1240.852, 33.378
1241.335, 23.994
1241.817, 15.974
1242.299, 18.051
1242.781, 25.436
1243.263, 28.943
1243.745, 28.762
1244.227, 25.622
1244.709, 19.969
1245.192, 17.394
1245.674, 18.035
1246.156, 19.599
1246.638, 21.257
1247.120, 22.172
1247.602, 21.738
1248.084, 21.680
1248.566, 24.444
1249.048, 27.009
1249.531, 28.484
1250.013, 27.259
1250.495, 18.403
1250.977, 8.086
1251.459, 7.166
1251.941, 3.112
1252.423, 1.625
1252.905, 5.296
1253.387, 2.750
1253.870, 9.486
1254.352, 11.211
1254.834, 4.769
1255.316, 2.028
1255.798, 8.389
1256.280, 14.443
1256.762, 11.330
1257.244, 4.279
1257.727, 0.276
1258.209, 1.997
1258.691, 1.548
1259.173, 7.104
1259.655, 10.272
1260.137, 10.623
1260.619, 7.334
1261.101, 1.026
1261.583, 0.734
1262.066, 8.310
1262.548, 13.002
1263.030, 6.122
1263.512, 3.428
1263.994, 8.697
1264.476, 13.585
1264.958, 16.711
1265.440, 16.156
1265.922, 9.253
1266.405, 0.013
1266.887, 0.000
##END=



