##NAMES=Phosphophyllite
##RRUFFID=R050224
##IDEAL CHEMISTRY=Zn_2_Fe^2+^(PO_4_)_2_&#183;4H_2_O
##LOCALITY=Unificada mine, Cerro Rico, Potosi, Bolivia
##OWNER=RRUFF
##SOURCE=Marcus Origlieri
##DESCRIPTION=Pale blue single crystal fragments
##STATUS=The identification of this mineral has been confirmed by X-ray diffraction and chemical analysis
##URL=rruff.info/R050224
##MEASURED CHEMISTRY=Zn_2.00_Fe^2+^_1.00_(P_1.00_O_4_)_2_Â·4H_2_O
83.614, 0.000
85.009, 94.644
86.404, 7.760
87.798, 111.073
89.193, 6.034
90.587, 79.190
91.981, 129.542
93.375, 261.686
94.768, 194.599
96.161, 203.513
97.554, 289.830
98.947, 341.078
100.340, 298.883
101.732, 276.941
103.124, 172.004
104.516, 373.862
105.908, 440.334
107.300, 730.260
108.691, 861.492
110.082, 1423.914
111.473, 1895.423
112.864, 2504.937
114.254, 3373.384
115.644, 4082.702
117.034, 4572.835
118.424, 4684.730
119.813, 4132.338
121.203, 3876.612
122.592, 3041.514
123.981, 2509.005
125.369, 2065.051
126.758, 1535.603
128.146, 1141.612
129.534, 1065.042
130.922, 1150.861
132.309, 990.047
133.696, 1114.576
135.083, 1030.444
136.470, 1279.642
137.857, 1464.164
139.243, 1661.015
140.630, 1707.191
142.016, 1742.692
143.401, 1681.513
144.787, 1695.639
146.172, 1364.053
147.557, 1291.741
148.942, 973.688
150.327, 890.884
151.711, 698.312
153.096, 455.964
154.480, 522.829
155.863, 278.897
157.247, 281.162
158.630, 279.616
160.013, 134.256
161.396, 125.071
162.779, 130.054
164.161, 216.198
165.544, 158.495
166.926, 185.892
168.308, 151.231
169.689, 185.539
171.070, 222.851
172.452, 434.181
173.833, 403.545
175.213, 425.953
176.594, 575.415
177.974, 473.937
179.354, 685.521
180.734, 634.176
182.114, 728.902
183.493, 779.854
184.872, 978.955
186.251, 1027.156
187.630, 1269.575
189.008, 1449.094
190.387, 1753.853
191.765, 2134.880
193.143, 2475.193
194.520, 3032.683
195.898, 3246.398
197.275, 3769.322
198.652, 3814.401
200.029, 3927.684
201.405, 3795.151
202.782, 3213.699
204.158, 2721.287
205.534, 2420.919
206.909, 2013.579
208.285, 1572.271
209.660, 1239.991
211.035, 1072.741
212.410, 751.521
213.784, 718.330
215.159, 553.168
216.533, 571.033
217.907, 400.927
219.281, 354.849
220.654, 340.796
222.027, 291.771
223.400, 189.778
224.773, 229.815
226.146, 146.879
227.518, 214.012
228.891, 206.164
230.263, 135.361
231.634, 86.620
233.006, 177.986
234.377, 69.370
235.748, 144.770
237.119, 71.184
238.490, 114.610
239.860, 270.053
241.231, 221.508
242.601, 238.975
243.970, 307.452
245.340, 257.940
246.709, 274.439
248.079, 335.947
249.448, 350.324
250.816, 530.672
252.185, 498.351
253.553, 722.373
254.921, 903.744
256.289, 966.417
257.657, 991.359
259.024, 1230.543
260.391, 1254.946
261.758, 1377.549
263.125, 1317.335
264.492, 1474.290
265.858, 1485.403
267.224, 1386.662
268.590, 1455.058
269.956, 1331.583
271.321, 1344.228
272.687, 1470.985
274.052, 1483.853
275.416, 1248.821
276.781, 1579.886
278.146, 1388.043
279.510, 1384.285
280.874, 1483.432
282.237, 1334.999
283.601, 1559.750
284.964, 1512.074
286.327, 1539.695
287.690, 1777.381
289.053, 1711.780
290.416, 1682.342
291.778, 2101.205
293.140, 1867.124
294.502, 2222.318
295.863, 2232.470
297.225, 2423.949
298.586, 2549.491
299.947, 2639.073
301.308, 2986.293
302.668, 2950.534
304.029, 3364.797
305.389, 3760.814
306.749, 3930.171
308.108, 4222.689
309.468, 4991.111
310.827, 5280.924
312.186, 5948.076
313.545, 6463.424
314.903, 7264.008
316.262, 8139.311
317.620, 8727.825
318.978, 9586.514
320.336, 10039.444
321.693, 10524.128
323.051, 10678.653
324.408, 10527.531
325.765, 9753.208
327.121, 9348.901
328.478, 8199.604
329.834, 7480.324
331.190, 6669.056
332.546, 5969.801
333.902, 4912.558
335.257, 4499.330
336.612, 3760.113
337.967, 3259.909
339.322, 2924.720
340.677, 2540.542
342.031, 2431.375
343.385, 2074.219
344.739, 1929.075
346.093, 1656.941
347.446, 1493.817
348.799, 1458.702
350.153, 1435.595
351.505, 1331.494
352.858, 1146.400
354.210, 1117.312
355.563, 1077.227
356.915, 918.147
358.267, 883.070
359.618, 869.993
360.969, 804.003
362.321, 849.926
363.672, 655.846
365.022, 670.764
366.373, 600.914
367.723, 429.005
369.073, 547.918
370.423, 459.828
371.773, 456.737
373.122, 190.641
374.471, 307.040
375.821, 510.933
377.169, 199.547
378.518, 309.803
379.866, 160.677
381.215, 141.544
382.563, 249.501
383.910, 189.354
385.258, 240.860
386.605, 272.039
387.952, 274.870
389.299, 157.699
390.646, 130.520
391.992, 150.332
393.339, 173.136
394.685, 59.930
396.031, 103.715
397.376, 235.491
398.722, 126.256
400.067, 240.011
401.412, 125.757
402.757, 164.490
404.101, 278.214
405.446, 300.926
406.790, 379.917
408.134, 449.559
409.478, 495.997
410.821, 541.665
412.165, 564.344
413.508, 521.036
414.851, 546.505
416.193, 518.343
417.536, 553.188
418.878, 478.920
420.220, 517.658
421.562, 516.400
422.904, 275.144
424.245, 401.889
425.586, 387.634
426.927, 351.378
428.268, 457.121
429.609, 209.860
430.949, 62.597
432.289, 157.330
433.629, 199.057
434.969, 143.779
436.309, 175.495
437.648, 45.206
438.987, 97.908
440.326, 23.603
441.665, 133.710
443.003, 42.110
444.342, 10.551
445.680, 49.016
447.018, 63.476
448.355, 57.955
449.693, 122.576
451.030, 43.196
452.367, 28.137
453.704, 64.457
455.041, 158.235
456.377, 28.037
457.713, 110.883
459.049, 141.816
460.385, 76.854
461.721, 148.962
463.056, 71.817
464.391, 98.418
465.726, 124.738
467.061, 54.840
468.395, 145.597
469.730, 15.147
471.064, 36.257
472.398, 183.360
473.731, 25.888
475.065, 139.892
476.398, 6.784
477.731, 72.720
479.064, 58.265
480.397, 48.231
481.729, 68.176
483.062, 33.101
484.394, 57.000
485.725, 233.875
487.057, 196.733
488.389, 347.583
489.720, 267.412
491.051, 108.223
492.382, 419.069
493.712, 313.896
495.043, 426.740
496.373, 495.565
497.703, 385.371
499.032, 619.155
500.362, 567.922
501.691, 586.667
503.020, 684.408
504.349, 477.129
505.678, 557.828
507.007, 464.510
508.335, 397.171
509.663, 513.948
510.991, 410.568
512.319, 400.168
513.646, 236.747
514.973, 507.304
516.300, 227.460
517.627, 282.993
518.954, 175.508
520.280, 57.268
521.607, 241.726
522.933, 264.333
524.259, 186.799
525.584, 100.856
526.910, 3.716
528.235, 180.650
529.560, 189.032
530.885, 248.156
532.209, 248.175
533.534, 6.168
534.858, 163.099
536.182, 7.341
537.506, 50.463
538.829, 279.646
540.152, 273.852
541.476, 142.994
542.799, 266.113
544.121, 223.139
545.444, 254.402
546.766, 245.522
548.088, 250.797
549.410, 220.869
550.732, 184.945
552.053, 191.038
553.375, 233.030
554.696, 203.065
556.017, 268.119
557.337, 318.113
558.658, 359.263
559.978, 471.027
561.298, 452.948
562.618, 605.845
563.938, 585.717
565.257, 725.562
566.576, 952.387
567.895, 738.185
569.214, 1038.958
570.533, 1096.705
571.851, 1140.428
573.170, 1138.127
574.488, 1220.889
575.805, 1250.938
577.123, 1325.072
578.440, 1392.031
579.758, 1384.875
581.075, 1536.424
582.391, 1509.943
583.708, 1701.438
585.024, 1707.906
586.341, 1909.348
587.657, 2032.764
588.972, 2035.154
590.288, 2228.516
591.603, 2309.854
592.918, 2075.164
594.233, 2213.449
595.548, 2427.705
596.863, 2220.936
598.177, 2059.141
599.491, 2103.318
600.805, 2065.648
602.119, 2119.613
603.432, 1940.439
604.746, 1868.879
606.059, 1734.928
607.372, 1470.947
608.685, 1516.291
609.997, 1576.506
611.309, 1310.451
612.621, 1238.369
613.933, 1226.363
615.245, 1334.102
616.557, 1237.539
617.868, 1372.084
619.179, 1301.457
620.490, 1519.215
621.801, 1265.969
623.111, 1674.861
624.421, 1427.869
625.731, 1851.555
627.041, 1688.086
628.351, 2101.727
629.660, 1976.986
630.970, 1891.912
632.279, 2370.652
633.588, 2062.160
634.896, 2122.953
636.205, 1832.740
637.513, 1689.398
638.821, 1416.576
640.129, 1354.262
641.437, 1315.977
642.744, 1171.201
644.051, 1080.527
645.358, 770.152
646.665, 810.545
647.972, 752.918
649.278, 603.992
650.584, 639.330
651.890, 489.445
653.196, 640.748
654.502, 519.029
655.807, 426.295
657.113, 311.871
658.418, 342.098
659.722, 381.697
661.027, 306.889
662.331, 331.059
663.636, 171.680
664.940, 455.150
666.244, 86.350
667.547, 347.762
668.851, 212.074
670.154, 285.133
671.457, 191.174
672.760, 31.729
674.062, 311.846
675.365, 139.230
676.667, 58.191
677.969, 333.047
679.271, 98.322
680.572, 233.621
681.874, 8.902
683.175, 339.947
684.476, 267.648
685.777, 187.113
687.077, 36.920
688.378, 174.688
689.678, 183.771
690.978, 401.375
692.278, 156.090
693.577, 220.357
694.877, 405.693
696.176, 110.373
697.475, 208.750
698.774, 166.275
700.072, 285.406
701.371, 351.135
702.669, 178.701
703.967, 35.246
705.265, 272.762
706.562, 360.625
707.860, 324.268
709.157, 176.428
710.454, 446.557
711.751, 151.404
713.047, 357.766
714.344, 248.211
715.640, 326.580
716.936, 371.854
718.232, 285.248
719.527, 406.555
720.823, 241.842
722.118, 191.109
723.413, 278.359
724.708, 270.592
726.002, 221.805
727.297, 394.002
728.591, 159.180
729.885, 298.340
731.179, 482.609
732.472, 335.736
733.766, 65.846
735.059, 86.932
736.352, 315.000
737.645, 390.051
738.937, 338.086
740.230, 424.104
741.522, 266.105
742.814, 451.092
744.106, 314.062
745.397, 402.016
746.689, 431.953
747.980, 238.875
749.271, 194.781
750.562, 183.672
751.853, 495.547
753.143, 233.408
754.433, 237.252
755.723, 392.082
757.013, 183.936
758.303, 453.789
759.592, 104.637
760.881, 326.486
762.170, 226.320
763.459, 365.143
764.748, 181.988
766.036, 246.840
767.325, 537.674
768.613, 55.496
769.901, 371.354
771.188, 431.213
772.476, 95.096
773.763, 513.008
775.050, 187.938
776.337, 340.902
777.624, 93.854
778.910, 270.828
780.196, 274.834
781.482, 250.826
782.768, 157.857
784.054, 212.891
785.339, 166.916
786.625, 381.984
787.910, 158.049
789.195, 211.150
790.479, 76.254
791.764, 65.377
793.048, 280.486
794.332, 59.588
795.616, 90.678
796.900, 237.760
798.183, 274.832
799.467, 11.104
800.750, 171.930
802.033, 215.953
803.316, 181.035
804.598, 296.859
805.880, 119.258
807.163, 171.539
808.445, 161.326
809.726, 278.105
811.008, 37.877
812.289, 166.635
813.570, 35.619
814.851, 145.088
816.132, 333.789
817.413, 12.479
818.693, 33.154
819.973, 92.820
821.253, 37.340
822.533, 55.984
823.813, 195.621
825.092, 146.248
826.371, 58.131
827.650, 80.840
828.929, 12.404
830.208, 209.955
831.486, 118.230
832.764, 137.229
834.042, 26.904
835.320, 10.520
836.598, 12.676
837.875, 92.717
839.152, 128.877
840.429, 39.551
841.706, 323.990
842.983, 19.277
844.259, 9.555
845.536, 189.844
846.812, 27.873
848.088, 40.402
849.363, 123.297
850.639, 167.129
851.914, 96.971
853.189, 180.904
854.464, 79.883
855.739, 104.086
857.013, 193.051
858.288, 169.734
859.562, 102.207
860.836, 46.689
862.110, 7.416
863.383, 93.533
864.656, 0.324
865.930, 14.924
867.203, 65.883
868.475, 77.686
869.748, 112.486
871.020, 154.904
872.292, 150.205
873.564, 143.883
874.836, 152.682
876.108, 141.117
877.379, 143.307
878.650, 182.127
879.922, 196.947
881.192, 288.799
882.463, 278.648
883.733, 36.498
885.004, 218.350
886.274, 287.197
887.544, 205.686
888.813, 361.268
890.083, 326.600
891.352, 193.992
892.621, 334.859
893.890, 322.730
895.159, 304.604
896.427, 402.307
897.695, 422.355
898.964, 517.232
900.232, 307.115
901.499, 337.996
902.767, 275.883
904.034, 433.773
905.301, 359.670
906.568, 538.568
907.835, 676.471
909.102, 595.377
910.368, 513.287
911.634, 451.197
912.900, 614.996
914.166, 690.951
915.432, 838.910
916.697, 853.900
917.962, 913.762
919.227, 894.891
920.492, 1015.895
921.757, 1072.580
923.021, 1244.592
924.285, 1430.605
925.550, 1493.477
926.813, 1505.498
928.077, 1874.541
929.341, 2166.590
930.604, 2487.498
931.867, 3134.551
933.130, 3656.611
934.393, 4260.676
935.655, 5360.738
936.918, 5704.803
938.180, 6828.885
939.442, 6746.965
940.703, 6491.053
941.965, 5782.152
943.226, 4980.055
944.488, 3810.934
945.749, 3187.055
947.009, 2870.910
948.270, 2259.902
949.530, 1900.027
950.791, 1611.154
952.051, 1484.170
953.311, 1104.297
954.570, 830.467
955.830, 1116.916
957.089, 890.088
958.348, 831.473
959.607, 732.650
960.866, 786.836
962.124, 660.020
963.383, 765.877
964.641, 938.068
965.899, 851.871
967.156, 1039.078
968.414, 764.297
969.671, 1007.049
970.928, 964.938
972.185, 965.088
973.442, 1302.012
974.699, 1314.025
975.955, 1644.275
977.211, 1756.533
978.468, 1818.264
979.723, 2360.445
980.979, 2377.350
982.234, 2890.688
983.490, 3703.061
984.745, 3852.096
986.000, 5138.094
987.254, 6266.094
988.509, 7438.084
989.763, 9990.467
991.017, 12777.270
992.271, 16764.713
993.525, 21109.176
994.779, 25596.314
996.032, 28015.426
997.285, 27203.910
998.538, 24488.299
999.791, 19432.559
1001.044, 16011.051
1002.296, 11849.836
1003.548, 9391.367
1004.800, 7253.404
1006.052, 5694.838
1007.304, 4759.424
1008.555, 3609.014
1009.807, 3008.615
1011.058, 2577.859
1012.309, 2298.316
1013.559, 1838.250
1014.810, 1594.201
1016.060, 1219.416
1017.310, 1289.113
1018.560, 1192.713
1019.810, 633.381
1021.060, 837.082
1022.309, 754.248
1023.558, 615.193
1024.807, 795.881
1026.056, 412.891
1027.305, 504.574
1028.553, 423.408
1029.801, 622.848
1031.049, 555.820
1032.297, 226.682
1033.545, 279.549
1034.793, 205.967
1036.040, 278.760
1037.287, 273.645
1038.534, 296.576
1039.781, 415.213
1041.027, 623.600
1042.274, 576.838
1043.520, 378.068
1044.766, 577.182
1046.012, 380.436
1047.257, 373.688
1048.503, 390.596
1049.748, 765.504
1050.993, 467.408
1052.238, 794.168
1053.483, 784.459
1054.727, 608.689
1055.971, 711.592
1057.216, 810.889
1058.459, 1117.828
1059.703, 1190.295
1060.947, 1379.295
1062.190, 1610.111
1063.433, 1965.941
1064.676, 2530.746
1065.919, 3093.342
1067.162, 3424.037
1068.404, 4486.680
1069.646, 4684.729
1070.888, 5872.311
1072.130, 6797.383
1073.372, 6985.098
1074.613, 7121.484
1075.855, 6644.301
1077.096, 5830.898
1078.337, 5053.084
1079.578, 4522.549
1080.818, 3732.193
1082.059, 3228.529
1083.299, 2878.738
1084.539, 2377.477
1085.779, 2091.488
1087.018, 1667.988
1088.258, 1539.215
1089.497, 1144.762
1090.736, 1061.062
1091.975, 991.875
1093.213, 897.990
1094.452, 577.674
1095.690, 740.508
1096.928, 466.121
1098.166, 619.461
1099.404, 537.803
1100.642, 544.354
1101.879, 309.135
1103.116, 491.475
1104.353, 232.979
1105.590, 498.895
1106.827, 216.158
1108.063, 492.057
1109.299, 162.414
1110.536, 511.365
1111.771, 461.547
1113.007, 196.518
1114.243, 473.004
1115.478, 664.875
1116.713, 576.654
1117.948, 767.721
1119.183, 868.205
1120.418, 766.482
1121.652, 1090.682
1122.886, 1058.455
1124.120, 1357.549
1125.354, 1644.305
1126.588, 1747.516
1127.821, 2466.996
1129.055, 2474.234
1130.288, 3265.293
1131.521, 3813.396
1132.753, 3839.742
1133.986, 4192.891
1135.218, 4576.211
1136.450, 5130.545
1137.682, 4514.889
1138.914, 4698.807
1140.146, 4057.906
1141.377, 3503.809
1142.609, 3163.506
1143.840, 2603.785
1145.071, 2392.115
1146.301, 2078.309
1147.532, 1667.598
1148.762, 1526.301
1149.992, 1182.404
1151.222, 743.861
1152.452, 952.176
1153.682, 952.621
1154.911, 491.551
1156.140, 895.848
1157.369, 490.898
1158.598, 435.461
1159.827, 395.725
1161.055, 477.793
1162.284, 188.289
1163.512, 278.654
1164.740, 224.000
1165.967, 241.354
1167.195, 223.336
1168.422, 286.268
1169.650, 112.980
1170.877, 188.154
1172.103, 14.102
1173.330, 13.113
1174.557, 73.693
1175.783, 294.314
1177.009, 88.803
1178.235, 122.492
1179.461, 296.373
1180.686, 293.270
1181.912, 101.043
1183.137, 264.875
1184.362, 296.504
1185.587, 8.449
1186.811, 22.680
1188.036, 138.912
1189.260, 125.396
1190.484, 9.223
1191.708, 212.666
1192.932, 182.404
1194.155, 184.754
1195.378, 309.447
1196.602, 32.801
1197.825, 311.027
1199.047, 73.203
1200.270, 186.447
1201.492, 3.359
1202.715, 351.477
1203.937, 41.271
1205.159, 191.947
1206.380, 152.580
1207.602, 265.154
1208.823, 80.328
1210.044, 31.904
1211.265, 76.430
1212.486, 90.377
1213.707, 104.729
1214.927, 116.768
1216.147, 42.717
1217.367, 131.609
1218.587, 255.426
1219.807, 101.098
1221.027, 178.422
1222.246, 316.660
1223.465, 68.182
1224.684, 224.826
1225.903, 156.748
1227.121, 112.594
1228.340, 15.318
1229.558, 213.955
1230.776, 356.490
1231.994, 256.939
1233.212, 30.705
1234.429, 202.543
1235.646, 122.695
1236.864, 26.250
1238.081, 293.699
1239.297, 38.443
1240.514, 320.299
1241.730, 280.945
1242.947, 95.492
1244.163, 160.572
1245.378, 156.914
1246.594, 410.164
1247.810, 286.324
1249.025, 117.602
1250.240, 364.344
1251.455, 63.205
1252.670, 167.975
1253.885, 260.656
1255.099, 146.254
1256.313, 239.465
1257.527, 179.020
1258.741, 225.174
1259.955, 107.229
1261.168, 5.182
1262.382, 7.014
1263.595, 184.721
1264.808, 100.691
1266.021, 24.865
1267.233, 138.297
1268.446, 59.625
1269.658, 149.912
1270.870, 9.879
1272.082, 129.785
1273.294, 63.400
1274.505, 36.287
1275.716, 54.064
1276.928, 69.463
1278.139, 8.057
1279.349, 175.537
1280.560, 144.979
1281.770, 146.381
1282.981, 15.727
1284.191, 26.016
1285.401, 212.160
1286.610, 265.295
1287.820, 122.379
1289.029, 179.398
1290.239, 171.377
1291.448, 204.301
1292.656, 184.525
1293.865, 55.914
1295.073, 93.273
1296.282, 72.900
1297.490, 39.635
1298.698, 71.746
1299.906, 283.809
1301.113, 192.250
1302.320, 249.807
1303.528, 158.928
1304.735, 203.787
1305.942, 52.172
1307.148, 385.686
1308.355, 419.955
1309.561, 94.062
1310.767, 422.186
1311.973, 100.082
1313.179, 5.160
1314.384, 135.893
1315.590, 78.826
1316.795, 228.799
1318.000, 263.559
1319.205, 149.633
1320.410, 423.746
1321.614, 303.652
1322.819, 30.602
1324.023, 429.719
1325.227, 197.020
1326.431, 451.309
1327.634, 407.184
1328.838, 57.430
1330.041, 370.113
1331.244, 384.977
1332.447, 415.898
1333.650, 204.152
1334.852, 347.992
1336.055, 478.867
1337.257, 356.945
1338.459, 547.742
1339.661, 345.141
1340.862, 416.469
1342.064, 547.695
1343.265, 443.363
1344.466, 385.770
1345.667, 582.836
1346.868, 338.648
1348.068, 607.105
1349.269, 552.438
1350.469, 400.496
1351.669, 773.934
1352.869, 681.938
1354.069, 750.945
1355.268, 822.164
1356.468, 378.773
1357.667, 701.617
1358.866, 946.832
1360.065, 374.902
1361.263, 627.656
1362.462, 473.781
1363.660, 509.051
1364.858, 776.543
1366.056, 425.871
1367.254, 403.027
1368.451, 502.250
1369.649, 370.871
1370.846, 292.242
1372.043, 278.285
1373.240, 327.648
1374.436, 428.645
1375.633, 428.336
1376.829, 277.168
1378.025, 382.332
1379.221, 345.402
1380.417, 330.891
1381.613, 341.914
1382.808, 376.414
1384.003, 270.203
1385.199, 405.859
1386.393, 268.113
1387.588, 30.234
1388.783, 358.008
1389.977, 203.340
1391.171, 448.715
1392.365, 264.109
1393.559, 267.746
1394.753, 428.461
1395.946, 341.219
1397.140, 268.125
1398.333, 188.172
1399.526, 356.527
1400.719, 264.059
1401.911, 298.297
1403.104, 218.930
1404.296, 382.625
1405.488, 176.875
1406.680, 260.750
1407.872, 13.121
1409.063, 2.551
1410.255, 336.574
1411.446, 0.254
1412.637, 0.000
##END=



