##NAMES=Phosphosiderite
##RRUFFID=R070519
##IDEAL CHEMISTRY=Fe^3+^PO_4_&#183;2H_2_O
##LOCALITY=Stewart mine, Pala, San Diego County, California, USA
##OWNER=RRUFF
##SOURCE=James Shigley
##DESCRIPTION=Bluish-purple fine-grained botryoidal and tabular crystals
##STATUS=The identification of this mineral has been confirmed by X-ray diffraction.
##URL=rruff.info/R070519
153.0481, 0.0000000E+00
153.5302, 3.172363
154.0123, 25.16040
154.4944, 85.68481
154.9765, 132.0957
155.4586, 136.5259
155.9408, 139.5625
156.4229, 153.7480
156.9050, 164.2073
157.3871, 163.7886
157.8692, 173.5925
158.3513, 190.4265
158.8335, 202.4314
159.3156, 202.3940
159.7977, 200.1104
160.2798, 200.9397
160.7619, 208.6597
161.2440, 216.1179
161.7262, 220.3464
162.2083, 222.2617
162.6904, 225.8044
163.1725, 238.7869
163.6546, 250.9424
164.1367, 253.9592
164.6189, 233.0322
165.1010, 212.8672
165.5831, 203.9978
166.0652, 206.0852
166.5473, 214.9719
167.0294, 238.7466
167.5116, 264.8381
167.9937, 277.9568
168.4758, 247.9023
168.9579, 219.0310
169.4400, 227.8450
169.9221, 279.5049
170.4043, 333.1316
170.8864, 357.4099
171.3685, 364.0371
171.8506, 375.2207
172.3327, 405.5957
172.8148, 443.5530
173.2970, 477.1045
173.7791, 503.2363
174.2612, 529.7466
174.7433, 565.5881
175.2254, 607.6099
175.7076, 647.1694
176.1897, 678.1277
176.6718, 703.8772
177.1539, 730.8708
177.6360, 763.3555
178.1181, 792.0908
178.6003, 798.1611
179.0824, 786.2012
179.5645, 785.1050
180.0466, 809.5435
180.5287, 859.5435
181.0108, 941.1440
181.4930, 1084.663
181.9751, 1233.619
182.4572, 1284.063
182.9393, 1238.631
183.4214, 1170.680
183.9035, 1136.046
184.3857, 1129.768
184.8678, 1135.846
185.3499, 1152.558
185.8320, 1177.067
186.3141, 1202.912
186.7962, 1230.258
187.2784, 1259.295
187.7605, 1290.849
188.2426, 1324.347
188.7247, 1355.217
189.2068, 1383.659
189.6889, 1416.688
190.1711, 1441.100
190.6532, 1459.762
191.1353, 1483.133
191.6174, 1502.254
192.0995, 1508.141
192.5816, 1512.052
193.0638, 1534.649
193.5459, 1550.658
194.0280, 1556.149
194.5101, 1547.750
194.9922, 1529.147
195.4743, 1513.146
195.9565, 1494.645
196.4386, 1479.991
196.9207, 1472.927
197.4028, 1473.233
197.8849, 1467.546
198.3671, 1454.903
198.8492, 1435.957
199.3313, 1412.448
199.8134, 1384.615
200.2955, 1350.378
200.7776, 1305.567
201.2598, 1249.320
201.7419, 1197.136
202.2240, 1153.569
202.7061, 1113.268
203.1882, 1054.575
203.6703, 972.3374
204.1525, 887.5403
204.6346, 815.2798
205.1167, 757.1416
205.5988, 699.8662
206.0809, 639.6411
206.5630, 578.3911
207.0452, 529.0493
207.5273, 495.2693
208.0094, 464.9182
208.4915, 425.2358
208.9736, 373.3521
209.4557, 326.7529
209.9379, 287.9897
210.4200, 257.2070
210.9021, 238.3499
211.3842, 238.2036
211.8663, 240.9954
212.3484, 226.9167
212.8306, 189.4026
213.3127, 157.4773
213.7948, 139.0039
214.2769, 134.3611
214.7590, 131.4529
215.2411, 133.3682
215.7233, 133.1042
216.2054, 119.3215
216.6875, 84.77734
217.1696, 56.13208
217.6517, 42.43750
218.1338, 45.91870
218.6160, 46.78784
219.0981, 45.08203
219.5802, 40.63403
220.0623, 31.36499
220.5444, 11.49243
221.0265, 0.7055660
221.5087, 2.793457
221.9908, 27.05322
222.4729, 46.09448
222.9550, 62.34595
223.4371, 72.07397
223.9192, 67.09790
224.4014, 41.43555
224.8835, 12.67603
225.3656, 14.78345
225.8477, 46.40845
226.3298, 58.61987
226.8120, 40.40991
227.2941, 7.772705
227.7762, 2.131348
228.2583, 22.83276
228.7404, 50.96094
229.2225, 69.61816
229.7047, 78.72778
230.1868, 77.66016
230.6689, 58.68140
231.1510, 31.52979
231.6331, 24.16675
232.1152, 47.19312
232.5974, 74.35522
233.0795, 144.2373
233.5616, 72.18262
234.0437, 26.94971
234.5258, 7.086914
235.0079, 88.51245
235.4901, 39.19775
235.9722, 42.31641
236.4543, 47.60645
236.9364, 20.04028
237.4185, 46.76758
237.9006, 19.69067
238.3828, 32.93726
238.8649, 70.52734
239.3470, 55.38062
239.8291, 56.51489
240.3112, 110.3945
240.7933, 135.0603
241.2755, 113.8271
241.7576, 152.9370
242.2397, 84.21948
242.7218, 125.0073
243.2039, 146.5935
243.6860, 180.6804
244.1682, 210.8186
244.6503, 222.7290
245.1324, 197.3213
245.6145, 196.2500
246.0966, 235.2456
246.5787, 306.6436
247.0609, 357.0791
247.5430, 375.1636
248.0251, 386.7891
248.5072, 411.0132
248.9893, 457.4668
249.4714, 494.2417
249.9536, 512.4854
250.4357, 515.5425
250.9178, 535.6089
251.3999, 585.5308
251.8820, 635.6934
252.3641, 661.2646
252.8463, 645.3052
253.3284, 643.6089
253.8105, 670.6685
254.2926, 721.9683
254.7747, 751.6582
255.2568, 753.0688
255.7390, 741.7798
256.2211, 728.3584
256.7032, 710.6187
257.1853, 696.5557
257.6674, 688.5898
258.1495, 686.0137
258.6317, 681.9453
259.1138, 677.7773
259.5959, 670.0845
260.0780, 654.7822
260.5601, 627.2432
261.0422, 603.1943
261.5244, 582.9824
262.0065, 567.2041
262.4886, 566.8428
262.9707, 589.4468
263.4528, 615.5718
263.9349, 628.0435
264.4171, 621.3096
264.8992, 617.0649
265.3813, 618.7324
265.8634, 626.0015
266.3455, 636.1333
266.8276, 650.0269
267.3098, 665.3003
267.7919, 680.5078
268.2740, 695.8237
268.7561, 709.7041
269.2382, 720.3247
269.7203, 728.6055
270.2025, 741.7256
270.6846, 759.3086
271.1667, 782.1636
271.6488, 814.0840
272.1309, 858.3716
272.6130, 893.9741
273.0952, 910.2983
273.5773, 913.6724
274.0594, 949.1948
274.5415, 1025.879
275.0236, 1109.984
275.5057, 1169.660
275.9879, 1201.462
276.4700, 1233.194
276.9521, 1269.075
277.4342, 1309.135
277.9163, 1352.226
278.3984, 1397.128
278.8806, 1449.277
279.3627, 1519.851
279.8448, 1610.467
280.3269, 1687.423
280.8090, 1739.477
281.2911, 1773.713
281.7733, 1820.691
282.2554, 1882.592
282.7375, 1945.638
283.2196, 1997.356
283.7017, 2037.028
284.1838, 2072.212
284.6660, 2107.918
285.1481, 2141.193
285.6302, 2159.882
286.1123, 2161.348
286.5945, 2151.609
287.0766, 2136.343
287.5587, 2115.871
288.0408, 2087.038
288.5229, 2049.310
289.0050, 2005.256
289.4872, 1958.250
289.9693, 1906.434
290.4514, 1849.589
290.9335, 1784.874
291.4156, 1721.089
291.8977, 1655.410
292.3799, 1580.642
292.8620, 1502.145
293.3441, 1456.135
293.8262, 1437.889
294.3083, 1421.531
294.7904, 1388.281
295.2726, 1337.817
295.7547, 1299.762
296.2368, 1276.170
296.7189, 1261.005
297.2010, 1242.518
297.6831, 1222.493
298.1653, 1213.634
298.6474, 1238.406
299.1295, 1279.610
299.6116, 1298.517
300.0937, 1282.511
300.5758, 1253.983
301.0580, 1237.590
301.5401, 1232.887
302.0222, 1236.376
302.5043, 1250.204
302.9864, 1269.531
303.4685, 1286.383
303.9507, 1299.203
304.4328, 1311.021
304.9149, 1327.594
305.3970, 1346.604
305.8791, 1361.119
306.3612, 1369.648
306.8434, 1369.893
307.3255, 1355.474
307.8076, 1321.273
308.2897, 1288.885
308.7718, 1281.362
309.2539, 1289.072
309.7361, 1290.541
310.2182, 1268.260
310.7003, 1239.683
311.1824, 1219.988
311.6645, 1212.081
312.1466, 1204.593
312.6288, 1190.470
313.1109, 1172.230
313.5930, 1153.952
314.0751, 1139.537
314.5572, 1124.996
315.0393, 1107.985
315.5215, 1088.327
316.0036, 1066.773
316.4857, 1037.681
316.9678, 1008.475
317.4499, 988.2651
317.9320, 990.7803
318.4142, 993.9434
318.8963, 982.3657
319.3784, 953.4189
319.8605, 940.7563
320.3426, 977.7505
320.8247, 1027.895
321.3069, 1053.667
321.7890, 1018.729
322.2711, 985.1582
322.7532, 972.7817
323.2353, 982.3062
323.7174, 990.5122
324.1996, 994.1655
324.6817, 994.1187
325.1638, 991.0200
325.6459, 983.9922
326.1280, 974.9888
326.6101, 960.8350
327.0923, 942.3857
327.5744, 932.9722
328.0565, 946.3174
328.5386, 960.3174
329.0207, 961.8271
329.5028, 939.9160
329.9850, 920.2104
330.4671, 906.3823
330.9492, 896.8804
331.4313, 882.0493
331.9134, 854.5132
332.3955, 829.4590
332.8777, 816.2856
333.3598, 829.1382
333.8419, 825.6709
334.3240, 796.9922
334.8061, 752.5659
335.2882, 720.1841
335.7704, 707.5088
336.2525, 693.1899
336.7346, 664.3179
337.2167, 611.8149
337.6988, 577.8022
338.1809, 568.3413
338.6631, 571.4673
339.1452, 562.5645
339.6273, 536.9409
340.1094, 515.4927
340.5915, 512.1982
341.0736, 529.4663
341.5558, 519.9863
342.0379, 475.8037
342.5200, 421.9854
343.0021, 396.0723
343.4842, 400.3081
343.9663, 401.2583
344.4485, 384.8423
344.9306, 354.1914
345.4127, 329.0303
345.8948, 309.5024
346.3769, 294.5903
346.8590, 288.6230
347.3412, 289.3682
347.8233, 279.4517
348.3054, 247.8672
348.7875, 205.0225
349.2696, 173.8774
349.7517, 154.6694
350.2339, 145.3540
350.7160, 153.4067
351.1981, 170.5107
351.6802, 175.1582
352.1623, 157.9907
352.6444, 130.3711
353.1266, 103.2368
353.6087, 76.96924
354.0908, 57.97412
354.5729, 60.47510
355.0550, 70.23193
355.5371, 65.85693
356.0193, 37.40820
356.5014, 7.462402
356.9835, 1.814453
357.4656, 3.276855
357.9477, 6.374023
358.4298, 3.233398
358.9120, 16.69678
359.3941, 27.18115
359.8762, 33.44482
360.3583, 37.55566
360.8404, 37.87842
361.3225, 37.06348
361.8047, 39.39600
362.2868, 52.08643
362.7689, 63.76367
363.2510, 68.76611
363.7331, 66.23340
364.2152, 61.77686
364.6974, 58.70166
365.1795, 54.10938
365.6616, 44.98779
366.1437, 18.33789
366.6258, 0.2065430
367.1079, 0.4541020
367.5901, 20.26611
368.0722, 31.72754
368.5543, 25.02441
369.0364, 13.46191
369.5186, 6.072754
370.0007, 9.535156
370.4828, 8.070313
370.9649, 2.514160
371.4470, 19.71289
371.9291, 31.58740
372.4113, 33.96826
372.8934, 36.02051
373.3755, 41.89893
373.8576, 51.68359
374.3397, 64.74707
374.8218, 80.51025
375.3040, 99.40430
375.7861, 124.4580
376.2682, 159.3936
376.7503, 188.9351
377.2324, 204.4844
377.7145, 204.7256
378.1967, 209.6221
378.6788, 220.7847
379.1609, 233.2114
379.6430, 239.9297
380.1251, 240.7793
380.6072, 239.9297
381.0894, 234.4941
381.5715, 228.7339
382.0536, 245.1299
382.5357, 286.2319
383.0178, 328.0000
383.4999, 344.1665
383.9821, 340.4375
384.4642, 341.9297
384.9463, 356.1558
385.4284, 377.2383
385.9105, 396.9604
386.3926, 415.3672
386.8748, 434.2490
387.3569, 461.0630
387.8390, 487.5503
388.3211, 498.0137
388.8032, 483.8872
389.2853, 468.8188
389.7675, 477.9111
390.2496, 502.8315
390.7317, 523.0757
391.2138, 521.8594
391.6959, 516.1709
392.1780, 521.7856
392.6602, 543.0596
393.1423, 558.4141
393.6244, 555.9482
394.1065, 542.0132
394.5886, 524.4019
395.0707, 496.3032
395.5529, 473.7588
396.0350, 468.1045
396.5171, 479.1553
396.9992, 480.1411
397.4813, 454.5815
397.9634, 422.9038
398.4456, 399.0977
398.9277, 398.4312
399.4098, 390.0518
399.8919, 363.1787
400.3740, 323.9985
400.8561, 299.8486
401.3383, 308.1333
401.8204, 313.3604
402.3025, 299.4414
402.7846, 255.9761
403.2667, 218.1533
403.7488, 187.9619
404.2310, 162.5537
404.7131, 136.2520
405.1952, 106.8535
405.6773, 83.60596
406.1594, 70.58740
406.6415, 67.77393
407.1237, 67.54297
407.6058, 71.54004
408.0879, 73.50049
408.5700, 65.32812
409.0521, 46.78467
409.5342, 27.14160
410.0164, 5.477539
410.4985, 13.71973
410.9806, 14.07764
411.4627, 4.413574
411.9448, 21.89404
412.4269, 20.54004
412.9091, 6.569824
413.3912, 2.708008
413.8733, 4.895996
414.3554, 1.779297
414.8375, 7.936523
415.3196, 22.23828
415.8018, 32.94434
416.2839, 30.89795
416.7660, 24.56836
417.2481, 23.44287
417.7302, 28.63184
418.2123, 35.49463
418.6945, 40.51953
419.1766, 45.90625
419.6587, 54.01221
420.1408, 68.78174
420.6229, 82.75830
421.1050, 92.47119
421.5872, 98.80371
422.0693, 106.1621
422.5514, 111.2095
423.0335, 120.5435
423.5156, 139.1934
423.9977, 181.3911
424.4799, 215.5337
424.9620, 234.3115
425.4441, 240.1392
425.9262, 241.3540
426.4083, 220.0059
426.8904, 216.5459
427.3726, 249.8530
427.8547, 332.5542
428.3368, 390.4043
428.8189, 416.3853
429.3010, 425.6050
429.7831, 434.7808
430.2653, 442.7275
430.7474, 455.4370
431.2295, 476.4253
431.7116, 503.4800
432.1937, 521.4390
432.6758, 527.7935
433.1580, 537.5762
433.6401, 563.3008
434.1222, 603.8193
434.6043, 648.0474
435.0864, 696.4141
435.5685, 743.5903
436.0507, 778.9097
436.5328, 804.0439
437.0149, 829.1475
437.4970, 863.0669
437.9791, 899.3359
438.4612, 923.1494
438.9434, 932.9175
439.4255, 946.3774
439.9076, 989.7651
440.3897, 1044.992
440.8718, 1081.798
441.3539, 1071.208
441.8361, 1058.070
442.3182, 1075.702
442.8003, 1117.727
443.2824, 1153.365
443.7645, 1162.089
444.2466, 1164.821
444.7288, 1175.830
445.2109, 1202.556
445.6930, 1227.077
446.1751, 1250.885
446.6572, 1269.265
447.1393, 1274.190
447.6215, 1241.999
448.1036, 1219.124
448.5857, 1222.723
449.0678, 1257.593
449.5499, 1270.565
450.0320, 1246.168
450.5142, 1215.905
450.9963, 1209.595
451.4784, 1243.743
451.9605, 1253.902
452.4427, 1222.047
452.9248, 1166.018
453.4069, 1142.324
453.8890, 1156.979
454.3711, 1173.765
454.8532, 1170.651
455.3354, 1149.472
455.8175, 1135.130
456.2996, 1127.941
456.7817, 1126.890
457.2638, 1137.088
457.7459, 1154.191
458.2281, 1160.916
458.7102, 1145.587
459.1923, 1119.233
459.6744, 1096.952
460.1565, 1078.352
460.6386, 1062.407
461.1208, 1049.923
461.6029, 1038.880
462.0850, 1025.485
462.5671, 1004.648
463.0492, 992.6016
463.5313, 1008.977
464.0135, 1040.093
464.4956, 1059.217
464.9777, 1038.658
465.4598, 1020.802
465.9419, 1025.477
466.4240, 1056.938
466.9062, 1088.674
467.3883, 1120.674
467.8704, 1148.516
468.3525, 1168.044
468.8346, 1166.574
469.3167, 1174.745
469.7989, 1199.525
470.2810, 1234.291
470.7631, 1257.320
471.2452, 1265.511
471.7273, 1268.779
472.2094, 1268.504
472.6916, 1262.634
473.1737, 1272.364
473.6558, 1303.315
474.1379, 1337.048
474.6200, 1346.603
475.1021, 1333.173
475.5843, 1327.312
476.0664, 1339.641
476.5485, 1364.031
477.0306, 1389.814
477.5127, 1416.606
477.9948, 1438.518
478.4770, 1449.078
478.9591, 1452.541
479.4412, 1454.034
479.9233, 1452.518
480.4054, 1455.334
480.8875, 1479.995
481.3697, 1511.181
481.8518, 1522.868
482.3339, 1485.646
482.8160, 1442.338
483.2981, 1415.432
483.7802, 1404.653
484.2624, 1392.489
484.7445, 1370.196
485.2266, 1346.983
485.7087, 1328.753
486.1908, 1322.183
486.6729, 1312.366
487.1551, 1302.688
487.6372, 1288.728
488.1193, 1259.926
488.6014, 1206.148
489.0835, 1157.106
489.5656, 1125.365
490.0478, 1111.468
490.5299, 1079.043
491.0120, 1021.531
491.4941, 961.8394
491.9762, 922.7769
492.4583, 904.5024
492.9405, 878.1348
493.4226, 836.4146
493.9047, 788.9150
494.3868, 756.2109
494.8689, 735.4775
495.3510, 705.3042
495.8332, 637.8325
496.3153, 559.7744
496.7974, 516.3945
497.2795, 509.3569
497.7616, 510.0669
498.2437, 498.9268
498.7259, 482.2197
499.2080, 468.0996
499.6901, 467.6401
500.1722, 459.0610
500.6543, 425.3369
501.1364, 375.2500
501.6186, 331.7803
502.1007, 304.2856
502.5828, 282.9702
503.0649, 265.9546
503.5470, 256.5640
504.0291, 238.3262
504.5113, 203.1494
504.9934, 164.5356
505.4755, 133.2842
505.9576, 106.1763
506.4397, 95.77539
506.9218, 112.8330
507.4040, 144.6372
507.8861, 144.7930
508.3682, 106.0391
508.8503, 70.31348
509.3324, 62.95117
509.8145, 80.24170
510.2967, 93.41748
510.7788, 102.8320
511.2609, 102.5977
511.7430, 78.96045
512.2252, 39.89551
512.7073, 7.850098
513.1894, 10.70117
513.6715, 19.36182
514.1536, 18.22803
514.6357, 9.540039
515.1179, 1.039551
515.6000, 0.3149410
516.0821, 1.156738
516.5642, 12.12402
517.0463, 36.12842
517.5284, 53.11035
518.0106, 53.62012
518.4927, 45.24023
518.9748, 35.45410
519.4569, 27.55298
519.9390, 15.36987
520.4211, 6.702393
520.9033, 34.08032
521.3854, 49.45825
521.8675, 48.75317
522.3496, 42.74194
522.8317, 33.68628
523.3138, 20.51929
523.7960, 16.27515
524.2781, 22.97974
524.7602, 32.90601
525.2423, 38.78882
525.7244, 40.65186
526.2065, 39.12061
526.6887, 33.82739
527.1708, 25.85059
527.6529, 15.21997
528.1350, 2.906738
528.6171, 6.695068
529.0992, 4.632813
529.5814, 1.821045
530.0635, 13.82812
530.5456, 42.12036
531.0277, 67.17090
531.5098, 73.58765
531.9919, 72.17798
532.4741, 73.44775
532.9562, 79.05762
533.4383, 88.70752
533.9204, 108.3264
534.4025, 132.2029
534.8846, 144.7832
535.3668, 130.2036
535.8489, 120.7573
536.3310, 129.7690
536.8131, 160.3071
537.2952, 168.0879
537.7773, 141.5491
538.2595, 112.1321
538.7416, 108.9343
539.2237, 135.4875
539.7058, 151.4983
540.1879, 148.9875
540.6700, 141.1958
541.1522, 157.3889
541.6343, 193.5322
542.1164, 217.8186
542.5985, 204.4915
543.0806, 174.7502
543.5627, 162.6357
544.0449, 166.9680
544.5270, 174.2117
545.0091, 173.6978
545.4912, 172.1108
545.9733, 176.9851
546.4554, 192.4343
546.9376, 207.4583
547.4197, 216.1780
547.9018, 222.0020
548.3839, 229.7217
548.8660, 256.4319
549.3481, 267.5508
549.8303, 246.3748
550.3124, 198.0220
550.7945, 167.7998
551.2766, 160.6523
551.7587, 164.3828
552.2408, 175.7527
552.7230, 197.4775
553.2051, 210.0354
553.6872, 211.5762
554.1693, 208.4333
554.6514, 208.5315
555.1335, 211.4290
555.6157, 212.9116
556.0978, 211.8508
556.5799, 208.7290
557.0620, 198.7898
557.5441, 185.3833
558.0262, 183.6274
558.5084, 218.1030
558.9905, 258.7883
559.4726, 277.2920
559.9547, 271.0024
560.4368, 257.9307
560.9189, 239.8215
561.4011, 223.1294
561.8832, 213.1521
562.3653, 218.1741
562.8474, 221.1194
563.3295, 216.2510
563.8116, 208.5774
564.2938, 208.5032
564.7759, 221.8425
565.2580, 232.6101
565.7401, 235.1814
566.2222, 230.5056
566.7043, 232.4324
567.1865, 241.8579
567.6686, 252.8430
568.1507, 261.5178
568.6328, 267.6328
569.1149, 272.7346
569.5970, 277.4849
570.0792, 279.6865
570.5613, 278.2815
571.0434, 272.8794
571.5255, 259.5771
572.0076, 224.4619
572.4897, 193.9221
572.9719, 195.0012
573.4540, 219.0332
573.9361, 235.3733
574.4182, 222.6711
574.9003, 205.7717
575.3824, 197.7632
575.8646, 201.5137
576.3467, 205.5757
576.8288, 212.5234
577.3109, 216.8396
577.7930, 213.7180
578.2751, 199.0417
578.7573, 184.4133
579.2394, 170.8823
579.7215, 159.4609
580.2036, 152.5156
580.6857, 150.8718
581.1678, 148.1296
581.6500, 139.1313
582.1321, 126.6680
582.6142, 121.6846
583.0963, 124.2837
583.5784, 127.7322
584.0605, 127.5862
584.5427, 124.7761
585.0248, 119.4199
585.5069, 110.9458
585.9890, 105.0801
586.4711, 105.7175
586.9532, 109.7705
587.4354, 114.3044
587.9175, 124.7754
588.3996, 129.8071
588.8817, 122.3767
589.3638, 106.5132
589.8459, 97.70483
590.3281, 101.6497
590.8102, 106.5923
591.2923, 107.6008
591.7744, 104.6562
592.2565, 109.0342
592.7386, 123.4263
593.2208, 135.3313
593.7029, 132.8826
594.1850, 117.8254
594.6671, 100.8757
595.1492, 81.67041
595.6313, 67.35278
596.1135, 72.02979
596.5956, 88.01025
597.0777, 98.09204
597.5598, 90.46729
598.0419, 79.70825
598.5240, 75.31201
599.0062, 76.14331
599.4883, 77.88135
599.9704, 81.06445
600.4525, 82.59790
600.9346, 79.54199
601.4167, 69.45654
601.8989, 67.58179
602.3810, 81.82764
602.8631, 96.11987
603.3452, 96.57349
603.8273, 77.56494
604.3094, 67.37476
604.7916, 69.88159
605.2737, 78.51196
605.7558, 85.28101
606.2379, 89.72168
606.7200, 86.59595
607.2021, 68.84790
607.6843, 47.26758
608.1664, 39.39624
608.6485, 43.72559
609.1306, 52.09204
609.6127, 65.45898
610.0948, 76.79199
610.5770, 77.46021
611.0591, 65.74170
611.5412, 58.89844
612.0233, 71.12329
612.5054, 85.70435
612.9875, 89.75562
613.4697, 70.29224
613.9518, 57.43335
614.4339, 55.07764
614.9160, 56.63501
615.3981, 51.14038
615.8802, 36.86353
616.3624, 22.10107
616.8445, 6.447021
617.3266, 6.541260
617.8087, 1.763184
618.2908, 19.88379
618.7729, 38.28418
619.2551, 38.51367
619.7372, 28.79443
620.2193, 21.41089
620.7014, 16.97217
621.1835, 13.96216
621.6656, 13.74854
622.1478, 13.25732
622.6299, 9.121338
623.1120, 2.266602
623.5941, 11.04736
624.0762, 14.82666
624.5583, 14.43237
625.0405, 11.18604
625.5226, 6.022949
626.0047, 4.338623
626.4868, 26.43262
626.9689, 52.58374
627.4510, 50.58667
627.9332, 14.26538
628.4153, 15.40259
628.8974, 15.81470
629.3795, 5.841553
629.8616, 25.29834
630.3438, 42.47119
630.8259, 54.42358
631.3080, 58.81006
631.7901, 56.53857
632.2722, 46.69482
632.7543, 26.73120
633.2365, 10.49414
633.7186, 9.664795
634.2007, 14.92749
634.6828, 15.76245
635.1649, 2.858398
635.6470, 5.945801
636.1292, 8.393311
636.6113, 5.108154
637.0934, 4.149170
637.5755, 24.13721
638.0576, 38.76880
638.5397, 42.74072
639.0219, 37.24512
639.5040, 27.17358
639.9861, 12.07153
640.4682, 1.158691
640.9503, 7.973145
641.4324, 9.389893
641.9146, 7.260498
642.3967, 1.749268
642.8788, 6.403320
643.3609, 22.69971
643.8430, 38.51318
644.3251, 43.47095
644.8073, 30.30005
645.2894, 15.15747
645.7715, 3.626953
646.2536, 19.71460
646.7357, 22.82178
647.2178, 3.564453
647.7000, 14.73804
648.1821, 30.05811
648.6642, 41.50757
649.1463, 42.79004
649.6284, 30.99194
650.1105, 26.01123
650.5927, 45.79614
651.0748, 79.28735
651.5569, 80.65601
652.0390, 50.76807
652.5211, 19.18921
653.0032, 5.964355
653.4854, 5.099854
653.9675, 12.45801
654.4496, 29.65649
654.9317, 41.11133
655.4138, 34.62793
655.8959, 20.70459
656.3781, 9.770020
656.8602, 1.158691
657.3423, 2.275391
657.8245, 12.57007
658.3066, 34.53809
658.7887, 46.89844
659.2708, 45.76001
659.7529, 49.05469
660.2350, 64.45508
660.7172, 85.09277
661.1993, 91.68530
661.6814, 84.68555
662.1635, 70.82886
662.6456, 46.66602
663.1277, 21.40967
663.6099, 8.333740
664.0920, 7.600098
664.5741, 14.18213
665.0562, 27.47534
665.5383, 45.78589
666.0204, 70.59717
666.5026, 108.7363
666.9847, 131.4902
667.4668, 124.6599
667.9489, 106.8296
668.4310, 91.74585
668.9131, 79.25708
669.3953, 69.98584
669.8774, 64.10889
670.3595, 61.23706
670.8416, 61.60864
671.3237, 64.98975
671.8058, 68.08325
672.2880, 70.07959
672.7701, 70.82300
673.2522, 66.97363
673.7343, 60.90796
674.2164, 60.93481
674.6985, 79.76270
675.1807, 98.68579
675.6628, 107.9036
676.1449, 107.5249
676.6270, 99.44312
677.1091, 71.21680
677.5912, 46.73413
678.0734, 38.31519
678.5555, 50.25122
679.0376, 57.79248
679.5197, 59.80762
680.0018, 59.67041
680.4839, 61.45898
680.9661, 64.21362
681.4482, 60.19629
681.9303, 47.48901
682.4124, 33.77026
682.8945, 28.89600
683.3766, 29.95337
683.8588, 31.23730
684.3409, 31.37256
684.8230, 29.52856
685.3051, 21.59424
685.7872, 11.41724
686.2693, 6.351318
686.7515, 17.31738
687.2336, 27.75122
687.7157, 32.93994
688.1978, 33.20996
688.6799, 30.29077
689.1620, 22.46948
689.6442, 15.96216
690.1263, 12.29175
690.6084, 11.92603
691.0905, 23.26978
691.5726, 46.43066
692.0547, 62.41138
692.5369, 46.26025
693.0190, 17.75903
693.5011, 7.989014
693.9832, 23.19751
694.4653, 36.63574
694.9474, 29.24194
695.4296, 15.78052
695.9117, 9.788574
696.3938, 20.74292
696.8759, 27.65894
697.3580, 24.76929
697.8401, 21.03149
698.3223, 30.50977
698.8044, 58.80298
699.2865, 74.94727
699.7686, 71.46118
700.2507, 57.09717
700.7328, 46.45190
701.2150, 39.11597
701.6971, 33.94653
702.1792, 29.92041
702.6613, 27.92041
703.1434, 31.12402
703.6255, 37.23267
704.1077, 38.95190
704.5898, 29.66138
705.0719, 21.61230
705.5540, 19.02783
706.0361, 22.10376
706.5182, 26.68188
707.0004, 37.34375
707.4825, 42.70117
707.9646, 33.83179
708.4467, 9.860107
708.9288, 2.074219
709.4109, 0.7468260
709.8931, 5.872314
710.3752, 11.97095
710.8573, 17.46460
711.3394, 23.03442
711.8215, 29.41089
712.3036, 32.77197
712.7858, 24.91626
713.2679, 14.53198
713.7500, 12.04517
714.2321, 27.10352
714.7142, 39.82275
715.1964, 46.50073
715.6785, 49.14307
716.1606, 49.44873
716.6427, 46.75464
717.1248, 42.69019
717.6069, 36.75854
718.0891, 30.39185
718.5712, 27.55078
719.0533, 27.94214
719.5354, 29.01465
720.0175, 32.08789
720.4996, 33.46143
720.9818, 26.88940
721.4639, 14.39087
721.9460, 2.475098
722.4281, 9.543701
722.9102, 17.17114
723.3923, 16.83691
723.8745, 8.262695
724.3566, 2.067383
724.8387, 16.48950
725.3208, 28.83984
725.8029, 36.25122
726.2850, 38.42920
726.7672, 36.71875
727.2493, 29.94727
727.7314, 25.11914
728.2135, 31.60889
728.6956, 43.92651
729.1777, 47.78369
729.6599, 40.56274
730.1420, 33.89160
730.6241, 38.33276
731.1062, 46.70093
731.5883, 51.72119
732.0704, 50.77710
732.5526, 48.83496
733.0347, 48.48218
733.5168, 46.80005
733.9989, 39.32983
734.4810, 22.11353
734.9631, 13.91577
735.4453, 19.53442
735.9274, 31.25928
736.4095, 34.49414
736.8916, 30.95239
737.3737, 32.23389
737.8558, 47.38159
738.3380, 60.87183
738.8201, 49.95898
739.3022, 24.54688
739.7843, 7.570801
740.2664, 8.799072
740.7485, 19.30200
741.2307, 45.86743
741.7128, 81.54785
742.1949, 92.24561
742.6770, 65.17554
743.1591, 37.37646
743.6412, 18.74341
744.1234, 9.892822
744.6055, 18.13843
745.0876, 43.53857
745.5697, 68.44238
746.0518, 86.93359
746.5339, 95.93652
747.0161, 83.83398
747.4982, 52.51196
747.9803, 28.81860
748.4624, 33.72729
748.9445, 46.44189
749.4266, 54.40796
749.9088, 55.97217
750.3909, 53.96997
750.8730, 45.51440
751.3551, 37.73926
751.8372, 36.56348
752.3193, 42.99414
752.8015, 45.21338
753.2836, 42.28149
753.7657, 39.51343
754.2478, 46.64648
754.7299, 57.33618
755.2120, 56.06177
755.6942, 37.51294
756.1763, 18.56909
756.6584, 5.702148
757.1405, 0.4870610
757.6226, 4.704590
758.1047, 32.94458
758.5869, 49.27002
759.0690, 41.93359
759.5511, 28.98071
760.0332, 38.46362
760.5153, 76.08691
760.9974, 96.31665
761.4796, 88.88794
761.9617, 68.10254
762.4438, 54.33740
762.9259, 45.87427
763.4080, 38.66626
763.8901, 29.98438
764.3723, 24.29443
764.8544, 27.09863
765.3365, 34.90308
765.8186, 40.51831
766.3007, 45.81616
766.7828, 43.58105
767.2650, 24.22461
767.7471, 2.216309
768.2292, 2.460938
768.7113, 46.85400
769.1934, 73.59863
769.6755, 50.13428
770.1577, 3.267578
770.6398, 5.273926
771.1219, 46.95190
771.6040, 79.84351
772.0861, 65.77734
772.5682, 42.37573
773.0504, 40.29517
773.5325, 56.21216
774.0146, 64.25928
774.4967, 48.31934
774.9788, 33.67041
775.4609, 29.59570
775.9431, 35.45239
776.4252, 39.97192
776.9073, 44.00928
777.3894, 42.41064
777.8715, 27.47021
778.3536, 4.865967
778.8358, 9.302246
779.3179, 14.86719
779.8000, 11.87964
780.2821, 7.177490
780.7642, 29.14893
781.2463, 44.48071
781.7285, 52.52344
782.2106, 55.02808
782.6927, 45.99780
783.1748, 36.10205
783.6569, 29.94678
784.1390, 27.38574
784.6212, 31.42822
785.1033, 43.98901
785.5854, 54.55420
786.0675, 50.51123
786.5496, 37.61304
787.0317, 32.44092
787.5139, 36.65698
787.9960, 44.24023
788.4781, 58.10742
788.9602, 68.61060
789.4423, 64.67773
789.9244, 35.69214
790.4066, 18.08936
790.8887, 22.76953
791.3708, 33.39673
791.8529, 37.50293
792.3350, 34.32642
792.8171, 29.70068
793.2993, 22.87305
793.7814, 19.08521
794.2635, 28.35669
794.7456, 44.60938
795.2277, 54.12402
795.7098, 54.12329
796.1920, 48.54224
796.6741, 35.23584
797.1562, 19.98047
797.6383, 8.814453
798.1204, 3.834229
798.6025, 1.614746
799.0847, 3.271240
799.5668, 6.477783
800.0489, 8.387451
800.5310, 8.754150
801.0131, 7.742920
801.4952, 3.664795
801.9774, 3.686523
802.4595, 23.72339
802.9416, 52.78271
803.4237, 69.70508
803.9058, 62.99219
804.3879, 53.90259
804.8701, 53.08032
805.3522, 55.65039
805.8343, 54.46265
806.3164, 45.69873
806.7985, 40.82959
807.2806, 43.45166
807.7628, 47.58667
808.2449, 41.95874
808.7270, 27.45776
809.2091, 15.06323
809.6912, 6.969238
810.1733, 3.210938
810.6555, 4.692139
811.1376, 10.29248
811.6197, 18.26050
812.1018, 31.89209
812.5839, 42.60400
813.0660, 49.08545
813.5482, 50.53687
814.0303, 44.98120
814.5124, 29.28735
814.9945, 15.85767
815.4766, 6.064453
815.9587, 0.7548830
816.4409, 2.748535
816.9230, 11.03516
817.4051, 21.47363
817.8872, 37.08008
818.3693, 47.16284
818.8514, 36.56104
819.3336, 15.87695
819.8157, 2.826904
820.2978, 9.823242
820.7799, 15.23608
821.2621, 13.96338
821.7442, 9.990967
822.2263, 10.42090
822.7084, 15.37891
823.1906, 24.75708
823.6727, 39.82104
824.1548, 56.10327
824.6369, 70.97852
825.1190, 82.01733
825.6011, 82.83887
826.0833, 58.75977
826.5654, 40.71021
827.0475, 49.52979
827.5296, 72.95215
828.0117, 88.65259
828.4938, 94.06152
828.9760, 95.52124
829.4581, 93.14355
829.9402, 88.88525
830.4223, 88.35254
830.9044, 90.84888
831.3865, 87.30371
831.8687, 72.19507
832.3508, 53.96191
832.8329, 40.82861
833.3150, 33.40332
833.7971, 31.89966
834.2792, 45.64331
834.7614, 54.31152
835.2435, 47.85791
835.7256, 35.98438
836.2077, 33.55957
836.6898, 42.62305
837.1719, 53.23853
837.6541, 66.29199
838.1362, 75.60547
838.6183, 61.79688
839.1004, 34.62280
839.5825, 25.78857
840.0646, 56.89551
840.5468, 86.84375
841.0289, 87.59644
841.5110, 72.81299
841.9931, 64.63623
842.4752, 63.77319
842.9573, 69.60376
843.4395, 88.01416
843.9216, 108.1558
844.4037, 104.2756
844.8858, 77.49414
845.3679, 69.48975
845.8500, 94.45508
846.3322, 125.6680
846.8143, 132.4456
847.2964, 125.5686
847.7785, 121.7019
848.2606, 128.3337
848.7427, 131.2722
849.2249, 125.3157
849.7070, 115.8765
850.1891, 108.8684
850.6712, 105.6848
851.1533, 98.50146
851.6354, 84.16357
852.1176, 72.65918
852.5997, 80.47705
853.0818, 100.6587
853.5639, 115.3403
854.0460, 120.6631
854.5281, 121.2922
855.0103, 119.8992
855.4924, 114.9214
855.9745, 105.0437
856.4566, 86.05273
856.9387, 71.79224
857.4208, 58.95410
857.9030, 51.97754
858.3851, 64.21069
858.8672, 93.16235
859.3493, 105.7036
859.8314, 96.60352
860.3135, 86.65308
860.7957, 97.41431
861.2778, 115.1499
861.7599, 124.0222
862.2420, 118.6328
862.7241, 114.9253
863.2062, 122.1523
863.6884, 126.4080
864.1705, 116.4907
864.6526, 88.08887
865.1347, 76.16113
865.6168, 83.28784
866.0989, 94.21826
866.5811, 93.72949
867.0632, 87.10645
867.5453, 85.27100
868.0274, 89.49731
868.5095, 92.69287
868.9916, 87.98657
869.4738, 83.91260
869.9559, 87.85986
870.4380, 101.4639
870.9201, 110.0569
871.4022, 114.1116
871.8843, 112.4712
872.3665, 99.71313
872.8486, 80.48071
873.3307, 73.78638
873.8128, 78.87329
874.2949, 85.62427
874.7770, 87.82886
875.2592, 88.63379
875.7413, 91.12720
876.2234, 95.18774
876.7055, 94.34619
877.1876, 85.88867
877.6697, 75.63306
878.1519, 63.87817
878.6340, 52.57031
879.1161, 54.71729
879.5982, 69.16772
880.0803, 79.70972
880.5624, 70.56982
881.0446, 58.54370
881.5267, 65.27637
882.0088, 84.22046
882.4909, 92.91138
882.9730, 75.23950
883.4551, 57.25879
883.9373, 41.92334
884.4194, 31.57861
884.9015, 38.21143
885.3836, 63.71045
885.8657, 76.72461
886.3478, 62.17993
886.8300, 38.12183
887.3121, 29.73608
887.7942, 31.78809
888.2763, 32.83862
888.7584, 21.20068
889.2405, 16.52783
889.7227, 31.61084
890.2048, 53.96387
890.6869, 66.80786
891.1690, 69.27954
891.6511, 63.94824
892.1332, 49.23657
892.6154, 32.05811
893.0975, 21.92578
893.5796, 16.74463
894.0617, 11.79248
894.5438, 5.689209
895.0259, 0.8872070
895.5081, 1.171631
895.9902, 1.232666
896.4723, 0.2575680
896.9544, 0.4592290
897.4365, 8.151611
897.9186, 29.27466
898.4008, 43.54688
898.8829, 21.71240
899.3650, 22.58081
899.8471, 42.02271
900.3292, 31.65381
900.8113, 19.52417
901.2935, 29.00342
901.7756, 41.39282
902.2577, 41.57446
902.7398, 25.71460
903.2219, 13.37085
903.7040, 4.118408
904.1862, 0.1711430
904.6683, 5.327881
905.1504, 17.24951
905.6325, 15.41431
906.1146, 1.290039
906.5967, 9.963623
907.0789, 7.177002
907.5610, 0.6804200
908.0431, 7.738037
908.5252, 13.75146
909.0073, 19.53491
909.4894, 27.05518
909.9716, 31.25659
910.4537, 29.64575
910.9358, 24.13062
911.4179, 20.67456
911.9000, 19.01001
912.3821, 15.86694
912.8643, 5.651367
913.3464, 0.4311520
913.8285, 16.68652
914.3106, 43.57056
914.7927, 55.97583
915.2748, 32.67236
915.7570, 14.52539
916.2391, 3.599609
916.7212, 0.3999020
917.2033, 10.36963
917.6854, 32.61426
918.1675, 46.44727
918.6497, 47.18848
919.1318, 43.97900
919.6139, 47.02002
920.0960, 51.03271
920.5781, 49.00244
921.0602, 36.67334
921.5424, 27.15088
922.0245, 22.43799
922.5066, 21.03516
922.9887, 24.29102
923.4708, 32.21436
923.9529, 26.44336
924.4351, 6.614258
924.9172, 12.50635
925.3993, 19.08545
925.8814, 19.34717
926.3635, 18.74658
926.8456, 17.75879
927.3278, 18.04150
927.8099, 20.72412
928.2920, 24.31885
928.7741, 27.41260
929.2562, 30.87549
929.7383, 39.79834
930.2205, 54.17432
930.7026, 72.13818
931.1847, 98.01758
931.6668, 121.9336
932.1489, 131.2080
932.6310, 130.0068
933.1132, 127.7456
933.5953, 119.6035
934.0774, 121.7568
934.5595, 143.8394
935.0416, 171.0713
935.5237, 176.8550
936.0059, 161.4097
936.4880, 156.7817
936.9701, 170.1606
937.4522, 191.8950
937.9343, 220.1265
938.4164, 246.1392
938.8986, 258.6572
939.3807, 250.0044
939.8628, 244.8198
940.3449, 246.2295
940.8270, 251.9995
941.3091, 262.7554
941.7913, 278.6787
942.2734, 280.1851
942.7555, 267.1714
943.2376, 265.5342
943.7197, 306.7231
944.2018, 359.3379
944.6840, 392.4600
945.1661, 405.7817
945.6482, 413.3882
946.1303, 412.8184
946.6124, 413.0479
947.0945, 417.8667
947.5767, 426.2676
948.0588, 427.9556
948.5409, 423.8398
949.0230, 432.0410
949.5051, 468.7168
949.9872, 507.6123
950.4694, 516.8281
950.9515, 512.5439
951.4336, 522.5786
951.9157, 573.1162
952.3978, 609.2710
952.8799, 619.1973
953.3621, 625.4307
953.8442, 660.6069
954.3263, 720.0776
954.8084, 767.9014
955.2905, 799.0640
955.7726, 826.7471
956.2548, 857.6455
956.7369, 890.9819
957.2190, 924.9556
957.7011, 961.7051
958.1832, 997.0146
958.6653, 1029.636
959.1475, 1061.361
959.6296, 1089.257
960.1117, 1118.242
960.5938, 1174.547
961.0759, 1253.093
961.5580, 1324.482
962.0402, 1354.368
962.5223, 1386.509
963.0044, 1449.378
963.4865, 1537.545
963.9686, 1629.830
964.4507, 1722.233
964.9329, 1827.349
965.4150, 1954.619
965.8971, 2085.127
966.3792, 2170.648
966.8613, 2232.349
967.3434, 2332.855
967.8256, 2502.070
968.3077, 2670.201
968.7898, 2783.118
969.2719, 2892.179
969.7540, 3047.828
970.2361, 3268.583
970.7183, 3460.188
971.2004, 3615.687
971.6825, 3775.076
972.1646, 3982.881
972.6467, 4212.916
973.1288, 4408.237
973.6110, 4573.524
974.0931, 4749.182
974.5752, 4965.782
975.0573, 5183.976
975.5394, 5390.089
976.0215, 5581.639
976.5037, 5758.072
976.9858, 5917.679
977.4679, 6073.970
977.9500, 6236.295
978.4321, 6390.397
978.9142, 6510.163
979.3964, 6611.173
979.8785, 6721.214
980.3606, 6866.618
980.8427, 6988.672
981.3248, 7078.221
981.8069, 7144.045
982.2891, 7189.840
982.7712, 7215.336
983.2533, 7241.952
983.7354, 7270.667
984.2175, 7295.350
984.6996, 7318.134
985.1818, 7329.037
985.6639, 7309.560
986.1461, 7260.659
986.6282, 7233.159
987.1103, 7251.601
987.5924, 7253.457
988.0745, 7214.410
988.5566, 7148.258
989.0388, 7085.822
989.5209, 7029.437
990.0030, 6992.441
990.4851, 6998.916
990.9672, 6994.869
991.4493, 6926.403
991.9315, 6836.818
992.4136, 6789.263
992.8957, 6808.660
993.3778, 6805.544
993.8599, 6771.502
994.3420, 6734.012
994.8242, 6720.804
995.3063, 6724.859
995.7884, 6731.635
996.2705, 6740.190
996.7526, 6757.117
997.2347, 6782.403
997.7169, 6820.332
998.1990, 6871.907
998.6811, 6936.334
999.1632, 7020.783
999.6453, 7127.084
1000.127, 7226.987
1000.610, 7306.616
1001.092, 7381.003
1001.574, 7462.082
1002.056, 7552.419
1002.538, 7656.271
1003.020, 7809.187
1003.502, 7926.396
1003.984, 7998.195
1004.466, 8038.873
1004.949, 8057.575
1005.431, 8055.896
1005.913, 8046.931
1006.395, 8031.656
1006.877, 8001.208
1007.359, 7955.250
1007.841, 7886.697
1008.323, 7788.849
1008.806, 7659.756
1009.288, 7514.066
1009.770, 7353.062
1010.252, 7176.435
1010.734, 6982.665
1011.216, 6777.909
1011.698, 6575.762
1012.180, 6370.252
1012.662, 6141.818
1013.145, 5860.837
1013.627, 5596.734
1014.109, 5385.672
1014.591, 5196.547
1015.073, 5000.560
1015.555, 4793.240
1016.037, 4600.953
1016.519, 4424.705
1017.002, 4259.001
1017.484, 4091.380
1017.966, 3935.725
1018.448, 3808.754
1018.930, 3709.035
1019.412, 3610.503
1019.894, 3493.908
1020.376, 3401.986
1020.858, 3350.537
1021.341, 3324.748
1021.823, 3294.885
1022.305, 3262.014
1022.787, 3227.575
1023.269, 3187.494
1023.751, 3158.358
1024.233, 3154.375
1024.715, 3165.734
1025.198, 3183.329
1025.680, 3211.130
1026.162, 3229.626
1026.644, 3236.643
1027.126, 3246.467
1027.608, 3278.610
1028.090, 3313.150
1028.572, 3311.374
1029.054, 3279.873
1029.536, 3254.370
1030.019, 3264.099
1030.501, 3259.531
1030.983, 3224.424
1031.465, 3171.402
1031.947, 3130.386
1032.429, 3098.757
1032.911, 3043.238
1033.393, 2956.465
1033.876, 2854.896
1034.358, 2745.881
1034.840, 2634.028
1035.322, 2519.982
1035.804, 2404.235
1036.286, 2295.246
1036.768, 2194.908
1037.250, 2097.557
1037.733, 2002.371
1038.215, 1904.782
1038.697, 1782.218
1039.179, 1646.632
1039.661, 1528.498
1040.143, 1454.694
1040.625, 1384.555
1041.107, 1306.270
1041.589, 1227.333
1042.072, 1160.399
1042.554, 1105.038
1043.036, 1046.239
1043.518, 983.2241
1044.000, 920.2368
1044.482, 858.7646
1044.964, 802.9316
1045.446, 757.4619
1045.928, 723.9209
1046.411, 687.1357
1046.893, 645.7725
1047.375, 602.9771
1047.857, 559.0376
1048.339, 515.2056
1048.821, 474.4043
1049.303, 436.7246
1049.785, 401.9136
1050.268, 367.5601
1050.750, 340.8955
1051.232, 330.4961
1051.714, 325.0132
1052.196, 317.9858
1052.678, 309.6460
1053.160, 289.9937
1053.642, 259.1807
1054.125, 229.4141
1054.607, 208.9053
1055.089, 192.7749
1055.571, 179.3174
1056.053, 167.0020
1056.535, 149.2778
1057.017, 121.1328
1057.499, 99.47559
1057.981, 87.75049
1058.464, 83.01123
1058.946, 84.80664
1059.428, 89.50098
1059.910, 88.50098
1060.392, 79.13184
1060.874, 71.83887
1061.356, 74.98486
1061.838, 76.56299
1062.320, 70.18213
1062.803, 56.86816
1063.285, 44.27588
1063.767, 32.50195
1064.249, 23.55762
1064.731, 15.93311
1065.213, 14.56055
1065.695, 33.68457
1066.177, 57.69141
1066.660, 58.97754
1067.142, 21.22803
1067.624, 5.301758
1068.106, 17.56738
1068.588, 33.70703
1069.070, 25.78857
1069.552, 8.729492
1070.034, 12.79102
1070.516, 35.43604
1070.999, 43.98145
1071.481, 8.205566
1071.963, 19.29004
1072.445, 22.29102
1072.927, 11.95752
1073.409, 10.91553
1073.891, 17.98877
1074.373, 28.88086
1074.856, 44.68359
1075.338, 54.65869
1075.820, 41.96631
1076.302, 28.01123
1076.784, 33.42822
1077.266, 58.97559
1077.748, 69.31250
1078.230, 62.75586
1078.713, 55.71924
1079.195, 58.76270
1079.677, 63.59277
1080.159, 56.39795
1080.641, 43.48047
1081.123, 37.00000
1081.605, 59.21924
1082.087, 56.33936
1082.569, 14.28906
1083.052, 28.68848
1083.534, 28.72803
1084.016, 0.1752930
1084.498, 22.49414
1084.980, 35.80518
1085.462, 40.27637
1085.944, 24.70459
1086.426, 13.53564
1086.908, 19.44971
1087.391, 34.13721
1087.873, 39.13477
1088.355, 34.57275
1088.837, 22.02344
1089.319, 0.7656250
1089.801, 19.84180
1090.283, 24.17139
1090.765, 18.27344
1091.248, 1.475586
1091.730, 27.95459
1092.212, 41.62061
1092.694, 37.58203
1093.176, 22.95312
1093.658, 3.450195
1094.140, 32.11133
1094.622, 48.42773
1095.104, 54.25049
1095.587, 57.31592
1096.069, 57.54932
1096.551, 59.33154
1097.033, 63.22754
1097.515, 67.31006
1097.997, 71.24658
1098.479, 73.80518
1098.961, 66.49121
1099.443, 51.44385
1099.926, 44.55859
1100.408, 71.21045
1100.890, 87.54541
1101.372, 64.00977
1101.854, 25.70312
1102.336, 21.43701
1102.818, 49.99756
1103.300, 71.25928
1103.783, 79.04053
1104.265, 80.52637
1104.747, 80.16406
1105.229, 77.57764
1105.711, 71.13770
1106.193, 61.44971
1106.675, 56.10498
1107.157, 55.08105
1107.640, 60.99023
1108.122, 78.60889
1108.604, 95.24609
1109.086, 84.16357
1109.568, 62.75195
1110.050, 58.93359
1110.532, 86.70410
1111.014, 111.6079
1111.496, 131.3916
1111.979, 147.5532
1112.461, 162.3555
1112.943, 173.4780
1113.425, 169.6831
1113.907, 155.1143
1114.389, 144.4624
1114.871, 141.9512
1115.353, 148.2759
1115.835, 173.7627
1116.318, 198.3145
1116.800, 197.2554
1117.282, 173.1118
1117.764, 143.6553
1118.246, 110.9331
1118.728, 94.76074
1119.210, 126.7930
1119.692, 161.8218
1120.175, 167.4331
1120.657, 153.9814
1121.139, 154.0142
1121.621, 169.5454
1122.103, 175.3726
1122.585, 165.7529
1123.067, 150.8223
1123.549, 136.5273
1124.031, 124.5908
1124.514, 114.6841
1124.996, 106.3447
1125.478, 117.9795
1125.960, 158.1646
1126.442, 187.4565
1126.924, 187.8184
1127.406, 173.9922
1127.888, 168.6836
1128.370, 166.9019
1128.853, 158.9761
1129.335, 135.6680
1129.817, 123.8135
1130.299, 129.5703
1130.781, 140.6621
1131.263, 152.6113
1131.745, 161.4863
1132.227, 150.0820
1132.710, 123.9189
1133.192, 104.4341
1133.674, 105.2373
1134.156, 112.5903
1134.638, 129.4819
1135.120, 142.2085
1135.602, 132.6543
1136.084, 105.9263
1136.567, 98.08105
1137.049, 109.0981
1137.531, 114.8408
1138.013, 90.35254
1138.495, 67.84424
1138.977, 69.36719
1139.459, 81.60352
1139.941, 81.81250
1140.423, 71.77100
1140.906, 68.30225
1141.388, 73.67676
1141.870, 79.29053
1142.352, 76.23096
1142.834, 70.69727
1143.316, 67.82666
1143.798, 69.04346
1144.280, 72.71191
1144.762, 78.52197
1145.245, 82.43408
1145.727, 85.58496
1146.209, 83.31445
1146.691, 64.09766
1147.173, 39.72559
1147.655, 22.57471
1148.137, 13.40771
1148.619, 18.92627
1149.102, 46.45801
1149.584, 60.47119
1150.066, 37.93066
1150.548, 0.6938480
1151.030, 21.39551
1151.512, 27.98584
1151.994, 19.35352
1152.476, 19.05127
1152.958, 41.26562
1153.441, 37.23242
1153.923, 32.29395
1154.405, 51.63770
1154.887, 83.02197
1155.369, 89.67383
1155.851, 76.21924
1156.333, 60.98535
1156.815, 44.22656
1157.297, 37.38818
1157.780, 46.51758
1158.262, 59.60400
1158.744, 61.48877
1159.226, 54.73682
1159.708, 49.97314
1160.190, 48.31543
1160.672, 47.47021
1161.154, 44.34082
1161.637, 41.59131
1162.119, 41.54736
1162.601, 41.67480
1163.083, 36.38721
1163.565, 26.49023
1164.047, 16.97119
1164.529, 8.357422
1165.011, 6.380859
1165.494, 19.65576
1165.976, 36.80713
1166.458, 53.78955
1166.940, 68.36377
1167.422, 70.50146
1167.904, 60.54395
1168.386, 49.36035
1168.868, 37.49854
1169.350, 31.28955
1169.833, 41.94971
1170.315, 56.04834
1170.797, 61.61377
1171.279, 58.69434
1171.761, 52.45215
1172.243, 42.56689
1172.725, 38.09375
1173.207, 43.22461
1173.689, 53.61865
1174.172, 74.90186
1174.654, 93.81055
1175.136, 89.89844
1175.618, 57.67139
1176.100, 36.16992
1176.582, 25.15625
1177.064, 25.41357
1177.546, 44.15527
1178.029, 66.70703
1178.511, 82.28125
1178.993, 88.61865
1179.475, 79.61328
1179.957, 41.87842
1180.439, 26.20068
1180.921, 35.93066
1181.403, 51.25146
1181.885, 58.42285
1182.368, 61.37305
1182.850, 66.98926
1183.332, 72.47070
1183.814, 68.41260
1184.296, 45.80566
1184.778, 30.55029
1185.260, 23.72949
1185.742, 27.06982
1186.224, 53.78955
1186.707, 84.86084
1187.189, 88.39551
1187.671, 68.87207
1188.153, 57.38086
1188.635, 65.09766
1189.117, 69.35645
1189.599, 65.45312
1190.081, 61.40576
1190.564, 75.17920
1191.046, 91.63037
1191.528, 77.45166
1192.010, 32.87549
1192.492, 16.27832
1192.974, 61.65381
1193.456, 90.33887
1193.938, 80.72754
1194.421, 54.34326
1194.903, 41.74854
1195.385, 37.60059
1195.867, 30.36865
1196.349, 17.30176
1196.831, 16.18506
1197.313, 42.63623
1197.795, 58.97656
1198.277, 49.76660
1198.760, 28.97656
1199.242, 21.58350
1199.724, 23.68604
1200.206, 27.33594
1200.688, 30.75928
1201.170, 35.79492
1201.652, 44.08447
1202.134, 51.63037
1202.616, 56.88574
1203.099, 60.06738
1203.581, 62.16797
1204.063, 62.62744
1204.545, 59.92578
1205.027, 52.53516
1205.509, 44.30664
1205.991, 35.60156
1206.473, 27.64355
1206.956, 19.70068
1207.438, 13.87109
1207.920, 17.60059
1208.402, 27.87939
1208.884, 40.03467
1209.366, 64.69971
1209.848, 68.26758
1210.330, 36.97949
1210.813, 3.946777
1211.295, 6.383789
1211.777, 9.2285000E-02
1212.259, 7.399414
1212.741, 15.52881
1213.223, 24.50830
1213.705, 37.69336
1214.187, 46.35303
1214.669, 46.04492
1215.151, 47.05273
1215.634, 64.82715
1216.116, 89.47217
1216.598, 87.92188
1217.080, 65.94336
1217.562, 48.80859
1218.044, 45.54980
1218.526, 50.37402
1219.008, 64.67236
1219.491, 81.52930
1219.973, 97.95410
1220.455, 110.2520
1220.937, 104.6548
1221.419, 84.94092
1221.901, 71.21631
1222.383, 79.93994
1222.865, 82.65723
1223.348, 74.58643
1223.830, 61.75781
1224.312, 48.20166
1224.794, 36.35010
1225.276, 35.71289
1225.758, 44.46094
1226.240, 45.44385
1226.722, 23.38379
1227.204, 6.034668
1227.687, 3.046875
1228.169, 4.113281
1228.651, 5.955078
1229.133, 22.34424
1229.615, 38.82471
1230.097, 53.66748
1230.579, 56.09473
1231.061, 31.31885
1231.543, 15.69824
1232.026, 17.97021
1232.508, 27.16113
1232.990, 26.07373
1233.472, 21.63721
1233.954, 31.46191
1234.436, 56.18018
1234.918, 60.77979
1235.401, 24.43311
1235.883, 1.464844
1236.365, 7.030273
1236.847, 24.86816
1237.329, 35.29248
1237.811, 40.42139
1238.293, 43.40723
1238.775, 44.62061
1239.257, 40.46875
1239.740, 27.78271
1240.222, 17.28516
1240.704, 11.49268
1241.186, 12.33740
1241.668, 30.09619
1242.150, 51.51709
1242.632, 56.53955
1243.114, 41.54297
1243.596, 31.14111
1244.079, 27.09912
1244.561, 25.16650
1245.043, 23.37402
1245.525, 23.21826
1246.007, 28.69189
1246.489, 36.29443
1246.971, 39.37451
1247.453, 36.54004
1247.936, 39.22754
1248.418, 48.77783
1248.900, 55.78320
1249.382, 57.66455
1249.864, 53.43164
1250.346, 31.56348
1250.828, 9.312988
1251.310, 8.017578
1251.792, 29.33984
1252.275, 57.39648
1252.757, 93.80371
1253.239, 105.5000
1253.721, 73.13770
1254.203, 36.16846
1254.685, 32.93115
1255.167, 42.08594
1255.649, 43.23779
1256.131, 36.33203
1256.614, 26.18604
1257.096, 13.20557
1257.578, 10.57324
1258.060, 28.16699
1258.542, 45.12744
1259.024, 46.77686
1259.506, 40.01416
1259.988, 28.61328
1260.471, 13.93506
1260.953, 14.31055
1261.435, 26.93994
1261.917, 33.42432
1262.399, 22.60303
1262.881, 14.61816
1263.363, 23.34082
1263.845, 36.14160
1264.328, 45.14062
1264.810, 50.76221
1265.292, 54.28174
1265.774, 55.90186
1266.256, 59.17432
1266.738, 66.23828
1267.220, 71.03271
1267.702, 68.44629
1268.184, 66.56738
1268.667, 71.76123
1269.149, 80.86914
1269.631, 84.69775
1270.113, 83.76172
1270.595, 79.40527
1271.077, 70.88623
1271.559, 61.64062
1272.041, 51.60449
1272.523, 42.44043
1273.006, 35.32617
1273.488, 29.43018
1273.970, 20.27393
1274.452, 11.26221
1274.934, 11.13770
1275.416, 31.91309
1275.898, 35.66406
1276.380, 15.94727
1276.863, 3.484863
1277.345, 11.96826
1277.827, 10.08398
1278.309, 9.691895
1278.791, 36.48340
1279.273, 50.48682
1279.755, 43.24854
1280.237, 49.26465
1280.719, 71.74365
1281.202, 83.10986
1281.684, 58.04834
1282.166, 30.12207
1282.648, 34.58447
1283.130, 55.64844
1283.612, 73.26953
1284.094, 86.91211
1284.576, 92.17822
1285.058, 88.71143
1285.541, 83.69727
1286.023, 76.14893
1286.505, 62.83643
1286.987, 60.23535
1287.469, 59.69434
1287.951, 58.91797
1288.433, 57.95020
1288.915, 60.47314
1289.398, 65.33984
1289.880, 65.59131
1290.362, 56.81982
1290.844, 45.88330
1291.326, 32.51514
1291.808, 20.24609
1292.290, 7.409668
1292.772, 0.7861330
1293.255, 26.20215
1293.737, 65.16553
1294.219, 54.24414
1294.701, 0.0000000E+00
##END=



