##NAMES=Phosphosiderite
##RRUFFID=R110090
##IDEAL CHEMISTRY=Fe^3+^PO_4_&#183;2H_2_O
##LOCALITY=Courtland-Gleesan area, Cochise County, Arizona, USA
##OWNER=RRUFF
##SOURCE=Dave Owen
##DESCRIPTION=Pale pink massive
##STATUS=The identification of this mineral is not yet confirmed.
##URL=rruff.info/R110090
168.5951, 0.0000000E+00
169.0772, 7.7964999E-02
169.5593, 0.1329380
170.0414, 0.1157420
170.5236, 0.6074600
171.0057, 1.160923
171.4878, 1.559807
171.9699, 2.044960
172.4520, 2.784866
172.9341, 3.766171
173.4163, 4.937092
173.8984, 6.194412
174.3805, 7.621124
174.8626, 9.309082
175.3447, 11.66689
175.8268, 14.13137
176.3090, 15.98338
176.7911, 17.20432
177.2732, 18.39380
177.7553, 19.82986
178.2374, 21.28437
178.7195, 22.57475
179.2017, 23.44920
179.6838, 24.20089
180.1659, 25.32896
180.6480, 26.86982
181.1301, 28.42023
181.6122, 29.58367
182.0944, 30.45442
182.5765, 31.29995
183.0586, 32.40517
183.5407, 33.58522
184.0228, 34.35581
184.5049, 34.64740
184.9871, 34.82128
185.4692, 35.40912
185.9513, 36.28222
186.4334, 36.85809
186.9155, 36.45670
187.3976, 35.50350
187.8798, 35.54924
188.3619, 36.78786
188.8440, 38.45131
189.3261, 39.50346
189.8082, 39.98742
190.2903, 40.31023
190.7725, 40.51162
191.2546, 40.66904
191.7367, 41.29020
192.2188, 42.48891
192.7009, 43.91358
193.1830, 44.91956
193.6652, 45.50191
194.1473, 46.13845
194.6294, 47.02343
195.1115, 48.13892
195.5936, 49.70977
196.0757, 51.72026
196.5579, 53.93591
197.0400, 56.12743
197.5221, 58.60908
198.0042, 61.27230
198.4863, 64.07274
198.9684, 67.02054
199.4506, 69.93552
199.9327, 73.02408
200.4148, 76.14118
200.8969, 78.89117
201.3790, 81.42346
201.8611, 83.21725
202.3433, 84.02987
202.8254, 83.89712
203.3075, 82.73492
203.7896, 80.66035
204.2717, 77.70942
204.7538, 73.72099
205.2360, 68.45940
205.7181, 63.02812
206.2002, 58.09731
206.6823, 53.74799
207.1644, 49.31221
207.6465, 44.60673
208.1287, 39.85725
208.6108, 35.60230
209.0929, 31.87466
209.5750, 28.52686
210.0571, 25.52355
210.5392, 22.86629
211.0214, 20.48090
211.5035, 18.42382
211.9856, 16.61991
212.4677, 14.67938
212.9498, 12.42647
213.4319, 10.42113
213.9141, 9.072849
214.3962, 8.606274
214.8783, 7.973156
215.3604, 7.013039
215.8425, 5.832306
216.3246, 4.883877
216.8067, 4.184776
217.2889, 3.667088
217.7710, 3.324181
218.2531, 3.247246
218.7352, 3.060070
219.2173, 2.674088
219.6994, 2.149952
220.1816, 1.806358
220.6637, 1.737679
221.1458, 1.678307
221.6279, 1.428169
222.1100, 0.8435670
222.5921, 0.4577220
223.0743, 0.3906630
223.5564, 0.5579720
224.0385, 0.5891950
224.5206, 0.5215260
225.0027, 0.2589950
225.4848, 0.3254280
225.9670, 1.482742
226.4491, 2.296150
226.9312, 2.661530
227.4133, 2.656879
227.8954, 2.704098
228.3775, 2.873238
228.8597, 3.002758
229.3418, 2.966946
229.8239, 2.628853
230.3060, 2.456532
230.7881, 2.559254
231.2702, 2.865292
231.7524, 3.023617
232.2345, 2.963673
232.7166, 2.859474
233.1987, 2.837154
233.6808, 3.030960
234.1629, 3.009827
234.6451, 2.697479
235.1272, 2.146942
235.6093, 1.574997
236.0914, 0.9676630
236.5735, 0.3584180
237.0556, 0.2182500
237.5378, 0.6814080
238.0199, 1.302509
238.5020, 2.183788
238.9841, 3.241337
239.4662, 4.058605
239.9483, 4.388187
240.4305, 4.820084
240.9126, 5.732376
241.3947, 7.509838
241.8768, 8.894573
242.3589, 9.600708
242.8410, 9.885967
243.3232, 10.72554
243.8053, 12.44039
244.2874, 14.26508
244.7695, 15.77714
245.2516, 16.77749
245.7337, 17.93596
246.2159, 19.32381
246.6980, 20.88079
247.1801, 22.36318
247.6622, 23.65931
248.1443, 25.06983
248.6264, 26.73061
249.1086, 28.73734
249.5907, 30.77855
250.0728, 32.80029
250.5549, 34.86726
251.0370, 37.18214
251.5191, 39.91932
252.0013, 42.63703
252.4834, 45.11323
252.9655, 47.05325
253.4476, 49.49372
253.9297, 52.69132
254.4118, 56.27041
254.8940, 59.51558
255.3761, 62.52189
255.8582, 65.03473
256.3403, 66.95620
256.8224, 68.31926
257.3046, 68.92856
257.7867, 68.56556
258.2688, 67.58051
258.7509, 66.67992
259.2330, 66.06474
259.7151, 65.14008
260.1973, 63.68068
260.6794, 61.69300
261.1615, 59.20809
261.6436, 56.04046
262.1257, 52.56764
262.6078, 49.38607
263.0900, 46.49041
263.5721, 43.96981
264.0542, 41.95148
264.5363, 40.49316
265.0184, 38.96915
265.5005, 37.18726
265.9827, 35.53629
266.4648, 34.61674
266.9469, 34.64332
267.4290, 34.79442
267.9111, 34.79723
268.3932, 34.62737
268.8754, 34.67352
269.3575, 34.89763
269.8396, 35.38911
270.3217, 36.34412
270.8038, 37.89603
271.2859, 39.36195
271.7681, 40.48087
272.2502, 41.26481
272.7323, 42.29771
273.2144, 43.58088
273.6965, 45.06879
274.1786, 46.78228
274.6608, 48.81195
275.1429, 50.66660
275.6250, 52.21214
276.1071, 53.47165
276.5892, 54.64386
277.0714, 55.67391
277.5535, 56.71041
278.0356, 57.87854
278.5177, 59.18401
278.9998, 60.58943
279.4819, 62.02798
279.9641, 63.55965
280.4462, 65.46235
280.9283, 67.79736
281.4104, 70.34223
281.8925, 73.04179
282.3746, 75.89805
282.8568, 78.43265
283.3389, 80.38787
283.8210, 82.04340
284.3031, 84.45474
284.7852, 87.76395
285.2673, 91.03504
285.7495, 93.58013
286.2316, 95.44314
286.7137, 97.30972
287.1958, 99.38588
287.6779, 101.3825
288.1600, 102.7756
288.6422, 103.5521
289.1243, 103.5176
289.6064, 102.4440
290.0885, 100.4389
290.5706, 97.99241
291.0527, 95.15614
291.5349, 91.83048
292.0170, 87.58760
292.4991, 82.56459
292.9812, 77.73305
293.4633, 73.80148
293.9454, 70.51774
294.4276, 66.99423
294.9097, 63.09975
295.3918, 59.45897
295.8739, 56.93669
296.3560, 55.41645
296.8381, 54.28417
297.3203, 53.35617
297.8024, 52.61473
298.2845, 51.91373
298.7666, 51.21637
299.2487, 50.91122
299.7308, 51.61246
300.2130, 53.07053
300.6951, 54.52273
301.1772, 55.47550
301.6593, 56.33176
302.1414, 57.76225
302.6235, 59.74200
303.1057, 61.83853
303.5878, 63.55203
304.0699, 65.12704
304.5520, 67.01230
305.0341, 69.64642
305.5162, 72.35388
305.9984, 74.26619
306.4805, 75.50734
306.9626, 76.98042
307.4447, 79.86224
307.9268, 83.15051
308.4089, 85.45355
308.8911, 86.08127
309.3732, 86.15354
309.8553, 86.51259
310.3374, 87.05290
310.8195, 87.42413
311.3016, 87.55993
311.7838, 87.36389
312.2659, 86.74061
312.7480, 85.64250
313.2301, 84.17751
313.7122, 82.08790
314.1943, 79.65982
314.6765, 77.54091
315.1586, 76.32893
315.6407, 75.30515
316.1228, 74.00715
316.6049, 72.34365
317.0870, 70.57542
317.5692, 68.79710
318.0513, 67.00191
318.5334, 65.19030
319.0155, 63.29004
319.4976, 61.43463
319.9797, 59.65718
320.4619, 57.94957
320.9440, 56.44630
321.4261, 55.30499
321.9082, 54.34662
322.3903, 53.40701
322.8724, 52.32664
323.3546, 51.38392
323.8367, 50.64053
324.3188, 50.09690
324.8009, 49.72552
325.2830, 49.56467
325.7651, 49.55338
326.2473, 49.65422
326.7294, 50.08400
327.2115, 50.37683
327.6936, 50.33040
328.1757, 50.05688
328.6578, 50.11194
329.1400, 51.17902
329.6221, 52.01453
330.1042, 52.06047
330.5863, 50.58654
331.0684, 49.53226
331.5505, 49.09650
332.0327, 49.04546
332.5148, 48.89347
332.9969, 48.76421
333.4790, 48.35404
333.9611, 47.52964
334.4432, 46.21323
334.9254, 44.74267
335.4075, 43.02395
335.8896, 41.24099
336.3717, 39.70653
336.8538, 38.63711
337.3359, 37.31097
337.8180, 35.45653
338.3001, 33.09478
338.7823, 30.90945
339.2644, 28.86281
339.7465, 27.11483
340.2286, 25.90453
340.7107, 25.32893
341.1928, 24.79840
341.6750, 24.26913
342.1571, 23.69350
342.6392, 22.80548
343.1213, 21.51126
343.6034, 20.36700
344.0855, 19.90308
344.5677, 20.08805
345.0498, 20.01227
345.5319, 19.52671
346.0140, 18.80334
346.4961, 18.15328
346.9782, 17.57598
347.4604, 16.98278
347.9425, 16.36057
348.4246, 15.68816
348.9067, 14.90752
349.3888, 14.01166
349.8709, 13.02677
350.3531, 11.89528
350.8352, 10.67538
351.3173, 9.589127
351.7994, 8.815742
352.2815, 8.196846
352.7636, 7.525772
353.2458, 6.800842
353.7279, 5.888023
354.2100, 4.402435
354.6921, 2.694000
355.1742, 1.398727
355.6563, 0.9795910
356.1385, 0.8363110
356.6206, 0.3148800
357.1027, 0.5224690
357.5848, 1.246384
358.0669, 1.586914
358.5490, 1.753960
359.0312, 1.923088
359.5133, 2.129967
359.9954, 2.278046
360.4775, 2.307533
360.9596, 2.246300
361.4417, 2.142799
361.9239, 2.133186
362.4060, 1.987885
362.8881, 1.513351
363.3702, 0.6206360
363.8523, 0.1326750
364.3344, 0.4674070
364.8166, 0.6107410
365.2987, 0.8118130
365.7808, 1.004738
366.2629, 1.374260
366.7450, 2.073608
367.2271, 3.104607
367.7093, 3.957481
368.1914, 4.273170
368.6735, 4.594650
369.1556, 5.283691
369.6377, 6.874359
370.1198, 8.156883
370.6020, 8.929504
371.0841, 9.338142
371.5662, 9.907997
372.0483, 10.63733
372.5304, 11.52006
373.0125, 12.58162
373.4947, 13.89978
373.9768, 15.17288
374.4589, 16.49516
374.9410, 17.71053
375.4231, 18.43506
375.9052, 18.35731
376.3874, 18.69659
376.8695, 19.97473
377.3516, 22.17670
377.8337, 23.84444
378.3158, 24.88610
378.7979, 25.72040
379.2801, 26.73682
379.7622, 27.95296
380.2443, 29.14880
380.7264, 30.25362
381.2085, 31.35021
381.6906, 32.74568
382.1728, 34.44090
382.6549, 36.08241
383.1370, 37.37981
383.6191, 38.40681
384.1012, 39.38962
384.5833, 40.34299
385.0655, 41.31065
385.5476, 42.40070
386.0297, 43.57201
386.5118, 44.62391
386.9939, 45.45494
387.4760, 46.12185
387.9582, 46.68851
388.4403, 47.16132
388.9224, 47.59116
389.4045, 48.05206
389.8866, 48.48708
390.3687, 48.80664
390.8509, 48.83561
391.3330, 48.89742
391.8151, 49.28873
392.2972, 49.93316
392.7793, 50.52059
393.2614, 50.98523
393.7436, 51.27856
394.2257, 51.31758
394.7078, 50.92520
395.1899, 50.67689
395.6720, 51.01196
396.1541, 51.57749
396.6363, 51.80670
397.1184, 51.28785
397.6005, 50.66467
398.0826, 50.27503
398.5647, 50.22473
399.0468, 49.61638
399.5290, 47.93074
400.0111, 45.89484
400.4932, 44.10783
400.9753, 43.30293
401.4574, 41.73991
401.9395, 38.93681
402.4217, 35.19463
402.9038, 31.97290
403.3859, 29.38464
403.8680, 27.15154
404.3501, 25.20101
404.8322, 23.68534
405.3144, 21.95928
405.7965, 19.95885
406.2786, 17.84986
406.7607, 15.89796
407.2428, 14.11212
407.7249, 12.42695
408.2071, 10.85090
408.6892, 9.368801
409.1713, 7.936012
409.6534, 6.547020
410.1355, 5.201839
410.6176, 3.758244
411.0998, 2.291142
411.5819, 1.368786
412.0640, 1.287556
412.5461, 1.481518
413.0282, 0.9270360
413.5103, 0.2552910
413.9925, 1.362064
414.4746, 2.066734
414.9567, 2.426403
415.4388, 2.426636
415.9209, 2.024754
416.4030, 1.607639
416.8852, 1.503750
417.3673, 1.603210
417.8494, 1.720318
418.3315, 1.772652
418.8136, 1.818420
419.2957, 1.938606
419.7779, 2.111633
420.2600, 2.179764
420.7421, 1.994057
421.2242, 1.691906
421.7063, 1.402519
422.1884, 1.205883
422.6706, 0.9406890
423.1527, 0.6322980
423.6348, 0.2199670
424.1169, 0.4075810
424.5990, 1.291302
425.0811, 2.375404
425.5633, 3.817455
426.0454, 5.754341
426.5275, 7.042942
427.0096, 7.154125
427.4917, 7.044952
427.9738, 7.519936
428.4560, 8.866295
428.9381, 10.19048
429.4202, 11.38565
429.9023, 12.47676
430.3844, 13.61568
430.8665, 14.81492
431.3487, 16.00844
431.8308, 17.03335
432.3129, 17.84744
432.7950, 19.37424
433.2771, 21.81305
433.7592, 24.44711
434.2414, 26.25196
434.7235, 27.30894
435.2056, 28.60641
435.6877, 30.54778
436.1698, 32.85448
436.6519, 34.95542
437.1341, 36.86512
437.6162, 38.81534
438.0983, 40.97414
438.5804, 43.31070
439.0625, 45.82036
439.5446, 48.56554
440.0268, 51.26937
440.5089, 53.66172
440.9910, 55.84033
441.4731, 57.96735
441.9552, 60.18810
442.4373, 62.34629
442.9195, 64.22242
443.4016, 65.82937
443.8837, 67.75652
444.3658, 70.66344
444.8479, 73.76296
445.3300, 76.40052
445.8122, 78.10008
446.2943, 79.81578
446.7764, 81.78138
447.2585, 83.88854
447.7406, 85.86129
448.2227, 87.77976
448.7049, 89.46346
449.1870, 90.86115
449.6691, 91.93800
450.1512, 92.88341
450.6333, 93.71697
451.1154, 94.39163
451.5976, 94.88060
452.0797, 95.21941
452.5618, 95.24268
453.0439, 94.87499
453.5260, 94.20591
454.0081, 93.52374
454.4903, 92.86397
454.9724, 91.93880
455.4545, 90.37405
455.9366, 88.30949
456.4187, 86.71657
456.9008, 85.70473
457.3830, 84.78862
457.8651, 83.46830
458.3472, 81.79810
458.8293, 80.00228
459.3114, 78.00558
459.7935, 76.04630
460.2757, 74.37549
460.7578, 72.98161
461.2399, 71.77013
461.7220, 70.80986
462.2041, 69.95483
462.6862, 69.02887
463.1684, 67.94492
463.6505, 67.03188
464.1326, 66.58620
464.6147, 66.37138
465.0968, 66.07658
465.5789, 65.61066
466.0611, 65.10947
466.5432, 64.38775
467.0253, 63.51978
467.5074, 63.28711
467.9895, 64.62177
468.4716, 65.94292
468.9538, 66.43188
469.4359, 65.41341
469.9180, 65.02985
470.4001, 65.46488
470.8822, 66.38599
471.3643, 67.30213
471.8465, 68.17999
472.3286, 69.15845
472.8107, 70.35922
473.2928, 71.72134
473.7749, 72.85398
474.2570, 73.70220
474.7392, 74.56172
475.2213, 75.58131
475.7034, 76.77715
476.1855, 78.36412
476.6676, 80.46626
477.1497, 82.61948
477.6319, 84.12639
478.1140, 85.14439
478.5961, 86.15047
479.0782, 87.33483
479.5603, 88.62833
480.0424, 89.96608
480.5246, 91.35463
481.0067, 92.76566
481.4888, 94.16919
481.9709, 95.61124
482.4530, 97.13239
482.9352, 98.78329
483.4173, 100.3302
483.8994, 101.8534
484.3815, 103.1829
484.8636, 104.0464
485.3457, 103.9495
485.8279, 103.8248
486.3100, 104.0684
486.7921, 104.6781
487.2742, 104.7002
487.7563, 103.7819
488.2384, 102.6374
488.7206, 101.7647
489.2027, 101.6391
489.6848, 100.4487
490.1669, 97.80415
490.6490, 94.48857
491.1311, 91.67180
491.6133, 89.43804
492.0954, 87.31080
492.5775, 85.22353
493.0596, 83.10905
493.5417, 80.60673
494.0238, 77.71964
494.5060, 74.82070
494.9881, 72.24308
495.4702, 69.87757
495.9523, 67.42098
496.4344, 64.87630
496.9165, 62.10449
497.3987, 58.74391
497.8808, 55.06572
498.3629, 51.64995
498.8450, 48.79618
499.3271, 46.22566
499.8092, 43.89189
500.2914, 41.72973
500.7735, 39.59129
501.2556, 37.29373
501.7377, 35.04152
502.2198, 32.95620
502.7019, 31.05000
503.1841, 29.25912
503.6662, 27.75062
504.1483, 26.27510
504.6304, 24.55098
505.1125, 22.39133
505.5946, 20.32024
506.0768, 18.37343
506.5589, 16.56536
507.0410, 14.91603
507.5231, 13.40858
508.0052, 12.10920
508.4873, 11.07224
508.9695, 10.31350
509.4516, 9.614147
509.9337, 8.983032
510.4158, 8.366177
510.8979, 7.686535
511.3800, 6.957897
511.8622, 6.283005
512.3443, 5.715836
512.8264, 5.172703
513.3085, 4.498386
513.7906, 3.733398
514.2728, 3.022556
514.7549, 2.479412
515.2370, 2.005459
515.7191, 1.485050
516.2012, 0.8998150
516.6833, 0.4448170
517.1655, 0.3285830
517.6476, 0.3138850
518.1297, 0.1978190
518.6118, 0.1286050
519.0939, 0.4747510
519.5760, 0.8906590
520.0582, 1.300179
520.5403, 1.544907
521.0224, 1.599930
521.5045, 1.514618
521.9866, 1.240868
522.4688, 0.7789120
522.9509, 0.5203440
523.4330, 0.5298390
523.9151, 0.5904080
524.3972, 0.5295940
524.8793, 0.3444980
525.3615, 0.1753080
525.8436, 2.5200000E-02
526.3257, 8.0132000E-02
526.8078, 1.3954000E-02
527.2899, 0.1641880
527.7720, 0.1558910
528.2542, 0.2924230
528.7363, 0.8839680
529.2184, 1.135658
529.7005, 1.126186
530.1826, 1.290813
530.6647, 2.185024
531.1469, 3.194244
531.6290, 3.728127
532.1111, 3.586727
532.5932, 3.541889
533.0753, 3.946747
533.5574, 4.580399
534.0396, 5.208981
534.5217, 5.718475
535.0038, 6.316742
535.4859, 7.142868
535.9680, 8.088081
536.4501, 8.814232
536.9323, 9.281155
537.4144, 9.589729
537.8965, 9.675713
538.3786, 9.552826
538.8607, 9.949989
539.3428, 10.98336
539.8250, 12.08572
540.3071, 12.59708
540.7892, 12.60182
541.2713, 13.00087
541.7534, 14.02712
542.2355, 15.22230
542.7177, 15.88144
543.1998, 16.16271
543.6819, 16.53613
544.1640, 17.51089
544.6461, 18.50748
545.1282, 18.84428
545.6104, 18.61091
546.0925, 18.43579
546.5746, 18.69483
547.0567, 19.09589
547.5388, 19.43465
548.0209, 19.65306
548.5031, 19.90223
548.9852, 20.36419
549.4673, 20.81058
549.9494, 20.98856
550.4315, 20.56794
550.9136, 20.42720
551.3958, 20.82258
551.8779, 21.50629
552.3600, 21.68320
552.8421, 21.25227
553.3242, 20.70256
553.8063, 20.19417
554.2885, 19.72206
554.7706, 19.31499
555.2527, 18.99262
555.7348, 18.64458
556.2169, 18.21980
556.6990, 17.70478
557.1812, 16.93761
557.6633, 15.79911
558.1454, 14.79206
558.6275, 14.58336
559.1096, 14.82261
559.5917, 14.87748
560.0739, 14.18991
560.5560, 13.54805
561.0381, 13.47950
561.5202, 13.83702
562.0023, 13.95371
562.4844, 13.37587
562.9666, 12.76477
563.4487, 12.41529
563.9308, 12.36841
564.4129, 12.41915
564.8950, 12.77436
565.3771, 13.00070
565.8593, 12.62631
566.3414, 11.40982
566.8235, 10.66195
567.3056, 10.58466
567.7877, 10.88041
568.2698, 11.11226
568.7520, 11.28866
569.2341, 11.24158
569.7162, 10.80323
570.1983, 10.18992
570.6804, 9.800735
571.1625, 9.614464
571.6447, 9.447166
572.1268, 9.141281
572.6089, 8.783356
573.0910, 8.529041
573.5731, 8.431885
574.0552, 8.250084
574.5374, 7.718151
575.0195, 7.123127
575.5016, 6.725056
575.9837, 6.791023
576.4658, 6.810623
576.9479, 6.743748
577.4301, 6.574955
577.9122, 6.280796
578.3943, 5.813183
578.8764, 5.348972
579.3585, 4.943741
579.8406, 4.600033
580.3228, 4.311825
580.8049, 4.077087
581.2870, 3.710098
581.7691, 2.884968
582.2512, 1.816193
582.7333, 1.392868
583.2155, 1.708481
583.6976, 2.205372
584.1797, 2.503504
584.6617, 2.595743
585.1439, 2.430138
585.6260, 1.808802
586.1081, 1.271933
586.5902, 1.288372
587.0723, 1.603561
587.5544, 1.728357
588.0366, 1.293442
588.5187, 0.8786890
589.0008, 0.6644860
589.4829, 0.6495270
589.9650, 0.6890680
590.4471, 0.8721920
590.9293, 0.9928130
591.4114, 0.9303470
591.8935, 0.6465400
592.3756, 0.4266110
592.8577, 0.2592200
593.3398, 0.1866000
593.8220, 0.3715570
594.3041, 0.7511600
594.7862, 0.7791440
595.2683, 0.2615180
595.7504, 0.3843820
596.2325, 0.6673980
596.7147, 0.6530570
597.1968, 0.5083690
597.6789, 0.1507820
598.1610, 0.1787130
598.6431, 0.2456190
599.1252, 0.1106530
599.6074, 5.9969001E-02
600.0895, 0.4240680
600.5716, 0.6972540
601.0537, 0.5596660
601.5358, 0.1511690
602.0179, 0.5740070
602.5001, 0.5328940
602.9822, 0.3684120
603.4643, 0.3549290
603.9464, 0.5784110
604.4285, 0.5947740
604.9106, 0.3231810
605.3928, 6.1976999E-02
605.8749, 0.3428170
606.3570, 0.5157180
606.8391, 0.5072900
607.3212, 0.1913070
607.8033, 0.1836850
608.2855, 0.1723770
608.7676, 0.1269970
609.2497, 0.3506050
609.7318, 0.1937200
610.2139, 4.3802001E-02
610.6960, 0.1494750
611.1782, 0.1125810
611.6603, 1.7300000E-02
612.1424, 0.4286160
612.6245, 0.7783970
613.1066, 0.8203560
613.5887, 0.3049240
614.0709, 3.0516000E-02
614.5530, 0.1335810
615.0351, 0.3524670
615.5172, 0.3967720
615.9993, 0.2118000
616.4814, 0.1057870
616.9636, 0.1397760
617.4457, 0.2475010
617.9278, 0.3025650
618.4099, 0.3099100
618.8920, 0.3238580
619.3741, 0.3833200
619.8563, 0.4493660
620.3384, 0.4548470
620.8205, 0.4105590
621.3026, 0.3715210
621.7847, 0.4025820
622.2668, 0.4268670
622.7490, 0.3811700
623.2311, 0.2543200
623.7132, 0.1291290
624.1953, 5.4297999E-02
624.6774, 0.1712060
625.1595, 0.1153930
625.6417, 0.3446830
626.1238, 0.5034980
626.6059, 0.2192150
627.0880, 0.2103940
627.5701, 0.3683680
628.0522, 0.2222180
628.5344, 0.1398740
629.0165, 0.2532040
629.4986, 0.3897170
629.9807, 7.5340003E-02
630.4628, 0.5829810
630.9449, 1.003597
631.4271, 0.6123090
631.9092, 2.5417000E-02
632.3913, 1.2337000E-02
632.8734, 0.4132790
633.3555, 0.7421070
633.8376, 0.5503620
634.3198, 0.2894270
634.8019, 0.2716560
635.2840, 0.6047290
635.7661, 0.7653790
636.2482, 0.5963330
636.7303, 0.3272080
637.2125, 8.8367000E-02
637.6946, 0.1715490
638.1767, 0.2353270
638.6588, 5.0873000E-02
639.1409, 0.2548370
639.6230, 0.5038530
640.1052, 0.7016870
640.5873, 0.9429280
641.0694, 1.310846
641.5515, 1.627138
642.0336, 1.498152
642.5157, 1.075626
642.9979, 0.7962970
643.4800, 0.9672490
643.9621, 1.284578
644.4442, 1.598267
644.9263, 1.891846
645.4084, 2.093737
645.8906, 2.077370
646.3727, 2.052269
646.8548, 2.153776
647.3369, 2.425470
647.8190, 2.496992
648.3011, 2.255278
648.7833, 1.983721
649.2654, 1.913450
649.7475, 2.063772
650.2296, 2.137861
650.7117, 2.103546
651.1938, 2.052538
651.6760, 2.104397
652.1581, 2.237717
652.6402, 2.382927
653.1223, 2.518255
653.6044, 2.623627
654.0865, 2.802061
654.5687, 2.985210
655.0508, 3.016716
655.5329, 2.733738
656.0150, 2.415977
656.4971, 2.036482
656.9792, 1.654354
657.4614, 1.596010
657.9435, 2.214258
658.4256, 2.686064
658.9077, 2.671556
659.3898, 2.175627
659.8719, 1.905478
660.3541, 1.916735
660.8362, 2.066565
661.3183, 2.289816
661.8004, 2.544436
662.2825, 2.784971
662.7646, 3.034344
663.2468, 3.151823
663.7289, 2.802168
664.2110, 2.294895
664.6931, 2.082575
665.1752, 2.406485
665.6573, 2.617842
666.1395, 2.268187
666.6216, 1.764885
667.1037, 1.575626
667.5858, 2.169914
668.0679, 2.532415
668.5500, 2.489996
669.0322, 2.231504
669.5143, 2.171812
669.9964, 2.363167
670.4785, 2.513599
670.9606, 2.533274
671.4427, 2.445396
671.9249, 2.287186
672.4070, 2.085783
672.8891, 1.942314
673.3712, 1.914631
673.8533, 1.967482
674.3354, 2.166502
674.8176, 2.482658
675.2997, 2.573965
675.7818, 1.911825
676.2639, 1.236038
676.7460, 1.090944
677.2281, 1.766462
677.7103, 2.043610
678.1924, 1.602869
678.6745, 1.033489
679.1566, 0.7634370
679.6387, 0.8489380
680.1208, 0.9843290
680.6030, 1.170961
681.0851, 1.360138
681.5672, 1.489269
682.0493, 1.562115
682.5314, 1.635267
683.0135, 1.736656
683.4957, 1.855232
683.9778, 2.005335
684.4599, 2.122896
684.9420, 2.074127
685.4241, 1.668091
685.9063, 1.291672
686.3884, 1.053236
686.8705, 0.9337790
687.3526, 0.9041750
687.8347, 1.079466
688.3168, 1.233770
688.7990, 1.268600
689.2811, 1.207464
689.7632, 1.282198
690.2453, 1.540247
690.7274, 1.686790
691.2095, 1.411219
691.6917, 0.8821090
692.1738, 0.6349950
692.6559, 0.6705040
693.1380, 0.7526840
693.6201, 0.7130510
694.1022, 0.6260470
694.5844, 0.5700020
695.0665, 0.5623130
695.5486, 0.5176830
696.0307, 0.3456970
696.5128, 0.2040310
696.9949, 0.2154120
697.4771, 0.5161840
697.9592, 0.6545930
698.4413, 0.5810070
698.9234, 0.4069880
699.4055, 0.2116280
699.8876, 1.0571000E-02
700.3698, 4.1660001E-03
700.8519, 0.3380010
701.3340, 0.7572860
701.8161, 0.9081210
702.2982, 0.8459700
702.7803, 0.7036650
703.2625, 0.4676150
703.7446, 0.2428130
704.2267, 2.9804001E-02
704.7088, 0.1150890
705.1909, 6.4557999E-02
705.6730, 0.5788760
706.1552, 1.002653
706.6373, 0.8853070
707.1194, 0.3764040
707.6015, 0.1843380
708.0836, 0.3985880
708.5657, 0.6648730
709.0479, 0.8705430
709.5300, 1.009342
710.0121, 1.048174
710.4942, 0.9872490
710.9763, 0.8572860
711.4584, 0.5974620
711.9406, 0.3234580
712.4227, 0.2123780
712.9048, 0.2664950
713.3869, 0.2836840
713.8690, 5.6084000E-02
714.3511, 0.1607090
714.8333, 0.1817930
715.3154, 0.1000040
715.7975, 0.3125780
716.2796, 0.4800210
716.7617, 0.5461980
717.2438, 0.4017980
717.7260, 7.3219999E-03
718.2081, 0.1280480
718.6902, 5.8098000E-02
719.1723, 0.3752080
719.6544, 0.7117730
720.1365, 0.9977300
720.6187, 1.019190
721.1008, 0.6525040
721.5829, 0.2485750
722.0650, 1.1230001E-03
722.5471, 0.1015680
723.0292, 7.9395004E-02
723.5114, 0.1877440
723.9935, 0.4274790
724.4756, 0.5950910
724.9577, 0.7123300
725.4398, 0.8251210
725.9219, 0.9569740
726.4041, 0.9948330
726.8862, 0.8713840
727.3683, 0.6850030
727.8504, 0.6928770
728.3325, 0.8709470
728.8146, 1.061724
729.2968, 1.209011
729.7789, 1.318983
730.2610, 1.414530
730.7431, 1.481510
731.2252, 1.473053
731.7073, 1.239141
732.1895, 1.051210
732.6716, 1.057859
733.1537, 1.248716
733.6358, 1.391207
734.1179, 1.504536
734.6000, 1.537064
735.0822, 1.435049
735.5643, 1.217468
736.0464, 1.116516
736.5285, 1.141644
737.0106, 1.122616
737.4927, 0.7984600
737.9749, 0.4032440
738.4570, 0.4054090
738.9391, 0.8156800
739.4212, 1.202028
739.9033, 1.284285
740.3854, 1.262400
740.8676, 1.284155
741.3497, 1.391787
741.8318, 1.448847
742.3139, 1.387877
742.7960, 1.332359
743.2781, 1.381758
743.7603, 1.557529
744.2424, 1.702118
744.7245, 1.805147
745.2066, 1.899080
745.6887, 2.037260
746.1708, 2.202677
746.6530, 2.342287
747.1351, 2.442505
747.6172, 2.535355
748.0993, 2.697908
748.5814, 2.844347
749.0635, 2.870483
749.5457, 2.638882
750.0278, 2.489769
750.5099, 2.446768
750.9920, 2.468355
751.4741, 2.556429
751.9562, 2.725355
752.4384, 2.926388
752.9205, 3.192181
753.4026, 3.409981
753.8847, 3.319220
754.3668, 2.995819
754.8489, 2.791359
755.3311, 2.852404
755.8132, 3.005518
756.2953, 3.192528
756.7774, 3.349720
757.2595, 3.358606
757.7416, 3.045294
758.2238, 2.735306
758.7059, 2.459225
759.1880, 2.243542
759.6701, 2.153967
760.1522, 2.215137
760.6343, 2.343616
761.1165, 2.578032
761.5986, 2.804520
762.0807, 2.636827
762.5628, 2.154284
763.0449, 1.840673
763.5270, 2.018696
764.0092, 2.375648
764.4913, 2.727911
764.9734, 3.034449
765.4555, 3.166195
765.9376, 2.881659
766.4197, 2.608171
766.9019, 2.496630
767.3840, 2.521883
767.8661, 2.603050
768.3482, 2.809082
768.8303, 2.852880
769.3124, 2.498621
769.7946, 1.936810
770.2767, 1.935463
770.7588, 2.431099
771.2409, 2.834146
771.7230, 2.643557
772.2051, 2.287258
772.6873, 2.243195
773.1694, 2.469074
773.6515, 2.552256
774.1336, 2.115067
774.6157, 1.731441
775.0978, 1.678019
775.5800, 1.941147
776.0621, 2.181307
776.5442, 2.450235
777.0263, 2.552633
777.5084, 2.274935
777.9905, 1.729988
778.4727, 1.506966
778.9548, 1.587170
779.4369, 1.638954
779.9190, 1.244089
780.4011, 0.8239210
780.8832, 0.8916230
781.3654, 1.470697
781.8475, 1.879770
782.3296, 1.854355
782.8117, 1.637125
783.2938, 1.296640
783.7759, 0.8017180
784.2581, 0.5647090
784.7402, 0.6360720
785.2223, 0.8145730
785.7044, 1.030117
786.1865, 1.243664
786.6686, 1.261204
787.1508, 1.080379
787.6329, 0.9180910
788.1150, 0.9825170
788.5971, 1.112597
789.0792, 1.148378
789.5613, 1.062052
790.0435, 0.9838810
790.5256, 0.9938560
791.0077, 0.9731290
791.4898, 0.8258780
791.9719, 0.5093730
792.4540, 0.4151800
792.9362, 0.5995430
793.4183, 0.7797490
793.9004, 0.6681610
794.3825, 0.3697760
794.8646, 0.1766660
795.3467, 0.1083790
795.8289, 0.1030350
796.3110, 8.9938998E-02
796.7931, 0.1371380
797.2752, 0.3743950
797.7573, 0.9349750
798.2394, 1.131987
798.7216, 0.5561310
799.2037, 2.8715000E-02
799.6858, 6.0688000E-02
800.1679, 0.5856250
800.6500, 0.7449110
801.1321, 0.3546070
801.6143, 0.1139390
802.0964, 0.2391050
802.5785, 0.1363930
803.0606, 2.1756999E-02
803.5427, 7.9304002E-02
804.0248, 0.2198700
804.5070, 0.5551070
804.9891, 0.8580840
805.4712, 0.9517820
805.9533, 0.7695430
806.4354, 0.4808710
806.9175, 6.4626999E-02
807.3997, 0.4942700
807.8818, 0.4817940
808.3639, 3.7597999E-02
808.8460, 0.4323810
809.3281, 0.9350830
809.8102, 1.212645
810.2924, 0.8046530
810.7745, 0.1326330
811.2566, 0.2352890
811.7387, 0.2049900
812.2208, 3.2581002E-02
812.7029, 0.3807510
813.1851, 0.7463440
813.6672, 0.8236690
814.1493, 0.5016560
814.6314, 0.3968720
815.1135, 0.5744570
815.5956, 0.8089080
816.0778, 0.9535010
816.5599, 1.005106
817.0420, 0.9026390
817.5241, 0.6387370
818.0062, 0.3989960
818.4883, 0.2728600
818.9705, 0.2749810
819.4526, 0.4590380
819.9347, 0.8589950
820.4168, 1.210987
820.8989, 1.598940
821.3810, 1.789158
821.8632, 1.568457
822.3453, 0.8549770
822.8274, 0.5667320
823.3095, 0.7560940
823.7916, 1.079727
824.2737, 1.303539
824.7559, 1.458433
825.2380, 1.597412
825.7201, 1.723057
826.2022, 1.831406
826.6843, 1.888439
827.1664, 1.952154
827.6486, 2.073832
828.1307, 2.276741
828.6128, 2.441307
829.0949, 2.535295
829.5770, 2.603781
830.0591, 2.687716
830.5413, 2.795679
831.0234, 2.893682
831.5055, 2.981934
831.9876, 3.065235
832.4697, 3.026314
832.9518, 3.045986
833.4340, 3.452284
833.9161, 4.222633
834.3982, 4.768362
834.8803, 4.656660
835.3624, 4.505188
835.8445, 4.598793
836.3267, 4.922852
836.8088, 5.170164
837.2909, 5.328058
837.7730, 5.445242
838.2551, 5.546339
838.7372, 5.639307
839.2194, 5.689468
839.7015, 5.706455
840.1836, 5.791367
840.6657, 6.206522
841.1478, 6.547777
841.6299, 6.424427
842.1121, 5.917503
842.5942, 5.794342
843.0763, 6.309519
843.5584, 6.815376
844.0405, 7.084618
844.5226, 7.173262
845.0048, 7.372408
845.4869, 7.678207
845.9690, 7.975275
846.4511, 8.195007
846.9332, 8.407721
847.4153, 8.741167
847.8975, 9.096380
848.3796, 9.249607
848.8617, 8.767971
849.3438, 8.550978
849.8259, 8.998236
850.3080, 9.799524
850.7902, 10.24409
851.2723, 10.31024
851.7544, 10.30392
852.2365, 10.25483
852.7186, 10.19372
853.2007, 10.25510
853.6829, 10.39795
854.1650, 10.49655
854.6471, 10.46698
855.1292, 10.44575
855.6113, 10.36272
856.0934, 10.32601
856.5756, 10.61376
857.0577, 11.62865
857.5398, 12.17799
858.0219, 11.97220
858.5040, 11.48411
858.9861, 11.54479
859.4683, 12.05802
859.9504, 12.52206
860.4325, 12.87377
860.9146, 12.91617
861.3967, 12.09294
861.8788, 11.08523
862.3610, 10.72890
862.8431, 11.83281
863.3252, 12.33804
863.8073, 11.79330
864.2894, 10.94462
864.7715, 10.49265
865.2537, 10.42542
865.7358, 10.39316
866.2179, 10.43263
866.7000, 10.40684
867.1821, 10.12505
867.6642, 9.683683
868.1464, 9.185493
868.6285, 8.597622
869.1106, 8.148439
869.5927, 8.101465
870.0748, 8.113403
870.5569, 7.959167
871.0391, 7.627024
871.5212, 7.248293
872.0033, 6.771055
872.4854, 6.375378
872.9675, 6.258154
873.4496, 6.326502
873.9318, 6.407267
874.4139, 6.481009
874.8960, 6.432554
875.3781, 6.078650
875.8602, 5.708700
876.3423, 5.497108
876.8245, 5.435045
877.3066, 5.312014
877.7887, 5.131788
878.2708, 4.908882
878.7529, 4.613482
879.2350, 4.300695
879.7172, 4.149969
880.1993, 4.135256
880.6814, 4.129498
881.1635, 4.120403
881.6456, 4.049126
882.1277, 3.814827
882.6099, 3.476719
883.0920, 3.212515
883.5741, 3.100224
884.0562, 3.006489
884.5383, 2.935749
885.0204, 2.848154
885.5026, 2.559477
885.9847, 2.100718
886.4668, 1.987425
886.9489, 2.513737
887.4310, 3.100605
887.9131, 3.061047
888.3953, 2.670725
888.8774, 2.339863
889.3595, 2.113531
889.8416, 2.069736
890.3237, 2.335617
890.8058, 2.682856
891.2880, 2.902817
891.7701, 2.994577
892.2522, 2.917763
892.7343, 2.648752
893.2164, 2.342619
893.6985, 2.127512
894.1807, 1.992952
894.6628, 1.951811
895.1449, 2.026541
895.6270, 2.034719
896.1091, 1.758698
896.5912, 1.533312
897.0734, 1.595995
897.5555, 1.983477
898.0376, 2.197506
898.5197, 2.232477
899.0018, 2.116085
899.4839, 1.767303
899.9661, 1.319517
900.4482, 0.9768560
900.9303, 0.7524800
901.4124, 0.6994760
901.8945, 0.9992690
902.3766, 1.323229
902.8588, 1.588430
903.3409, 1.757332
903.8230, 1.615133
904.3051, 1.035635
904.7872, 0.6621300
905.2693, 0.8045440
905.7515, 1.154154
906.2336, 1.009611
906.7157, 0.5397240
907.1978, 0.2405530
907.6799, 0.5524020
908.1620, 0.7807960
908.6442, 0.4739060
909.1263, 6.9260001E-02
909.6084, 0.3382610
910.0905, 0.1982900
910.5726, 0.1175250
911.0547, 0.1328560
911.5369, 0.2216010
912.0190, 0.4341850
912.5011, 0.6914710
912.9832, 0.7202590
913.4653, 0.4319150
913.9474, 0.1994970
914.4296, 0.3373950
914.9117, 0.5816730
915.3938, 0.6987840
915.8759, 0.6289730
916.3580, 0.6394160
916.8401, 0.7748200
917.3223, 0.8809890
917.8044, 0.7415520
918.2865, 0.4866830
918.7686, 0.7288480
919.2507, 1.403498
919.7328, 1.884977
920.2150, 1.584454
920.6971, 1.145504
921.1792, 0.9866070
921.6613, 1.075396
922.1434, 1.010670
922.6255, 0.6194340
923.1077, 0.4689500
923.5898, 0.7982160
924.0719, 1.386513
924.5540, 1.778967
925.0361, 1.985884
925.5182, 2.036907
926.0004, 1.869387
926.4825, 1.672318
926.9646, 1.512903
927.4467, 1.413467
927.9288, 1.429161
928.4109, 1.708311
928.8931, 1.775282
929.3752, 1.554970
929.8573, 1.230238
930.3394, 0.9916780
930.8215, 0.8207050
931.3036, 0.5856590
931.7858, 0.2544250
932.2679, 0.1105350
932.7500, 0.6459730
933.2321, 1.221344
933.7142, 1.308064
934.1964, 0.7890360
934.6785, 0.3181570
935.1606, 0.1689800
935.6427, 0.4262890
936.1248, 0.1581570
936.6069, 0.3964810
937.0891, 0.3764950
937.5712, 0.1325070
938.0533, 0.6877670
938.5354, 1.033592
939.0175, 1.368996
939.4996, 1.841942
939.9818, 2.384129
940.4639, 2.780403
940.9460, 2.947437
941.4281, 3.159637
941.9102, 3.469807
942.3923, 3.826183
942.8745, 4.205734
943.3566, 4.558819
943.8387, 4.676933
944.3208, 4.414684
944.8029, 4.326088
945.2850, 4.863705
945.7672, 5.609810
946.2493, 6.152252
946.7314, 6.362862
947.2135, 6.888222
947.6956, 7.837708
948.1777, 8.756855
948.6599, 9.107140
949.1420, 9.182144
949.6241, 9.786217
950.1062, 10.86266
950.5883, 11.81783
951.0704, 12.03913
951.5526, 12.34889
952.0347, 13.26942
952.5168, 14.63828
952.9989, 15.79659
953.4810, 16.65906
953.9631, 17.70022
954.4453, 19.08006
954.9274, 20.67857
955.4095, 22.43848
955.8916, 24.22836
956.3737, 25.80354
956.8558, 26.98338
957.3380, 28.12556
957.8201, 29.16525
958.3022, 30.36501
958.7843, 32.00813
959.2664, 34.20195
959.7485, 36.33898
960.2307, 38.37408
960.7128, 40.47247
961.1949, 42.80376
961.6770, 45.26965
962.1591, 47.55916
962.6412, 49.71664
963.1234, 52.37342
963.6055, 56.04322
964.0876, 59.97737
964.5697, 64.03232
965.0518, 68.11558
965.5339, 71.76641
966.0161, 74.99557
966.4982, 79.00648
966.9803, 84.45847
967.4624, 90.54978
967.9445, 96.27638
968.4266, 102.0025
968.9088, 108.2054
969.3909, 114.9132
969.8730, 122.3955
970.3551, 130.9664
970.8372, 139.9665
971.3193, 148.7650
971.8015, 157.4204
972.2836, 167.2297
972.7657, 178.2513
973.2478, 190.2472
973.7299, 203.6724
974.2120, 217.6855
974.6942, 231.5448
975.1763, 245.2037
975.6584, 259.4653
976.1405, 274.2107
976.6226, 290.1837
977.1047, 307.9615
977.5869, 326.9189
978.0690, 344.8719
978.5511, 362.0069
979.0332, 379.5318
979.5153, 398.2426
979.9974, 417.2591
980.4796, 436.6308
980.9617, 455.8159
981.4438, 474.0940
981.9259, 491.7315
982.4080, 508.3421
982.8901, 524.1492
983.3723, 538.4679
983.8544, 551.0593
984.3365, 561.5334
984.8186, 569.0821
985.3007, 573.6722
985.7828, 575.8617
986.2650, 575.4581
986.7471, 573.0787
987.2292, 568.9357
987.7113, 563.2033
988.1934, 556.4127
988.6755, 548.4918
989.1577, 540.9963
989.6398, 534.8126
990.1219, 528.9583
990.6040, 522.2408
991.0861, 515.0328
991.5682, 507.9951
992.0504, 501.3454
992.5325, 494.8876
993.0146, 488.6587
993.4967, 482.5094
993.9788, 476.1536
994.4609, 469.6120
994.9431, 463.1691
995.4252, 456.8197
995.9073, 450.2387
996.3894, 442.4081
996.8715, 434.8300
997.3536, 428.5968
997.8358, 423.7747
998.3179, 419.1443
998.8000, 414.4010
999.2821, 410.4667
999.7642, 407.3610
1000.246, 405.5074
1000.728, 405.9927
1001.211, 408.4402
1001.693, 411.8914
1002.175, 416.0572
1002.657, 421.2295
1003.139, 427.7279
1003.621, 435.1873
1004.103, 443.2068
1004.585, 451.8585
1005.068, 460.8294
1005.550, 470.2807
1006.032, 479.1302
1006.514, 486.8035
1006.996, 493.3422
1007.478, 499.0216
1007.960, 503.7551
1008.442, 507.0911
1008.924, 509.6440
1009.407, 509.7957
1009.889, 507.3400
1010.371, 502.1757
1010.853, 493.9786
1011.335, 482.7555
1011.817, 469.0614
1012.299, 452.5844
1012.781, 435.3673
1013.263, 418.7970
1013.746, 402.1462
1014.228, 384.4008
1014.710, 365.1444
1015.192, 347.1505
1015.674, 330.6966
1016.156, 314.7457
1016.638, 298.1974
1017.120, 281.7509
1017.603, 266.7877
1018.085, 253.1522
1018.567, 240.8105
1019.049, 230.1561
1019.531, 220.2655
1020.013, 210.4001
1020.495, 201.2934
1020.977, 194.2411
1021.459, 189.2755
1021.942, 184.6799
1022.424, 180.1636
1022.906, 176.4850
1023.388, 174.6306
1023.870, 173.7223
1024.352, 172.7483
1024.834, 171.5384
1025.316, 171.6355
1025.799, 173.4987
1026.281, 175.8133
1026.763, 178.0590
1027.245, 180.4244
1027.727, 183.4172
1028.209, 187.0397
1028.691, 191.3400
1029.173, 196.8090
1029.656, 202.2163
1030.138, 207.1419
1030.620, 211.5554
1031.102, 215.4898
1031.584, 218.9277
1032.066, 221.9775
1032.548, 224.6869
1033.030, 226.6746
1033.512, 227.7820
1033.995, 227.8416
1034.477, 226.7392
1034.959, 224.4302
1035.441, 220.6080
1035.923, 214.8945
1036.405, 208.0189
1036.887, 199.8058
1037.369, 190.8206
1037.851, 181.7683
1038.334, 172.8041
1038.816, 163.9261
1039.298, 155.1183
1039.780, 146.2949
1040.262, 137.0423
1040.744, 127.9726
1041.226, 119.5242
1041.708, 111.5937
1042.191, 104.1843
1042.673, 97.19350
1043.155, 90.85091
1043.637, 85.33206
1044.119, 80.34940
1044.601, 75.62360
1045.083, 71.07146
1045.565, 66.66277
1046.047, 62.20824
1046.530, 58.11694
1047.012, 54.46850
1047.494, 51.15853
1047.976, 48.23895
1048.458, 45.55788
1048.940, 42.37038
1049.422, 38.63630
1049.904, 35.51123
1050.386, 34.22021
1050.869, 33.25417
1051.351, 31.67994
1051.833, 29.63575
1052.315, 27.74406
1052.797, 26.00470
1053.279, 24.38293
1053.761, 22.85474
1054.243, 21.39046
1054.726, 19.84293
1055.208, 18.37336
1055.690, 17.23386
1056.172, 16.57623
1056.654, 15.93700
1057.136, 15.30103
1057.618, 14.61241
1058.100, 13.80321
1058.583, 12.92075
1059.065, 12.17374
1059.547, 11.53251
1060.029, 10.85247
1060.511, 10.04740
1060.993, 9.228756
1061.475, 8.372036
1061.957, 7.570988
1062.439, 7.014660
1062.922, 6.760349
1063.404, 6.152222
1063.886, 5.097626
1064.368, 4.134880
1064.850, 3.871269
1065.332, 3.836262
1065.814, 3.493351
1066.296, 2.853226
1066.778, 2.538296
1067.261, 2.882511
1067.743, 2.870296
1068.225, 2.108238
1068.707, 1.083157
1069.189, 0.6832810
1069.671, 0.7446560
1070.153, 0.9580650
1070.635, 1.352905
1071.118, 1.493031
1071.600, 0.9054790
1072.082, 0.2967680
1072.564, 0.1301230
1073.046, 0.3514600
1073.528, 0.1701350
1074.010, 0.3786540
1074.492, 0.8392750
1074.974, 0.8969460
1075.457, 0.8525350
1075.939, 0.8816600
1076.421, 0.9707950
1076.903, 1.113842
1077.385, 1.342266
1077.867, 1.531738
1078.349, 1.675491
1078.831, 1.762127
1079.313, 1.777760
1079.796, 1.740822
1080.278, 1.647171
1080.760, 1.512863
1081.242, 1.424435
1081.724, 1.509300
1082.206, 1.488163
1082.688, 1.251640
1083.170, 0.9413570
1083.652, 0.8327140
1084.135, 0.8896790
1084.617, 0.9557500
1085.099, 0.9987530
1085.581, 1.037853
1086.063, 1.102264
1086.545, 1.150097
1087.027, 1.119568
1087.509, 1.030907
1087.992, 1.206455
1088.474, 1.652756
1088.956, 1.872105
1089.438, 1.516418
1089.920, 1.085171
1090.402, 1.159740
1090.884, 1.453556
1091.366, 1.544998
1091.849, 1.293209
1092.331, 1.051022
1092.813, 0.8035090
1093.295, 0.6039090
1093.777, 0.4736670
1094.259, 0.4354820
1094.741, 0.6102410
1095.223, 0.9145620
1095.705, 1.088055
1096.188, 1.145287
1096.670, 0.8709980
1097.152, 3.5289999E-02
1097.634, 0.8656200
1098.116, 1.103794
1098.598, 0.8325920
1099.080, 0.8171920
1099.562, 1.125019
1100.044, 1.329151
1100.527, 0.9032670
1101.009, 0.5762410
1101.491, 0.8117450
1101.973, 1.426756
1102.455, 1.888531
1102.937, 2.202423
1103.419, 2.497112
1103.901, 2.808535
1104.384, 3.053135
1104.866, 3.028387
1105.348, 2.978386
1105.830, 3.205000
1106.312, 3.793150
1106.794, 4.050709
1107.276, 3.885725
1107.758, 3.776758
1108.240, 3.896538
1108.723, 4.223372
1109.205, 4.848957
1109.687, 5.629906
1110.169, 6.304644
1110.651, 6.938173
1111.133, 7.150211
1111.615, 6.649422
1112.097, 6.210373
1112.579, 6.631130
1113.062, 7.583235
1113.544, 7.828613
1114.026, 7.491816
1114.508, 7.220438
1114.990, 7.316084
1115.472, 7.559914
1115.954, 8.081673
1116.436, 8.552677
1116.919, 8.431320
1117.401, 7.770210
1117.883, 7.370697
1118.365, 7.303688
1118.847, 7.385618
1119.329, 7.545555
1119.811, 7.757317
1120.293, 8.147579
1120.776, 8.570683
1121.258, 8.438530
1121.740, 7.665125
1122.222, 7.244141
1122.704, 7.474049
1123.186, 7.717352
1123.668, 7.178452
1124.150, 6.384878
1124.632, 5.869633
1125.115, 5.725481
1125.597, 5.776398
1126.079, 6.159376
1126.561, 6.237057
1127.043, 5.589174
1127.525, 4.785376
1128.007, 4.915733
1128.489, 5.515778
1128.971, 5.778799
1129.454, 5.396671
1129.936, 4.942501
1130.418, 4.324686
1130.900, 3.940672
1131.382, 4.196775
1131.864, 4.791670
1132.346, 4.791296
1132.828, 4.343092
1133.311, 3.900969
1133.793, 3.565605
1134.275, 3.387400
1134.757, 3.482941
1135.239, 3.595776
1135.721, 3.441936
1136.203, 3.072309
1136.685, 2.882755
1137.167, 2.876181
1137.650, 2.926350
1138.132, 3.079737
1138.614, 3.143038
1139.096, 2.961264
1139.578, 2.639605
1140.060, 2.318254
1140.542, 2.003414
1141.024, 1.918158
1141.506, 2.085516
1141.989, 2.273504
1142.471, 2.292933
1142.953, 2.273067
1143.435, 2.338339
1143.917, 2.456545
1144.399, 2.451256
1144.881, 2.309187
1145.363, 2.180922
1145.846, 2.103718
1146.328, 1.946184
1146.810, 1.450855
1147.292, 0.9446490
1147.774, 0.7784770
1148.256, 0.9981100
1148.738, 1.124428
1149.220, 1.157812
1149.703, 1.125610
1150.185, 0.9964140
1150.667, 0.8677460
1151.149, 0.9509600
1151.631, 1.103111
1152.113, 1.069412
1152.595, 0.6924420
1153.077, 0.4570390
1153.559, 0.4427390
1154.042, 0.4862190
1154.524, 0.5391730
1155.006, 0.6182120
1155.488, 0.7099000
1155.970, 0.7691800
1156.452, 0.7460120
1156.934, 0.5919650
1157.416, 0.4332280
1157.898, 0.2084290
1158.381, 8.0631003E-02
1158.863, 0.2787300
1159.345, 0.6980300
1159.827, 0.7851350
1160.309, 0.6155450
1160.791, 0.5415290
1161.273, 0.9016210
1161.755, 1.137613
1162.238, 1.017555
1162.720, 0.8229030
1163.202, 0.9308910
1163.684, 1.257139
1164.166, 1.156607
1164.648, 0.6575600
1165.130, 0.3008710
1165.612, 0.4998050
1166.094, 0.7937510
1166.577, 1.104111
1167.059, 1.311113
1167.541, 1.108236
1168.023, 0.5471380
1168.505, 0.3576490
1168.987, 0.6151640
1169.469, 0.9221210
1169.951, 0.9867420
1170.433, 1.022171
1170.916, 1.174545
1171.398, 1.397408
1171.880, 1.621725
1172.362, 1.845659
1172.844, 1.761179
1173.326, 1.267330
1173.808, 0.8061810
1174.290, 0.7149790
1174.773, 0.8361320
1175.255, 1.153873
1175.737, 1.590584
1176.219, 1.782030
1176.701, 1.721676
1177.183, 1.547974
1177.665, 1.254129
1178.147, 1.013453
1178.630, 1.109842
1179.112, 1.257444
1179.594, 1.082033
1180.076, 0.5735720
1180.558, 0.4996890
1181.040, 0.8928910
1181.522, 1.441141
1182.004, 2.167019
1182.486, 2.685472
1182.969, 2.349201
1183.451, 1.697306
1183.933, 1.365913
1184.415, 1.436588
1184.897, 1.804087
1185.379, 2.555950
1185.861, 3.028717
1186.343, 2.716803
1186.825, 2.179270
1187.308, 2.100620
1187.790, 2.237312
1188.272, 2.203327
1188.754, 1.876369
1189.236, 1.570478
1189.718, 1.274780
1190.200, 1.073002
1190.682, 1.096992
1191.165, 1.181261
1191.647, 1.023928
1192.129, 0.7833750
1192.611, 0.8068980
1193.093, 1.386234
1193.575, 1.684118
1194.057, 1.641703
1194.539, 1.503502
1195.021, 1.450556
1195.504, 1.428141
1195.986, 1.317648
1196.468, 1.174419
1196.950, 1.177425
1197.432, 1.498446
1197.914, 1.615915
1198.396, 1.457880
1198.878, 1.241762
1199.360, 1.113554
1199.843, 1.098955
1200.325, 1.346432
1200.807, 1.757950
1201.289, 1.919117
1201.771, 1.600592
1202.253, 1.406570
1202.735, 1.426405
1203.217, 1.500885
1203.700, 1.429838
1204.182, 1.317341
1204.664, 1.354101
1205.146, 1.510452
1205.628, 1.520018
1206.110, 1.235983
1206.592, 1.023613
1207.074, 0.9199390
1207.557, 0.9467620
1208.039, 1.273853
1208.521, 1.666286
1209.003, 1.742998
1209.485, 1.495214
1209.967, 1.347633
1210.449, 1.451946
1210.931, 1.365559
1211.413, 0.9092880
1211.896, 0.4874270
1212.378, 0.7762360
1212.860, 1.370289
1213.342, 1.687431
1213.824, 1.663776
1214.306, 1.550980
1214.788, 1.333118
1215.270, 1.131493
1215.752, 0.9502620
1216.235, 0.8430600
1216.717, 0.9335580
1217.199, 1.137695
1217.681, 1.384212
1218.163, 1.676653
1218.645, 1.610111
1219.127, 0.9994750
1219.609, 0.5788920
1220.092, 0.6053410
1220.574, 0.8536380
1221.056, 1.093611
1221.538, 1.295845
1222.020, 1.398783
1222.502, 1.372721
1222.984, 1.335169
1223.466, 1.304071
1223.948, 1.282068
1224.431, 1.288612
1224.913, 1.260021
1225.395, 1.075506
1225.877, 0.7988830
1226.359, 0.4795890
1226.841, 7.7311002E-02
1227.323, 5.2675001E-02
1227.805, 0.4809630
1228.287, 0.9897590
1228.770, 1.519936
1229.252, 1.882891
1229.734, 1.652243
1230.216, 1.170715
1230.698, 0.9217210
1231.180, 1.042402
1231.662, 0.9576030
1232.144, 0.5951350
1232.627, 0.4998550
1233.109, 1.097996
1233.591, 1.785435
1234.073, 1.797836
1234.555, 1.472258
1235.037, 1.265074
1235.519, 1.248966
1236.001, 1.192369
1236.484, 1.102131
1236.966, 0.9492440
1237.448, 0.6656320
1237.930, 0.3970780
1238.412, 0.1897850
1238.894, 0.1117290
1239.376, 0.2828500
1239.858, 0.7552700
1240.340, 1.029497
1240.823, 1.098101
1241.305, 1.004715
1241.787, 0.6067010
1242.269, 0.2940810
1242.751, 0.5575390
1243.233, 1.011759
1243.715, 1.149920
1244.197, 0.9220560
1244.679, 0.8161130
1245.162, 0.8296170
1245.644, 0.8467810
1246.126, 0.8209060
1246.608, 0.7592410
1247.090, 0.6702800
1247.572, 0.5601840
1248.054, 0.4002170
1248.536, 0.4149000
1249.019, 0.2212070
1249.501, 0.4473570
1249.983, 0.6474400
1250.465, 0.7223280
1250.947, 0.7128350
1251.429, 0.5323220
1251.911, 0.3537460
1252.393, 0.3365150
1252.875, 0.4661660
1253.358, 0.7335110
1253.840, 1.094303
1254.322, 1.270098
1254.804, 0.8209480
1255.286, 0.5438210
1255.768, 0.9546930
1256.250, 1.407558
1256.732, 1.250124
1257.214, 0.6258180
1257.697, 0.4192560
1258.179, 0.5717350
1258.661, 0.7344590
1259.143, 0.7268980
1259.625, 0.7379990
1260.107, 0.8242860
1260.589, 0.9178560
1261.071, 1.019150
1261.554, 1.055920
1262.036, 0.6424640
1262.518, 2.9112000E-02
1263.000, 0.3413430
1263.482, 0.2690120
1263.964, 0.7744640
1264.446, 1.124027
1264.928, 1.261471
1265.411, 1.008608
1265.893, 0.5999580
1266.375, 0.3725680
1266.857, 0.3224640
1267.339, 0.4423810
1267.821, 0.9006520
1268.303, 1.246258
1268.785, 1.504690
1269.267, 1.536274
1269.750, 0.9842170
1270.232, 0.3350560
1270.714, 0.3557530
1271.196, 4.9440000E-02
1271.678, 0.1929890
1272.160, 2.1637000E-02
1272.642, 0.1080460
1273.124, 0.5940420
1273.606, 1.275452
1274.089, 1.321653
1274.571, 1.095778
1275.053, 0.7645170
1275.535, 0.4500100
1276.017, 0.3616030
1276.499, 0.5465450
1276.981, 0.6655790
1277.463, 0.7062570
1277.946, 0.7531150
1278.428, 0.9324280
1278.910, 1.072197
1279.392, 1.092625
1279.874, 0.9889350
1280.356, 0.6673390
1280.838, 0.1451240
1281.320, 0.1602630
1281.802, 0.6477600
1282.285, 0.9722160
1282.767, 0.6170520
1283.249, 0.2211280
1283.731, 8.3387002E-02
1284.213, 5.3580999E-02
1284.695, 2.2783000E-02
1285.177, 9.1089997E-03
1285.659, 0.1582660
1286.141, 0.4261800
1286.624, 0.6332970
1287.106, 0.7020240
1287.588, 0.6460860
1288.070, 0.4089830
1288.552, 0.3067190
1289.034, 0.7775270
1289.516, 1.454721
1289.998, 1.405895
1290.481, 0.8779470
1290.963, 0.5144180
1291.445, 0.6993960
1291.927, 0.6659550
1292.409, 0.3333210
1292.891, 6.4856000E-02
1293.373, 0.2336750
1293.855, 0.4815920
1294.338, 0.2144930
1294.820, 0.5181750
1295.302, 0.1826560
1295.784, 0.6343960
1296.266, 0.8827730
1296.748, 0.5306170
1297.230, 0.1927290
1297.712, 0.2971560
1298.194, 0.4832110
1298.677, 0.5264190
1299.159, 0.4978170
1299.641, 0.2859500
1300.123, 0.3014320
1300.605, 0.1908300
1301.087, 3.6637999E-02
1301.569, 7.0880000E-03
1302.051, 0.4292550
1302.533, 0.4349000
1303.016, 0.0000000E+00
##END=



