##NAMES=Phosgenite
##RRUFFID=R050640
##IDEAL CHEMISTRY=Pb_2_CO_3_Cl_2_
##LOCALITY=Monte Poni, Sardinia, Italy
##OWNER=RRUFF
##SOURCE=University of Arizona Mineral Museum
##DESCRIPTION=Gray rectangular prismatic crystal
##STATUS=The identification of this mineral has been confirmed by X-ray diffraction and chemical analysis
##URL=rruff.info/R050640
##MEASURED CHEMISTRY=Pb_2.00_(CO_3_)Cl_2.00_ ; C estimated by difference
142.8145, 0.0000000E+00
143.2966, 24.89648
143.7787, 10.03418
144.2608, 0.8500980
144.7429, 45.22021
145.2250, 125.9150
145.7072, 232.3901
146.1893, 357.1055
146.6714, 491.4741
147.1535, 650.8130
147.6356, 836.7148
148.1178, 1048.187
148.5999, 1282.065
149.0820, 1542.109
149.5641, 1821.044
150.0462, 2108.371
150.5283, 2424.929
151.0105, 2724.852
151.4926, 2904.165
151.9747, 3051.965
152.4568, 3155.008
152.9389, 3225.620
153.4210, 3250.341
153.9032, 3209.338
154.3853, 3070.921
154.8674, 2896.106
155.3495, 2699.333
155.8316, 2463.809
156.3137, 2243.033
156.7959, 2040.569
157.2780, 1857.253
157.7601, 1696.218
158.2422, 1554.300
158.7243, 1434.929
159.2065, 1338.667
159.6886, 1270.611
160.1707, 1215.776
160.6528, 1167.625
161.1349, 1128.056
161.6170, 1102.950
162.0992, 1100.672
162.5813, 1108.588
163.0634, 1118.251
163.5455, 1124.360
164.0276, 1136.104
164.5097, 1156.010
164.9919, 1184.305
165.4740, 1222.256
165.9561, 1273.999
166.4382, 1333.967
166.9203, 1397.476
167.4024, 1463.751
167.8846, 1532.726
168.3667, 1603.550
168.8488, 1676.728
169.3309, 1755.512
169.8130, 1843.645
170.2952, 1938.203
170.7773, 2034.684
171.2594, 2132.758
171.7415, 2232.178
172.2236, 2335.843
172.7057, 2443.225
173.1879, 2548.260
173.6700, 2645.223
174.1521, 2742.620
174.6342, 2845.087
175.1163, 2950.198
175.5984, 3057.732
176.0806, 3172.210
176.5627, 3294.774
177.0448, 3413.854
177.5269, 3515.522
178.0090, 3602.289
178.4911, 3683.654
178.9733, 3763.418
179.4554, 3837.338
179.9375, 3898.128
180.4196, 3946.872
180.9017, 3998.305
181.3838, 4070.772
181.8660, 4159.443
182.3481, 4239.590
182.8302, 4298.044
183.3123, 4339.725
183.7944, 4380.096
184.2766, 4422.782
184.7587, 4451.059
185.2408, 4449.540
185.7229, 4418.443
186.2050, 4354.674
186.6871, 4255.152
187.1693, 4120.466
187.6514, 3959.732
188.1335, 3769.312
188.6156, 3558.327
189.0977, 3328.429
189.5798, 3081.671
190.0620, 2836.545
190.5441, 2595.773
191.0262, 2360.380
191.5083, 2140.101
191.9904, 1931.825
192.4725, 1737.014
192.9547, 1556.718
193.4368, 1389.171
193.9189, 1236.893
194.4010, 1102.757
194.8831, 986.2065
195.3652, 878.7212
195.8474, 780.1460
196.3295, 689.7466
196.8116, 605.8984
197.2937, 528.8398
197.7758, 458.9971
198.2579, 397.9858
198.7401, 345.8164
199.2222, 299.5449
199.7043, 260.2729
200.1864, 226.2622
200.6685, 195.0420
201.1507, 165.6592
201.6328, 137.7769
202.1149, 110.7344
202.5970, 83.78711
203.0791, 60.57275
203.5612, 42.64795
204.0434, 28.04639
204.5255, 11.34814
205.0076, 8.584961
205.4897, 26.73779
205.9718, 39.75391
206.4539, 47.02002
206.9361, 52.54004
207.4182, 56.02197
207.9003, 58.18750
208.3824, 62.28125
208.8645, 68.85059
209.3466, 76.06738
209.8288, 84.00244
210.3109, 93.84033
210.7930, 99.06738
211.2751, 98.23047
211.7572, 92.56006
212.2393, 86.97461
212.7215, 81.07373
213.2036, 75.86816
213.6857, 72.58350
214.1678, 72.67188
214.6499, 69.98828
215.1320, 63.65576
215.6142, 54.39111
216.0963, 44.41016
216.5784, 32.53906
217.0605, 22.12500
217.5426, 16.58301
218.0247, 19.32227
218.5069, 16.15381
218.9890, 3.887695
219.4711, 15.37598
219.9532, 31.45068
220.4353, 43.34570
220.9175, 53.74170
221.3996, 63.77393
221.8817, 72.50146
222.3638, 83.76172
222.8459, 98.92090
223.3280, 117.0171
223.8102, 133.3545
224.2923, 147.3013
224.7744, 160.3721
225.2565, 173.2529
225.7386, 185.1221
226.2207, 198.8394
226.7029, 215.7827
227.1850, 234.9072
227.6671, 250.7729
228.1492, 261.8184
228.6313, 271.8142
229.1134, 282.8293
229.5956, 294.3589
230.0777, 308.0601
230.5598, 324.9512
231.0419, 344.2620
231.5240, 362.2942
232.0062, 379.1458
232.4883, 394.6882
232.9704, 408.2573
233.4525, 417.0825
233.9346, 430.3689
234.4167, 450.6482
234.8989, 476.1055
235.3810, 498.1450
235.8631, 514.9050
236.3452, 530.6763
236.8273, 547.5984
237.3094, 564.8721
237.7916, 585.1941
238.2737, 610.0129
238.7558, 638.0774
239.2379, 664.2744
239.7200, 687.8948
240.2021, 710.1846
240.6843, 731.9690
241.1664, 753.5659
241.6485, 774.6484
242.1306, 793.9258
242.6127, 812.3167
243.0948, 834.0146
243.5770, 860.7974
244.0591, 888.9521
244.5412, 916.8599
245.0233, 945.4282
245.5054, 972.2454
245.9876, 995.2607
246.4697, 1016.366
246.9518, 1043.076
247.4339, 1080.496
247.9160, 1115.491
248.3981, 1141.712
248.8803, 1156.694
249.3624, 1169.411
249.8445, 1179.513
250.3266, 1187.269
250.8087, 1194.172
251.2908, 1202.790
251.7730, 1206.439
252.2551, 1202.244
252.7372, 1189.270
253.2193, 1170.112
253.7014, 1143.712
254.1835, 1111.826
254.6657, 1078.713
255.1478, 1044.301
255.6299, 1008.743
256.1120, 970.8145
256.5941, 928.8511
257.0763, 891.0757
257.5584, 857.6987
258.0405, 827.8149
258.5226, 800.2419
259.0047, 774.5491
259.4868, 751.5208
259.9690, 731.9431
260.4511, 716.3308
260.9332, 701.3804
261.4153, 685.2261
261.8974, 670.9602
262.3795, 665.2678
262.8617, 671.2756
263.3438, 675.0698
263.8259, 670.9150
264.3080, 657.3979
264.7901, 649.7168
265.2722, 649.6843
265.7544, 653.6140
266.2365, 656.3564
266.7186, 657.6575
267.2007, 657.7898
267.6828, 656.1995
268.1649, 652.4988
268.6471, 651.5854
269.1292, 654.3640
269.6113, 659.7236
270.0934, 665.8049
270.5755, 672.3696
271.0576, 680.9419
271.5398, 692.3433
272.0219, 706.3386
272.5040, 718.9551
272.9861, 729.4929
273.4682, 740.7180
273.9503, 755.5686
274.4325, 774.4526
274.9146, 795.1748
275.3967, 817.2268
275.8788, 840.0332
276.3610, 862.9812
276.8431, 887.0942
277.3252, 910.2883
277.8073, 929.5891
278.2894, 944.5076
278.7715, 958.1274
279.2537, 972.2576
279.7358, 985.3213
280.2179, 991.6350
280.7000, 991.4319
281.1821, 983.6191
281.6642, 965.7563
282.1464, 937.7659
282.6285, 906.9219
283.1106, 874.9443
283.5927, 840.3901
284.0748, 798.4189
284.5569, 748.2480
285.0391, 695.6370
285.5212, 641.9233
286.0033, 587.5298
286.4854, 538.8679
286.9675, 498.0706
287.4496, 461.2522
287.9318, 419.4695
288.4139, 372.2185
288.8960, 328.1042
289.3781, 292.7415
289.8602, 264.5789
290.3423, 235.2012
290.8245, 203.1326
291.3066, 171.5459
291.7887, 145.7698
292.2708, 125.4888
292.7529, 108.7898
293.2350, 96.62695
293.7172, 87.38037
294.1993, 76.86865
294.6814, 64.73633
295.1635, 51.56812
295.6456, 36.33569
296.1277, 20.08813
296.6099, 7.720947
297.0920, 4.586426
297.5741, 6.467529
298.0562, 4.860107
298.5383, 0.5454100
299.0204, 6.044434
299.5026, 7.387451
299.9847, 5.791748
300.4668, 4.715088
300.9489, 5.054932
301.4311, 6.770996
301.9132, 10.62549
302.3953, 16.55664
302.8774, 21.34888
303.3595, 22.59595
303.8416, 20.97461
304.3238, 17.61255
304.8059, 10.93433
305.2880, 4.450684
305.7701, 2.556396
306.2522, 4.624512
306.7343, 6.619629
307.2165, 5.961426
307.6986, 3.732910
308.1807, 1.224609
308.6628, 1.362061
309.1449, 3.811279
309.6270, 5.558105
310.1092, 6.878174
310.5913, 8.773193
311.0734, 13.14819
311.5555, 17.56494
312.0376, 19.66431
312.5197, 18.33594
313.0019, 16.50415
313.4840, 14.52734
313.9661, 13.19189
314.4482, 14.03003
314.9303, 21.48267
315.4124, 28.66333
315.8946, 30.68726
316.3767, 25.95410
316.8588, 21.29541
317.3409, 18.68726
317.8230, 18.01392
318.3051, 19.12720
318.7873, 24.98779
319.2694, 29.93164
319.7515, 31.15332
320.2336, 28.28882
320.7157, 25.30493
321.1978, 22.67261
321.6800, 20.73975
322.1621, 19.83960
322.6442, 20.58740
323.1263, 21.79688
323.6084, 23.46265
324.0905, 25.52295
324.5727, 27.20117
325.0548, 27.88916
325.5369, 28.48730
326.0190, 29.55298
326.5012, 32.42578
326.9833, 34.34302
327.4654, 35.03711
327.9475, 34.61865
328.4296, 33.50415
328.9117, 29.45264
329.3939, 26.71045
329.8760, 27.15918
330.3581, 33.34082
330.8402, 38.00464
331.3223, 41.23096
331.8044, 42.86597
332.2866, 42.24951
332.7687, 36.64038
333.2508, 32.74438
333.7329, 33.08960
334.2150, 38.78467
334.6971, 43.32959
335.1793, 46.80615
335.6614, 49.07446
336.1435, 49.68726
336.6256, 47.87842
337.1077, 46.53101
337.5898, 46.44946
338.0720, 47.60718
338.5541, 49.72461
339.0362, 53.62280
339.5183, 56.84375
340.0004, 56.54028
340.4825, 52.07397
340.9647, 48.64795
341.4468, 47.04224
341.9289, 47.13965
342.4110, 48.96240
342.8931, 52.73291
343.3752, 56.59644
343.8574, 58.87720
344.3395, 59.69458
344.8216, 61.65527
345.3037, 65.34692
345.7858, 69.47412
346.2679, 71.80054
346.7501, 72.27466
347.2322, 71.89380
347.7143, 70.44067
348.1964, 68.51147
348.6785, 68.05566
349.1607, 69.20020
349.6428, 71.47974
350.1249, 75.92383
350.6070, 81.39868
351.0891, 84.28516
351.5713, 81.20459
352.0534, 75.62134
352.5355, 72.57104
353.0176, 72.02905
353.4997, 72.11597
353.9818, 72.30664
354.4640, 71.95312
354.9461, 70.13940
355.4282, 66.45825
355.9103, 61.56372
356.3924, 54.15771
356.8745, 45.20068
357.3567, 39.12915
357.8388, 41.52881
358.3209, 46.24536
358.8030, 47.68774
359.2851, 43.80713
359.7672, 38.98706
360.2494, 34.52075
360.7315, 30.81738
361.2136, 28.73169
361.6957, 30.73901
362.1778, 33.00952
362.6599, 33.43970
363.1421, 31.46655
363.6242, 30.02271
364.1063, 30.87476
364.5884, 32.13696
365.0705, 31.98853
365.5526, 27.25830
366.0348, 24.05786
366.5169, 24.73779
366.9990, 28.96875
367.4811, 31.53296
367.9632, 30.28394
368.4453, 28.36279
368.9275, 27.58350
369.4096, 29.19800
369.8917, 30.23267
370.3738, 30.29907
370.8559, 29.74072
371.3380, 29.62744
371.8202, 31.22241
372.3023, 31.56641
372.7844, 28.84375
373.2665, 21.42090
373.7487, 17.97900
374.2308, 20.59131
374.7129, 25.06152
375.1950, 24.98779
375.6771, 18.16089
376.1592, 14.12915
376.6414, 16.70020
377.1235, 24.88867
377.6056, 28.24170
378.0877, 25.70947
378.5698, 21.89844
379.0519, 21.16406
379.5341, 23.53931
380.0162, 24.86816
380.4983, 24.31763
380.9804, 22.50342
381.4625, 20.03662
381.9446, 16.93799
382.4268, 15.48730
382.9089, 18.56421
383.3910, 24.50488
383.8731, 27.65039
384.3552, 27.15137
384.8373, 25.74341
385.3195, 26.21436
385.8016, 28.30884
386.2837, 31.35327
386.7658, 36.45679
387.2479, 41.59351
387.7300, 43.63818
388.2122, 42.72583
388.6943, 41.93945
389.1764, 44.51733
389.6585, 48.22534
390.1406, 49.95361
390.6227, 47.14746
391.1049, 44.53735
391.5870, 46.26270
392.0691, 50.93286
392.5512, 54.28345
393.0333, 53.28076
393.5154, 51.07837
393.9976, 49.31128
394.4797, 47.80444
394.9618, 48.12720
395.4439, 53.34692
395.9260, 59.98682
396.4081, 63.40796
396.8903, 58.83545
397.3724, 54.79199
397.8545, 53.54419
398.3366, 55.21704
398.8188, 58.02661
399.3009, 64.52881
399.7830, 70.37524
400.2651, 72.61646
400.7472, 66.41528
401.2293, 64.03149
401.7115, 68.23877
402.1936, 76.42554
402.6757, 80.51538
403.1578, 78.59863
403.6399, 75.84839
404.1220, 74.31152
404.6042, 74.12646
405.0863, 74.16821
405.5684, 74.34546
406.0505, 74.84619
406.5326, 76.13477
407.0147, 78.38843
407.4969, 80.20532
407.9790, 80.99072
408.4611, 81.15698
408.9432, 82.96436
409.4253, 86.65723
409.9074, 89.12085
410.3896, 86.47632
410.8717, 80.15210
411.3538, 76.62720
411.8359, 77.25806
412.3180, 80.02271
412.8001, 83.22656
413.2823, 86.40674
413.7644, 88.05664
414.2465, 85.19580
414.7286, 81.21924
415.2107, 81.79395
415.6928, 87.34155
416.1750, 91.70361
416.6571, 88.57886
417.1392, 81.80249
417.6213, 76.50635
418.1034, 75.34155
418.5855, 75.90210
419.0677, 77.35669
419.5498, 79.31079
420.0319, 80.72168
420.5140, 81.23071
420.9961, 81.08325
421.4782, 79.93530
421.9604, 77.20850
422.4425, 75.06396
422.9246, 74.37964
423.4067, 74.54199
423.8889, 74.61987
424.3710, 74.39941
424.8531, 74.54102
425.3352, 75.70776
425.8173, 78.02612
426.2994, 78.58081
426.7816, 76.40454
427.2637, 73.47534
427.7458, 71.08179
428.2279, 68.64429
428.7100, 67.62939
429.1921, 68.26025
429.6743, 70.01611
430.1564, 72.13599
430.6385, 75.20215
431.1206, 76.48779
431.6027, 73.54077
432.0848, 66.73315
432.5670, 65.88232
433.0491, 72.15308
433.5312, 79.47388
434.0133, 81.10278
434.4954, 77.88843
434.9775, 74.97144
435.4597, 73.53101
435.9418, 72.81592
436.4239, 71.67188
436.9060, 70.51221
437.3881, 70.30127
437.8702, 72.55542
438.3524, 75.72070
438.8345, 77.31055
439.3166, 76.81885
439.7987, 76.26733
440.2808, 77.53589
440.7629, 79.75488
441.2451, 81.54712
441.7272, 83.61938
442.2093, 83.95020
442.6914, 80.70410
443.1735, 74.35181
443.6556, 68.00000
444.1378, 61.28711
444.6199, 55.94531
445.1020, 53.31958
445.5841, 55.03979
446.0662, 56.74878
446.5483, 57.76050
447.0305, 58.49829
447.5126, 59.68042
447.9947, 62.42773
448.4768, 64.26904
448.9590, 64.41895
449.4411, 62.82300
449.9232, 61.38525
450.4053, 59.93823
450.8874, 58.80737
451.3695, 58.28906
451.8517, 58.49097
452.3338, 58.83862
452.8159, 59.62793
453.2980, 60.06665
453.7801, 58.01904
454.2622, 53.29370
454.7444, 48.98511
455.2265, 46.83276
455.7086, 46.30176
456.1907, 45.08130
456.6728, 43.11035
457.1549, 41.29614
457.6371, 40.65308
458.1192, 40.80005
458.6013, 40.88696
459.0834, 40.94800
459.5655, 40.43018
460.0476, 38.20190
460.5298, 34.78638
461.0119, 31.81714
461.4940, 30.31982
461.9761, 29.43066
462.4582, 28.43506
462.9403, 27.23755
463.4225, 26.40186
463.9046, 27.29541
464.3867, 28.17285
464.8688, 27.35449
465.3509, 22.65698
465.8330, 18.29175
466.3152, 15.39380
466.7973, 13.57324
467.2794, 11.39624
467.7615, 7.243408
468.2436, 4.230713
468.7257, 3.940674
469.2079, 7.475342
469.6900, 8.418457
470.1721, 5.225098
470.6542, 1.090332
471.1363, 0.4902340
471.6184, 1.130859
472.1006, 2.744873
472.5827, 3.872070
473.0648, 4.586426
473.5469, 5.724365
474.0291, 7.523193
474.5112, 7.120361
474.9933, 0.3615720
475.4754, 10.48950
475.9575, 14.51953
476.4396, 10.63892
476.9218, 5.398926
477.4039, 7.137207
477.8860, 12.88428
478.3681, 15.50146
478.8502, 10.90649
479.3323, 4.541260
479.8145, 1.909668
480.2966, 2.138428
480.7787, 2.070801
481.2608, 1.334961
481.7429, 4.631592
482.2250, 5.058105
482.7072, 1.793945
483.1893, 1.403564
483.6714, 2.530762
484.1535, 3.262695
484.6356, 5.271973
485.1177, 11.50024
485.5999, 15.92505
486.0820, 17.26147
486.5641, 15.98999
487.0462, 13.68506
487.5283, 9.088623
488.0104, 5.062012
488.4926, 2.775635
488.9747, 2.509277
489.4568, 2.250244
489.9389, 2.035156
490.4210, 1.763428
490.9031, 1.083496
491.3853, 7.9346001E-02
491.8674, 7.3974997E-02
492.3495, 2.871582
492.8316, 6.093018
493.3137, 3.917236
493.7958, 3.179199
494.2780, 9.971680
494.7601, 13.43677
495.2422, 14.44751
495.7243, 13.78564
496.2064, 11.38477
496.6885, 9.912109
497.1707, 12.54932
497.6528, 17.09814
498.1349, 20.46655
498.6170, 20.82080
499.0992, 21.25073
499.5813, 23.94092
500.0634, 28.02051
500.5455, 31.37622
501.0276, 33.43555
501.5097, 34.52612
501.9919, 34.80713
502.4740, 34.29761
502.9561, 32.84814
503.4382, 28.88770
503.9203, 25.10352
504.4024, 23.37134
504.8846, 24.53662
505.3667, 26.20459
505.8488, 29.00098
506.3309, 31.75610
506.8130, 31.51514
507.2951, 27.61011
507.7773, 23.74097
508.2594, 21.10376
508.7415, 19.66284
509.2236, 19.35474
509.7057, 20.25781
510.1878, 21.37988
510.6700, 22.46631
511.1521, 23.15942
511.6342, 21.78149
512.1163, 17.33130
512.5984, 13.53613
513.0806, 15.25024
513.5627, 20.50928
514.0448, 25.20386
514.5269, 28.01001
515.0090, 29.22363
515.4911, 28.29053
515.9733, 25.54199
516.4554, 23.20605
516.9375, 21.30615
517.4196, 20.63086
517.9017, 22.16479
518.3839, 27.99927
518.8660, 31.09546
519.3481, 27.95581
519.8302, 22.95630
520.3123, 20.90137
520.7944, 23.68164
521.2766, 25.80322
521.7587, 26.06299
522.2408, 25.15552
522.7229, 26.34131
523.2050, 30.65381
523.6871, 33.54785
524.1693, 31.15283
524.6514, 24.21436
525.1335, 22.08398
525.6156, 25.18799
526.0977, 30.42383
526.5798, 36.70801
527.0620, 42.78345
527.5441, 44.06104
528.0262, 37.33789
528.5083, 29.80591
528.9904, 29.98413
529.4725, 35.45459
529.9547, 40.32788
530.4368, 40.71826
530.9189, 40.25562
531.4010, 41.72803
531.8831, 45.16089
532.3652, 46.94678
532.8474, 43.22900
533.3295, 38.85083
533.8116, 37.69189
534.2937, 44.27319
534.7758, 48.20361
535.2579, 47.51270
535.7401, 44.22559
536.2222, 41.56934
536.7043, 39.97412
537.1864, 39.53149
537.6685, 40.39429
538.1506, 42.10693
538.6328, 42.93286
539.1149, 42.91284
539.5970, 42.93066
540.0791, 44.00879
540.5612, 45.72729
541.0433, 45.38770
541.5255, 42.71460
542.0076, 40.49365
542.4897, 42.20239
542.9718, 45.94678
543.4539, 48.67944
543.9360, 50.40039
544.4182, 49.88867
544.9003, 43.37549
545.3824, 33.93237
545.8645, 28.10596
546.3466, 30.73560
546.8287, 35.27979
547.3109, 39.66187
547.7930, 43.70044
548.2751, 45.75659
548.7572, 45.18579
549.2393, 42.89404
549.7214, 38.90576
550.2036, 30.69385
550.6857, 26.39258
551.1678, 28.17700
551.6499, 32.66919
552.1320, 33.80908
552.6141, 30.98193
553.0963, 29.57568
553.5784, 31.82520
554.0605, 35.48877
554.5426, 33.95142
555.0247, 27.51587
555.5068, 21.02173
555.9890, 16.52197
556.4711, 14.19629
556.9532, 15.58130
557.4353, 20.60205
557.9174, 24.85107
558.3995, 24.49390
558.8817, 22.07397
559.3638, 20.30786
559.8459, 20.22437
560.3281, 20.04443
560.8102, 19.18872
561.2923, 18.04248
561.7744, 16.65796
562.2565, 12.52637
562.7386, 10.41479
563.2208, 12.89600
563.7029, 19.00806
564.1850, 22.02661
564.6671, 20.93164
565.1492, 18.52075
565.6313, 15.64062
566.1135, 12.19678
566.5956, 10.76025
567.0777, 11.49927
567.5598, 13.32617
568.0419, 15.89111
568.5240, 18.87378
569.0062, 20.20190
569.4883, 19.14160
569.9704, 17.18774
570.4525, 15.92505
570.9346, 15.00098
571.4167, 13.89673
571.8989, 11.41284
572.3810, 9.888184
572.8631, 12.04541
573.3452, 17.15112
573.8273, 20.39453
574.3094, 17.54004
574.7916, 14.22778
575.2737, 14.16919
575.7558, 19.88428
576.2379, 21.52441
576.7200, 16.00122
577.2021, 8.810791
577.6843, 4.769775
578.1664, 4.802246
578.6485, 5.163574
579.1306, 5.188721
579.6127, 5.633545
580.0948, 8.886475
580.5770, 14.93164
581.0591, 19.42041
581.5412, 19.73901
582.0233, 17.81909
582.5054, 18.29614
582.9875, 20.79810
583.4697, 22.57617
583.9518, 20.44360
584.4339, 17.29858
584.9160, 16.76685
585.3981, 19.58789
585.8802, 21.77368
586.3624, 21.46118
586.8445, 19.52563
587.3266, 16.74390
587.8087, 10.86548
588.2908, 7.271729
588.7729, 8.361816
589.2551, 11.63379
589.7372, 12.68750
590.2193, 9.613770
590.7014, 8.171875
591.1835, 10.51611
591.6656, 15.57910
592.1478, 17.34106
592.6299, 15.30835
593.1120, 13.32275
593.5941, 14.44897
594.0762, 17.54614
594.5583, 18.24390
595.0405, 16.33398
595.5226, 13.64697
596.0047, 10.66479
596.4868, 8.319092
596.9689, 8.381836
597.4510, 12.47266
597.9332, 15.92163
598.4153, 15.80957
598.8974, 13.46704
599.3795, 10.89844
599.8616, 6.178467
600.3438, 4.008301
600.8259, 7.851074
601.3080, 15.66772
601.7901, 19.14453
602.2722, 15.88257
602.7543, 12.14722
603.2365, 9.854004
603.7186, 8.980957
604.2007, 9.830078
604.6828, 12.61914
605.1649, 15.73560
605.6470, 17.89160
606.1292, 19.18188
606.6113, 20.78052
607.0934, 23.12329
607.5755, 23.53540
608.0576, 16.15356
608.5398, 5.544922
609.0219, 0.1428220
609.5040, 5.018799
609.9861, 11.03735
610.4683, 12.84399
610.9504, 11.52515
611.4325, 9.392090
611.9146, 6.888184
612.3967, 3.931641
612.8788, 0.3698730
613.3610, 5.648193
613.8431, 7.978760
614.3252, 6.514648
614.8073, 3.423340
615.2894, 0.6311040
615.7715, 5.703613
616.2537, 10.81543
616.7358, 16.46045
617.2179, 19.59033
617.7000, 14.43774
618.1821, 3.739502
618.6642, 3.087891
619.1464, 4.854492
619.6285, 1.502441
620.1106, 12.99194
620.5927, 31.58447
621.0748, 42.13818
621.5569, 34.28784
622.0391, 23.30200
622.5212, 14.54907
623.0033, 7.843994
623.4854, 2.509521
623.9675, 1.915771
624.4496, 4.435303
624.9318, 4.047119
625.4139, 0.8015140
625.8960, 0.9916990
626.3781, 1.186035
626.8602, 0.3264160
627.3423, 2.269775
627.8245, 6.461426
628.3066, 6.645264
628.7887, 2.238281
629.2708, 3.167969
629.7529, 5.908936
630.2350, 6.742676
630.7172, 7.642334
631.1993, 9.335693
631.6814, 10.18726
632.1635, 7.229492
632.6456, 2.867676
633.1277, 0.9118650
633.6099, 5.665039
634.0920, 9.772461
634.5741, 10.27441
635.0562, 8.174072
635.5383, 7.474854
636.0204, 9.307129
636.5026, 11.26221
636.9847, 12.63184
637.4668, 13.49341
637.9489, 15.02124
638.4310, 17.65332
638.9131, 19.07690
639.3953, 16.83887
639.8774, 11.89917
640.3595, 8.237793
640.8416, 5.954346
641.3237, 5.820068
641.8058, 11.40845
642.2880, 18.59326
642.7701, 20.53516
643.2522, 13.17773
643.7343, 7.568359
644.2164, 10.96191
644.6985, 18.88062
645.1807, 25.32764
645.6628, 27.55566
646.1449, 30.11011
646.6270, 34.74585
647.1091, 39.90967
647.5912, 40.35571
648.0734, 32.51538
648.5555, 30.12476
649.0376, 38.35205
649.5197, 55.45728
650.0018, 70.56812
650.4839, 83.96704
650.9661, 108.1060
651.4482, 149.9724
651.9303, 208.5840
652.4124, 289.6975
652.8945, 392.7566
653.3766, 489.9500
653.8588, 570.1140
654.3409, 631.8103
654.8230, 670.8989
655.3051, 676.6077
655.7872, 688.0310
656.2693, 713.1082
656.7515, 748.2419
657.2336, 789.7544
657.7158, 838.1594
658.1979, 890.3013
658.6800, 941.0444
659.1621, 1000.876
659.6442, 1082.941
660.1263, 1186.473
660.6085, 1331.969
661.0906, 1537.272
661.5727, 1772.462
662.0548, 1992.279
662.5369, 2199.740
663.0190, 2406.560
663.5012, 2594.277
663.9833, 2803.155
664.4654, 3045.783
664.9475, 3327.870
665.4296, 3699.346
665.9117, 4219.081
666.3939, 4795.533
666.8760, 5525.821
667.3581, 6549.502
667.8402, 6780.920
668.3223, 5972.165
668.8044, 4766.749
669.2866, 3529.580
669.7687, 2239.554
670.2508, 1309.922
670.7329, 787.6702
671.2150, 505.9832
671.6971, 330.5635
672.1793, 239.6672
672.6614, 182.9543
673.1435, 155.2485
673.6256, 139.1704
674.1077, 123.7625
674.5898, 109.6860
675.0720, 98.18140
675.5541, 91.56738
676.0362, 85.20630
676.5183, 77.29639
677.0004, 68.78442
677.4825, 61.91626
677.9647, 56.83179
678.4468, 53.32568
678.9289, 51.55786
679.4110, 51.31030
679.8931, 52.05078
680.3752, 53.95044
680.8574, 54.55176
681.3395, 50.03223
681.8216, 43.71045
682.3037, 44.50854
682.7858, 52.08643
683.2679, 58.65796
683.7501, 56.41675
684.2322, 51.95483
684.7143, 51.02637
685.1964, 55.39648
685.6785, 58.60571
686.1606, 57.79028
686.6428, 56.86572
687.1249, 58.54858
687.6070, 65.45898
688.0891, 68.56641
688.5712, 66.51343
689.0533, 62.91797
689.5355, 62.55640
690.0176, 65.29663
690.4997, 66.81323
690.9818, 65.97314
691.4639, 64.60571
691.9460, 65.91235
692.4282, 68.43262
692.9103, 68.83472
693.3924, 63.67676
693.8745, 58.40283
694.3566, 55.42188
694.8387, 54.68408
695.3209, 56.08643
695.8030, 61.20117
696.2851, 66.70972
696.7672, 72.87256
697.2493, 78.98926
697.7314, 80.67529
698.2136, 76.57031
698.6957, 72.48633
699.1778, 71.33374
699.6599, 72.25610
700.1420, 70.82910
700.6241, 67.22998
701.1063, 64.67603
701.5884, 67.13892
702.0705, 71.04712
702.5526, 70.92090
703.0347, 66.42822
703.5168, 64.26514
703.9990, 71.39014
704.4811, 79.47314
704.9632, 82.16699
705.4453, 75.79614
705.9274, 72.83618
706.4095, 75.16309
706.8917, 78.85791
707.3738, 80.24463
707.8560, 78.83984
708.3381, 79.93433
708.8202, 84.62646
709.3023, 89.42847
709.7844, 89.08936
710.2665, 85.36938
710.7487, 82.93481
711.2308, 83.32275
711.7129, 85.00586
712.1950, 89.10498
712.6771, 92.89282
713.1592, 92.57397
713.6414, 80.12549
714.1235, 71.41870
714.6056, 73.33276
715.0877, 80.38989
715.5698, 83.00708
716.0519, 79.22607
716.5341, 76.17212
717.0162, 75.86938
717.4983, 77.18213
717.9804, 76.32983
718.4625, 73.53760
718.9446, 72.17822
719.4268, 76.74414
719.9089, 81.73755
720.3910, 78.70166
720.8731, 69.30200
721.3552, 60.49902
721.8373, 55.70190
722.3195, 52.59204
722.8016, 50.98267
723.2837, 50.85181
723.7658, 48.04443
724.2479, 40.28784
724.7300, 32.87158
725.2122, 28.44775
725.6943, 27.07251
726.1764, 25.10767
726.6585, 22.41919
727.1406, 19.88354
727.6227, 18.22754
728.1049, 17.19482
728.5870, 16.43604
729.0691, 15.93530
729.5512, 14.93579
730.0333, 11.46313
730.5154, 8.047607
730.9976, 7.424072
731.4797, 11.15747
731.9618, 14.14038
732.4439, 15.95898
732.9260, 16.34473
733.4081, 14.83887
733.8903, 10.80518
734.3724, 6.905029
734.8545, 3.067139
735.3366, 3.9795000E-02
735.8187, 1.258545
736.3008, 0.9042970
736.7830, 0.3208010
737.2651, 0.3366700
737.7472, 0.7272950
738.2293, 0.2622070
738.7114, 0.6337890
739.1935, 1.316650
739.6757, 0.9838870
740.1578, 1.219727
740.6399, 4.052002
741.1220, 7.293945
741.6041, 6.883301
742.0862, 8.3984002E-02
742.5684, 3.896240
743.0505, 1.846191
743.5326, 3.020508
744.0147, 3.589600
744.4968, 0.1757810
744.9789, 3.294678
745.4611, 5.920898
745.9432, 7.245850
746.4253, 6.112061
746.9074, 3.217773
747.3895, 0.3342290
747.8716, 2.321289
748.3538, 4.137695
748.8359, 4.353516
749.3180, 3.291504
749.8001, 2.821289
750.2822, 3.623047
750.7643, 3.855713
751.2465, 2.978027
751.7286, 1.060547
752.2107, 1.995361
752.6928, 6.256592
753.1749, 9.287842
753.6570, 7.943115
754.1392, 5.250488
754.6213, 7.233887
755.1034, 12.98926
755.5855, 17.22705
756.0676, 15.39941
756.5498, 12.62549
757.0319, 12.32007
757.5140, 14.73315
757.9962, 14.97607
758.4783, 11.09033
758.9604, 7.368164
759.4425, 5.750732
759.9246, 6.177734
760.4067, 6.691895
760.8889, 7.301270
761.3710, 7.793213
761.8531, 8.245850
762.3352, 8.416504
762.8173, 7.494873
763.2994, 5.518799
763.7816, 4.061768
764.2637, 4.397217
764.7458, 5.480957
765.2279, 7.081543
765.7100, 9.835205
766.1921, 9.726563
766.6743, 4.318115
767.1564, 1.104492
767.6385, 2.854492
768.1206, 0.4123540
768.6027, 0.3334960
769.0848, 1.001953
769.5670, 1.956787
770.0491, 1.344238
770.5312, 6.235352
771.0133, 6.113037
771.4954, 0.4143070
771.9775, 4.753906
772.4597, 1.790527
772.9418, 10.83276
773.4239, 15.05249
773.9060, 10.84106
774.3881, 8.230957
774.8702, 8.151855
775.3524, 9.167725
775.8345, 10.35059
776.3166, 11.79346
776.7987, 12.53882
777.2808, 12.49487
777.7629, 12.00610
778.2451, 10.18066
778.7272, 8.447754
779.2093, 10.35791
779.6914, 17.52490
780.1735, 23.94385
780.6556, 24.27319
781.1378, 22.94775
781.6199, 24.41479
782.1020, 33.31445
782.5841, 37.99390
783.0662, 36.41821
783.5483, 32.82812
784.0305, 31.92798
784.5126, 33.80127
784.9947, 35.50366
785.4768, 36.86865
785.9589, 37.17944
786.4410, 34.31006
786.9232, 30.10132
787.4053, 27.91650
787.8874, 29.04102
788.3695, 31.16675
788.8516, 33.15430
789.3337, 35.67969
789.8159, 39.69751
790.2980, 47.62939
790.7801, 52.63306
791.2622, 53.67847
791.7443, 52.81641
792.2264, 52.75659
792.7086, 53.54370
793.1907, 53.31763
793.6728, 51.96582
794.1549, 50.44287
794.6370, 48.60156
795.1191, 47.52783
795.6013, 49.33447
796.0834, 56.82520
796.5655, 62.69800
797.0476, 65.25024
797.5297, 64.41040
798.0118, 59.76172
798.4940, 47.84473
798.9761, 39.88379
799.4582, 37.78345
799.9403, 38.84424
800.4224, 38.79004
800.9045, 37.71875
801.3867, 36.25415
801.8688, 34.57422
802.3509, 33.46191
802.8330, 33.35156
803.3151, 33.92725
803.7972, 34.92798
804.2794, 37.74438
804.7615, 38.53003
805.2436, 33.64917
805.7258, 27.81128
806.2079, 26.23096
806.6900, 29.88525
807.1721, 35.53564
807.6542, 44.19849
808.1364, 50.75952
808.6185, 45.94824
809.1006, 33.50806
809.5827, 24.50000
810.0648, 21.85181
810.5469, 21.20093
811.0291, 20.16821
811.5112, 18.95972
811.9933, 17.78516
812.4754, 15.98413
812.9575, 15.49536
813.4396, 17.84424
813.9218, 20.11963
814.4039, 18.04663
814.8860, 11.15137
815.3681, 8.145508
815.8502, 10.52173
816.3323, 14.58203
816.8145, 16.83081
817.2966, 17.50854
817.7787, 16.81567
818.2608, 14.42017
818.7429, 12.15405
819.2250, 8.175293
819.7072, 6.267334
820.1893, 10.97388
820.6714, 28.10010
821.1535, 38.95874
821.6356, 41.96436
822.1177, 41.36426
822.5999, 41.32886
823.0820, 41.72119
823.5641, 41.06372
824.0462, 38.88867
824.5283, 38.08496
825.0104, 43.86035
825.4926, 50.89355
825.9747, 53.26050
826.4568, 48.16284
826.9389, 44.32373
827.4210, 41.94678
827.9031, 43.13037
828.3853, 50.19409
828.8674, 64.99561
829.3495, 75.37769
829.8316, 79.87354
830.3137, 85.18994
830.7958, 98.91968
831.2780, 116.9441
831.7601, 129.9800
832.2422, 136.8181
832.7243, 143.8425
833.2064, 150.6211
833.6885, 161.3926
834.1707, 183.2502
834.6528, 224.0659
835.1349, 245.2722
835.6170, 244.9683
836.0991, 228.4651
836.5812, 193.2734
837.0634, 141.2007
837.5455, 99.88574
838.0276, 69.05786
838.5097, 46.75439
838.9918, 33.78638
839.4739, 26.45166
839.9561, 21.25610
840.4382, 17.82788
840.9203, 16.09839
841.4024, 17.35791
841.8845, 19.06470
842.3666, 20.61768
842.8488, 21.97168
843.3309, 20.29858
843.8130, 15.17920
844.2951, 9.509766
844.7772, 3.327148
845.2593, 1.651611
845.7415, 0.5983890
846.2236, 8.629395
846.7057, 14.47754
847.1878, 11.66309
847.6699, 7.354736
848.1520, 6.032715
848.6342, 7.272217
849.1163, 5.573242
849.5984, 2.703125
850.0805, 6.613037
850.5626, 0.8962400
851.0447, 10.78882
851.5269, 16.24609
852.0090, 16.04810
852.4911, 14.99243
852.9732, 14.48438
853.4553, 14.99561
853.9374, 18.46460
854.4196, 23.26050
854.9017, 25.39771
855.3839, 18.93945
855.8660, 15.81348
856.3481, 21.20654
856.8302, 29.82666
857.3123, 28.23755
857.7944, 15.33154
858.2766, 7.447021
858.7587, 9.955078
859.2408, 16.50391
859.7229, 18.47778
860.2050, 17.48584
860.6871, 16.72241
861.1693, 17.61279
861.6514, 18.41675
862.1335, 18.06787
862.6156, 17.51147
863.0977, 18.12524
863.5798, 20.75317
864.0620, 21.95557
864.5441, 21.02148
865.0262, 19.63232
865.5083, 19.86475
865.9904, 21.39209
866.4725, 23.41992
866.9547, 25.94849
867.4368, 28.09204
867.9189, 29.09155
868.4010, 29.47827
868.8831, 29.90186
869.3652, 31.08472
869.8474, 30.19775
870.3295, 25.55762
870.8116, 21.59180
871.2937, 22.75635
871.7758, 28.44873
872.2579, 32.19531
872.7401, 33.90918
873.2222, 31.86353
873.7043, 18.60791
874.1864, 4.942383
874.6685, 3.625244
875.1506, 15.73999
875.6328, 24.41675
876.1149, 24.51318
876.5970, 21.16016
877.0791, 14.85376
877.5612, 6.182129
878.0433, 1.327393
878.5255, 0.3581540
879.0076, 1.411865
879.4897, 4.794922
879.9718, 8.736572
880.4539, 11.53101
880.9360, 12.85229
881.4182, 11.55444
881.9003, 1.902588
882.3824, 4.625244
882.8645, 1.698242
883.3466, 6.831787
883.8287, 11.18481
884.3109, 10.60376
884.7930, 10.03687
885.2751, 10.64429
885.7572, 12.08276
886.2393, 14.69238
886.7214, 17.63257
887.2036, 18.82544
887.6857, 17.24536
888.1678, 14.48364
888.6499, 10.49512
889.1320, 5.875977
889.6141, 1.172363
890.0963, 4.802734
890.5784, 6.633057
891.0605, 3.225342
891.5426, 2.075439
892.0247, 6.272217
892.5068, 9.352295
892.9890, 10.16211
893.4711, 8.155273
893.9532, 6.664063
894.4353, 7.895264
894.9174, 10.38452
895.3995, 13.37524
895.8817, 17.32739
896.3638, 19.81714
896.8459, 20.47412
897.3280, 20.33813
897.8101, 19.71655
898.2922, 18.90063
898.7744, 18.79907
899.2565, 19.21387
899.7386, 20.45142
900.2207, 22.86572
900.7028, 25.85449
901.1849, 29.50830
901.6671, 33.55688
902.1492, 36.68164
902.6313, 39.26221
903.1134, 39.98145
903.5955, 38.02881
904.0776, 34.60083
904.5598, 32.86987
905.0419, 32.74121
905.5240, 33.23633
906.0062, 34.27148
906.4883, 35.47021
906.9704, 35.88354
907.4525, 36.31396
907.9346, 37.88232
908.4167, 42.64136
908.8989, 47.63477
909.3810, 53.59302
909.8631, 58.28979
910.3452, 57.79663
910.8273, 53.11572
911.3094, 51.69165
911.7916, 54.84180
912.2737, 57.85059
912.7558, 54.44824
913.2379, 49.39136
913.7200, 48.54907
914.2021, 53.96899
914.6843, 56.54980
915.1664, 53.40112
915.6485, 49.20850
916.1306, 46.26855
916.6127, 44.52368
917.0948, 42.39966
917.5770, 39.91846
918.0591, 39.29907
918.5412, 44.98950
919.0233, 51.02759
919.5054, 50.36108
919.9875, 44.22363
920.4697, 38.41138
920.9518, 33.51196
921.4339, 30.53394
921.9160, 30.19824
922.3981, 31.52295
922.8802, 32.10938
923.3624, 31.95508
923.8445, 31.97632
924.3266, 32.64160
924.8087, 33.07959
925.2908, 32.43726
925.7729, 30.94019
926.2551, 28.84546
926.7372, 25.28711
927.2193, 22.96753
927.7014, 23.11841
928.1835, 23.66797
928.6656, 22.51270
929.1478, 19.75146
929.6299, 16.84644
930.1120, 13.85474
930.5941, 11.69702
931.0762, 11.31665
931.5583, 12.11719
932.0405, 13.59766
932.5226, 15.66113
933.0047, 18.04590
933.4868, 21.33838
933.9689, 23.89990
934.4510, 24.64282
934.9332, 24.14062
935.4153, 26.09888
935.8974, 30.25537
936.3795, 32.44946
936.8616, 29.16235
937.3438, 24.91235
937.8259, 23.97778
938.3080, 25.43384
938.7901, 27.48975
939.2722, 32.22021
939.7543, 33.74438
940.2365, 30.16602
940.7186, 24.71094
941.2007, 20.88965
941.6828, 18.47852
942.1649, 16.98389
942.6470, 16.45215
943.1292, 16.03174
943.6113, 15.58032
944.0934, 14.48389
944.5755, 11.58105
945.0576, 6.087646
945.5397, 3.117676
946.0219, 4.769287
946.5040, 5.999756
946.9861, 3.130615
947.4682, 2.576172
947.9503, 1.795654
948.4324, 4.741943
948.9146, 9.309570
949.3967, 5.284912
949.8788, 0.8095700
950.3609, 5.333496
950.8430, 8.069580
951.3251, 8.327393
951.8073, 5.498047
952.2894, 1.465088
952.7715, 3.784912
953.2536, 9.715332
953.7357, 17.75464
954.2179, 26.06030
954.7000, 25.90503
955.1821, 13.89893
955.6642, 1.278076
956.1464, 5.607910
956.6285, 8.496338
957.1106, 8.209229
957.5927, 3.760010
958.0748, 2.071533
958.5569, 4.464111
959.0391, 6.136475
959.5212, 2.517334
960.0033, 3.979736
960.4854, 5.686768
960.9675, 3.319824
961.4496, 1.063232
961.9318, 2.187012
962.4139, 2.906250
962.8960, 0.1198730
963.3781, 4.836426
963.8602, 5.122314
964.3423, 0.5541990
964.8245, 4.343994
965.3066, 4.728760
965.7887, 2.743896
966.2708, 3.099854
966.7529, 9.444824
967.2350, 8.438965
967.7172, 4.799561
968.1993, 14.21729
968.6814, 10.42358
969.1635, 3.389404
969.6456, 0.1281740
970.1277, 0.1445310
970.6099, 0.1171880
971.0920, 0.3176270
971.5741, 0.2700200
972.0562, 1.369629
972.5383, 3.428467
973.0204, 3.974121
973.5026, 3.491699
973.9847, 4.158936
974.4668, 8.555176
974.9489, 11.79932
975.4310, 13.14160
975.9131, 12.64014
976.3953, 8.841064
976.8774, 2.237305
977.3595, 1.290527
977.8416, 9.207764
978.3237, 17.40918
978.8058, 18.29077
979.2880, 15.13843
979.7701, 11.00049
980.2522, 5.370850
980.7343, 2.530518
981.2164, 3.317383
981.6985, 5.490723
982.1807, 8.095459
982.6628, 10.92334
983.1449, 13.94067
983.6270, 16.71826
984.1091, 16.68970
984.5912, 8.595215
985.0734, 1.101563
985.5555, 1.062012
986.0376, 1.132568
986.5197, 4.609375
987.0018, 10.05981
987.4839, 14.47144
987.9661, 17.43750
988.4482, 19.08765
988.9303, 18.89111
989.4124, 17.77832
989.8945, 17.57129
990.3766, 18.78955
990.8588, 19.84741
991.3409, 20.67676
991.8230, 20.60034
992.3051, 18.48926
992.7872, 14.56909
993.2693, 15.04663
993.7515, 20.05859
994.2336, 25.21362
994.7157, 28.49731
995.1978, 30.22607
995.6799, 29.71167
996.1620, 28.01123
996.6442, 27.63696
997.1263, 30.66553
997.6084, 33.03149
998.0905, 34.28271
998.5726, 34.75122
999.0547, 34.60229
999.5369, 33.99609
1000.019, 34.25342
1000.501, 35.62378
1000.983, 36.27808
1001.465, 33.99438
1001.947, 31.23779
1002.430, 30.33569
1002.912, 31.36816
1003.394, 30.11255
1003.876, 25.58984
1004.358, 22.69458
1004.840, 23.76196
1005.322, 26.58325
1005.804, 27.27393
1006.287, 27.16650
1006.769, 28.93237
1007.251, 36.03638
1007.733, 40.87695
1008.215, 39.11035
1008.697, 35.59033
1009.179, 34.84326
1009.661, 37.36304
1010.143, 39.37329
1010.626, 40.76123
1011.108, 41.37915
1011.590, 39.64429
1012.072, 38.17700
1012.554, 40.71338
1013.036, 46.64185
1013.518, 49.96533
1014.000, 49.05835
1014.483, 46.30688
1014.965, 41.84058
1015.447, 36.93311
1015.929, 32.55493
1016.411, 29.01318
1016.893, 28.62573
1017.375, 32.96924
1017.857, 38.46704
1018.339, 44.29517
1018.822, 48.73853
1019.304, 49.71411
1019.786, 46.52954
1020.268, 46.62671
1020.750, 50.10596
1021.232, 54.91113
1021.714, 61.29565
1022.196, 68.08691
1022.679, 72.70435
1023.161, 75.41553
1023.643, 77.15381
1024.125, 75.03784
1024.607, 75.99194
1025.089, 83.23340
1025.571, 92.97388
1026.053, 96.92334
1026.535, 96.40088
1027.018, 103.4456
1027.500, 119.7710
1027.982, 137.2102
1028.464, 150.2266
1028.946, 161.1931
1029.428, 171.0232
1029.910, 180.0850
1030.392, 191.3801
1030.875, 205.3352
1031.357, 220.2126
1031.839, 235.8418
1032.321, 251.6091
1032.803, 264.9880
1033.285, 277.7888
1033.767, 294.0090
1034.249, 318.3657
1034.731, 338.9363
1035.214, 348.8386
1035.696, 357.8999
1036.178, 374.3394
1036.660, 397.9360
1037.142, 417.9470
1037.624, 434.1589
1038.106, 450.3433
1038.588, 468.0798
1039.071, 487.7639
1039.553, 511.7227
1040.035, 537.9619
1040.517, 560.1287
1040.999, 576.6084
1041.481, 593.8337
1041.963, 613.1411
1042.445, 633.2827
1042.927, 650.8992
1043.410, 669.2737
1043.892, 696.3569
1044.374, 734.3159
1044.856, 771.9265
1045.338, 805.0371
1045.820, 836.3887
1046.302, 861.1941
1046.784, 885.4097
1047.266, 938.3064
1047.749, 1019.643
1048.231, 1122.374
1048.713, 1237.447
1049.195, 1381.940
1049.677, 1564.235
1050.159, 1787.918
1050.641, 2063.401
1051.123, 2402.297
1051.606, 2759.345
1052.088, 3144.444
1052.570, 3514.399
1053.052, 3837.805
1053.534, 4130.201
1054.016, 4407.960
1054.498, 4680.221
1054.980, 4984.050
1055.463, 5322.771
1055.945, 5712.288
1056.427, 6137.485
1056.909, 6620.793
1057.391, 7180.464
1057.873, 7823.078
1058.355, 8600.152
1058.837, 9518.812
1059.319, 10588.50
1059.802, 11805.25
1060.284, 13155.61
1060.766, 14669.90
1061.248, 16334.06
1061.730, 18057.33
1062.212, 19976.05
1062.694, 21288.03
1063.176, 21809.32
1063.658, 21364.22
1064.141, 19272.15
1064.623, 16158.89
1065.105, 13017.41
1065.587, 9881.402
1066.069, 7333.919
1066.551, 5460.264
1067.033, 4055.703
1067.515, 3045.963
1067.998, 2380.269
1068.480, 1873.483
1068.962, 1512.029
1069.444, 1232.595
1069.926, 1036.722
1070.408, 878.2097
1070.890, 748.4399
1071.372, 641.9678
1071.854, 555.6248
1072.337, 491.4380
1072.819, 435.4539
1073.301, 387.2222
1073.783, 343.8020
1074.265, 302.5698
1074.747, 265.5276
1075.229, 235.1350
1075.711, 211.5251
1076.193, 191.4844
1076.676, 176.4382
1077.158, 160.3613
1077.640, 140.7219
1078.122, 121.2263
1078.604, 109.0969
1079.086, 101.8450
1079.568, 94.45386
1080.051, 85.72534
1080.533, 76.79932
1081.015, 67.36816
1081.497, 58.57666
1081.979, 51.18213
1082.461, 45.09692
1082.943, 38.37891
1083.425, 31.42285
1083.907, 27.75415
1084.390, 32.21899
1084.872, 35.97168
1085.354, 32.37305
1085.836, 25.30908
1086.318, 19.44873
1086.800, 14.27319
1087.282, 14.29785
1087.764, 20.52563
1088.246, 24.33521
1088.729, 13.34131
1089.211, 0.1289060
1089.693, 2.063232
1090.175, 15.14624
1090.657, 22.20532
1091.139, 16.68872
1091.621, 11.43896
1092.103, 7.650391
1092.586, 5.641113
1093.068, 6.937012
1093.550, 10.12671
1094.032, 12.62183
1094.514, 14.11426
1094.996, 12.52563
1095.478, 2.724854
1095.960, 5.452393
1096.443, 8.291748
1096.925, 6.903809
1097.407, 3.196777
1097.889, 2.226807
1098.371, 4.267334
1098.853, 0.3994140
1099.335, 2.931152
1099.817, 1.194336
1100.299, 6.115967
1100.781, 5.054199
1101.264, 2.295166
1101.746, 5.764404
1102.228, 5.154541
1102.710, 3.584961
1103.192, 1.514404
1103.674, 0.6569820
1104.156, 4.896729
1104.638, 11.06372
1105.121, 13.84741
1105.603, 9.409912
1106.085, 7.187012
1106.567, 7.319336
1107.049, 9.151123
1107.531, 14.06079
1108.013, 19.42700
1108.495, 19.43384
1108.978, 15.11475
1109.460, 11.00928
1109.942, 10.01440
1110.424, 7.410889
1110.906, 0.9819340
1111.388, 5.368408
1111.870, 4.778564
1112.352, 0.5305180
1112.834, 0.3034670
1113.317, 7.940918
1113.799, 13.74048
1114.281, 8.607910
1114.763, 4.847900
1115.245, 10.44849
1115.727, 21.01270
1116.209, 25.23584
1116.691, 23.34302
1117.173, 20.65186
1117.656, 18.12476
1118.138, 16.35083
1118.620, 15.50439
1119.102, 15.92041
1119.584, 18.39209
1120.066, 22.81885
1120.548, 26.36914
1121.030, 28.81689
1121.513, 32.06958
1121.995, 37.61963
1122.477, 42.63135
1122.959, 42.84277
1123.441, 40.67480
1123.923, 39.55420
1124.405, 40.61328
1124.887, 40.83618
1125.370, 38.95435
1125.852, 39.81567
1126.334, 49.47095
1126.816, 61.55054
1127.298, 60.42065
1127.780, 51.10010
1128.262, 45.53101
1128.744, 50.90088
1129.226, 56.15527
1129.709, 60.67261
1130.191, 63.92871
1130.673, 64.91406
1131.155, 64.28662
1131.637, 64.71387
1132.119, 66.07861
1132.601, 67.33130
1133.083, 67.60986
1133.566, 68.05957
1134.048, 69.53735
1134.530, 70.98389
1135.012, 70.19019
1135.494, 67.59570
1135.976, 68.23755
1136.458, 72.56128
1136.940, 77.95215
1137.422, 86.14307
1137.905, 91.37451
1138.387, 88.08960
1138.869, 79.64331
1139.351, 73.67188
1139.833, 70.15942
1140.315, 68.67603
1140.797, 69.25244
1141.279, 71.04565
1141.761, 74.40039
1142.244, 77.77905
1142.726, 79.70215
1143.208, 80.16553
1143.690, 81.08350
1144.172, 82.76904
1144.654, 82.48804
1145.136, 78.42310
1145.618, 74.88159
1146.101, 78.05322
1146.583, 84.36841
1147.065, 89.88794
1147.547, 94.04810
1148.029, 95.88867
1148.511, 94.37500
1148.993, 93.96899
1149.475, 97.11890
1149.958, 101.7446
1150.440, 104.4644
1150.922, 106.2166
1151.404, 108.8625
1151.886, 114.0896
1152.368, 117.0291
1152.850, 116.8516
1153.332, 115.8777
1153.814, 115.5073
1154.297, 115.2495
1154.779, 112.5632
1155.261, 108.9739
1155.743, 108.6021
1156.225, 115.5042
1156.707, 121.8450
1157.189, 126.6987
1157.671, 130.4578
1158.153, 132.8230
1158.636, 134.1780
1159.118, 135.4548
1159.600, 136.8772
1160.082, 139.9285
1160.564, 149.2104
1161.046, 154.9592
1161.528, 152.5388
1162.010, 147.4709
1162.493, 145.9622
1162.975, 147.7109
1163.457, 150.2969
1163.939, 153.3486
1164.421, 155.6665
1164.903, 155.7817
1165.385, 155.6941
1165.867, 156.9363
1166.349, 158.3401
1166.832, 156.9023
1167.314, 152.9397
1167.796, 152.7197
1168.278, 157.0920
1168.760, 160.1362
1169.242, 154.6294
1169.724, 148.9590
1170.206, 148.5198
1170.688, 151.7944
1171.171, 155.8862
1171.653, 160.7690
1172.135, 162.0720
1172.617, 158.3750
1173.099, 156.3577
1173.581, 164.5449
1174.063, 173.9929
1174.545, 177.2346
1175.028, 175.5068
1175.510, 174.6960
1175.992, 174.8420
1176.474, 175.1489
1176.956, 175.3403
1177.438, 175.8689
1177.920, 177.0398
1178.402, 178.8271
1178.885, 182.1155
1179.367, 186.6094
1179.849, 186.1477
1180.331, 180.0986
1180.813, 177.4480
1181.295, 182.2825
1181.777, 189.0374
1182.259, 192.2383
1182.741, 194.1411
1183.224, 197.5298
1183.706, 202.8215
1184.188, 205.5625
1184.670, 205.5593
1185.152, 205.7285
1185.634, 207.6177
1186.116, 207.7625
1186.598, 210.1084
1187.081, 210.1431
1187.563, 212.2214
1188.045, 213.6335
1188.527, 214.5352
1189.009, 218.9983
1189.491, 219.0063
1189.973, 223.1541
1190.455, 229.1079
1190.938, 236.0693
1191.420, 242.4705
1191.902, 245.2153
1192.384, 241.5088
1192.866, 241.5479
1193.348, 246.3015
1193.830, 250.8123
1194.312, 250.7583
1194.794, 250.1172
1195.276, 254.4075
1195.759, 260.6958
1196.241, 263.8882
1196.723, 261.5159
1197.205, 260.7915
1197.687, 261.6406
1198.169, 263.8022
1198.651, 267.8535
1199.133, 272.6401
1199.616, 276.6626
1200.098, 279.7947
1200.580, 281.9866
1201.062, 283.4944
1201.544, 283.5505
1202.026, 281.6843
1202.508, 279.7480
1202.990, 279.4307
1203.473, 279.9270
1203.955, 280.7935
1204.437, 281.6345
1204.919, 281.1816
1205.401, 278.4866
1205.883, 276.7229
1206.365, 276.0891
1206.847, 276.1016
1207.329, 277.8044
1207.812, 278.8989
1208.294, 274.8967
1208.776, 267.3667
1209.258, 263.6379
1209.740, 266.5371
1210.222, 267.4905
1210.704, 265.2439
1211.186, 262.5417
1211.668, 262.5271
1212.151, 263.4280
1212.633, 263.3555
1213.115, 262.2161
1213.597, 259.6765
1214.079, 254.3071
1214.561, 252.5195
1215.043, 255.9116
1215.525, 259.5422
1216.008, 257.0908
1216.490, 252.6013
1216.972, 251.0127
1217.454, 252.1990
1217.936, 252.7820
1218.418, 252.4775
1218.900, 251.8599
1219.382, 251.2400
1219.865, 249.5063
1220.347, 243.5378
1220.829, 237.1177
1221.311, 235.0315
1221.793, 237.1179
1222.275, 238.5405
1222.757, 239.5256
1223.239, 237.5808
1223.721, 231.4221
1224.203, 226.0591
1224.686, 230.1816
1225.168, 235.6179
1225.650, 233.0374
1226.132, 222.5361
1226.614, 214.4817
1227.096, 209.1211
1227.578, 205.1101
1228.061, 202.3215
1228.543, 199.9504
1229.025, 197.5435
1229.507, 194.7329
1229.989, 191.1157
1230.471, 186.6238
1230.953, 181.0598
1231.435, 174.1206
1231.917, 169.6145
1232.400, 169.0386
1232.882, 167.6741
1233.364, 160.3782
1233.846, 150.8511
1234.328, 142.2544
1234.810, 134.6248
1235.292, 126.4705
1235.774, 117.6057
1236.256, 113.8030
1236.739, 117.8625
1237.221, 119.9417
1237.703, 109.7319
1238.185, 95.85986
1238.667, 85.88965
1239.149, 78.59009
1239.631, 65.99316
1240.113, 48.43921
1240.596, 36.37231
1241.078, 33.31299
1241.560, 30.50342
1242.042, 20.33154
1242.524, 9.044434
1243.006, 0.9545900
1243.488, 4.864502
1243.970, 11.61499
1244.453, 19.32739
1244.935, 17.77612
1245.417, 17.84399
1245.899, 18.35278
1246.381, 19.87964
1246.863, 19.90576
1247.345, 16.89380
1247.827, 11.86108
1248.309, 8.239014
1248.792, 5.843018
1249.274, 3.239014
1249.756, 7.6416001E-02
1250.238, 2.162354
1250.720, 3.481934
1251.202, 2.559814
1251.684, 2.934570
1252.166, 9.471191
1252.648, 5.531006
1253.131, 5.058350
1253.613, 10.46484
1254.095, 7.312500
1254.577, 4.611084
1255.059, 5.792480
1255.541, 6.873779
1256.023, 5.702881
1256.505, 4.761475
1256.988, 10.91724
1257.470, 20.67822
1257.952, 25.76440
1258.434, 23.97559
1258.916, 23.95630
1259.398, 27.06445
1259.880, 31.75781
1260.362, 37.92310
1260.844, 44.89600
1261.327, 53.83398
1261.809, 61.64258
1262.291, 62.61353
1262.773, 54.94702
1263.255, 52.31665
1263.737, 56.47534
1264.219, 62.36060
1264.701, 68.40991
1265.183, 74.63257
1265.666, 81.09961
1266.148, 87.74463
1266.630, 94.87549
1267.112, 102.4814
1267.594, 107.2454
1268.076, 108.4197
1268.558, 112.2483
1269.040, 121.3086
1269.523, 130.3406
1270.005, 135.2407
1270.487, 136.5786
1270.969, 133.3271
1271.451, 126.5986
1271.933, 126.6152
1272.415, 132.4912
1272.897, 134.0576
1273.380, 127.5391
1273.862, 120.5757
1274.344, 117.9072
1274.826, 116.0317
1275.308, 115.6357
1275.790, 115.0679
1276.272, 110.6182
1276.754, 102.1519
1277.236, 91.49219
1277.719, 83.32764
1278.201, 79.76562
1278.683, 82.36719
1279.165, 83.28613
1279.647, 78.50879
1280.129, 72.82178
1280.611, 71.73438
1281.093, 73.95508
1281.576, 75.44189
1282.058, 75.83252
1282.540, 75.32715
1283.022, 74.95508
1283.504, 72.23389
1283.986, 65.07080
1284.468, 57.70264
1284.950, 57.54004
1285.432, 61.03613
1285.915, 63.37061
1286.397, 63.63574
1286.879, 63.65820
1287.361, 63.22217
1287.843, 65.10889
1288.325, 70.15088
1288.807, 75.12646
1289.289, 73.13281
1289.771, 68.61963
1290.254, 69.41748
1290.736, 64.99561
1291.218, 72.84082
1291.700, 61.23584
1292.182, 55.56592
1292.664, 58.28613
1293.146, 62.63037
1293.628, 65.51465
1294.111, 66.15186
1294.593, 63.10889
1295.075, 56.40967
1295.557, 44.36182
1296.039, 26.99658
1296.521, 12.72900
1297.003, 3.286621
1297.485, 0.7587890
1297.968, 5.230957
1298.450, 14.77832
1298.932, 24.67236
1299.414, 29.32520
1299.896, 23.67578
1300.378, 14.73438
1300.860, 7.107422
1301.342, 0.1274410
1301.824, 0.0000000E+00
##END=



