##NAMES=Pickeringite
##RRUFFID=R060921
##IDEAL CHEMISTRY=MgAl_2_(SO_4_)_4_&#183;22H_2_O
##LOCALITY=Grotta de Faraglione, Vulcano, Italy
##OWNER=RRUFF
##SOURCE=Michael Scott
##DESCRIPTION=White parallel fibrous texture associated with blue massive magnesioaubertite, R060344
##STATUS=The identification of this mineral is not yet confirmed.
##URL=rruff.info/R060921
148.0394, 0.0000000E+00
148.5215, 11.89551
149.0037, 21.70337
149.4858, 25.62256
149.9679, 27.95435
150.4500, 33.13281
150.9321, 49.01562
151.4142, 52.85645
151.8964, 40.40503
152.3785, 33.05151
152.8606, 16.78882
153.3427, 6.363770
153.8248, 1.353760
154.3069, 1.112549
154.7890, 16.34497
155.2712, 25.13501
155.7533, 18.18872
156.2354, 1.892090
156.7175, 11.42163
157.1996, 5.156250
157.6817, 28.47827
158.1639, 43.69922
158.6460, 38.77295
159.1281, 33.05371
159.6102, 32.06885
160.0923, 35.97729
160.5744, 41.42822
161.0566, 49.62671
161.5387, 57.74878
162.0208, 62.68164
162.5029, 56.38330
162.9850, 51.74878
163.4671, 56.93262
163.9493, 74.12964
164.4314, 90.33105
164.9135, 103.1606
165.3956, 110.5398
165.8777, 109.1311
166.3598, 86.22656
166.8420, 60.98657
167.3241, 48.04346
167.8062, 51.87842
168.2883, 60.70801
168.7704, 72.07837
169.2525, 83.34180
169.7347, 87.78418
170.2168, 76.78809
170.6989, 59.37524
171.1810, 43.60645
171.6631, 28.94238
172.1452, 20.26440
172.6273, 27.15552
173.1095, 45.74463
173.5916, 60.15234
174.0737, 52.93555
174.5558, 36.54785
175.0379, 30.66162
175.5201, 47.07227
176.0022, 68.09741
176.4843, 70.55908
176.9664, 56.17749
177.4485, 40.59839
177.9306, 35.85645
178.4128, 38.82080
178.8949, 42.86987
179.3770, 47.13745
179.8591, 50.63110
180.3412, 51.48682
180.8233, 49.68408
181.3055, 46.69312
181.7876, 41.46045
182.2697, 35.62036
182.7518, 34.61353
183.2339, 47.18823
183.7160, 65.17114
184.1982, 64.84229
184.6803, 43.87988
185.1624, 21.23096
185.6445, 21.65430
186.1266, 41.54639
186.6087, 58.84912
187.0909, 62.01953
187.5730, 54.27148
188.0551, 46.11401
188.5372, 36.39722
189.0193, 30.44019
189.5014, 40.69556
189.9835, 66.29321
190.4657, 85.39331
190.9478, 80.51611
191.4299, 56.05493
191.9120, 45.85962
192.3941, 54.65503
192.8762, 72.16504
193.3584, 82.14380
193.8405, 84.57788
194.3226, 80.73022
194.8047, 66.70361
195.2868, 43.24780
195.7689, 30.82568
196.2511, 34.00220
196.7332, 45.76050
197.2153, 48.89355
197.6974, 42.41187
198.1795, 34.69189
198.6616, 30.74097
199.1438, 30.67017
199.6259, 32.27173
200.1080, 35.13062
200.5901, 39.64795
201.0722, 47.71899
201.5543, 60.24072
202.0365, 72.91455
202.5186, 80.70264
203.0007, 81.85010
203.4828, 92.51074
203.9649, 118.3147
204.4470, 152.3210
204.9291, 166.2461
205.4113, 155.5725
205.8934, 137.9714
206.3755, 126.1372
206.8576, 119.9060
207.3397, 120.5886
207.8218, 131.2209
208.3040, 150.0310
208.7861, 160.4626
209.2682, 159.9712
209.7503, 156.3123
210.2324, 155.1394
210.7145, 154.9666
211.1967, 164.8425
211.6788, 193.1001
212.1609, 238.3091
212.6430, 255.6445
213.1251, 234.4119
213.6072, 201.9304
214.0894, 186.8108
214.5715, 194.9165
215.0536, 204.8774
215.5357, 209.3369
216.0178, 206.9934
216.4999, 211.8650
216.9821, 229.4700
217.4642, 248.0168
217.9463, 250.7051
218.4284, 227.4871
218.9105, 212.0747
219.3926, 217.3977
219.8748, 247.5298
220.3569, 261.2937
220.8390, 251.9551
221.3211, 232.2759
221.8032, 219.5916
222.2853, 218.2520
222.7674, 215.5940
223.2496, 207.2078
223.7317, 191.0837
224.2138, 178.6189
224.6959, 169.3652
225.1780, 164.4087
225.6601, 166.5623
226.1423, 182.1257
226.6244, 193.1208
227.1065, 191.7095
227.5886, 170.2896
228.0707, 161.9509
228.5528, 173.8596
229.0350, 195.3843
229.5171, 208.4321
229.9992, 211.5405
230.4813, 208.8765
230.9634, 200.7622
231.4455, 184.3220
231.9277, 170.4094
232.4098, 157.6038
232.8919, 147.9883
233.3740, 147.1648
233.8561, 162.4421
234.3382, 174.7012
234.8204, 176.4131
235.3025, 162.9653
235.7846, 152.2690
236.2667, 145.8257
236.7488, 141.5645
237.2309, 135.6980
237.7130, 129.9998
238.1952, 120.0950
238.6773, 102.2263
239.1594, 68.50781
239.6415, 48.61157
240.1236, 47.16333
240.6057, 57.94482
241.0879, 67.50537
241.5700, 77.46851
242.0521, 83.59985
242.5342, 82.74585
243.0163, 68.39966
243.4984, 63.73242
243.9806, 75.46777
244.4627, 94.66797
244.9448, 98.56104
245.4269, 75.02759
245.9090, 53.86499
246.3911, 48.06372
246.8733, 65.54126
247.3554, 79.35059
247.8375, 91.06030
248.3196, 98.49097
248.8017, 94.69507
249.2838, 71.31177
249.7660, 49.77759
250.2481, 40.01636
250.7302, 48.81885
251.2123, 53.01611
251.6944, 50.90259
252.1765, 45.03564
252.6587, 41.31494
253.1408, 39.91211
253.6229, 40.77051
254.1050, 45.55127
254.5871, 59.96484
255.0692, 62.77979
255.5513, 48.61328
256.0335, 24.99072
256.5156, 10.40869
256.9977, 9.003418
257.4798, 9.352051
257.9619, 5.665283
258.4441, 5.516113
258.9262, 11.25293
259.4083, 11.05981
259.8904, 5.775879
260.3725, 3.401123
260.8546, 18.94092
261.3368, 33.50317
261.8188, 43.78223
262.3010, 49.06592
262.7831, 52.27515
263.2652, 52.92944
263.7473, 51.74487
264.2294, 50.73926
264.7115, 50.78784
265.1937, 48.96436
265.6758, 43.68628
266.1579, 34.38721
266.6400, 23.88574
267.1221, 10.97144
267.6042, 2.006104
268.0864, 10.01440
268.5685, 12.70972
269.0506, 11.32715
269.5327, 4.569092
270.0148, 9.796631
270.4969, 18.18726
270.9791, 20.05493
271.4612, 16.66064
271.9433, 8.367676
272.4254, 7.266602
272.9075, 18.85962
273.3896, 20.00732
273.8718, 9.275391
274.3539, 0.2739260
274.8360, 8.385986
275.3181, 15.77808
275.8002, 25.09521
276.2823, 37.59912
276.7645, 45.49731
277.2466, 42.87524
277.7287, 28.64844
278.2108, 22.23828
278.6929, 26.03076
279.1750, 32.99829
279.6572, 29.68848
280.1393, 14.26074
280.6214, 3.693115
281.1035, 7.699951
281.5856, 25.69019
282.0677, 40.03516
282.5499, 51.80200
283.0320, 57.22021
283.5141, 44.64648
283.9962, 12.98022
284.4783, 8.421875
284.9604, 2.357910
285.4426, 27.45947
285.9247, 49.10693
286.4068, 62.69556
286.8889, 67.84399
287.3710, 55.54639
287.8531, 27.43555
288.3353, 14.77588
288.8174, 40.08740
289.2995, 91.66040
289.7816, 117.0220
290.2637, 112.7246
290.7458, 100.3699
291.2280, 105.8772
291.7101, 126.1868
292.1922, 140.8591
292.6743, 140.4407
293.1564, 129.6116
293.6385, 118.3933
294.1207, 106.5422
294.6028, 98.48315
295.0849, 102.1289
295.5670, 114.2446
296.0491, 121.9253
296.5312, 114.7119
297.0133, 103.9695
297.4955, 116.0322
297.9776, 150.5208
298.4597, 184.4097
298.9418, 195.0547
299.4239, 189.4309
299.9060, 183.5964
300.3882, 181.0701
300.8703, 181.7961
301.3524, 185.8552
301.8345, 193.1052
302.3166, 202.9351
302.7987, 217.2363
303.2809, 233.2703
303.7630, 246.4915
304.2451, 254.2351
304.7272, 261.7390
305.2093, 272.2112
305.6914, 286.4951
306.1736, 299.6592
306.6557, 307.3337
307.1378, 315.2231
307.6199, 326.6846
308.1020, 345.3894
308.5841, 363.6948
309.0663, 375.4536
309.5484, 382.3035
310.0305, 386.4075
310.5126, 385.5908
310.9947, 383.8669
311.4768, 385.2805
311.9590, 393.0005
312.4411, 398.9194
312.9232, 397.3193
313.4053, 390.2712
313.8874, 382.7878
314.3695, 377.9785
314.8517, 373.6008
315.3338, 368.5498
315.8159, 363.6265
316.2980, 353.9434
316.7801, 334.8677
317.2622, 310.2732
317.7444, 286.7917
318.2265, 263.7568
318.7086, 245.0854
319.1907, 233.3059
319.6728, 229.5964
320.1549, 229.1660
320.6371, 232.7275
321.1192, 239.3545
321.6013, 247.6553
322.0834, 266.9355
322.5655, 279.6550
323.0476, 276.3523
323.5298, 255.2952
324.0119, 238.4758
324.4940, 228.8330
324.9761, 224.8931
325.4582, 225.0674
325.9403, 239.2175
326.4225, 246.9111
326.9046, 241.2317
327.3867, 221.6531
327.8688, 208.5559
328.3509, 206.6809
328.8330, 208.3438
329.3151, 208.1179
329.7972, 204.2627
330.2794, 200.6116
330.7615, 197.8408
331.2436, 196.3435
331.7257, 195.7031
332.2078, 199.8159
332.6899, 200.2061
333.1721, 189.9351
333.6542, 156.5574
334.1363, 139.4160
334.6184, 148.5854
335.1005, 174.2808
335.5826, 183.2864
336.0648, 168.4316
336.5469, 150.2617
337.0290, 138.5872
337.5111, 134.4578
337.9932, 132.2275
338.4753, 131.0964
338.9575, 132.3201
339.4396, 140.1292
339.9217, 157.0818
340.4038, 169.8579
340.8859, 171.1858
341.3680, 160.5022
341.8502, 152.7876
342.3323, 148.5945
342.8144, 145.3215
343.2965, 137.0090
343.7786, 122.9609
344.2607, 109.4846
344.7429, 95.48633
345.2250, 83.55420
345.7071, 90.28174
346.1892, 118.7537
346.6713, 148.0867
347.1534, 155.6160
347.6356, 144.0737
348.1177, 129.2263
348.5998, 113.2776
349.0819, 98.24927
349.5640, 87.71045
350.0461, 81.48804
350.5283, 79.97314
351.0104, 89.46899
351.4925, 103.3750
351.9746, 106.3879
352.4567, 89.76099
352.9388, 68.17163
353.4210, 58.57666
353.9031, 59.40259
354.3852, 63.65186
354.8673, 68.15405
355.3494, 73.27344
355.8315, 80.81958
356.3137, 93.56567
356.7958, 102.1326
357.2779, 96.17188
357.7600, 80.42578
358.2421, 65.59570
358.7242, 55.08423
359.2064, 48.38184
359.6885, 47.90723
360.1706, 55.98633
360.6527, 57.35767
361.1348, 31.93579
361.6169, 1.274658
362.0990, 16.92651
362.5811, 21.06616
363.0633, 52.42163
363.5454, 43.98193
364.0275, 7.213867
364.5096, 41.33105
364.9917, 26.07690
365.4738, 3.573730
365.9560, 19.13550
366.4381, 0.8664550
366.9202, 15.45874
367.4023, 24.92627
367.8844, 27.63989
368.3665, 25.74097
368.8487, 13.65674
369.3308, 1.022705
369.8129, 7.476074
370.2950, 12.33618
370.7771, 12.09009
371.2592, 3.107178
371.7414, 10.55884
372.2235, 18.23145
372.7056, 17.87451
373.1877, 14.70508
373.6698, 10.67188
374.1519, 5.919189
374.6341, 0.4797360
375.1162, 10.76147
375.5983, 19.95215
376.0804, 17.54150
376.5625, 1.447021
377.0446, 12.20288
377.5268, 1.318115
378.0089, 28.71069
378.4910, 34.54053
378.9731, 10.49902
379.4552, 17.15039
379.9373, 17.25415
380.4195, 9.303955
380.9016, 27.96460
381.3837, 28.72290
381.8658, 18.45752
382.3479, 14.39136
382.8300, 16.49438
383.3122, 19.24878
383.7943, 19.28271
384.2764, 16.73242
384.7585, 10.96460
385.2406, 0.2514650
385.7227, 9.982666
386.2049, 11.35474
386.6870, 5.917480
387.1691, 0.3666990
387.6512, 0.9260250
388.1333, 2.646240
388.6154, 2.487061
389.0976, 16.23828
389.5797, 27.14868
390.0618, 21.27930
390.5439, 7.720459
391.0260, 0.3332520
391.5081, 11.45947
391.9903, 25.02979
392.4724, 28.65771
392.9545, 23.08154
393.4366, 25.26196
393.9187, 58.82642
394.4008, 94.76953
394.8829, 110.3328
395.3651, 76.24756
395.8472, 47.52905
396.3293, 42.13647
396.8114, 53.87793
397.2935, 60.04224
397.7756, 46.13892
398.2578, 34.16064
398.7399, 34.17480
399.2220, 53.67090
399.7041, 71.76514
400.1862, 92.41821
400.6683, 110.1917
401.1505, 115.1096
401.6326, 91.58081
402.1147, 78.19092
402.5968, 89.18994
403.0789, 127.6191
403.5610, 150.3435
404.0432, 149.7673
404.5253, 144.1326
405.0074, 153.2761
405.4895, 182.7170
405.9716, 204.3225
406.4537, 211.4502
406.9359, 207.7822
407.4180, 204.9568
407.9001, 202.2480
408.3822, 204.5925
408.8643, 217.8484
409.3464, 240.7625
409.8286, 260.3433
410.3107, 273.9495
410.7928, 286.9968
411.2749, 311.0369
411.7570, 343.9980
412.2391, 371.7073
412.7213, 380.5625
413.2034, 381.4871
413.6855, 396.3887
414.1676, 426.1111
414.6497, 458.7681
415.1318, 487.4536
415.6140, 511.1719
416.0961, 527.0815
416.5782, 524.8975
417.0603, 523.7451
417.5424, 543.2490
418.0245, 579.0005
418.5067, 609.8335
418.9888, 615.8779
419.4709, 617.7368
419.9530, 634.6040
420.4351, 686.4434
420.9172, 724.9658
421.3994, 723.6680
421.8815, 698.3267
422.3636, 678.6777
422.8457, 673.3164
423.3278, 680.0991
423.8099, 703.8149
424.2921, 752.2671
424.7742, 773.6226
425.2563, 748.6187
425.7384, 707.0649
426.2205, 674.4839
426.7026, 654.7925
427.1847, 639.1978
427.6668, 627.8042
428.1490, 619.2041
428.6311, 606.6689
429.1132, 586.1577
429.5953, 567.9316
430.0774, 560.3076
430.5595, 565.7930
431.0417, 568.6855
431.5238, 568.7705
432.0059, 565.3145
432.4880, 554.8975
432.9701, 536.9722
433.4522, 521.6631
433.9344, 514.5298
434.4165, 513.1240
434.8986, 507.1675
435.3807, 497.6362
435.8628, 490.3525
436.3449, 492.5620
436.8271, 501.5703
437.3092, 508.9956
437.7913, 512.5786
438.2734, 517.9067
438.7555, 530.6548
439.2376, 549.0356
439.7198, 566.1128
440.2019, 580.5923
440.6840, 590.3628
441.1661, 592.2002
441.6482, 584.1025
442.1303, 574.9521
442.6125, 565.5107
443.0946, 558.6733
443.5767, 558.0894
444.0588, 561.1553
444.5409, 575.3408
445.0230, 612.0640
445.5052, 670.3389
445.9873, 710.4829
446.4694, 709.3882
446.9515, 700.0771
447.4336, 702.3804
447.9157, 731.2739
448.3979, 750.9312
448.8800, 756.8682
449.3621, 754.2129
449.8442, 753.4946
450.3263, 751.4238
450.8084, 757.8730
451.2906, 780.3086
451.7727, 820.3589
452.2548, 844.9180
452.7369, 848.9951
453.2190, 848.5151
453.7011, 861.3809
454.1833, 887.8042
454.6654, 916.0151
455.1475, 946.7012
455.6296, 974.7202
456.1117, 986.7144
456.5938, 983.2524
457.0760, 976.3647
457.5581, 968.8784
458.0402, 964.5586
458.5223, 974.1401
459.0044, 1001.180
459.4865, 1028.829
459.9686, 1042.417
460.4507, 1045.325
460.9329, 1044.261
461.4150, 1041.573
461.8971, 1036.268
462.3792, 1024.552
462.8613, 1007.681
463.3434, 996.1147
463.8256, 997.4014
464.3077, 1004.148
464.7898, 1011.702
465.2719, 1022.943
465.7540, 1028.639
466.2361, 1023.114
466.7183, 1011.216
467.2004, 1002.809
467.6825, 997.1895
468.1646, 996.8047
468.6467, 1007.729
469.1288, 1033.534
469.6110, 1033.501
470.0931, 993.2749
470.5752, 945.2598
471.0573, 918.0283
471.5394, 917.6074
472.0215, 915.3115
472.5037, 908.4136
472.9858, 896.4170
473.4679, 875.2275
473.9500, 844.0923
474.4321, 815.8799
474.9142, 801.7544
475.3964, 797.3208
475.8785, 781.8223
476.3606, 753.7300
476.8427, 724.0029
477.3248, 707.7871
477.8069, 699.1392
478.2891, 683.7407
478.7712, 652.8901
479.2533, 618.3398
479.7354, 589.2983
480.2175, 565.8857
480.6996, 548.4106
481.1818, 542.8589
481.6639, 539.5815
482.1460, 532.0581
482.6281, 519.8818
483.1102, 502.0244
483.5923, 470.6768
484.0745, 435.3403
484.5566, 407.2495
485.0387, 401.4644
485.5208, 389.2124
486.0029, 356.0508
486.4850, 305.6011
486.9672, 277.3530
487.4493, 288.5264
487.9314, 302.0918
488.4135, 299.1118
488.8956, 276.2710
489.3777, 246.6113
489.8599, 205.3062
490.3420, 163.4150
490.8241, 139.2549
491.3062, 134.1084
491.7883, 131.2617
492.2704, 127.5864
492.7525, 122.6250
493.2346, 111.1025
493.7168, 92.89795
494.1989, 74.78516
494.6810, 64.27588
495.1631, 57.43359
495.6452, 43.46924
496.1273, 16.86719
496.6095, 4.394531
497.0916, 7.904785
497.5737, 38.74170
498.0558, 57.77686
498.5379, 31.39795
499.0201, 3.907227
499.5022, 9.325684
499.9843, 44.51465
500.4664, 66.55908
500.9485, 49.16748
501.4306, 21.51855
501.9128, 3.345703
502.3949, 0.4741210
502.8770, 1.322266
503.3591, 9.377930
503.8412, 18.69092
504.3233, 20.21680
504.8055, 5.430176
505.2876, 2.986816
505.7697, 1.507324
506.2518, 17.38232
506.7339, 33.05664
507.2160, 51.09863
507.6982, 63.69580
508.1803, 62.30957
508.6624, 47.22754
509.1445, 32.76709
509.6266, 18.95947
510.1087, 10.30273
510.5909, 20.32324
511.0730, 44.44141
511.5551, 59.70947
512.0372, 44.62305
512.5193, 19.77490
513.0014, 16.93018
513.4835, 34.26025
513.9656, 50.64307
514.4478, 51.55518
514.9299, 44.88477
515.4120, 36.65625
515.8941, 23.25000
516.3762, 19.09131
516.8583, 39.02441
517.3405, 70.18799
517.8226, 91.65527
518.3047, 89.70068
518.7868, 86.91602
519.2689, 81.43359
519.7510, 73.42285
520.2332, 100.1396
520.7153, 200.1650
521.1974, 287.5591
521.6795, 301.7349
522.1616, 213.2856
522.6437, 158.5068
523.1259, 149.8008
523.6080, 166.6450
524.0901, 171.9106
524.5722, 164.5591
525.0543, 181.3647
525.5364, 255.4521
526.0186, 351.9810
526.5007, 376.7803
526.9828, 332.6216
527.4649, 269.0122
527.9470, 206.5566
528.4291, 153.2646
528.9113, 120.2842
529.3934, 111.4863
529.8755, 114.7368
530.3576, 133.9180
530.8397, 156.7734
531.3218, 165.7930
531.8040, 145.5425
532.2861, 119.3057
532.7682, 89.96387
533.2503, 59.57031
533.7324, 42.78320
534.2145, 58.32227
534.6967, 73.51123
535.1788, 73.14551
535.6609, 48.99170
536.1430, 34.21826
536.6251, 29.08643
537.1072, 33.43115
537.5894, 54.20166
538.0715, 99.23877
538.5536, 116.1221
539.0357, 84.61279
539.5178, 25.71240
539.9999, 4.549805
540.4821, 6.104492
540.9642, 0.1137700
541.4463, 4.822754
541.9284, 7.919434
542.4105, 7.902344
542.8926, 4.407715
543.3748, 3.097656
543.8569, 13.12891
544.3390, 26.76025
544.8211, 33.63721
545.3032, 29.03662
545.7853, 19.84717
546.2675, 6.184570
546.7496, 9.482910
547.2317, 21.50928
547.7138, 28.73096
548.1959, 31.61865
548.6780, 28.36133
549.1602, 17.85010
549.6423, 12.25781
550.1244, 15.28076
550.6065, 19.17822
551.0886, 18.76123
551.5707, 13.31152
552.0529, 5.148438
552.5350, 7.541016
553.0171, 19.96387
553.4992, 23.68115
553.9813, 18.69531
554.4634, 8.839355
554.9456, 7.845703
555.4277, 26.61133
555.9098, 38.07617
556.3919, 42.08496
556.8740, 37.23730
557.3561, 10.22314
557.8383, 20.73486
558.3204, 30.98340
558.8025, 13.61914
559.2846, 5.127930
559.7667, 13.07422
560.2488, 13.00488
560.7310, 8.309570
561.2131, 10.72021
561.6952, 22.53711
562.1773, 15.85645
562.6594, 3.553223
563.1415, 11.58057
563.6237, 2.193359
564.1058, 11.12793
564.5879, 25.18555
565.0700, 40.21484
565.5521, 50.18359
566.0342, 54.55957
566.5164, 55.01514
566.9985, 50.91553
567.4806, 42.69385
567.9627, 39.60986
568.4448, 43.70947
568.9269, 51.67920
569.4091, 62.47754
569.8912, 73.84668
570.3733, 78.43945
570.8554, 59.36328
571.3375, 40.87549
571.8196, 54.96533
572.3018, 96.03027
572.7839, 126.9995
573.2660, 116.1572
573.7481, 98.44629
574.2302, 98.78174
574.7123, 129.2729
575.1944, 152.9360
575.6765, 162.7368
576.1586, 163.3540
576.6407, 159.1387
577.1229, 146.4336
577.6050, 135.4897
578.0871, 126.3979
578.5692, 120.4175
579.0513, 122.1030
579.5334, 132.3047
580.0156, 145.9858
580.4977, 165.0264
580.9798, 186.1958
581.4619, 189.8145
581.9440, 175.3384
582.4261, 163.9399
582.9083, 182.0649
583.3904, 213.6680
583.8725, 228.8750
584.3546, 216.3057
584.8367, 206.0288
585.3188, 225.4082
585.8010, 259.3672
586.2831, 284.7012
586.7652, 280.8789
587.2473, 280.4556
587.7294, 297.9175
588.2115, 329.8428
588.6937, 353.1143
589.1758, 364.0806
589.6579, 369.5352
590.1400, 370.2476
590.6221, 364.7837
591.1042, 366.1108
591.5864, 375.5249
592.0685, 388.7271
592.5506, 402.5010
593.0327, 416.8159
593.5148, 430.9707
593.9969, 445.9077
594.4791, 458.1968
594.9612, 456.9297
595.4433, 448.1162
595.9254, 449.7300
596.4075, 479.7339
596.8896, 516.4585
597.3718, 540.4883
597.8539, 553.6094
598.3360, 566.3984
598.8181, 582.8179
599.3002, 601.3296
599.7823, 622.2769
600.2645, 647.9634
600.7466, 667.7886
601.2287, 679.0952
601.7108, 685.5376
602.1929, 688.6875
602.6750, 684.2642
603.1572, 688.8174
603.6393, 706.7842
604.1214, 731.1978
604.6035, 746.9351
605.0856, 753.8022
605.5677, 763.0854
606.0499, 783.6094
606.5320, 807.5537
607.0141, 814.3760
607.4962, 806.0508
607.9783, 799.4204
608.4604, 813.2231
608.9426, 830.5649
609.4247, 833.6919
609.9068, 819.1064
610.3889, 804.5537
610.8710, 791.9155
611.3531, 785.3423
611.8353, 788.5684
612.3174, 818.2817
612.7995, 836.3662
613.2816, 836.1514
613.7637, 825.2310
614.2458, 816.0093
614.7280, 806.1055
615.2101, 809.1201
615.6922, 833.2480
616.1743, 870.4834
616.6564, 888.8301
617.1385, 887.3862
617.6207, 873.9404
618.1028, 841.6348
618.5849, 803.9419
619.0670, 793.5444
619.5491, 812.1787
620.0313, 834.5332
620.5134, 845.6182
620.9955, 847.0215
621.4776, 841.5210
621.9597, 829.2480
622.4418, 809.7729
622.9240, 771.0518
623.4061, 727.6592
623.8882, 703.6479
624.3703, 719.8667
624.8524, 732.8965
625.3345, 736.9351
625.8167, 732.4360
626.2988, 721.9307
626.7809, 704.5151
627.2630, 683.8833
627.7451, 659.5078
628.2272, 632.9600
628.7094, 615.7812
629.1915, 608.5830
629.6736, 600.4087
630.1557, 577.6309
630.6378, 548.7163
631.1199, 527.7637
631.6021, 517.3716
632.0842, 514.5430
632.5663, 527.6636
633.0484, 543.7505
633.5305, 546.2344
634.0126, 518.3652
634.4948, 489.9082
634.9769, 464.6963
635.4590, 443.5220
635.9411, 429.3628
636.4232, 426.8140
636.9053, 422.9873
637.3875, 413.7202
637.8696, 399.3970
638.3517, 381.1909
638.8338, 356.8662
639.3159, 342.1143
639.7980, 360.3970
640.2801, 397.4258
640.7622, 403.2422
641.2443, 372.4575
641.7264, 334.2036
642.2086, 313.1655
642.6907, 301.0752
643.1728, 287.3828
643.6549, 266.1753
644.1370, 245.1108
644.6191, 224.8062
645.1013, 208.1733
645.5834, 199.5996
646.0655, 206.8208
646.5476, 213.6377
647.0297, 217.1274
647.5118, 218.1636
647.9940, 221.5825
648.4761, 227.9556
648.9582, 231.3828
649.4403, 227.8745
649.9224, 218.7095
650.4045, 214.2773
650.8867, 214.6851
651.3688, 209.2837
651.8509, 177.8828
652.3330, 139.0503
652.8151, 125.4692
653.2972, 143.7075
653.7794, 166.0977
654.2615, 183.7666
654.7436, 193.8535
655.2257, 193.2778
655.7078, 168.7754
656.1899, 149.1021
656.6721, 140.8184
657.1542, 139.0435
657.6363, 136.0210
658.1184, 132.7812
658.6005, 124.9761
659.0826, 108.1392
659.5648, 86.89258
660.0469, 82.83252
660.5290, 96.32227
661.0111, 106.7778
661.4932, 98.17578
661.9753, 79.57861
662.4575, 67.47607
662.9396, 62.15918
663.4217, 59.12061
663.9038, 61.54102
664.3859, 61.33984
664.8680, 47.16064
665.3502, 7.572266
665.8323, 13.61230
666.3144, 10.83398
666.7965, 49.81982
667.2786, 72.16309
667.7607, 69.72119
668.2429, 66.22656
668.7250, 62.09619
669.2071, 58.26660
669.6892, 56.27051
670.1713, 55.93359
670.6534, 56.54150
671.1356, 58.13281
671.6177, 60.09131
672.0998, 63.07715
672.5819, 66.11475
673.0640, 64.74756
673.5461, 52.38477
674.0283, 38.13916
674.5104, 29.59619
674.9925, 26.98145
675.4746, 24.31543
675.9567, 17.98877
676.4388, 12.87891
676.9210, 12.63623
677.4031, 19.55469
677.8852, 22.95361
678.3673, 22.57471
678.8494, 19.01855
679.3315, 10.37939
679.8137, 3.779785
680.2958, 9.802246
680.7779, 4.538086
681.2600, 3.451660
681.7421, 1.652832
682.2242, 6.742188
682.7064, 13.19873
683.1885, 15.20654
683.6706, 14.14209
684.1527, 12.03906
684.6348, 7.636230
685.1169, 1.982422
685.5991, 33.56201
686.0812, 54.14697
686.5633, 44.69287
687.0454, 12.08691
687.5275, 1.900391
688.0096, 13.06641
688.4918, 26.43945
688.9739, 22.28125
689.4560, 2.684082
689.9381, 3.806152
690.4202, 3.570801
690.9023, 12.60742
691.3845, 11.63428
691.8666, 5.619629
692.3487, 3.858398
692.8308, 7.565430
693.3129, 13.15820
693.7950, 23.06934
694.2772, 31.91699
694.7593, 33.85352
695.2414, 17.79004
695.7235, 7.181641
696.2056, 7.393066
696.6877, 13.70459
697.1699, 20.28369
697.6520, 28.59131
698.1341, 33.38770
698.6162, 34.34229
699.0983, 30.99658
699.5804, 18.22070
700.0626, 2.351074
700.5447, 15.54297
701.0268, 11.99219
701.5089, 0.1088870
701.9910, 13.51221
702.4731, 26.94238
702.9553, 35.25488
703.4374, 34.08936
703.9195, 28.47656
704.4016, 18.58496
704.8837, 4.096191
705.3658, 3.504883
705.8480, 0.2231450
706.3300, 6.575195
706.8121, 11.15771
707.2943, 13.34570
707.7764, 20.99365
708.2585, 37.02734
708.7406, 47.70996
709.2227, 32.53369
709.7048, 0.3051760
710.1870, 14.62451
710.6691, 4.395508
711.1512, 12.20361
711.6333, 21.97168
712.1154, 26.96729
712.5975, 29.71777
713.0797, 30.46289
713.5618, 29.83545
714.0439, 26.63477
714.5260, 22.47412
715.0081, 20.07178
715.4902, 20.12158
715.9724, 20.56494
716.4545, 21.53809
716.9366, 22.22900
717.4187, 18.66992
717.9008, 10.80713
718.3829, 8.062012
718.8651, 17.28906
719.3472, 31.78516
719.8293, 40.58447
720.3114, 44.83789
720.7935, 49.96191
721.2756, 64.48828
721.7578, 76.29590
722.2399, 75.42480
722.7220, 61.33594
723.2041, 50.09033
723.6862, 48.19043
724.1683, 45.17578
724.6505, 32.25684
725.1326, 6.181152
725.6147, 3.524414
726.0968, 30.45459
726.5789, 59.38330
727.0610, 64.14404
727.5432, 50.52979
728.0253, 39.20020
728.5074, 32.31934
728.9895, 27.56592
729.4716, 17.69727
729.9537, 11.09668
730.4359, 19.96924
730.9180, 58.96582
731.4001, 89.78174
731.8822, 100.3091
732.3643, 97.61279
732.8464, 91.64551
733.3286, 82.54102
733.8107, 68.32324
734.2928, 43.85693
734.7749, 19.75391
735.2570, 19.49414
735.7391, 41.35254
736.2213, 60.98242
736.7034, 71.40576
737.1855, 74.44287
737.6676, 67.77441
738.1497, 55.22070
738.6318, 47.69531
739.1140, 55.31738
739.5961, 63.77734
740.0782, 67.15234
740.5603, 65.51660
741.0424, 60.54248
741.5245, 45.96289
742.0067, 38.57910
742.4888, 48.61670
742.9709, 72.62158
743.4530, 75.28320
743.9351, 54.16211
744.4172, 33.84863
744.8994, 34.30908
745.3815, 45.67920
745.8636, 43.64502
746.3457, 28.32471
746.8278, 19.89941
747.3099, 41.24902
747.7921, 67.98486
748.2742, 82.38477
748.7563, 81.31250
749.2384, 71.48242
749.7205, 47.56201
750.2026, 21.72705
750.6848, 2.627930
751.1669, 7.723633
751.6490, 23.12695
752.1311, 47.50439
752.6132, 64.34521
753.0953, 48.13721
753.5775, 8.405273
754.0596, 23.34375
754.5417, 41.54541
755.0238, 53.04834
755.5059, 64.21436
755.9880, 71.68896
756.4702, 71.18457
756.9523, 49.16357
757.4344, 35.56494
757.9165, 39.29639
758.3986, 50.88477
758.8807, 61.81152
759.3629, 74.87549
759.8450, 78.16309
760.3271, 66.93799
760.8092, 49.28418
761.2913, 39.42480
761.7734, 36.64160
762.2556, 36.18652
762.7377, 37.82910
763.2198, 39.15088
763.7019, 37.80859
764.1840, 35.35645
764.6661, 35.17090
765.1483, 48.05762
765.6304, 52.71094
766.1125, 28.98486
766.5946, 9.661133
767.0767, 8.606445
767.5588, 47.86279
768.0410, 96.97363
768.5231, 118.2446
769.0052, 116.1758
769.4873, 98.97510
769.9694, 68.68066
770.4515, 46.99414
770.9337, 56.51465
771.4158, 74.58838
771.8978, 74.75049
772.3799, 59.22021
772.8621, 53.19043
773.3442, 83.50586
773.8263, 109.0195
774.3084, 106.2671
774.7905, 74.62256
775.2726, 57.45801
775.7548, 59.58398
776.2369, 64.22949
776.7190, 59.73877
777.2011, 48.42236
777.6832, 43.20020
778.1653, 44.17285
778.6475, 51.07471
779.1296, 69.94873
779.6117, 90.98535
780.0938, 104.1431
780.5759, 107.6626
781.0580, 105.4141
781.5402, 89.71924
782.0223, 75.35547
782.5044, 73.17334
782.9865, 88.29395
783.4686, 94.24023
783.9507, 88.70752
784.4329, 80.18164
784.9150, 76.69922
785.3971, 77.21240
785.8792, 76.81055
786.3613, 75.09766
786.8434, 72.41650
787.3256, 62.71436
787.8077, 55.39404
788.2898, 63.74951
788.7719, 100.9570
789.2540, 127.5210
789.7361, 124.8057
790.2183, 112.6899
790.7004, 108.0542
791.1825, 112.2266
791.6646, 120.3525
792.1467, 134.2251
792.6288, 146.3164
793.1110, 142.8188
793.5931, 128.7788
794.0752, 124.3232
794.5573, 137.3213
795.0394, 149.5181
795.5215, 142.5229
796.0037, 126.2661
796.4858, 113.4395
796.9679, 112.2192
797.4500, 109.5034
797.9321, 97.35889
798.4142, 85.96143
798.8964, 90.54932
799.3785, 116.5996
799.8606, 128.6411
800.3427, 117.7915
800.8248, 98.75439
801.3069, 94.18848
801.7891, 100.0332
802.2712, 103.6299
802.7533, 97.10889
803.2354, 92.91064
803.7175, 104.3813
804.1996, 122.1484
804.6818, 130.6875
805.1639, 115.0161
805.6460, 106.7246
806.1281, 112.9985
806.6102, 123.8418
807.0923, 117.8306
807.5745, 94.24365
808.0566, 83.38037
808.5387, 97.22510
809.0208, 119.1089
809.5029, 125.4473
809.9850, 119.3457
810.4672, 110.1265
810.9493, 100.1401
811.4314, 95.19238
811.9135, 98.43506
812.3956, 105.1089
812.8777, 105.6289
813.3599, 93.87061
813.8420, 90.89551
814.3241, 102.6221
814.8062, 121.3115
815.2883, 125.6294
815.7704, 116.6562
816.2526, 105.0742
816.7347, 89.28564
817.2168, 81.11328
817.6989, 100.7314
818.1810, 136.8989
818.6631, 161.9185
819.1453, 164.4399
819.6274, 155.7173
820.1095, 130.7456
820.5916, 98.81201
821.0737, 81.38330
821.5558, 81.43701
822.0380, 88.42090
822.5201, 102.5054
823.0022, 118.8042
823.4843, 124.9414
823.9664, 123.1753
824.4485, 122.2046
824.9307, 129.0859
825.4128, 137.9946
825.8949, 145.4644
826.3770, 150.4912
826.8591, 150.7041
827.3412, 142.2241
827.8234, 132.1367
828.3055, 119.1562
828.7876, 106.2744
829.2697, 103.5449
829.7518, 111.5312
830.2339, 121.2778
830.7161, 133.3931
831.1982, 141.3125
831.6803, 129.7129
832.1624, 105.4102
832.6445, 86.77783
833.1266, 80.27441
833.6088, 83.00000
834.0909, 101.5410
834.5730, 128.4761
835.0551, 142.6489
835.5372, 141.4937
836.0193, 131.7661
836.5015, 110.3711
836.9836, 86.05664
837.4657, 82.68555
837.9478, 97.37354
838.4299, 113.7124
838.9120, 131.5952
839.3941, 140.6631
839.8762, 122.3750
840.3583, 88.96973
840.8405, 67.44678
841.3226, 75.86816
841.8047, 84.95752
842.2868, 90.64307
842.7689, 93.01709
843.2510, 91.98193
843.7332, 87.38086
844.2153, 79.98340
844.6974, 69.18750
845.1795, 57.55322
845.6616, 46.14941
846.1437, 35.09668
846.6259, 29.43555
847.1080, 35.94873
847.5901, 42.92480
848.0722, 47.26855
848.5543, 50.24023
849.0364, 49.90625
849.5186, 40.34570
850.0007, 36.23486
850.4828, 43.09863
850.9649, 53.60547
851.4470, 49.26221
851.9291, 33.03711
852.4113, 20.95068
852.8934, 20.28809
853.3755, 20.19092
853.8576, 4.743164
854.3397, 14.04004
854.8218, 17.92676
855.3040, 18.29150
855.7861, 42.46826
856.2682, 44.37939
856.7503, 35.75977
857.2324, 34.59521
857.7145, 41.66699
858.1967, 39.72607
858.6788, 23.04541
859.1609, 4.520508
859.6430, 0.3168950
860.1251, 4.627930
860.6072, 13.74219
861.0894, 31.60742
861.5715, 40.48584
862.0536, 26.17139
862.5357, 5.268066
863.0178, 5.511719
863.4999, 9.465332
863.9821, 1.786621
864.4642, 35.41211
864.9463, 69.48926
865.4284, 70.32227
865.9105, 49.32129
866.3926, 43.24414
866.8748, 61.80127
867.3569, 76.69043
867.8390, 59.75732
868.3211, 33.85938
868.8032, 21.73779
869.2853, 42.17676
869.7675, 39.61865
870.2496, 2.502930
870.7317, 43.34375
871.2138, 43.86572
871.6959, 7.313477
872.1780, 29.34326
872.6602, 64.94775
873.1423, 83.69580
873.6244, 54.86963
874.1065, 11.58887
874.5886, 7.785645
875.0707, 5.165527
875.5529, 15.12061
876.0350, 5.284668
876.5171, 1.597168
876.9992, 10.23340
877.4813, 42.70410
877.9634, 47.62402
878.4456, 21.75781
878.9277, 2.831055
879.4098, 1.634277
879.8919, 21.42676
880.3740, 37.59180
880.8561, 49.17578
881.3383, 57.02881
881.8204, 63.12842
882.3025, 64.12891
882.7846, 54.77881
883.2667, 36.66260
883.7488, 28.13867
884.2310, 30.49463
884.7131, 37.54541
885.1952, 49.56250
885.6773, 62.50000
886.1594, 64.88721
886.6415, 58.68408
887.1237, 53.10352
887.6058, 54.55469
888.0879, 56.64258
888.5700, 54.59766
889.0521, 49.98438
889.5342, 50.22119
890.0164, 59.00830
890.4985, 64.93604
890.9806, 64.56104
891.4627, 60.34229
891.9448, 57.40332
892.4269, 55.68457
892.9091, 54.89746
893.3912, 53.18115
893.8733, 54.48340
894.3554, 69.04102
894.8375, 87.03906
895.3196, 90.16455
895.8018, 54.06689
896.2839, 34.61865
896.7660, 43.55518
897.2481, 62.72021
897.7302, 61.72852
898.2123, 42.91699
898.6945, 28.91162
899.1766, 24.83496
899.6587, 25.25244
900.1408, 29.04980
900.6229, 32.66504
901.1050, 31.20947
901.5872, 21.21338
902.0693, 11.11816
902.5514, 4.673340
903.0335, 13.41357
903.5156, 2.938477
903.9977, 46.20020
904.4798, 58.79199
904.9619, 35.81104
905.4440, 2.711914
905.9261, 28.88525
906.4083, 50.98193
906.8904, 51.02832
907.3725, 26.17188
907.8546, 1.423340
908.3367, 39.94141
908.8188, 64.36426
909.3010, 55.95557
909.7831, 15.35205
910.2652, 1.643066
910.7473, 16.99414
911.2294, 33.70215
911.7115, 32.13574
912.1937, 21.14307
912.6758, 15.25586
913.1579, 15.51758
913.6400, 16.35059
914.1221, 16.45947
914.6042, 15.98193
915.0864, 14.71924
915.5685, 12.96680
916.0506, 11.15527
916.5327, 8.888184
917.0148, 10.34375
917.4969, 20.69971
917.9791, 30.68018
918.4612, 22.22217
918.9433, 1.604492
919.4254, 16.94824
919.9075, 39.32861
920.3896, 45.39844
920.8718, 13.06396
921.3539, 32.43066
921.8360, 54.64941
922.3181, 47.78516
922.8002, 42.79785
923.2823, 42.98096
923.7645, 46.87939
924.2466, 52.69434
924.7287, 60.55078
925.2108, 71.21436
925.6929, 85.46973
926.1750, 99.49707
926.6572, 116.0332
927.1393, 128.4238
927.6214, 129.2642
928.1035, 113.0205
928.5856, 112.0635
929.0677, 133.7192
929.5499, 154.5107
930.0320, 150.0024
930.5141, 129.4326
930.9962, 107.3716
931.4783, 85.70264
931.9604, 76.28564
932.4426, 103.4141
932.9247, 126.5786
933.4068, 116.1763
933.8889, 79.31934
934.3710, 64.62939
934.8531, 76.25098
935.3353, 94.59863
935.8174, 114.4170
936.2995, 132.6084
936.7816, 141.7051
937.2637, 144.3037
937.7458, 145.0015
938.2280, 138.5728
938.7101, 138.1880
939.1922, 155.6396
939.6743, 179.5469
940.1564, 190.0708
940.6385, 182.3647
941.1207, 184.3398
941.6028, 201.7241
942.0849, 224.5010
942.5670, 238.7041
943.0491, 248.8364
943.5313, 265.9663
944.0134, 296.3203
944.4955, 317.5889
944.9776, 305.7212
945.4597, 293.1709
945.9418, 307.9604
946.4240, 358.4033
946.9061, 379.1885
947.3882, 365.8662
947.8703, 353.5991
948.3524, 372.2080
948.8345, 408.2168
949.3167, 442.7446
949.7988, 474.9995
950.2809, 503.9399
950.7630, 529.6890
951.2451, 550.6016
951.7272, 563.3154
952.2094, 570.7617
952.6915, 584.6377
953.1736, 604.6235
953.6557, 634.6504
954.1378, 679.7920
954.6199, 729.6367
955.1021, 769.3330
955.5842, 803.4912
956.0663, 841.2344
956.5484, 894.5127
957.0305, 939.7188
957.5126, 960.8774
957.9948, 981.6338
958.4769, 1035.910
958.9590, 1126.034
959.4411, 1190.850
959.9232, 1220.694
960.4053, 1248.610
960.8875, 1311.530
961.3696, 1391.701
961.8517, 1463.379
962.3338, 1520.592
962.8159, 1585.350
963.2980, 1663.620
963.7802, 1745.955
964.2623, 1831.211
964.7444, 1920.863
965.2265, 2008.615
965.7086, 2095.465
966.1907, 2193.272
966.6729, 2321.251
967.1550, 2455.392
967.6371, 2568.587
968.1192, 2669.152
968.6013, 2781.777
969.0834, 2927.428
969.5655, 3060.957
970.0476, 3173.115
970.5297, 3277.470
971.0118, 3400.783
971.4940, 3538.103
971.9761, 3675.736
972.4582, 3817.635
972.9403, 3943.828
973.4224, 4048.531
973.9045, 4125.372
974.3867, 4167.695
974.8688, 4173.131
975.3509, 4155.276
975.8330, 4117.173
976.3151, 4051.700
976.7972, 3942.326
977.2794, 3798.564
977.7615, 3639.928
978.2436, 3474.354
978.7257, 3347.644
979.2078, 3293.851
979.6899, 3274.062
980.1721, 3265.156
980.6542, 3271.954
981.1363, 3322.355
981.6184, 3420.436
982.1005, 3537.711
982.5826, 3661.331
983.0648, 3807.569
983.5469, 4006.339
984.0290, 4247.014
984.5111, 4502.841
984.9932, 4757.795
985.4753, 5041.384
985.9575, 5363.070
986.4396, 5718.839
986.9217, 6114.306
987.4038, 6555.399
987.8859, 6976.644
988.3680, 7369.801
988.8502, 7767.571
989.3323, 8241.072
989.8144, 8706.534
990.2965, 9073.346
990.7786, 9332.089
991.2607, 9516.135
991.7429, 9605.587
992.2250, 9651.863
992.7071, 9656.162
993.1892, 9634.351
993.6713, 9640.946
994.1534, 9673.459
994.6356, 9719.271
995.1177, 9809.956
995.5998, 9855.236
996.0819, 9816.226
996.5640, 9676.358
997.0461, 9399.913
997.5283, 8961.360
998.0104, 8441.371
998.4925, 7820.394
998.9746, 7162.608
999.4567, 6520.288
999.9388, 5892.717
1000.421, 5287.931
1000.903, 4704.207
1001.385, 4174.504
1001.867, 3737.561
1002.349, 3348.609
1002.832, 2986.612
1003.314, 2651.152
1003.796, 2361.303
1004.278, 2117.188
1004.760, 1902.316
1005.242, 1710.857
1005.724, 1540.382
1006.206, 1385.956
1006.688, 1247.742
1007.171, 1121.923
1007.653, 1009.246
1008.135, 905.3218
1008.617, 804.5464
1009.099, 714.8579
1009.581, 647.2656
1010.063, 600.1431
1010.545, 556.9678
1011.028, 516.6025
1011.510, 474.3530
1011.992, 419.0801
1012.474, 366.2866
1012.956, 331.5977
1013.438, 315.9434
1013.920, 297.0215
1014.402, 274.3843
1014.884, 246.6636
1015.367, 207.7974
1015.849, 168.8760
1016.331, 164.4053
1016.813, 182.5508
1017.295, 186.6602
1017.777, 153.1304
1018.259, 117.3843
1018.741, 91.21729
1019.224, 72.00146
1019.706, 57.44971
1020.188, 48.91895
1020.670, 36.52832
1021.152, 18.95654
1021.634, 4.316895
1022.116, 0.4770510
1022.598, 3.574219
1023.080, 11.13770
1023.563, 22.40918
1024.045, 30.18213
1024.527, 34.13818
1025.009, 31.70361
1025.491, 19.36182
1025.973, 1.779297
1026.455, 5.295410
1026.937, 4.434082
1027.419, 10.47168
1027.902, 34.47852
1028.384, 53.79980
1028.866, 46.56396
1029.348, 29.39746
1029.830, 22.94092
1030.312, 34.79688
1030.794, 33.51465
1031.276, 15.57568
1031.759, 1.903809
1032.241, 5.475586
1032.723, 1.551270
1033.205, 21.04541
1033.687, 49.08398
1034.169, 61.88525
1034.651, 34.57227
1035.133, 8.705566
1035.615, 5.060059
1036.098, 8.542480
1036.580, 3.571777
1037.062, 9.023926
1037.544, 19.22754
1038.026, 26.04834
1038.508, 25.14941
1038.990, 3.877441
1039.472, 22.00586
1039.954, 35.14648
1040.437, 31.19482
1040.919, 21.11133
1041.401, 0.5815430
1041.883, 12.71826
1042.365, 2.339355
1042.847, 22.32861
1043.329, 43.24951
1043.811, 59.36621
1044.294, 66.07227
1044.776, 42.00244
1045.258, 33.06982
1045.740, 68.78760
1046.222, 116.3154
1046.704, 115.3569
1047.186, 66.22705
1047.668, 33.34814
1048.151, 26.17432
1048.633, 36.45850
1049.115, 73.65479
1049.597, 113.4199
1050.079, 129.3633
1050.561, 114.2397
1051.043, 112.0825
1051.525, 130.5415
1052.007, 142.2612
1052.490, 128.6455
1052.972, 105.4907
1053.454, 107.8096
1053.936, 130.6353
1054.418, 160.5205
1054.900, 206.5586
1055.382, 238.8945
1055.864, 244.0156
1056.346, 235.8174
1056.829, 224.8340
1057.311, 210.9243
1057.793, 202.6904
1058.275, 200.6870
1058.757, 202.1401
1059.239, 206.9126
1059.721, 212.7104
1060.203, 218.2637
1060.686, 223.4604
1061.168, 226.9204
1061.650, 226.8691
1062.132, 230.8071
1062.614, 241.2441
1063.096, 255.6626
1063.578, 274.7231
1064.060, 293.3896
1064.542, 300.1743
1065.025, 286.9619
1065.507, 277.9355
1065.989, 287.2632
1066.471, 296.0903
1066.953, 289.9619
1067.435, 270.7754
1067.917, 276.5991
1068.399, 304.6729
1068.881, 318.6235
1069.364, 275.6201
1069.846, 231.8335
1070.328, 229.6802
1070.810, 254.6880
1071.292, 271.5293
1071.774, 277.7832
1072.256, 279.7314
1072.738, 276.9678
1073.220, 273.4634
1073.703, 270.0181
1074.185, 270.5361
1074.667, 286.9849
1075.149, 321.2744
1075.631, 337.3418
1076.113, 313.7007
1076.595, 287.1738
1077.077, 269.4980
1077.560, 257.7866
1078.042, 238.4653
1078.524, 216.2144
1079.006, 212.3389
1079.488, 245.0464
1079.970, 274.8066
1080.452, 277.1191
1080.934, 268.1499
1081.417, 265.5391
1081.899, 271.5000
1082.381, 266.1387
1082.863, 248.0635
1083.345, 235.2930
1083.827, 244.6343
1084.309, 261.8560
1084.791, 277.2661
1085.273, 288.5537
1085.755, 288.9521
1086.238, 271.2104
1086.720, 258.6504
1087.202, 256.0000
1087.684, 256.4053
1088.166, 251.4824
1088.648, 242.7974
1089.130, 231.5874
1089.612, 217.5708
1090.095, 207.2686
1090.577, 205.4497
1091.059, 205.4224
1091.541, 204.3320
1092.023, 203.2139
1092.505, 208.0664
1092.987, 217.1606
1093.469, 215.8164
1093.952, 189.7554
1094.434, 169.3081
1094.916, 186.6196
1095.398, 214.2739
1095.880, 219.3701
1096.362, 195.2993
1096.844, 177.9277
1097.326, 166.2568
1097.808, 160.1929
1098.291, 163.0581
1098.773, 169.4429
1099.255, 170.3789
1099.737, 168.1655
1100.219, 173.6206
1100.701, 200.9404
1101.183, 214.3335
1101.665, 207.7261
1102.147, 190.5010
1102.630, 170.4365
1103.112, 150.6807
1103.594, 136.6763
1104.076, 129.0679
1104.558, 134.7764
1105.040, 174.7188
1105.522, 208.6235
1106.004, 218.2085
1106.487, 210.0483
1106.969, 206.8501
1107.451, 207.8560
1107.933, 206.9575
1108.415, 201.5415
1108.897, 195.8369
1109.379, 192.0571
1109.861, 190.4326
1110.344, 194.2979
1110.826, 206.7876
1111.308, 192.2637
1111.790, 147.0005
1112.272, 112.9546
1112.754, 124.9429
1113.236, 154.0508
1113.718, 172.2378
1114.200, 180.8315
1114.682, 182.4170
1115.165, 173.3804
1115.647, 165.0537
1116.129, 157.7314
1116.611, 152.7480
1117.093, 150.2236
1117.575, 151.1196
1118.057, 161.0073
1118.539, 178.3711
1119.022, 184.9233
1119.504, 160.2598
1119.986, 141.5718
1120.468, 141.5146
1120.950, 149.9907
1121.432, 142.5493
1121.914, 124.1309
1122.396, 115.8188
1122.879, 123.4082
1123.361, 134.3267
1123.843, 145.5151
1124.325, 153.6392
1124.807, 154.5752
1125.289, 149.8755
1125.771, 156.8911
1126.253, 174.9028
1126.735, 190.0493
1127.218, 194.0898
1127.700, 196.4824
1128.182, 205.9863
1128.664, 217.9053
1129.146, 225.4697
1129.628, 226.2988
1130.110, 232.1084
1130.592, 242.4048
1131.074, 253.8447
1131.557, 267.6509
1132.039, 278.9341
1132.521, 278.1670
1133.003, 269.4839
1133.485, 265.7393
1133.967, 273.4614
1134.449, 277.5542
1134.931, 275.5415
1135.413, 277.6445
1135.896, 300.8276
1136.378, 333.2676
1136.860, 351.9922
1137.342, 355.5679
1137.824, 359.3325
1138.306, 371.2227
1138.788, 380.7876
1139.270, 386.5908
1139.753, 386.9131
1140.235, 372.2412
1140.717, 349.2153
1141.199, 342.7632
1141.681, 362.2119
1142.163, 378.8569
1142.645, 376.5625
1143.127, 368.3862
1143.609, 360.2861
1144.092, 353.0825
1144.574, 355.8003
1145.056, 366.9023
1145.538, 371.0796
1146.020, 357.4312
1146.502, 343.7207
1146.984, 348.1699
1147.466, 356.7495
1147.948, 348.6763
1148.431, 321.0439
1148.913, 307.5396
1149.395, 308.4043
1149.877, 315.7856
1150.359, 329.2280
1150.841, 341.1270
1151.323, 350.3833
1151.805, 353.1704
1152.288, 338.3789
1152.770, 298.2075
1153.252, 266.0454
1153.734, 243.2515
1154.216, 232.7646
1154.698, 246.8540
1155.180, 268.4844
1155.662, 279.9248
1156.145, 280.2134
1156.627, 270.4653
1157.109, 248.4307
1157.591, 226.7671
1158.073, 209.6284
1158.555, 193.6504
1159.037, 168.7603
1159.519, 143.2515
1160.001, 132.7793
1160.484, 141.6401
1160.966, 145.0825
1161.448, 134.5117
1161.930, 125.0220
1162.412, 121.3633
1162.894, 121.5796
1163.376, 130.4712
1163.858, 139.7964
1164.340, 124.0815
1164.823, 61.20557
1165.305, 22.70557
1165.787, 45.84912
1166.269, 71.00781
1166.751, 65.80420
1167.233, 39.34619
1167.715, 26.81592
1168.197, 26.12256
1168.680, 28.58887
1169.162, 35.99219
1169.644, 38.10303
1170.126, 25.46729
1170.608, 9.828125
1171.090, 2.634766
1171.572, 3.424316
1172.054, 3.798828
1172.536, 3.414063
1173.019, 1.643066
1173.501, 10.80762
1173.983, 15.05566
1174.465, 11.62012
1174.947, 44.71875
1175.429, 45.91406
1175.911, 15.72363
1176.393, 3.477539
1176.875, 13.63867
1177.358, 30.23730
1177.840, 54.32861
1178.322, 68.84717
1178.804, 52.59424
1179.286, 18.88086
1179.768, 3.479492
1180.250, 6.755859
1180.732, 22.44043
1181.215, 52.63086
1181.697, 72.01416
1182.179, 43.35449
1182.661, 6.068848
1183.143, 4.317383
1183.625, 10.41699
1184.107, 23.84326
1184.589, 36.47363
1185.072, 41.20996
1185.554, 34.81738
1186.036, 22.96924
1186.518, 4.937012
1187.000, 10.97900
1187.482, 14.88330
1187.964, 5.749023
1188.446, 14.47119
1188.928, 50.11475
1189.411, 67.35840
1189.893, 41.75537
1190.375, 6.619629
1190.857, 6.919922
1191.339, 21.30225
1191.821, 17.26318
1192.303, 18.95508
1192.785, 38.79980
1193.267, 40.48145
1193.750, 35.12012
1194.232, 26.68018
1194.714, 17.83838
1195.196, 12.72705
1195.678, 9.665039
1196.160, 5.289063
1196.642, 1.596191
1197.124, 11.24561
1197.607, 36.93604
1198.089, 57.71533
1198.571, 53.80518
1199.053, 39.04150
1199.535, 31.36328
1200.017, 29.48096
1200.499, 26.74023
1200.981, 19.87500
1201.463, 16.84619
1201.946, 18.37842
1202.428, 24.07959
1202.910, 43.83936
1203.392, 61.19238
1203.874, 42.58545
1204.356, 5.944336
1204.838, 28.34473
1205.320, 3.479980
1205.802, 14.98096
1206.285, 17.92188
1206.767, 12.68848
1207.249, 0.9580080
1207.731, 9.158691
1208.213, 0.9716800
1208.695, 27.65527
1209.177, 47.77051
1209.659, 47.10791
1210.141, 47.53613
1210.624, 55.88232
1211.106, 64.71484
1211.588, 59.40381
1212.070, 48.39258
1212.552, 48.92041
1213.034, 66.60205
1213.516, 62.29102
1213.998, 17.36426
1214.481, 10.16455
1214.963, 7.224609
1215.445, 40.54150
1215.927, 34.72266
1216.409, 10.40039
1216.891, 5.452148
1217.373, 35.55371
1217.855, 48.91357
1218.338, 36.23291
1218.820, 21.28955
1219.302, 12.65771
1219.784, 11.96533
1220.266, 31.60498
1220.748, 58.87842
1221.230, 68.94287
1221.712, 47.76465
1222.194, 25.32520
1222.677, 3.307129
1223.159, 15.25684
1223.641, 12.90918
1224.123, 58.40967
1224.605, 87.02246
1225.087, 99.67383
1225.569, 97.48096
1226.051, 69.16064
1226.533, 43.00635
1227.016, 15.04883
1227.498, 1.886230
1227.980, 25.02344
1228.462, 65.01807
1228.944, 94.62842
1229.426, 114.1719
1229.908, 124.8550
1230.390, 132.3276
1230.873, 115.4399
1231.355, 64.45459
1231.837, 19.64404
1232.319, 22.97119
1232.801, 50.46387
1233.283, 76.63477
1233.765, 97.68115
1234.247, 102.7192
1234.729, 79.50293
1235.212, 67.98486
1235.694, 73.98193
1236.176, 81.19434
1236.658, 62.40234
1237.140, 43.04492
1237.622, 67.34961
1238.104, 123.6855
1238.586, 149.1660
1239.068, 130.2207
1239.551, 110.0688
1240.033, 93.42725
1240.515, 80.78369
1240.997, 75.17285
1241.479, 71.80566
1241.961, 60.77588
1242.443, 45.27100
1242.925, 46.48389
1243.408, 70.27539
1243.890, 92.73242
1244.372, 111.0063
1244.854, 122.7808
1245.336, 117.6948
1245.818, 105.5913
1246.300, 94.58105
1246.782, 81.10889
1247.265, 65.15186
1247.747, 46.80273
1248.229, 56.17969
1248.711, 106.8564
1249.193, 150.5068
1249.675, 121.8364
1250.157, 78.10840
1250.639, 79.13232
1251.121, 117.8618
1251.604, 132.3872
1252.086, 121.8862
1252.568, 103.2100
1253.050, 77.35791
1253.532, 59.35498
1254.014, 58.57080
1254.496, 59.69727
1254.978, 51.03955
1255.460, 33.95264
1255.943, 32.25391
1256.425, 45.20361
1256.907, 59.44482
1257.389, 71.40820
1257.871, 79.31836
1258.353, 95.82324
1258.835, 101.0747
1259.317, 79.61035
1259.800, 38.60596
1260.282, 37.25195
1260.764, 69.51367
1261.246, 79.61084
1261.728, 38.15479
1262.210, 1.671875
1262.692, 15.31299
1263.174, 35.59814
1263.656, 37.80371
1264.139, 25.32129
1264.621, 29.99854
1265.103, 44.40479
1265.585, 40.30664
1266.067, 6.663086
1266.549, 32.35645
1267.031, 7.696777
1267.513, 53.03955
1267.995, 73.92383
1268.478, 76.11816
1268.960, 73.62549
1269.442, 69.27100
1269.924, 70.65527
1270.406, 81.34961
1270.888, 95.88916
1271.370, 118.6948
1271.852, 132.7539
1272.334, 124.4868
1272.817, 103.6353
1273.299, 88.80371
1273.781, 80.65088
1274.263, 81.11035
1274.745, 98.27686
1275.227, 107.9473
1275.709, 108.7720
1276.191, 104.9282
1276.674, 97.93555
1277.156, 89.33984
1277.638, 76.93848
1278.120, 65.62598
1278.602, 66.15137
1279.084, 87.92529
1279.566, 101.0361
1280.048, 105.2080
1280.531, 102.8672
1281.013, 90.09473
1281.495, 76.61377
1281.977, 80.98047
1282.459, 94.24072
1282.941, 103.8579
1283.423, 106.2983
1283.905, 89.78516
1284.387, 71.03906
1284.870, 57.70459
1285.352, 69.97998
1285.834, 81.79834
1286.316, 69.97607
1286.798, 50.96729
1287.280, 46.33740
1287.762, 56.74023
1288.244, 62.65869
1288.726, 64.80322
1289.209, 72.04492
1289.691, 107.9038
1290.173, 127.0996
1290.655, 93.08203
1291.137, 48.77783
1291.619, 32.41211
1292.101, 38.67822
1292.583, 36.47314
1293.066, 27.51172
1293.548, 18.50537
1294.030, 9.538574
1294.512, 3.771484
1294.994, 0.3164060
1295.476, 1.618164
1295.958, 16.26953
1296.440, 33.84473
1296.922, 21.53076
1297.405, 0.3886720
1297.887, 1.064941
1298.369, 29.90576
1298.851, 48.65527
1299.333, 35.50049
1299.815, 18.66064
1300.297, 0.0000000E+00
##END=



