##NAMES=Piemontite
##RRUFFID=R060905
##IDEAL CHEMISTRY=Ca_2_Mn^3+^Al_2_(Si_2_O_7_)(SiO_4_)O(OH)
##LOCALITY=Praborna mine, Aosta Valley, St. Marcel, Italy
##OWNER=RRUFF
##SOURCE=Michael Scott
##DESCRIPTION=Elongated purple single crystals associated with albite and romeite, R060323
##STATUS=The identification of this mineral has been confirmed by X-ray diffraction and chemical analysis
##URL=rruff.info/R060905
##MEASURED CHEMISTRY=lighter phase: (Ca_1.82_Mn^2+^_0.12_)_Σ=2_(Al_1.95_Mn^3+^_0.97_Fe^3+^_0.08_)_Σ=3_[Si_2.00_O_7_][Si_1.00_O_4_]O(OH) ; darker phase is albite.
162.9895, 0.0000000E+00
163.4716, 5.809082
163.9537, 2.385498
164.4358, 0.4675290
164.9179, 8.200439
165.4000, 14.59839
165.8822, 19.14307
166.3643, 30.29028
166.8464, 57.01807
167.3285, 90.55737
167.8106, 116.2292
168.2927, 131.3877
168.7749, 139.3984
169.2570, 140.1108
169.7391, 133.1223
170.2212, 129.7354
170.7033, 138.6985
171.1854, 153.5415
171.6676, 164.6826
172.1497, 169.9280
172.6318, 172.0125
173.1139, 175.6235
173.5960, 181.6482
174.0781, 179.5964
174.5603, 151.8269
175.0424, 117.4009
175.5245, 102.3828
176.0066, 118.7048
176.4887, 146.9177
176.9708, 165.3000
177.4530, 172.9836
177.9351, 177.1572
178.4172, 181.9307
178.8993, 184.5422
179.3814, 179.4856
179.8635, 159.4917
180.3457, 139.8469
180.8278, 142.2485
181.3099, 170.4197
181.7920, 200.4473
182.2741, 223.5781
182.7562, 241.5984
183.2384, 254.9946
183.7205, 262.4172
184.2026, 267.4595
184.6847, 275.2771
185.1668, 286.5735
185.6489, 297.1201
186.1311, 303.6753
186.6132, 308.9966
187.0953, 315.2051
187.5774, 322.1829
188.0595, 331.1455
188.5416, 344.8701
189.0238, 364.8079
189.5059, 383.3037
189.9880, 401.5657
190.4701, 415.1516
190.9522, 416.0005
191.4343, 396.8274
191.9165, 375.2732
192.3986, 376.0581
192.8807, 402.3706
193.3628, 437.2327
193.8449, 484.4392
194.3270, 532.9937
194.8092, 572.8430
195.2913, 601.3904
195.7734, 620.9170
196.2555, 632.9280
196.7376, 636.2139
197.2197, 638.0952
197.7019, 635.1531
198.1840, 634.8298
198.6661, 644.0828
199.1482, 665.0283
199.6303, 694.6973
200.1124, 732.8418
200.5946, 782.4702
201.0767, 824.8315
201.5588, 851.6953
202.0409, 868.8950
202.5230, 878.7803
203.0051, 881.0505
203.4873, 879.6760
203.9694, 879.7239
204.4515, 881.8438
204.9336, 880.8535
205.4157, 868.5425
205.8978, 856.3594
206.3800, 856.3203
206.8621, 872.7229
207.3442, 889.1587
207.8263, 878.8687
208.3084, 834.3501
208.7905, 802.0557
209.2727, 797.9380
209.7548, 807.6360
210.2369, 824.1826
210.7190, 837.1909
211.2011, 845.5415
211.6832, 846.3550
212.1654, 839.5049
212.6475, 831.9639
213.1296, 822.1223
213.6117, 814.8726
214.0938, 815.0112
214.5760, 823.1494
215.0581, 833.0608
215.5402, 837.6702
216.0223, 837.1953
216.5044, 843.4663
216.9865, 866.3611
217.4687, 889.9504
217.9508, 903.7483
218.4329, 907.1467
218.9150, 902.3264
219.3971, 886.0789
219.8792, 859.9915
220.3614, 842.0164
220.8435, 838.3484
221.3256, 838.6353
221.8077, 835.4080
222.2898, 828.4680
222.7719, 816.4106
223.2541, 795.3848
223.7362, 767.4004
224.2183, 743.7729
224.7004, 729.8887
225.1825, 714.7156
225.6646, 689.7649
226.1468, 656.1479
226.6289, 620.0837
227.1110, 584.1292
227.5931, 548.1812
228.0752, 511.7224
228.5573, 473.7864
229.0395, 437.4060
229.5216, 405.3730
230.0037, 376.8782
230.4858, 349.3826
230.9679, 323.0100
231.4500, 296.8169
231.9322, 267.2896
232.4143, 231.7927
232.8964, 200.1401
233.3785, 177.8408
233.8606, 164.2832
234.3427, 160.8408
234.8249, 176.1094
235.3070, 198.4861
235.7891, 212.5288
236.2712, 218.3389
236.7533, 214.2861
237.2354, 189.5234
237.7176, 154.4219
238.1997, 131.8601
238.6818, 132.0010
239.1639, 142.5044
239.6460, 153.4895
240.1281, 165.2014
240.6103, 170.8440
241.0924, 163.9065
241.5745, 148.4431
242.0566, 135.0405
242.5387, 126.4170
243.0208, 117.9678
243.5030, 105.5806
243.9851, 89.81763
244.4672, 74.39502
244.9493, 60.11890
245.4314, 48.30737
245.9135, 41.60425
246.3957, 44.43750
246.8778, 44.98486
247.3599, 33.36377
247.8420, 13.45557
248.3241, 1.399902
248.8062, 5.462891
249.2884, 2.609863
249.7705, 3.5156000E-02
250.2526, 4.172607
250.7347, 3.731689
251.2168, 10.52637
251.6989, 30.14185
252.1811, 36.77075
252.6632, 22.58594
253.1453, 1.163330
253.6274, 3.805908
254.1095, 12.36963
254.5916, 24.97778
255.0738, 24.10669
255.5559, 19.42236
256.0380, 26.25830
256.5201, 48.28955
257.0022, 69.45215
257.4843, 68.47290
257.9665, 37.13452
258.4486, 13.09937
258.9307, 2.652588
259.4128, 3.620117
259.8949, 14.98022
260.3770, 31.74487
260.8592, 44.67969
261.3413, 42.20679
261.8234, 19.93921
262.3055, 21.94873
262.7876, 70.23389
263.2697, 120.4629
263.7519, 146.5654
264.2340, 151.9512
264.7161, 154.7048
265.1982, 167.4910
265.6803, 190.2075
266.1624, 217.9055
266.6446, 262.0276
267.1267, 298.2815
267.6088, 313.7966
268.0909, 316.6538
268.5730, 321.6470
269.0551, 337.2043
269.5373, 361.3564
270.0194, 385.3101
270.5015, 417.0574
270.9836, 438.6057
271.4657, 441.0476
271.9478, 435.2234
272.4300, 433.8638
272.9121, 442.0359
273.3942, 455.0735
273.8763, 463.3420
274.3584, 464.7148
274.8405, 464.6079
275.3227, 464.1738
275.8048, 461.9475
276.2869, 456.3015
276.7690, 447.1311
277.2511, 436.2249
277.7332, 425.0259
278.2154, 411.9575
278.6975, 404.1780
279.1796, 402.6123
279.6617, 406.5613
280.1438, 417.0095
280.6259, 432.2844
281.1081, 449.0510
281.5902, 465.9421
282.0723, 483.2898
282.5544, 496.3840
283.0365, 501.7715
283.5186, 503.5764
284.0008, 502.5466
284.4829, 502.3696
284.9650, 509.0715
285.4471, 529.7109
285.9292, 555.7126
286.4113, 561.5835
286.8935, 541.9229
287.3756, 515.6194
287.8577, 480.7876
288.3398, 446.7461
288.8219, 429.4143
289.3040, 441.1873
289.7862, 460.3813
290.2683, 454.1885
290.7504, 419.2136
291.2325, 385.8374
291.7146, 365.3162
292.1967, 352.7371
292.6789, 343.0134
293.1610, 336.2734
293.6431, 330.0337
294.1252, 322.0415
294.6073, 312.8499
295.0894, 304.5698
295.5716, 296.3396
296.0537, 291.9053
296.5358, 298.8328
297.0179, 317.7419
297.5000, 327.3762
297.9821, 309.5215
298.4643, 280.6377
298.9464, 269.0745
299.4285, 278.8159
299.9106, 293.5161
300.3927, 296.1506
300.8748, 286.8542
301.3570, 280.2441
301.8391, 275.9009
302.3212, 276.1477
302.8033, 285.4844
303.2854, 302.6128
303.7675, 318.1250
304.2497, 324.5652
304.7318, 323.1592
305.2139, 327.8948
305.6960, 350.0107
306.1781, 366.1982
306.6602, 366.0771
307.1424, 354.3333
307.6245, 336.7366
308.1066, 313.5552
308.5887, 290.2385
309.0708, 279.8191
309.5529, 304.1604
310.0351, 314.8538
310.5172, 297.3735
310.9993, 273.6980
311.4814, 265.2266
311.9635, 276.0603
312.4456, 294.0212
312.9278, 301.5515
313.4099, 297.0413
313.8920, 285.8945
314.3741, 258.0181
314.8562, 231.5066
315.3383, 218.8137
315.8205, 220.5315
316.3026, 227.7158
316.7847, 233.7812
317.2668, 238.5183
317.7489, 236.3076
318.2310, 221.6057
318.7132, 206.0386
319.1953, 193.3638
319.6774, 182.3972
320.1595, 170.0410
320.6416, 153.5024
321.1237, 136.4968
321.6059, 129.3306
322.0880, 135.9885
322.5701, 140.7834
323.0522, 132.2043
323.5343, 122.2190
324.0164, 124.1865
324.4986, 142.9075
324.9807, 162.3137
325.4628, 167.1565
325.9449, 157.9695
326.4270, 141.2139
326.9091, 110.9131
327.3913, 82.63330
327.8734, 75.32764
328.3555, 88.57861
328.8376, 98.84985
329.3197, 91.26050
329.8018, 75.35474
330.2840, 68.61108
330.7661, 74.18652
331.2482, 81.37939
331.7303, 80.42358
332.2124, 72.34473
332.6945, 68.19580
333.1767, 73.57251
333.6588, 79.06665
334.1409, 78.88306
334.6230, 73.58618
335.1051, 65.22021
335.5872, 54.57983
336.0694, 41.78125
336.5515, 25.93408
337.0336, 0.6083980
337.5157, 20.24438
337.9979, 26.70532
338.4800, 25.94482
338.9621, 26.14673
339.4442, 29.62036
339.9263, 31.99292
340.4084, 23.72632
340.8906, 6.609375
341.3727, 20.41382
341.8548, 1.439697
342.3369, 17.58643
342.8190, 14.01050
343.3011, 9.177734
343.7833, 30.21021
344.2654, 29.31470
344.7475, 7.514648
345.2296, 5.894287
345.7117, 6.781006
346.1938, 3.701172
346.6760, 3.728760
347.1581, 12.62231
347.6402, 18.86230
348.1223, 20.34180
348.6044, 19.43286
349.0865, 19.91895
349.5687, 21.55005
350.0508, 25.83521
350.5329, 38.35913
351.0150, 50.32300
351.4971, 54.67334
351.9792, 50.48511
352.4614, 41.77686
352.9435, 26.06177
353.4256, 7.258789
353.9077, 3.088867
354.3898, 22.56519
354.8719, 42.10986
355.3541, 30.72485
355.8362, 2.593994
356.3183, 19.63794
356.8004, 5.808838
357.2825, 39.53809
357.7646, 47.31348
358.2468, 30.57324
358.7289, 10.50659
359.2110, 2.183594
359.6931, 8.006592
360.1752, 9.336670
360.6573, 5.296143
361.1395, 1.275391
361.6216, 15.16089
362.1037, 29.44727
362.5858, 33.28467
363.0679, 23.39673
363.5500, 6.566162
364.0322, 8.182129
364.5143, 25.46460
364.9964, 27.40137
365.4785, 2.236084
365.9606, 31.00879
366.4427, 39.83691
366.9249, 30.50879
367.4070, 14.64087
367.8891, 0.6357420
368.3712, 14.28564
368.8533, 16.06177
369.3354, 2.528320
369.8176, 21.31836
370.2997, 36.67334
370.7818, 48.72217
371.2639, 58.04541
371.7460, 65.04517
372.2281, 67.88110
372.7103, 60.40918
373.1924, 41.06055
373.6745, 32.24878
374.1566, 47.76929
374.6387, 66.34839
375.1208, 66.86499
375.6030, 50.56421
376.0851, 40.24121
376.5672, 51.94312
377.0493, 75.67920
377.5314, 96.09570
378.0135, 112.7280
378.4957, 119.0032
378.9778, 102.8320
379.4599, 71.16553
379.9420, 60.12231
380.4241, 87.75146
380.9063, 118.3396
381.3884, 140.4072
381.8705, 151.8787
382.3526, 143.6294
382.8347, 110.0278
383.3168, 68.66040
383.7990, 53.47095
384.2811, 85.23315
384.7632, 105.8250
385.2453, 111.5938
385.7274, 109.1936
386.2095, 101.0095
386.6917, 88.69312
387.1738, 74.83618
387.6559, 60.76392
388.1380, 46.74756
388.6201, 41.64087
389.1022, 59.64526
389.5844, 68.67358
390.0665, 55.47046
390.5486, 31.42407
391.0307, 10.02881
391.5128, 4.028320
391.9949, 11.56299
392.4771, 11.98462
392.9592, 4.500488
393.4413, 1.264648
393.9234, 2.746826
394.4055, 2.230713
394.8876, 0.9772950
395.3698, 1.235352
395.8519, 4.449707
396.3340, 13.49341
396.8161, 21.76538
397.2982, 12.93286
397.7803, 15.43042
398.2625, 35.32617
398.7446, 22.00073
399.2267, 14.50952
399.7088, 23.82690
400.1909, 13.76099
400.6730, 54.69287
401.1552, 90.17334
401.6373, 116.5205
402.1194, 122.7161
402.6015, 104.5576
403.0836, 82.50635
403.5657, 88.91162
404.0479, 137.2295
404.5300, 178.5735
405.0121, 212.2300
405.4942, 240.6755
405.9763, 262.9888
406.4584, 281.1709
406.9406, 298.1990
407.4227, 315.2200
407.9048, 334.0967
408.3869, 362.4746
408.8690, 402.5239
409.3511, 447.8997
409.8333, 503.3865
410.3154, 559.1331
410.7975, 606.7388
411.2796, 644.1841
411.7617, 674.5994
412.2438, 693.8667
412.7260, 706.0862
413.2081, 739.1450
413.6902, 803.6624
414.1723, 869.7454
414.6544, 908.0596
415.1365, 927.7725
415.6187, 960.4553
416.1008, 1030.063
416.5829, 1099.089
417.0650, 1138.291
417.5471, 1152.631
418.0292, 1159.703
418.5114, 1166.702
418.9935, 1173.249
419.4756, 1177.869
419.9577, 1175.520
420.4398, 1179.985
420.9219, 1203.769
421.4041, 1225.411
421.8862, 1224.631
422.3683, 1202.829
422.8504, 1178.041
423.3325, 1165.984
423.8146, 1165.030
424.2968, 1170.664
424.7789, 1195.871
425.2610, 1208.166
425.7431, 1191.304
426.2252, 1162.035
426.7073, 1136.099
427.1895, 1118.696
427.6716, 1116.890
428.1537, 1148.209
428.6358, 1210.099
429.1179, 1258.423
429.6000, 1286.046
430.0822, 1299.875
430.5643, 1298.076
431.0464, 1285.604
431.5285, 1283.112
432.0106, 1298.831
432.4927, 1324.840
432.9749, 1361.883
433.4570, 1405.375
433.9391, 1435.367
434.4212, 1441.571
434.9033, 1430.875
435.3854, 1419.802
435.8676, 1412.583
436.3497, 1398.793
436.8318, 1377.899
437.3139, 1348.333
437.7960, 1305.009
438.2781, 1251.555
438.7603, 1198.717
439.2424, 1155.507
439.7245, 1122.427
440.2066, 1085.789
440.6887, 1042.289
441.1708, 1001.524
441.6530, 960.7478
442.1351, 924.8096
442.6172, 902.2539
443.0993, 896.5168
443.5814, 891.2678
444.0635, 863.8210
444.5457, 818.8884
445.0278, 790.7397
445.5099, 786.2688
445.9920, 793.6841
446.4741, 806.8210
446.9562, 824.5366
447.4384, 843.2815
447.9205, 869.2590
448.4026, 890.0688
448.8847, 887.2439
449.3668, 871.6423
449.8489, 875.7048
450.3311, 914.3689
450.8132, 969.2866
451.2953, 1006.915
451.7774, 1014.286
452.2595, 1033.370
452.7416, 1071.460
453.2238, 1113.852
453.7059, 1155.970
454.1880, 1195.223
454.6701, 1227.138
455.1522, 1247.482
455.6343, 1262.705
456.1165, 1296.037
456.5986, 1355.625
457.0807, 1412.507
457.5628, 1458.287
458.0449, 1499.981
458.5270, 1540.768
459.0092, 1581.071
459.4913, 1621.100
459.9734, 1657.844
460.4555, 1695.014
460.9376, 1741.341
461.4197, 1797.448
461.9019, 1858.827
462.3840, 1923.710
462.8661, 1990.790
463.3482, 2055.430
463.8303, 2127.707
464.3124, 2184.820
464.7946, 2208.977
465.2767, 2219.428
465.7588, 2240.749
466.2409, 2277.917
466.7230, 2318.352
467.2051, 2348.783
467.6873, 2368.922
468.1694, 2382.860
468.6515, 2376.189
469.1336, 2379.834
469.6157, 2417.883
470.0978, 2465.236
470.5800, 2488.188
471.0621, 2474.230
471.5442, 2438.141
472.0263, 2390.635
472.5084, 2332.944
472.9905, 2285.667
473.4727, 2258.234
473.9548, 2231.094
474.4369, 2188.480
474.9190, 2132.038
475.4011, 2064.241
475.8832, 1981.182
476.3654, 1890.691
476.8475, 1795.101
477.3296, 1696.027
477.8117, 1595.696
478.2938, 1494.685
478.7759, 1397.129
479.2581, 1310.078
479.7402, 1241.290
480.2223, 1155.999
480.7044, 1040.203
481.1865, 925.5654
481.6686, 823.8279
482.1508, 735.6846
482.6329, 660.0400
483.1150, 597.1343
483.5971, 543.1523
484.0792, 492.0342
484.5613, 445.2258
485.0435, 398.9917
485.5256, 350.3540
486.0077, 303.3262
486.4898, 259.4358
486.9719, 218.8777
487.4540, 185.6191
487.9362, 162.9055
488.4183, 147.1416
488.9004, 139.1240
489.3825, 136.2898
489.8646, 124.6313
490.3467, 95.15210
490.8289, 56.66211
491.3110, 30.96655
491.7931, 34.37012
492.2752, 24.12524
492.7573, 18.77197
493.2394, 59.77393
493.7216, 70.62744
494.2037, 56.65356
494.6858, 44.34204
495.1679, 54.45410
495.6500, 75.60425
496.1321, 66.65332
496.6143, 14.12744
497.0964, 22.35376
497.5785, 14.09888
498.0606, 8.791016
498.5427, 23.17798
499.0248, 27.70825
499.5070, 22.54126
499.9891, 1.916504
500.4712, 25.29028
500.9533, 45.47656
501.4355, 59.14917
501.9176, 79.19702
502.3997, 114.6514
502.8818, 158.5549
503.3639, 190.2957
503.8460, 192.7180
504.3282, 207.7346
504.8103, 243.7607
505.2924, 286.9438
505.7745, 332.6587
506.2566, 376.7808
506.7387, 409.7234
507.2209, 421.3416
507.7030, 419.9087
508.1851, 435.1824
508.6672, 471.1028
509.1493, 511.6064
509.6314, 561.4810
510.1136, 606.9414
510.5957, 631.6687
511.0778, 634.7583
511.5599, 638.7976
512.0420, 650.7627
512.5241, 670.9595
513.0062, 702.3906
513.4883, 743.7332
513.9705, 785.9902
514.4526, 823.0874
514.9347, 858.7996
515.4168, 904.0417
515.8989, 977.2461
516.3810, 1031.670
516.8632, 1047.212
517.3453, 1060.386
517.8274, 1095.138
518.3095, 1150.679
518.7916, 1215.917
519.2737, 1285.303
519.7559, 1355.689
520.2380, 1421.879
520.7201, 1485.574
521.2022, 1533.371
521.6843, 1553.169
522.1664, 1562.156
522.6486, 1582.787
523.1307, 1615.010
523.6128, 1633.342
524.0949, 1625.545
524.5770, 1603.447
525.0591, 1580.293
525.5413, 1553.248
526.0234, 1507.688
526.5055, 1434.725
526.9876, 1346.812
527.4697, 1270.481
527.9518, 1219.991
528.4340, 1151.230
528.9161, 1056.058
529.3982, 952.2488
529.8803, 840.0327
530.3624, 726.6375
530.8445, 628.3677
531.3267, 555.6787
531.8088, 493.9756
532.2909, 414.7588
532.7730, 319.1785
533.2551, 245.5073
533.7372, 209.9338
534.2194, 185.2795
534.7015, 140.6250
535.1836, 77.59790
535.6657, 25.69580
536.1478, 15.07495
536.6299, 41.12085
537.1121, 41.20166
537.5942, 26.99927
538.0763, 20.07349
538.5584, 27.75537
539.0405, 40.43481
539.5226, 45.13574
540.0048, 41.33716
540.4869, 32.49878
540.9690, 11.55249
541.4511, 5.534668
541.9332, 5.038086
542.4153, 0.1057130
542.8975, 10.48706
543.3796, 44.65625
543.8617, 85.31396
544.3438, 119.3557
544.8259, 149.4543
545.3080, 179.2476
545.7902, 208.5977
546.2723, 252.0491
546.7544, 324.7642
547.2365, 423.0632
547.7186, 507.8308
548.2007, 564.5576
548.6829, 628.4849
549.1650, 697.4841
549.6471, 781.4290
550.1292, 890.5906
550.6113, 1023.984
551.0934, 1171.449
551.5756, 1333.011
552.0577, 1503.159
552.5398, 1659.141
553.0219, 1796.000
553.5040, 1931.137
553.9861, 2065.707
554.4683, 2211.484
554.9504, 2384.891
555.4325, 2589.314
555.9146, 2777.324
556.3967, 2927.964
556.8788, 3061.321
557.3610, 3204.193
557.8431, 3348.382
558.3252, 3463.339
558.8073, 3534.093
559.2894, 3565.045
559.7715, 3564.951
560.2537, 3533.317
560.7358, 3471.600
561.2179, 3366.059
561.7000, 3241.844
562.1821, 3100.530
562.6642, 2948.611
563.1464, 2798.877
563.6285, 2660.625
564.1106, 2517.036
564.5927, 2336.901
565.0748, 2135.743
565.5569, 1974.681
566.0391, 1867.999
566.5212, 1782.125
567.0033, 1683.533
567.4854, 1572.876
567.9675, 1502.178
568.4496, 1500.026
568.9318, 1496.265
569.4139, 1461.754
569.8960, 1426.948
570.3781, 1425.348
570.8602, 1460.939
571.3423, 1512.226
571.8245, 1563.274
572.3066, 1614.188
572.7887, 1665.690
573.2708, 1716.888
573.7529, 1773.957
574.2350, 1843.990
574.7172, 1917.550
575.1993, 1983.161
575.6814, 2041.945
576.1635, 2088.126
576.6456, 2114.982
577.1277, 2133.408
577.6099, 2151.972
578.0920, 2169.074
578.5741, 2178.738
579.0562, 2178.106
579.5383, 2170.927
580.0204, 2166.113
580.5026, 2167.766
580.9847, 2150.688
581.4668, 2103.790
581.9489, 2050.824
582.4310, 2003.155
582.9132, 1957.940
583.3953, 1909.820
583.8774, 1854.297
584.3596, 1803.305
584.8417, 1765.949
585.3238, 1737.645
585.8059, 1713.452
586.2880, 1691.770
586.7701, 1664.654
587.2523, 1625.583
587.7344, 1576.540
588.2165, 1527.698
588.6986, 1478.584
589.1807, 1430.390
589.6628, 1385.713
590.1450, 1340.048
590.6271, 1293.336
591.1092, 1243.281
591.5913, 1181.566
592.0734, 1093.053
592.5555, 1001.567
593.0377, 944.8433
593.5198, 916.9060
594.0019, 881.8123
594.4840, 829.5464
594.9661, 766.8308
595.4482, 698.6445
595.9304, 622.3484
596.4125, 557.8696
596.8946, 515.0259
597.3767, 470.2002
597.8588, 406.8518
598.3409, 343.6453
598.8231, 308.2278
599.3052, 303.5447
599.7873, 301.2356
600.2694, 272.0227
600.7515, 225.1482
601.2336, 193.1299
601.7158, 178.2537
602.1979, 158.8384
602.6800, 122.6943
603.1621, 80.18286
603.6442, 48.05811
604.1263, 26.34912
604.6085, 12.95337
605.0906, 17.31519
605.5727, 20.80249
606.0548, 8.915527
606.5369, 11.35718
607.0190, 25.27905
607.5012, 26.85278
607.9833, 23.39233
608.4654, 27.04639
608.9475, 37.38745
609.4296, 34.80884
609.9117, 12.59229
610.3939, 7.602539
610.8760, 11.70312
611.3581, 6.122070
611.8402, 5.734619
612.3223, 13.19360
612.8044, 18.50000
613.2866, 10.27148
613.7687, 4.925049
614.2508, 23.42139
614.7329, 59.84302
615.2150, 90.68457
615.6971, 100.7629
616.1793, 97.83765
616.6614, 96.19360
617.1435, 94.02075
617.6256, 113.6189
618.1077, 175.8464
618.5898, 231.3601
619.0720, 235.5837
619.5541, 209.3540
620.0362, 198.2246
620.5183, 205.8811
621.0004, 231.5830
621.4825, 292.7563
621.9647, 362.6433
622.4468, 401.3462
622.9289, 409.5691
623.4110, 420.5769
623.8931, 458.6157
624.3752, 515.5356
624.8574, 565.2788
625.3395, 606.5254
625.8216, 647.8479
626.3037, 684.3171
626.7858, 725.9155
627.2679, 785.5464
627.7501, 856.4758
628.2322, 915.2241
628.7143, 942.9807
629.1964, 974.1570
629.6785, 1032.654
630.1606, 1107.083
630.6428, 1183.597
631.1249, 1258.668
631.6070, 1326.357
632.0891, 1378.618
632.5712, 1419.193
633.0533, 1468.310
633.5355, 1527.774
634.0176, 1595.296
634.4997, 1678.433
634.9818, 1763.182
635.4639, 1837.805
635.9460, 1903.372
636.4282, 1970.465
636.9103, 2043.451
637.3924, 2117.488
637.8745, 2193.511
638.3566, 2267.020
638.8387, 2326.950
639.3209, 2372.369
639.8030, 2418.408
640.2851, 2480.699
640.7672, 2555.017
641.2493, 2609.933
641.7314, 2642.000
642.2136, 2663.927
642.6957, 2670.458
643.1778, 2673.207
643.6599, 2684.671
644.1420, 2702.234
644.6241, 2707.106
645.1063, 2706.411
645.5884, 2679.008
646.0705, 2593.288
646.5526, 2473.971
647.0347, 2367.556
647.5168, 2284.807
647.9990, 2205.239
648.4811, 2110.657
648.9632, 2001.980
649.4453, 1885.610
649.9274, 1752.353
650.4095, 1628.694
650.8917, 1531.051
651.3738, 1438.737
651.8559, 1330.715
652.3380, 1210.678
652.8201, 1105.098
653.3022, 1025.440
653.7844, 958.9202
654.2665, 902.7532
654.7486, 852.7354
655.2307, 804.6304
655.7128, 756.4617
656.1949, 703.4087
656.6771, 639.3452
657.1592, 567.1265
657.6413, 499.7207
658.1234, 432.1023
658.6055, 386.8303
659.0876, 385.7852
659.5698, 392.3477
660.0519, 369.4731
660.5340, 321.9478
661.0161, 283.5056
661.4982, 272.2656
661.9803, 259.8164
662.4625, 225.0996
662.9446, 183.2385
663.4267, 158.0354
663.9088, 151.6650
664.3909, 146.3516
664.8730, 126.1064
665.3552, 96.77173
665.8373, 76.88306
666.3194, 66.21704
666.8015, 67.44971
667.2836, 94.50586
667.7657, 117.1660
668.2479, 93.84668
668.7300, 34.02051
669.2121, 1.611084
669.6942, 26.37622
670.1763, 50.02075
670.6584, 54.83838
671.1406, 47.01587
671.6227, 27.21484
672.1048, 0.3078610
672.5869, 18.69482
673.0690, 17.32275
673.5511, 5.427246
674.0333, 7.190430
674.5154, 22.42505
674.9975, 18.55054
675.4796, 19.22900
675.9617, 53.46118
676.4438, 48.84399
676.9260, 11.26099
677.4081, 10.56396
677.8902, 12.48926
678.3723, 5.819824
678.8544, 18.09497
679.3365, 41.94409
679.8187, 51.87476
680.3008, 48.84302
680.7829, 41.12451
681.2650, 32.91772
681.7471, 22.99023
682.2292, 4.385254
682.7114, 18.02905
683.1935, 20.41553
683.6756, 1.260742
684.1577, 21.87256
684.6398, 23.14307
685.1219, 11.15283
685.6041, 8.162598
686.0862, 21.95972
686.5683, 31.84863
687.0504, 41.92725
687.5325, 44.27026
688.0146, 28.34033
688.4968, 2.936035
688.9789, 15.89038
689.4610, 23.79663
689.9431, 21.00049
690.4252, 3.703857
690.9073, 34.32959
691.3895, 38.83276
691.8716, 18.70874
692.3537, 1.524658
692.8358, 2.104492
693.3179, 13.10156
693.8000, 19.72314
694.2822, 19.59058
694.7643, 25.44751
695.2464, 45.89429
695.7285, 60.00171
696.2106, 54.12720
696.6927, 39.27734
697.1749, 30.75342
697.6570, 31.52515
698.1391, 28.00244
698.6212, 4.845215
699.1033, 15.95776
699.5854, 13.10571
700.0676, 6.715820
700.5497, 30.77637
701.0318, 53.59766
701.5139, 66.35400
701.9960, 53.20703
702.4781, 18.55029
702.9603, 2.292480
703.4424, 8.633057
703.9245, 13.18286
704.4066, 5.511230
704.8887, 5.125244
705.3708, 4.569336
705.8530, 8.530273
706.3351, 10.31348
706.8172, 20.46216
707.2993, 38.39233
707.7814, 14.91016
708.2635, 21.95020
708.7457, 42.39893
709.2278, 42.87573
709.7099, 36.06079
710.1920, 27.41162
710.6741, 20.21362
711.1563, 22.27368
711.6384, 32.55908
712.1205, 38.08154
712.6026, 33.16602
713.0847, 27.77832
713.5668, 29.73975
714.0490, 37.43018
714.5311, 40.68530
715.0132, 37.31323
715.4953, 33.20898
715.9774, 25.77515
716.4595, 20.64575
716.9417, 19.66455
717.4238, 23.60352
717.9059, 35.86938
718.3880, 63.74487
718.8701, 83.40137
719.3522, 71.27979
719.8344, 47.98584
720.3165, 41.61084
720.7986, 50.67725
721.2807, 57.13989
721.7628, 51.53760
722.2449, 41.11084
722.7271, 39.44263
723.2092, 47.05347
723.6913, 49.00732
724.1734, 43.65723
724.6555, 35.76514
725.1376, 23.28491
725.6198, 12.53296
726.1019, 16.87598
726.5840, 39.61670
727.0661, 57.26929
727.5482, 65.19531
728.0303, 71.02148
728.5125, 83.42407
728.9946, 93.27319
729.4767, 83.47363
729.9588, 53.19604
730.4409, 26.83325
730.9230, 27.47290
731.4052, 43.84766
731.8873, 61.16602
732.3694, 76.12939
732.8515, 74.01929
733.3336, 51.21924
733.8157, 25.64355
734.2979, 15.82910
734.7800, 19.83374
735.2621, 21.87183
735.7442, 22.90039
736.2263, 23.11206
736.7084, 17.66479
737.1906, 16.06763
737.6727, 30.29492
738.1548, 53.21973
738.6369, 64.67993
739.1190, 57.45361
739.6011, 44.80859
740.0833, 21.88721
740.5654, 2.563477
741.0475, 8.055908
741.5296, 33.66235
742.0117, 57.53735
742.4938, 69.46582
742.9760, 75.38037
743.4581, 86.83228
743.9402, 101.3311
744.4223, 97.07178
744.9044, 69.87256
745.3865, 47.10498
745.8687, 42.80493
746.3508, 50.95312
746.8329, 62.92114
747.3150, 82.08813
747.7971, 90.97803
748.2792, 79.63892
748.7614, 72.71143
749.2435, 77.36890
749.7256, 86.56323
750.2077, 95.70825
750.6898, 103.9351
751.1719, 107.2546
751.6541, 97.01416
752.1362, 87.54248
752.6183, 92.09961
753.1004, 104.8977
753.5825, 118.2195
754.0646, 129.4797
754.5468, 134.7573
755.0289, 130.9119
755.5110, 120.5483
755.9931, 107.1101
756.4752, 89.69775
756.9573, 78.66333
757.4395, 77.56055
757.9216, 83.37671
758.4037, 98.08325
758.8858, 113.9634
759.3679, 110.7861
759.8500, 72.97681
760.3322, 51.93188
760.8143, 62.50464
761.2964, 74.30469
761.7785, 72.24829
762.2606, 63.91382
762.7427, 61.48779
763.2249, 67.72339
763.7070, 72.82959
764.1891, 64.55078
764.6712, 53.95654
765.1533, 62.43359
765.6354, 81.79443
766.1176, 83.60767
766.5997, 61.25171
767.0818, 36.08301
767.5639, 28.10596
768.0460, 30.66089
768.5281, 16.34497
769.0103, 18.84155
769.4924, 29.54468
769.9745, 1.027100
770.4566, 33.36475
770.9387, 37.04688
771.4208, 21.03687
771.9030, 16.93677
772.3851, 31.66284
772.8672, 44.78101
773.3493, 56.42798
773.8314, 65.31860
774.3135, 72.84546
774.7957, 76.57788
775.2778, 71.09595
775.7599, 55.17993
776.2420, 40.28003
776.7241, 33.33447
777.2062, 30.63501
777.6884, 26.16895
778.1705, 22.98486
778.6526, 32.32153
779.1347, 55.42993
779.6168, 75.50366
780.0989, 76.45752
780.5811, 62.40796
781.0632, 42.87256
781.5453, 15.84448
782.0274, 11.27808
782.5095, 42.59302
782.9916, 73.58203
783.4738, 76.29199
783.9559, 57.60376
784.4380, 43.12744
784.9201, 27.14136
785.4022, 24.75903
785.8843, 51.34399
786.3665, 74.61597
786.8486, 76.92993
787.3307, 67.09277
787.8128, 58.47656
788.2949, 53.57349
788.7770, 50.82446
789.2592, 50.42285
789.7413, 51.07178
790.2234, 51.81421
790.7055, 52.62061
791.1876, 53.84351
791.6697, 55.28979
792.1519, 55.74146
792.6340, 53.75366
793.1161, 51.23364
793.5982, 53.59399
794.0803, 60.37134
794.5624, 66.60059
795.0446, 72.37378
795.5267, 70.39282
796.0088, 53.21631
796.4909, 27.10913
796.9730, 11.39331
797.4551, 10.20947
797.9373, 8.805908
798.4194, 9.031982
798.9015, 6.763916
799.3836, 2.301025
799.8657, 13.57446
800.3478, 20.20337
800.8300, 21.28882
801.3121, 25.68896
801.7942, 50.19897
802.2763, 62.38550
802.7584, 32.00464
803.2405, 12.93726
803.7227, 38.92261
804.2048, 42.35156
804.6869, 40.38135
805.1690, 42.91650
805.6511, 45.48267
806.1332, 38.68042
806.6154, 28.01660
807.0975, 30.46851
807.5796, 46.60205
808.0617, 61.88379
808.5438, 68.19019
809.0259, 70.56421
809.5081, 78.61426
809.9902, 93.03149
810.4723, 103.3271
810.9544, 109.4609
811.4365, 111.2891
811.9186, 106.7271
812.4008, 100.1855
812.8829, 95.48926
813.3650, 92.58984
813.8471, 96.82886
814.3292, 117.6897
814.8113, 132.4121
815.2935, 129.4343
815.7756, 125.9214
816.2577, 137.1458
816.7398, 158.0281
817.2219, 171.8491
817.7040, 170.1487
818.1862, 173.3389
818.6683, 205.7747
819.1504, 239.3589
819.6325, 241.6829
820.1146, 220.9131
820.5967, 196.0452
821.0789, 174.9075
821.5610, 164.3020
822.0431, 174.2463
822.5252, 197.8933
823.0073, 220.2266
823.4894, 240.9253
823.9716, 255.4580
824.4537, 262.6311
824.9358, 266.0520
825.4179, 267.5088
825.9000, 269.1079
826.3821, 280.0962
826.8643, 305.2954
827.3464, 315.9827
827.8285, 306.5806
828.3106, 294.7498
828.7927, 285.4072
829.2748, 281.7476
829.7570, 292.9331
830.2391, 323.3865
830.7212, 339.5232
831.2033, 327.6091
831.6854, 314.9297
832.1675, 310.6963
832.6497, 309.7351
833.1318, 306.5894
833.6139, 301.4692
834.0960, 298.8943
834.5781, 304.8950
835.0602, 305.3901
835.5424, 285.0774
836.0245, 257.3970
836.5066, 234.9041
836.9887, 220.6970
837.4708, 221.6428
837.9529, 240.0911
838.4351, 257.3672
838.9172, 249.1821
839.3993, 223.6582
839.8814, 204.6653
840.3635, 191.4719
840.8456, 174.1365
841.3278, 149.5046
841.8099, 129.5149
842.2920, 126.3855
842.7741, 134.5015
843.2562, 128.2903
843.7383, 101.3757
844.2205, 90.24634
844.7026, 106.4978
845.1847, 121.6665
845.6668, 121.2898
846.1489, 109.4656
846.6310, 92.51733
847.1132, 67.36963
847.5953, 49.29199
848.0774, 40.85010
848.5595, 36.01001
849.0416, 31.75684
849.5237, 31.31519
850.0059, 42.30493
850.4880, 61.02417
850.9701, 69.88330
851.4522, 59.05347
851.9343, 45.15137
852.4164, 34.28613
852.8986, 25.95093
853.3807, 19.48193
853.8628, 15.31177
854.3449, 14.84766
854.8270, 18.51074
855.3091, 24.33179
855.7913, 32.85156
856.2734, 40.98730
856.7555, 43.06860
857.2376, 40.37988
857.7197, 36.07251
858.2018, 31.34326
858.6840, 29.26221
859.1661, 33.02393
859.6482, 35.84375
860.1303, 20.47412
860.6124, 9.684814
861.0945, 18.85059
861.5767, 2.942871
862.0588, 16.69141
862.5409, 32.14844
863.0230, 41.14087
863.5051, 38.92480
863.9872, 24.57593
864.4694, 15.72144
864.9515, 10.61523
865.4336, 15.14941
865.9157, 40.26611
866.3978, 64.96606
866.8799, 72.23022
867.3621, 65.97388
867.8442, 57.75879
868.3263, 44.37500
868.8084, 36.58643
869.2905, 32.70044
869.7726, 38.00586
870.2548, 65.97070
870.7369, 98.93311
871.2190, 112.0242
871.7011, 102.9255
872.1832, 93.19897
872.6653, 88.69531
873.1475, 90.38696
873.6296, 105.4719
874.1117, 122.7092
874.5938, 127.5068
875.0759, 121.5188
875.5580, 113.9946
876.0402, 108.5151
876.5223, 109.4338
877.0044, 126.3540
877.4865, 149.7976
877.9686, 164.6047
878.4507, 170.7710
878.9329, 167.8906
879.4150, 157.0205
879.8971, 149.1208
880.3792, 153.9998
880.8613, 168.2778
881.3434, 186.5986
881.8256, 207.9683
882.3077, 217.2236
882.7898, 211.3850
883.2719, 214.9092
883.7540, 243.9243
884.2361, 276.3948
884.7183, 274.7952
885.2004, 238.4451
885.6825, 212.5759
886.1646, 193.5496
886.6467, 194.1624
887.1288, 232.7832
887.6110, 267.9570
888.0931, 255.0264
888.5752, 210.6333
889.0573, 205.0957
889.5394, 272.3247
890.0215, 313.8188
890.5037, 312.5488
890.9858, 306.5259
891.4679, 307.6321
891.9500, 314.3750
892.4321, 324.1326
892.9142, 335.0046
893.3964, 338.9050
893.8785, 325.1958
894.3606, 317.3892
894.8427, 330.5293
895.3248, 346.8672
895.8069, 342.6726
896.2891, 330.0229
896.7712, 343.8677
897.2533, 397.1111
897.7354, 438.3113
898.2175, 423.5305
898.6996, 397.8638
899.1818, 401.1631
899.6639, 419.6577
900.1460, 429.2910
900.6281, 427.6594
901.1102, 427.1396
901.5923, 435.1101
902.0745, 446.6392
902.5566, 457.5864
903.0387, 467.3887
903.5208, 473.2908
904.0029, 476.8335
904.4850, 485.1252
904.9672, 500.2996
905.4493, 516.5288
905.9314, 529.1089
906.4135, 537.0547
906.8956, 535.4507
907.3777, 525.7847
907.8599, 517.3682
908.3420, 511.6606
908.8241, 516.5247
909.3062, 538.2466
909.7883, 563.4197
910.2704, 566.0491
910.7526, 546.5771
911.2347, 544.9294
911.7168, 563.9229
912.1990, 583.8518
912.6811, 600.0469
913.1632, 615.2869
913.6453, 633.9507
914.1274, 652.2629
914.6096, 654.3367
915.0917, 629.5820
915.5738, 620.4082
916.0559, 634.3579
916.5380, 650.7017
917.0201, 661.8567
917.5023, 671.5879
917.9844, 689.3430
918.4665, 714.6174
918.9486, 713.3618
919.4307, 657.2205
919.9128, 617.8025
920.3950, 609.5103
920.8771, 609.2041
921.3592, 613.7698
921.8413, 614.6223
922.3234, 595.5725
922.8055, 552.8298
923.2877, 514.8445
923.7698, 488.0117
924.2519, 465.5959
924.7340, 443.7866
925.2161, 426.3892
925.6982, 423.3586
926.1804, 427.0181
926.6625, 415.8816
927.1446, 381.7041
927.6267, 343.4641
928.1088, 302.0920
928.5909, 267.0574
929.0731, 250.1975
929.5552, 240.9558
930.0373, 222.4993
930.5194, 195.2778
931.0015, 175.8494
931.4836, 176.0571
931.9658, 176.6465
932.4479, 159.5820
932.9300, 136.5496
933.4121, 119.2783
933.8942, 109.4060
934.3763, 108.3591
934.8585, 114.5283
935.3406, 113.0288
935.8227, 83.84570
936.3048, 50.19092
936.7869, 49.09180
937.2690, 66.77490
937.7512, 75.16626
938.2333, 71.80029
938.7154, 59.23950
939.1975, 39.10645
939.6796, 22.42651
940.1617, 25.64307
940.6439, 38.56323
941.1260, 37.82178
941.6081, 25.21851
942.0902, 6.329346
942.5723, 15.44482
943.0544, 27.80811
943.5366, 22.96411
944.0187, 10.50513
944.5008, 6.842773
944.9829, 9.791504
945.4650, 4.243652
945.9471, 9.960938
946.4293, 19.70264
946.9114, 21.12329
947.3935, 18.44458
947.8756, 16.86328
948.3577, 13.79126
948.8398, 0.8557130
949.3220, 27.49951
949.8041, 36.32739
950.2862, 24.39893
950.7683, 9.745850
951.2504, 2.783447
951.7325, 9.295410
952.2147, 3.439453
952.6968, 9.929688
953.1789, 4.791260
953.6610, 24.45654
954.1431, 40.32812
954.6252, 37.26538
955.1074, 31.52930
955.5895, 31.19116
956.0716, 31.54639
956.5537, 25.65649
957.0358, 14.11572
957.5179, 9.612305
958.0001, 15.51587
958.4822, 18.53247
958.9643, 14.09888
959.4464, 12.77856
959.9285, 21.11548
960.4106, 35.45850
960.8928, 50.52808
961.3749, 66.59155
961.8570, 80.26123
962.3391, 93.49561
962.8212, 100.5251
963.3033, 98.86816
963.7855, 92.52612
964.2676, 77.22681
964.7497, 61.56543
965.2318, 66.88672
965.7139, 102.0488
966.1960, 120.7656
966.6782, 106.3523
967.1603, 98.88379
967.6424, 114.1658
968.1245, 129.8540
968.6066, 123.3691
969.0887, 106.5464
969.5709, 115.8752
970.0530, 169.8518
970.5351, 197.4460
971.0172, 164.8030
971.4993, 142.6533
971.9814, 162.3892
972.4636, 193.4398
972.9457, 212.5109
973.4278, 219.5797
973.9099, 219.3138
974.3920, 209.8076
974.8741, 198.9397
975.3563, 181.4441
975.8384, 170.5699
976.3205, 178.6707
976.8026, 191.1331
977.2847, 193.7490
977.7668, 186.4760
978.2490, 174.9785
978.7311, 156.9479
979.2132, 141.5605
979.6953, 129.7107
980.1774, 122.5098
980.6595, 125.6421
981.1417, 130.4805
981.6238, 126.6760
982.1059, 114.1366
982.5880, 99.51648
983.0701, 80.04028
983.5522, 66.62646
984.0344, 71.83545
984.5165, 74.33057
984.9986, 52.56885
985.4807, 24.14319
985.9628, 15.56165
986.4449, 28.09570
986.9271, 40.71594
987.4092, 50.34009
987.8913, 53.30334
988.3734, 39.99060
988.8555, 27.73987
989.3376, 36.05908
989.8198, 50.33142
990.3019, 44.00757
990.7840, 15.15991
991.2661, 7.836426
991.7482, 9.827759
992.2303, 10.10278
992.7125, 23.24097
993.1946, 31.77429
993.6767, 13.57507
994.1588, 15.68237
994.6409, 26.36023
995.1230, 14.41626
995.6052, 4.599243
996.0873, 8.032959
996.5694, 14.91724
997.0515, 27.68896
997.5336, 35.57764
998.0157, 20.50134
998.4979, 2.903076
998.9800, 4.807617
999.4621, 19.64783
999.9442, 41.74707
1000.426, 47.99353
1000.908, 48.12439
1001.391, 49.13477
1001.873, 46.56287
1002.355, 30.96826
1002.837, 9.154419
1003.319, 5.957520
1003.801, 11.40564
1004.283, 8.532959
1004.765, 12.36401
1005.247, 28.70947
1005.730, 22.81946
1006.212, 13.01685
1006.694, 16.45435
1007.176, 26.74194
1007.658, 31.59290
1008.140, 29.59839
1008.622, 32.75232
1009.104, 54.70764
1009.587, 70.97327
1010.069, 68.94946
1010.551, 55.76489
1011.033, 30.19824
1011.515, 3.531372
1011.997, 5.646484
1012.479, 6.755981
1012.961, 27.87354
1013.443, 67.23157
1013.926, 95.15161
1014.408, 96.13770
1014.890, 81.33398
1015.372, 46.05847
1015.854, 7.580322
1016.336, 1.263550
1016.818, 25.56958
1017.300, 50.93103
1017.783, 64.09180
1018.265, 69.38806
1018.747, 66.09753
1019.229, 58.09448
1019.711, 45.10071
1020.193, 30.98767
1020.675, 22.93677
1021.157, 22.09045
1021.639, 19.63953
1022.122, 8.565796
1022.604, 1.250366
1023.086, 7.643921
1023.568, 13.91748
1024.050, 5.465210
1024.532, 8.235352
1025.014, 8.855835
1025.496, 5.890015
1025.979, 17.36597
1026.461, 17.88599
1026.943, 18.66589
1027.425, 23.50952
1027.907, 28.91077
1028.389, 30.43567
1028.871, 32.09436
1029.353, 42.45593
1029.835, 61.94910
1030.318, 74.66418
1030.800, 74.84314
1031.282, 72.41772
1031.764, 65.86560
1032.246, 61.02319
1032.728, 66.66187
1033.210, 72.87671
1033.692, 59.67102
1034.174, 27.49646
1034.657, 17.54297
1035.139, 52.35840
1035.621, 81.24988
1036.103, 105.0573
1036.585, 114.5599
1037.067, 89.12463
1037.549, 57.51648
1038.031, 61.40259
1038.514, 98.28564
1038.996, 112.5359
1039.478, 82.62830
1039.960, 65.69495
1040.442, 70.70093
1040.924, 78.18127
1041.406, 83.04907
1041.888, 84.94678
1042.370, 83.00806
1042.853, 77.60559
1043.335, 71.24255
1043.817, 61.26233
1044.299, 56.48315
1044.781, 58.59912
1045.263, 63.24475
1045.745, 71.90955
1046.227, 78.03296
1046.709, 73.70581
1047.192, 62.28821
1047.674, 58.47302
1048.156, 68.25745
1048.638, 62.01868
1049.120, 29.38684
1049.602, 10.17737
1050.084, 20.49231
1050.566, 33.80322
1051.049, 27.03052
1051.531, 12.32886
1052.013, 20.21240
1052.495, 52.60889
1052.977, 76.75134
1053.459, 92.86292
1053.941, 96.04846
1054.423, 82.71594
1054.906, 68.52136
1055.388, 63.94495
1055.870, 67.05701
1056.352, 75.96277
1056.834, 90.19360
1057.316, 90.64844
1057.798, 76.40417
1058.280, 67.91309
1058.762, 69.06128
1059.245, 75.51782
1059.727, 85.06311
1060.209, 96.82361
1060.691, 110.0869
1061.173, 123.5543
1061.655, 138.3209
1062.137, 152.6632
1062.619, 146.9866
1063.101, 121.9470
1063.584, 116.7765
1064.066, 148.7819
1064.548, 187.4517
1065.030, 200.5560
1065.512, 198.0050
1065.994, 195.0135
1066.476, 193.6780
1066.958, 200.8254
1067.441, 215.1266
1067.923, 228.8794
1068.405, 239.8945
1068.887, 252.7476
1069.369, 271.2007
1069.851, 292.5419
1070.333, 319.3868
1070.815, 344.6110
1071.297, 356.6605
1071.780, 359.2169
1072.262, 358.4998
1072.744, 356.1621
1073.226, 360.1367
1073.708, 374.1908
1074.190, 395.6367
1074.672, 435.0826
1075.154, 469.0518
1075.636, 470.2827
1076.119, 455.4490
1076.601, 445.0510
1077.083, 444.0111
1077.565, 455.9780
1078.047, 485.6671
1078.529, 512.1965
1079.011, 518.4646
1079.494, 529.0037
1079.976, 569.1187
1080.458, 608.6787
1080.940, 612.3921
1081.422, 592.3516
1081.904, 585.3306
1082.386, 599.0367
1082.868, 608.2151
1083.350, 601.7952
1083.833, 603.2275
1084.315, 627.4417
1084.797, 648.5560
1085.279, 648.8728
1085.761, 636.7087
1086.243, 623.8118
1086.725, 610.0146
1087.207, 606.5059
1087.689, 621.5950
1088.172, 630.2708
1088.654, 628.7485
1089.136, 624.3037
1089.618, 620.1011
1090.100, 614.3408
1090.582, 607.4573
1091.064, 596.5378
1091.546, 561.5259
1092.029, 492.9399
1092.511, 458.4487
1092.993, 467.8931
1093.475, 467.8596
1093.957, 441.4735
1094.439, 406.3765
1094.921, 375.6008
1095.403, 348.6569
1095.885, 325.4062
1096.368, 305.3989
1096.850, 283.5146
1097.332, 260.4374
1097.814, 249.0032
1098.296, 249.8236
1098.778, 234.1698
1099.260, 185.7739
1099.742, 138.1443
1100.224, 139.3350
1100.707, 165.3461
1101.189, 165.7689
1101.671, 150.2201
1102.153, 141.4432
1102.635, 139.5797
1103.117, 134.2753
1103.599, 122.2841
1104.081, 108.5131
1104.564, 94.59814
1105.046, 84.24951
1105.528, 83.22192
1106.010, 85.96460
1106.492, 87.55273
1106.974, 87.53491
1107.456, 87.58679
1107.938, 86.59045
1108.421, 77.24097
1108.903, 51.50208
1109.385, 34.16760
1109.867, 44.81384
1110.349, 56.64099
1110.831, 52.33850
1111.313, 44.14185
1111.795, 43.02271
1112.277, 48.78088
1112.760, 61.02710
1113.242, 83.60046
1113.724, 90.24512
1114.206, 59.33325
1114.688, 40.75159
1115.170, 49.89014
1115.652, 63.06311
1116.134, 73.71362
1116.616, 75.59009
1117.099, 54.31555
1117.581, 13.95007
1118.063, 6.067383
1118.545, 44.62415
1119.027, 54.04187
1119.509, 20.09033
1119.991, 3.886475
1120.473, 29.57080
1120.956, 61.98230
1121.438, 71.10315
1121.920, 64.14075
1122.402, 55.86743
1122.884, 46.57373
1123.366, 39.52209
1123.848, 34.34448
1124.330, 26.68042
1124.813, 16.33301
1125.295, 9.513306
1125.777, 9.552124
1126.259, 13.69763
1126.741, 20.32288
1127.223, 27.64050
1127.705, 37.91443
1128.187, 43.98071
1128.669, 23.45837
1129.151, 10.74976
1129.634, 20.85864
1130.116, 0.4847410
1130.598, 24.86023
1131.080, 40.18982
1131.562, 46.94482
1132.044, 38.74683
1132.526, 29.36707
1133.008, 31.86780
1133.491, 37.45496
1133.973, 31.42297
1134.455, 18.07898
1134.937, 19.02319
1135.419, 45.61841
1135.901, 53.53101
1136.383, 17.11829
1136.865, 11.85559
1137.348, 19.53540
1137.830, 18.23132
1138.312, 11.50720
1138.794, 2.229248
1139.276, 7.589111
1139.758, 16.97876
1140.240, 7.564697
1140.722, 30.05884
1141.204, 40.01538
1141.687, 13.18518
1142.169, 12.66760
1142.651, 25.30603
1143.133, 30.92285
1143.615, 32.37805
1144.097, 33.98840
1144.579, 51.95837
1145.061, 78.18408
1145.543, 65.94324
1146.026, 23.71155
1146.508, 3.718872
1146.990, 10.38550
1147.472, 14.27075
1147.954, 2.980957
1148.436, 1.405273
1148.918, 30.87488
1149.400, 67.61743
1149.883, 73.48962
1150.365, 63.09583
1150.847, 48.03882
1151.329, 33.60986
1151.811, 26.50574
1152.293, 26.92407
1152.775, 29.86414
1153.257, 35.64966
1153.740, 37.89929
1154.222, 32.22766
1154.704, 25.46814
1155.186, 15.79675
1155.668, 10.65833
1156.150, 22.74084
1156.632, 41.21130
1157.114, 40.74390
1157.596, 19.56738
1158.078, 14.46875
1158.561, 34.48706
1159.043, 43.49731
1159.525, 34.89429
1160.007, 26.37439
1160.489, 24.65149
1160.971, 25.58630
1161.453, 24.66614
1161.935, 25.09851
1162.418, 37.89307
1162.900, 59.79773
1163.382, 71.05530
1163.864, 71.77551
1164.346, 60.98145
1164.828, 41.40210
1165.310, 30.23816
1165.792, 35.23145
1166.275, 42.49548
1166.757, 38.48157
1167.239, 31.65198
1167.721, 30.88818
1168.203, 33.13062
1168.685, 34.24670
1169.167, 35.74585
1169.649, 41.96912
1170.131, 52.26306
1170.614, 61.31055
1171.096, 70.79102
1171.578, 68.41821
1172.060, 35.99658
1172.542, 10.95776
1173.024, 11.03467
1173.506, 18.64221
1173.988, 17.96582
1174.470, 18.95581
1174.953, 41.45459
1175.435, 83.83521
1175.917, 108.5131
1176.399, 114.1205
1176.881, 106.6045
1177.363, 84.01990
1177.845, 63.53149
1178.327, 50.41296
1178.810, 45.48254
1179.292, 50.38049
1179.774, 58.23535
1180.256, 58.48645
1180.738, 52.46045
1181.220, 38.94629
1181.702, 23.37769
1182.184, 23.64844
1182.667, 37.05615
1183.149, 46.21460
1183.631, 45.94104
1184.113, 45.27490
1184.595, 48.81580
1185.077, 55.31458
1185.559, 72.81982
1186.041, 83.11060
1186.523, 64.72754
1187.005, 37.71021
1187.488, 21.34814
1187.970, 18.73218
1188.452, 30.48218
1188.934, 62.77954
1189.416, 73.44104
1189.898, 46.98071
1190.380, 29.81042
1190.862, 27.56702
1191.345, 34.81348
1191.827, 52.70703
1192.309, 69.10229
1192.791, 70.75720
1193.273, 63.66187
1193.755, 63.35291
1194.237, 69.04004
1194.719, 76.79443
1195.202, 85.28003
1195.684, 85.97864
1196.166, 79.69165
1196.648, 79.39917
1197.130, 89.61755
1197.612, 94.78772
1198.094, 77.88831
1198.576, 56.48596
1199.058, 54.80127
1199.541, 55.79749
1200.023, 29.67651
1200.505, 1.356812
1200.987, 4.224365
1201.469, 36.80701
1201.951, 42.48279
1202.433, 0.4580080
1202.915, 13.72693
1203.397, 45.97095
1203.880, 73.75659
1204.362, 37.96204
1204.844, 2.008789
1205.326, 5.512085
1205.808, 7.6537997E-02
1206.290, 3.262451
1206.772, 5.304443
1207.254, 9.781982
1207.737, 16.09924
1208.219, 23.70776
1208.701, 31.94434
1209.183, 33.89319
1209.665, 30.26062
1210.147, 34.65613
1210.629, 52.70264
1211.111, 70.80518
1211.594, 79.88843
1212.076, 80.18213
1212.558, 60.81995
1213.040, 43.35876
1213.522, 55.68652
1214.004, 79.56213
1214.486, 90.22668
1214.968, 87.51575
1215.450, 80.25684
1215.932, 67.29443
1216.415, 64.06799
1216.897, 78.41699
1217.379, 91.97571
1217.861, 109.2181
1218.343, 110.5559
1218.825, 81.74329
1219.307, 49.44360
1219.789, 39.07129
1220.272, 43.75464
1220.754, 46.39563
1221.236, 48.15540
1221.718, 61.24744
1222.200, 80.53992
1222.682, 75.36865
1223.164, 49.82507
1223.646, 45.97876
1224.129, 76.16479
1224.611, 103.1621
1225.093, 101.5839
1225.575, 90.80945
1226.057, 75.50525
1226.539, 67.04114
1227.021, 81.21252
1227.503, 101.0326
1227.985, 112.3776
1228.468, 113.7548
1228.950, 100.6415
1229.432, 71.45325
1229.914, 57.85767
1230.396, 63.20178
1230.878, 77.27649
1231.360, 105.3412
1231.842, 117.2161
1232.324, 101.8929
1232.807, 77.37292
1233.289, 59.05530
1233.771, 44.49817
1234.253, 47.94946
1234.735, 56.29846
1235.217, 42.43494
1235.699, 20.03894
1236.181, 12.86072
1236.664, 15.80334
1237.146, 7.783325
1237.628, 11.88806
1238.110, 21.94226
1238.592, 12.50842
1239.074, 0.2746580
1239.556, 14.06360
1240.038, 24.54407
1240.521, 26.99622
1241.003, 29.18396
1241.485, 34.84949
1241.967, 43.81860
1242.449, 56.71326
1242.931, 72.29700
1243.413, 85.65576
1243.895, 96.93433
1244.377, 99.05603
1244.859, 92.96643
1245.342, 100.6112
1245.824, 123.3513
1246.306, 137.9501
1246.788, 134.7642
1247.270, 124.2603
1247.752, 112.4611
1248.234, 102.6633
1248.716, 100.8297
1249.199, 99.66797
1249.681, 86.23218
1250.163, 73.88220
1250.645, 86.12195
1251.127, 105.7361
1251.609, 94.51123
1252.091, 66.68042
1252.573, 50.09729
1253.056, 43.80640
1253.538, 43.90576
1254.020, 52.55164
1254.502, 56.91772
1254.984, 53.39880
1255.466, 42.17224
1255.948, 21.62244
1256.430, 7.415894
1256.912, 28.04321
1257.395, 60.39758
1257.877, 51.89893
1258.359, 25.19995
1258.841, 18.78772
1259.323, 25.95728
1259.805, 26.51685
1260.287, 19.05396
1260.769, 13.39880
1261.251, 15.03198
1261.734, 14.41760
1262.216, 5.296143
1262.698, 0.5008540
1263.180, 2.187622
1263.662, 3.185913
1264.144, 0.0000000E+00
##END=



