##NAMES=Plattnerite
##RRUFFID=R070605
##IDEAL CHEMISTRY=PbO_2_
##LOCALITY=Ojuela mine, Mapimi, Durango, Mexico
##OWNER=RRUFF
##SOURCE=James Shigley
##DESCRIPTION=Black tarnished metallic prismatic crystals.
##STATUS=The identification of this mineral is confirmed by single-crystal X-ray diffraction and chemical analysis.
##URL=rruff.info/R070605
##MEASURED CHEMISTRY=Pb_1.00_O_2_
162.9525, 0.0000000E+00
163.4346, 64.69336
163.9167, 59.43945
164.3989, 7.699219
164.8810, 19.69336
165.3631, 149.3613
165.8452, 236.6914
166.3273, 209.2891
166.8094, 111.0625
167.2916, 51.84766
167.7737, 103.5000
168.2558, 211.1367
168.7379, 324.9414
169.2200, 444.5449
169.7021, 544.7344
170.1843, 610.3281
170.6664, 649.4336
171.1485, 675.2285
171.6306, 667.4551
172.1127, 639.4258
172.5948, 626.9004
173.0770, 646.7695
173.5591, 682.7910
174.0412, 719.0508
174.5233, 758.8789
175.0054, 807.9902
175.4875, 872.3594
175.9697, 940.2012
176.4518, 998.8184
176.9339, 1058.895
177.4160, 1108.740
177.8981, 1137.695
178.3802, 1158.102
178.8624, 1216.271
179.3445, 1270.498
179.8266, 1300.709
180.3087, 1345.184
180.7908, 1453.421
181.2729, 1621.853
181.7551, 1744.561
182.2372, 1774.317
182.7193, 1773.998
183.2014, 1787.836
183.6835, 1786.019
184.1656, 1735.396
184.6478, 1661.606
185.1299, 1569.417
185.6120, 1463.830
186.0941, 1341.660
186.5762, 1212.357
187.0583, 1098.595
187.5405, 1002.336
188.0226, 920.4229
188.5047, 864.5254
188.9868, 831.9297
189.4689, 785.7490
189.9510, 711.5586
190.4332, 619.7734
190.9153, 546.0527
191.3974, 493.6670
191.8795, 445.2236
192.3616, 384.9883
192.8437, 312.1318
193.3259, 230.9043
193.8080, 130.6943
194.2901, 18.38672
194.7722, 52.47363
195.2543, 75.47559
195.7364, 73.36816
196.2186, 71.48535
196.7007, 69.40918
197.1828, 73.18555
197.6649, 85.60742
198.1470, 106.8154
198.6291, 138.3125
199.1112, 189.7178
199.5934, 236.9150
200.0755, 227.6709
200.5576, 149.8047
201.0397, 73.63184
201.5218, 35.12891
202.0039, 37.54102
202.4861, 48.30762
202.9682, 74.75000
203.4503, 102.0254
203.9324, 87.31934
204.4145, 19.07129
204.8966, 54.84766
205.3788, 105.2422
205.8609, 126.5127
206.3430, 151.0664
206.8251, 183.7568
207.3072, 221.0908
207.7893, 245.5059
208.2715, 247.0703
208.7536, 257.3604
209.2357, 306.5879
209.7178, 410.5420
210.1999, 492.4482
210.6820, 535.7725
211.1642, 546.4941
211.6463, 568.5898
212.1284, 600.8164
212.6105, 646.9551
213.0926, 711.2891
213.5747, 798.8418
214.0569, 892.7744
214.5390, 993.7168
215.0211, 1100.547
215.5032, 1198.562
215.9853, 1282.553
216.4674, 1363.810
216.9496, 1461.930
217.4317, 1599.346
217.9138, 1700.760
218.3959, 1730.260
218.8780, 1674.165
219.3601, 1696.798
219.8423, 1829.301
220.3244, 2012.348
220.8065, 2204.020
221.2886, 2358.488
221.7707, 2504.860
222.2528, 2649.505
222.7349, 2792.606
223.2171, 2939.473
223.6992, 3092.532
224.1813, 3248.312
224.6634, 3403.420
225.1455, 3555.988
225.6276, 3710.570
226.1098, 3867.238
226.5919, 4028.141
227.0740, 4185.848
227.5561, 4340.236
228.0382, 4490.877
228.5203, 4629.668
229.0025, 4736.246
229.4846, 4862.092
229.9667, 5031.988
230.4488, 5275.885
230.9309, 5495.186
231.4130, 5682.361
231.8952, 5846.766
232.3773, 6018.037
232.8594, 6197.043
233.3415, 6384.129
233.8236, 6579.539
234.3057, 6776.613
234.7879, 6993.043
235.2700, 7246.420
235.7521, 7521.677
236.2342, 7757.422
236.7163, 7932.727
237.1984, 8095.047
237.6806, 8271.880
238.1627, 8463.099
238.6448, 8664.404
239.1269, 8870.464
239.6090, 9084.151
240.0911, 9327.981
240.5733, 9624.926
241.0554, 9924.551
241.5375, 10192.59
242.0196, 10411.85
242.5017, 10628.67
242.9838, 10844.49
243.4660, 11060.33
243.9481, 11286.65
244.4302, 11516.04
244.9123, 11763.99
245.3944, 12050.42
245.8765, 12418.13
246.3586, 12740.84
246.8408, 12986.41
247.3229, 13159.47
247.8050, 13379.35
248.2871, 13659.66
248.7692, 13971.10
249.2513, 14296.17
249.7335, 14656.52
250.2156, 14977.99
250.6977, 15238.51
251.1798, 15436.56
251.6619, 15653.26
252.1440, 15903.15
252.6262, 16148.99
253.1083, 16346.22
253.5904, 16456.01
254.0725, 16609.20
254.5546, 16855.00
255.0367, 17203.10
255.5189, 17460.11
256.0010, 17589.48
256.4831, 17670.96
256.9652, 17795.04
257.4473, 17990.54
257.9294, 18168.99
258.4116, 18303.87
258.8937, 18393.81
259.3758, 18492.95
259.8579, 18599.81
260.3400, 18712.34
260.8221, 18835.07
261.3043, 18978.96
261.7864, 19103.79
262.2685, 19197.39
262.7506, 19257.27
263.2327, 19316.95
263.7148, 19388.70
264.1970, 19444.54
264.6791, 19443.17
265.1612, 19370.38
265.6433, 19283.94
266.1254, 19197.65
266.6075, 19112.02
267.0897, 19040.91
267.5718, 18998.63
268.0539, 18952.23
268.5360, 18845.16
269.0181, 18658.12
269.5002, 18480.68
269.9824, 18351.10
270.4645, 18274.68
270.9466, 18174.22
271.4287, 18041.98
271.9108, 17890.29
272.3929, 17745.95
272.8751, 17618.97
273.3572, 17454.51
273.8393, 17220.07
274.3214, 16911.01
274.8035, 16626.80
275.2856, 16373.47
275.7678, 16131.51
276.2499, 15878.17
276.7320, 15613.65
277.2141, 15339.89
277.6962, 15045.32
278.1783, 14729.44
278.6604, 14471.15
279.1425, 14289.04
279.6247, 14119.78
280.1068, 13856.19
280.5889, 13492.25
281.0710, 13132.24
281.5531, 12835.05
282.0352, 12593.60
282.5174, 12293.70
282.9995, 11919.89
283.4816, 11538.75
283.9637, 11266.37
284.4458, 11101.80
284.9279, 10923.06
285.4101, 10656.96
285.8922, 10320.82
286.3743, 10030.09
286.8564, 9796.447
287.3385, 9581.403
287.8206, 9333.674
288.3028, 9055.562
288.7849, 8785.062
289.2670, 8546.555
289.7491, 8330.987
290.2312, 8101.866
290.7133, 7857.345
291.1955, 7609.348
291.6776, 7360.885
292.1597, 7114.226
292.6418, 6891.801
293.1239, 6720.026
293.6060, 6576.723
294.0882, 6408.664
294.5703, 6210.905
295.0524, 5996.807
295.5345, 5769.543
296.0166, 5534.561
296.4987, 5314.385
296.9809, 5126.146
297.4630, 4959.266
297.9451, 4800.791
298.4272, 4651.404
298.9093, 4506.712
299.3914, 4373.869
299.8736, 4244.724
300.3557, 4102.266
300.8378, 3920.589
301.3199, 3727.963
301.8020, 3560.545
302.2841, 3422.694
302.7663, 3289.595
303.2484, 3127.280
303.7305, 2953.631
304.2126, 2807.765
304.6947, 2735.017
305.1768, 2681.461
305.6590, 2594.670
306.1411, 2469.433
306.6232, 2337.554
307.1053, 2206.057
307.5874, 2083.058
308.0695, 1983.804
308.5517, 1952.689
309.0338, 1920.743
309.5159, 1828.633
309.9980, 1672.283
310.4801, 1518.375
310.9622, 1395.709
311.4444, 1300.446
311.9265, 1227.731
312.4086, 1214.339
312.8907, 1191.861
313.3728, 1111.083
313.8549, 969.6250
314.3371, 843.6602
314.8192, 779.5342
315.3013, 743.3896
315.7834, 702.9238
316.2655, 647.3223
316.7477, 586.3008
317.2298, 521.9258
317.7119, 454.3652
318.1940, 386.6699
318.6761, 309.6338
319.1582, 238.7305
319.6404, 187.2490
320.1225, 166.4834
320.6046, 156.8311
321.0867, 166.5654
321.5688, 193.5732
322.0509, 192.3623
322.5330, 123.2803
323.0151, 42.59570
323.4973, 10.95312
323.9794, 14.37988
324.4615, 11.83301
324.9436, 7.595703
325.4257, 1.770508
325.9078, 6.939453
326.3900, 40.51465
326.8721, 61.26074
327.3542, 45.70605
327.8363, 59.02051
328.3184, 127.4512
328.8005, 135.7285
329.2827, 95.29395
329.7648, 75.09375
330.2469, 89.64648
330.7290, 108.7568
331.2111, 114.3857
331.6932, 100.5996
332.1754, 86.24316
332.6575, 70.96777
333.1396, 55.65234
333.6217, 44.85645
334.1038, 41.67090
334.5859, 37.49609
335.0681, 28.44336
335.5502, 15.20410
336.0323, 5.173828
336.5144, 35.01953
336.9965, 70.01465
337.4786, 99.98730
337.9608, 124.1172
338.4429, 145.3311
338.9250, 165.1523
339.4071, 183.7510
339.8892, 197.0938
340.3713, 202.4307
340.8535, 207.0068
341.3356, 224.6582
341.8177, 255.8525
342.2998, 295.3096
342.7819, 346.7139
343.2640, 407.1406
343.7462, 453.4590
344.2283, 484.3760
344.7104, 507.8975
345.1925, 532.2070
345.6746, 557.0742
346.1567, 585.4736
346.6389, 621.1982
347.1210, 661.6006
347.6031, 700.0986
348.0852, 736.9463
348.5673, 769.4746
349.0494, 780.6836
349.5316, 783.0742
350.0137, 810.9951
350.4958, 905.7383
350.9779, 1021.765
351.4600, 1095.507
351.9421, 1127.190
352.4243, 1150.894
352.9064, 1199.331
353.3885, 1253.990
353.8706, 1286.896
354.3527, 1260.535
354.8348, 1238.550
355.3170, 1286.785
355.7991, 1395.909
356.2812, 1484.846
356.7633, 1483.173
357.2454, 1447.057
357.7275, 1433.195
358.2097, 1481.186
358.6918, 1533.479
359.1739, 1564.169
359.6560, 1574.333
360.1381, 1574.259
360.6202, 1552.701
361.1024, 1534.215
361.5845, 1536.219
362.0666, 1582.252
362.5487, 1617.372
363.0308, 1624.385
363.5129, 1610.971
363.9951, 1597.879
364.4772, 1581.704
364.9593, 1572.952
365.4414, 1579.511
365.9235, 1626.206
366.4056, 1642.769
366.8878, 1598.699
367.3699, 1528.324
367.8520, 1491.844
368.3341, 1526.226
368.8162, 1549.122
369.2983, 1530.975
369.7804, 1456.765
370.2625, 1405.227
370.7447, 1385.294
371.2268, 1381.778
371.7089, 1374.031
372.1910, 1362.492
372.6731, 1345.124
373.1552, 1323.612
373.6374, 1297.475
374.1195, 1252.659
374.6016, 1179.275
375.0837, 1105.674
375.5658, 1067.275
376.0479, 1068.830
376.5301, 1056.833
377.0122, 1011.193
377.4943, 944.0283
377.9764, 911.3506
378.4585, 916.4316
378.9406, 929.6094
379.4228, 931.1611
379.9049, 919.8252
380.3870, 888.1738
380.8691, 828.5801
381.3512, 759.1729
381.8333, 714.4639
382.3155, 692.4268
382.7976, 665.6123
383.2797, 604.1006
383.7618, 528.0928
384.2439, 477.2998
384.7260, 462.2148
385.2082, 461.9346
385.6903, 468.4121
386.1724, 473.9395
386.6545, 458.5156
387.1366, 379.7207
387.6187, 292.7764
388.1009, 259.8916
388.5830, 294.9043
389.0651, 327.5508
389.5472, 303.7627
390.0293, 251.3877
390.5114, 210.5000
390.9936, 207.7412
391.4757, 212.5137
391.9578, 212.1006
392.4399, 205.8662
392.9220, 194.3887
393.4041, 175.5996
393.8863, 152.6182
394.3684, 128.4580
394.8505, 97.04492
395.3326, 72.09277
395.8147, 58.67773
396.2968, 56.20898
396.7790, 54.24902
397.2611, 56.99609
397.7432, 55.76855
398.2253, 45.51855
398.7074, 13.80273
399.1895, 7.836914
399.6717, 15.28516
400.1538, 12.82715
400.6359, 12.45020
401.1180, 11.53027
401.6001, 16.98340
402.0822, 34.89844
402.5644, 72.15234
403.0465, 93.65625
403.5286, 94.24609
404.0107, 85.10156
404.4928, 84.42773
404.9749, 93.34863
405.4571, 102.5889
405.9392, 109.4736
406.4213, 113.5830
406.9034, 114.4346
407.3855, 111.5166
407.8676, 106.6929
408.3498, 102.4126
408.8319, 98.29004
409.3140, 91.44287
409.7961, 84.99463
410.2782, 72.79980
410.7603, 30.21143
411.2425, 39.61133
411.7246, 89.92871
412.2067, 65.20752
412.6888, 0.7617190
413.1709, 42.15430
413.6530, 46.44971
414.1351, 32.68848
414.6172, 4.851074
415.0994, 28.66602
415.5815, 42.43018
416.0636, 4.247559
416.5457, 58.58350
417.0278, 77.62451
417.5099, 44.93164
417.9921, 11.15234
418.4742, 0.6894530
418.9563, 0.3349610
419.4384, 2.328125
419.9205, 14.28467
420.4026, 25.88135
420.8848, 33.60986
421.3669, 36.73047
421.8490, 38.99854
422.3311, 40.33594
422.8132, 41.22168
423.2953, 42.12500
423.7775, 44.50195
424.2596, 44.40527
424.7417, 37.44385
425.2238, 26.10303
425.7059, 28.52686
426.1880, 52.17676
426.6702, 79.10596
427.1523, 98.80957
427.6344, 109.9839
428.1165, 118.5347
428.5986, 123.7207
429.0807, 127.6001
429.5629, 134.2871
430.0450, 144.1392
430.5271, 154.9023
431.0092, 167.0269
431.4913, 179.8081
431.9734, 187.2441
432.4556, 188.1602
432.9377, 188.4941
433.4198, 197.0835
433.9019, 211.7300
434.3840, 223.0552
434.8661, 226.7798
435.3483, 225.9585
435.8304, 220.1792
436.3125, 210.6602
436.7946, 211.6138
437.2767, 248.0405
437.7589, 296.1885
438.2410, 323.8765
438.7231, 313.4082
439.2052, 296.3857
439.6873, 290.2422
440.1694, 293.0542
440.6516, 299.5044
441.1337, 307.5146
441.6158, 318.5903
442.0979, 334.6157
442.5800, 358.0059
443.0621, 379.4673
443.5443, 395.6924
444.0264, 409.3193
444.5085, 423.8857
444.9906, 441.3633
445.4727, 458.2295
445.9548, 474.0020
446.4370, 488.7217
446.9191, 501.4185
447.4012, 505.8555
447.8833, 514.8511
448.3654, 540.8691
448.8475, 594.1704
449.3297, 634.8291
449.8118, 655.6338
450.2939, 662.1235
450.7760, 668.6675
451.2581, 673.9663
451.7402, 685.7661
452.2224, 719.0425
452.7045, 769.8989
453.1866, 781.4814
453.6687, 742.7896
454.1508, 694.6606
454.6329, 699.0303
455.1151, 745.4800
455.5972, 784.3062
456.0793, 782.9502
456.5614, 766.5396
457.0435, 781.1099
457.5256, 825.4165
458.0077, 863.6831
458.4898, 860.4897
458.9720, 837.7158
459.4541, 820.9932
459.9362, 815.9644
460.4183, 818.3779
460.9004, 834.8286
461.3825, 860.5396
461.8647, 879.1201
462.3468, 875.9048
462.8289, 868.7178
463.3110, 868.4292
463.7931, 881.9351
464.2752, 886.3198
464.7574, 873.0278
465.2395, 850.9785
465.7216, 831.5645
466.2037, 814.0220
466.6858, 800.4302
467.1679, 792.7212
467.6501, 790.5918
468.1322, 785.1250
468.6143, 777.4287
469.0964, 770.9673
469.5785, 766.6313
470.0606, 763.8525
470.5428, 743.5386
471.0249, 696.9170
471.5070, 643.8394
471.9891, 627.9941
472.4712, 651.1191
472.9533, 678.2095
473.4355, 689.9497
473.9176, 686.5601
474.3997, 677.9951
474.8818, 666.7344
475.3639, 656.9751
475.8460, 650.2671
476.3282, 644.5068
476.8103, 637.5278
477.2924, 632.2427
477.7745, 623.2583
478.2566, 600.9160
478.7387, 567.9116
479.2209, 539.6816
479.7030, 515.8965
480.1851, 505.3472
480.6672, 519.1924
481.1493, 580.2749
481.6314, 621.1699
482.1136, 613.0762
482.5957, 573.3188
483.0778, 533.0215
483.5599, 477.0415
484.0420, 443.0298
484.5241, 447.9810
485.0063, 496.7153
485.4884, 526.5449
485.9705, 533.7520
486.4526, 525.5215
486.9347, 504.1226
487.4168, 462.8599
487.8990, 431.8970
488.3811, 416.2744
488.8632, 412.5181
489.3453, 413.1011
489.8274, 418.1865
490.3095, 423.9277
490.7917, 430.5469
491.2738, 436.8960
491.7559, 436.0205
492.2380, 427.0054
492.7201, 414.0742
493.2022, 395.0952
493.6844, 375.3086
494.1665, 368.1934
494.6486, 388.6392
495.1307, 416.8623
495.6128, 433.7368
496.0949, 440.4595
496.5771, 444.9507
497.0592, 453.5244
497.5413, 460.7412
498.0234, 459.9087
498.5055, 439.9727
498.9876, 434.0044
499.4698, 464.9956
499.9519, 513.1289
500.4340, 545.6440
500.9161, 548.0869
501.3982, 544.6919
501.8803, 535.2480
502.3624, 518.8823
502.8445, 524.4888
503.3267, 562.9023
503.8088, 609.3667
504.2909, 646.2744
504.7730, 673.2773
505.2551, 692.7402
505.7372, 703.2754
506.2194, 708.4487
506.7015, 714.4014
507.1836, 721.0420
507.6657, 731.7437
508.1478, 750.2559
508.6299, 774.1729
509.1121, 794.7925
509.5942, 811.5771
510.0763, 831.5605
510.5584, 862.2183
511.0405, 900.3857
511.5226, 941.5522
512.0048, 992.6650
512.4869, 1036.062
512.9690, 1050.835
513.4511, 1045.523
513.9332, 1048.585
514.4153, 1075.837
514.8975, 1112.087
515.3796, 1151.159
515.8617, 1195.283
516.3438, 1231.922
516.8259, 1250.565
517.3080, 1264.438
517.7902, 1288.564
518.2723, 1328.812
518.7544, 1370.468
519.2365, 1411.987
519.7186, 1452.305
520.2007, 1488.967
520.6829, 1520.994
521.1650, 1552.386
521.6471, 1586.149
522.1292, 1622.071
522.6113, 1657.436
523.0934, 1692.711
523.5756, 1724.593
524.0577, 1743.797
524.5398, 1753.664
525.0219, 1771.375
525.5040, 1811.974
525.9861, 1858.238
526.4683, 1886.110
526.9504, 1897.428
527.4325, 1905.352
527.9146, 1926.130
528.3967, 1943.312
528.8788, 1937.867
529.3610, 1893.103
529.8431, 1857.920
530.3252, 1858.927
530.8073, 1879.626
531.2894, 1893.343
531.7715, 1890.091
532.2537, 1882.604
532.7358, 1874.662
533.2179, 1866.102
533.7000, 1853.160
534.1821, 1833.161
534.6642, 1811.458
535.1464, 1795.956
535.6285, 1794.074
536.1106, 1760.390
536.5927, 1681.102
537.0748, 1587.622
537.5569, 1531.113
538.0391, 1507.616
538.5212, 1493.911
539.0033, 1492.286
539.4854, 1489.906
539.9675, 1451.034
540.4496, 1377.102
540.9318, 1299.979
541.4139, 1239.323
541.8960, 1191.739
542.3781, 1155.722
542.8602, 1138.077
543.3423, 1116.152
543.8245, 1068.278
544.3066, 1006.454
544.7887, 953.7822
545.2708, 929.9751
545.7529, 905.5845
546.2350, 866.5791
546.7172, 811.2505
547.1993, 771.0723
547.6814, 756.1797
548.1635, 746.4624
548.6456, 730.4829
549.1277, 708.7925
549.6099, 677.8936
550.0920, 633.4077
550.5741, 583.5786
551.0562, 543.3638
551.5383, 513.1177
552.0204, 487.8267
552.5026, 465.5239
552.9847, 446.8418
553.4668, 436.5942
553.9489, 434.7896
554.4310, 432.4688
554.9131, 419.8364
555.3953, 401.4204
555.8774, 387.2544
556.3595, 382.6621
556.8416, 374.5112
557.3237, 349.3887
557.8058, 315.4863
558.2880, 286.2803
558.7701, 267.2744
559.2522, 252.8657
559.7343, 239.5566
560.2164, 227.3423
560.6985, 224.9282
561.1807, 249.6221
561.6628, 270.1851
562.1449, 264.0996
562.6270, 215.6978
563.1091, 184.8228
563.5912, 177.7969
564.0734, 181.7251
564.5555, 176.5566
565.0376, 162.6084
565.5197, 147.7368
566.0018, 131.5605
566.4839, 116.8643
566.9661, 106.6172
567.4482, 100.7866
567.9303, 98.09668
568.4124, 94.18799
568.8945, 93.99023
569.3766, 109.1792
569.8587, 146.7837
570.3408, 173.5063
570.8229, 158.7856
571.3051, 123.1665
571.7872, 93.33984
572.2693, 80.41992
572.7514, 71.80273
573.2335, 67.43896
573.7156, 66.22705
574.1978, 59.21973
574.6799, 43.15137
575.1620, 24.72021
575.6441, 3.791992
576.1262, 23.92822
576.6083, 28.66992
577.0905, 1.692383
577.5726, 31.52832
578.0547, 39.15820
578.5368, 21.92822
579.0189, 7.156738
579.5010, 6.3479999E-03
579.9832, 0.2084960
580.4653, 6.841797
580.9474, 20.40234
581.4295, 36.97168
581.9116, 62.52783
582.3937, 85.40625
582.8759, 93.40234
583.3580, 85.54346
583.8401, 70.24219
584.3222, 42.60791
584.8043, 14.34033
585.2864, 4.687012
585.7686, 5.213867
586.2507, 5.551758
586.7328, 6.925293
587.2149, 9.511719
587.6970, 14.74463
588.1791, 28.17041
588.6613, 33.41943
589.1434, 21.62354
589.6255, 4.966309
590.1076, 14.74854
590.5897, 5.064453
591.0718, 8.300293
591.5540, 13.37842
592.0361, 11.42090
592.5182, 6.128418
593.0003, 4.083984
593.4824, 9.338379
593.9645, 14.17725
594.4467, 49.95996
594.9288, 64.47656
595.4109, 20.73926
595.8930, 28.64111
596.3751, 53.43701
596.8572, 57.08105
597.3394, 54.16455
597.8215, 45.58496
598.3036, 35.50879
598.7857, 26.03418
599.2678, 18.20166
599.7499, 7.784180
600.2321, 9.651855
600.7142, 24.99414
601.1963, 27.34180
601.6784, 13.38037
602.1605, 2.283203
602.6426, 3.041992
603.1248, 3.776855
603.6069, 0.1542970
604.0890, 7.368896
604.5711, 11.33008
605.0532, 4.195068
605.5353, 6.995361
606.0175, 8.846680
606.4996, 1.643066
606.9817, 1.653564
607.4638, 15.89600
607.9459, 36.95825
608.4280, 44.71826
608.9102, 30.62988
609.3923, 14.96387
609.8744, 2.267090
610.3565, 8.441895
610.8386, 18.88184
611.3207, 34.85132
611.8029, 41.59790
612.2850, 32.67407
612.7671, 11.64111
613.2492, 1.336426
613.7313, 4.940430
614.2134, 7.004395
614.6956, 2.985352
615.1777, 23.04785
615.6598, 41.86206
616.1419, 59.75781
616.6240, 70.54858
617.1061, 65.57520
617.5883, 49.24585
618.0704, 27.70508
618.5525, 7.676025
619.0346, 31.21826
619.5167, 11.32983
619.9988, 32.68384
620.4810, 59.30859
620.9631, 42.31201
621.4452, 19.10205
621.9273, 2.843750
622.4094, 23.29590
622.8915, 23.71387
623.3737, 12.45776
623.8558, 47.04565
624.3379, 54.44507
624.8200, 28.89209
625.3021, 15.06738
625.7842, 16.74438
626.2664, 23.66846
626.7485, 21.56714
627.2306, 12.84058
627.7127, 6.195557
628.1948, 3.215820
628.6769, 4.553467
629.1591, 16.92944
629.6412, 35.48413
630.1233, 45.08008
630.6054, 23.48340
631.0875, 1.966309
631.5696, 3.946045
632.0518, 32.28516
632.5339, 54.11938
633.0160, 63.49390
633.4981, 63.72827
633.9802, 55.68164
634.4623, 32.81055
634.9445, 18.14966
635.4266, 13.17114
635.9087, 14.35083
636.3908, 17.23999
636.8729, 21.93262
637.3550, 27.47314
637.8372, 33.69263
638.3193, 41.44507
638.8014, 56.58862
639.2835, 76.10132
639.7656, 85.53491
640.2477, 64.47388
640.7299, 37.08203
641.2120, 27.14502
641.6941, 36.71704
642.1762, 48.62915
642.6583, 57.92676
643.1404, 65.46216
643.6226, 72.22778
644.1047, 79.95996
644.5868, 84.01611
645.0689, 82.92603
645.5510, 79.11694
646.0331, 77.96753
646.5153, 76.65894
646.9974, 73.22656
647.4795, 67.71387
647.9616, 60.20776
648.4437, 49.56055
648.9258, 36.47144
649.4080, 29.89429
649.8901, 41.65894
650.3722, 60.66797
650.8543, 71.50732
651.3364, 73.28857
651.8185, 73.24097
652.3007, 80.59033
652.7828, 83.75244
653.2649, 73.65356
653.7470, 26.56494
654.2291, 1.872070
654.7112, 9.647949
655.1934, 37.40210
655.6755, 51.98901
656.1576, 49.79688
656.6397, 42.83252
657.1218, 30.23975
657.6039, 16.05591
658.0861, 14.29688
658.5682, 24.66284
659.0503, 36.81836
659.5323, 47.61206
660.0145, 56.13867
660.4966, 61.90332
660.9787, 64.76001
661.4608, 61.97876
661.9429, 40.73340
662.4250, 19.01807
662.9072, 16.18872
663.3893, 47.83545
663.8714, 67.56055
664.3535, 44.09375
664.8356, 11.56250
665.3177, 14.30371
665.7999, 83.92554
666.2820, 126.8689
666.7641, 122.0886
667.2462, 88.17407
667.7283, 74.84326
668.2104, 82.92798
668.6926, 92.47217
669.1747, 95.08423
669.6568, 92.71899
670.1389, 91.64941
670.6210, 91.94287
671.1031, 84.90894
671.5853, 47.60474
672.0674, 9.987549
672.5495, 5.509277
673.0316, 47.96069
673.5137, 80.65771
673.9958, 79.75195
674.4780, 63.60327
674.9601, 49.24023
675.4422, 33.20142
675.9243, 26.11206
676.4064, 30.35815
676.8885, 40.75659
677.3707, 54.30249
677.8528, 71.58398
678.3349, 79.58203
678.8170, 69.62720
679.2991, 50.82568
679.7813, 42.07739
680.2634, 41.65234
680.7455, 45.89868
681.2276, 59.84937
681.7097, 73.16846
682.1918, 78.73022
682.6740, 75.70825
683.1561, 65.31934
683.6382, 37.67261
684.1203, 9.724121
684.6024, 6.035889
685.0845, 4.023193
685.5667, 0.6113280
686.0488, 4.322021
686.5309, 10.40649
687.0130, 16.44238
687.4951, 22.11133
687.9772, 32.90771
688.4594, 54.01392
688.9415, 74.09619
689.4236, 67.25073
689.9057, 40.73340
690.3878, 20.56055
690.8699, 26.80420
691.3521, 38.86938
691.8342, 40.83057
692.3163, 33.17944
692.7984, 23.73950
693.2805, 11.21729
693.7626, 1.205811
694.2448, 2.470459
694.7269, 1.934326
695.2090, 3.551514
695.6911, 0.3581540
696.1732, 2.240479
696.6553, 2.151611
697.1375, 13.65625
697.6196, 19.86328
698.1017, 18.15186
698.5838, 14.86768
699.0659, 17.40063
699.5480, 24.85059
700.0302, 35.28613
700.5123, 52.79688
700.9944, 67.18555
701.4765, 75.35425
701.9586, 75.54688
702.4407, 63.22949
702.9229, 3.014893
703.4050, 33.19360
703.8871, 10.99097
704.3692, 62.92188
704.8513, 97.85083
705.3334, 80.78101
705.8156, 57.73853
706.2977, 58.08496
706.7798, 78.18921
707.2619, 81.29468
707.7440, 65.87378
708.2261, 48.47632
708.7083, 45.69531
709.1904, 50.48071
709.6725, 52.24365
710.1546, 47.43506
710.6367, 43.97119
711.1188, 47.38159
711.6010, 53.56055
712.0831, 57.03564
712.5652, 56.30908
713.0473, 56.37549
713.5294, 59.35938
714.0115, 62.43384
714.4937, 56.58325
714.9758, 38.83716
715.4579, 28.64404
715.9400, 35.81104
716.4221, 53.33374
716.9042, 62.05615
717.3864, 63.10986
717.8685, 64.79077
718.3506, 80.62451
718.8327, 94.16211
719.3148, 84.48999
719.7969, 49.60742
720.2791, 22.68042
720.7612, 22.69019
721.2433, 29.21240
721.7254, 28.33569
722.2075, 14.69409
722.6896, 7.825439
723.1718, 10.54492
723.6539, 16.79248
724.1360, 19.01294
724.6181, 17.39111
725.1002, 18.16455
725.5823, 22.62451
726.0645, 28.94751
726.5466, 34.98193
727.0287, 40.86011
727.5108, 46.99585
727.9929, 54.32300
728.4750, 60.97339
728.9572, 67.93677
729.4393, 73.53760
729.9214, 73.05566
730.4035, 52.40674
730.8856, 41.28711
731.3677, 51.66650
731.8499, 79.85547
732.3320, 91.73315
732.8141, 85.04297
733.2962, 72.80566
733.7783, 57.31226
734.2604, 42.62793
734.7426, 46.44727
735.2247, 69.29492
735.7068, 90.37158
736.1889, 95.38062
736.6710, 89.88354
737.1531, 78.02246
737.6353, 58.21509
738.1174, 39.98877
738.5995, 17.61523
739.0816, 3.120117
739.5637, 9.507813
740.0458, 50.94141
740.5280, 79.86743
741.0101, 93.99780
741.4922, 93.22290
741.9743, 71.81030
742.4564, 32.08276
742.9385, 7.375488
743.4207, 14.26685
743.9028, 32.25293
744.3849, 35.29395
744.8670, 28.66479
745.3491, 26.57080
745.8312, 46.22485
746.3134, 61.38672
746.7955, 53.36182
747.2776, 25.58374
747.7597, 14.70142
748.2418, 30.12793
748.7239, 50.02686
749.2060, 71.21118
749.6881, 91.46729
750.1702, 82.92554
750.6523, 43.05615
751.1345, 7.847168
751.6166, 12.11548
752.0987, 38.94922
752.5808, 57.79785
753.0629, 65.01099
753.5450, 69.88257
754.0272, 79.45142
754.5093, 89.20996
754.9914, 94.12915
755.4735, 89.39185
755.9556, 87.65332
756.4377, 94.20068
756.9199, 100.3787
757.4020, 92.54077
757.8841, 65.82690
758.3662, 56.86230
758.8483, 76.80322
759.3304, 104.2634
759.8126, 102.4341
760.2947, 80.14429
760.7768, 63.32959
761.2589, 67.63110
761.7410, 72.78833
762.2231, 56.05493
762.7053, 26.94897
763.1874, 12.29175
763.6695, 32.76636
764.1516, 53.65723
764.6337, 67.92432
765.1158, 75.61548
765.5980, 73.56250
766.0801, 57.33838
766.5622, 48.94653
767.0443, 69.82104
767.5264, 105.7441
768.0085, 100.3516
768.4907, 56.76904
768.9728, 20.28491
769.4549, 32.71606
769.9370, 60.82056
770.4191, 72.99023
770.9012, 64.20801
771.3834, 58.66846
771.8655, 66.54346
772.3476, 74.55200
772.8297, 74.20996
773.3118, 61.60449
773.7939, 53.06641
774.2761, 48.30762
774.7582, 48.42627
775.2403, 59.24438
775.7224, 76.88281
776.2045, 83.98877
776.6866, 75.74023
777.1688, 63.56372
777.6509, 56.32910
778.1330, 52.25439
778.6151, 48.75586
779.0972, 48.64722
779.5793, 44.67554
780.0615, 26.75610
780.5436, 7.037354
781.0257, 6.946289
781.5078, 35.27466
781.9899, 55.63574
782.4720, 58.68652
782.9542, 51.69360
783.4363, 48.37622
783.9184, 48.84424
784.4005, 53.37451
784.8826, 70.09521
785.3647, 84.45776
785.8469, 80.67212
786.3290, 63.08325
786.8111, 47.73096
787.2932, 33.69263
787.7753, 29.49731
788.2574, 43.04541
788.7396, 71.56592
789.2217, 86.72607
789.7038, 86.69849
790.1859, 78.61304
790.6680, 54.42725
791.1501, 23.95996
791.6323, 46.34448
792.1144, 118.9624
792.5965, 174.0496
793.0786, 143.3489
793.5607, 84.35205
794.0428, 48.06396
794.5250, 42.32788
795.0071, 40.90942
795.4892, 41.79565
795.9713, 41.86084
796.4534, 39.47876
796.9355, 34.75415
797.4177, 24.76123
797.8998, 6.040283
798.3819, 7.060303
798.8640, 8.285400
799.3461, 41.24585
799.8282, 58.29297
800.3104, 50.84741
800.7925, 38.71509
801.2746, 33.02026
801.7567, 32.82056
802.2388, 37.16968
802.7209, 51.54224
803.2031, 62.18286
803.6852, 69.97388
804.1673, 72.15283
804.6494, 63.48413
805.1315, 42.21216
805.6136, 21.42041
806.0958, 1.349609
806.5779, 12.77002
807.0600, 9.777588
807.5421, 5.872070
808.0242, 22.49634
808.5063, 36.87549
808.9885, 49.37671
809.4706, 64.78540
809.9527, 78.23486
810.4348, 78.42920
810.9169, 50.02173
811.3990, 28.01318
811.8812, 19.98999
812.3633, 21.49829
812.8454, 19.53467
813.3275, 14.02100
813.8096, 8.455078
814.2917, 1.368652
814.7739, 2.531494
815.2560, 11.78589
815.7381, 37.52759
816.2202, 49.41577
816.7023, 20.39453
817.1844, 10.91528
817.6666, 27.76733
818.1487, 29.76807
818.6308, 23.07910
819.1129, 0.8779300
819.5950, 16.14648
820.0771, 16.81567
820.5593, 5.059082
821.0414, 1.209717
821.5235, 5.204834
822.0056, 11.80884
822.4877, 16.81079
822.9698, 23.16675
823.4520, 37.93994
823.9341, 60.66870
824.4162, 73.70679
824.8983, 61.15869
825.3804, 46.22974
825.8625, 41.77246
826.3447, 49.42017
826.8268, 48.05420
827.3089, 35.64526
827.7910, 20.62305
828.2731, 3.669434
828.7552, 10.82642
829.2374, 4.507568
829.7195, 23.76001
830.2016, 50.22095
830.6837, 57.63477
831.1658, 55.15210
831.6479, 49.68823
832.1301, 41.23096
832.6122, 33.61572
833.0943, 26.52661
833.5764, 21.12231
834.0585, 18.79956
834.5406, 19.88696
835.0228, 19.29443
835.5049, 16.02490
835.9870, 16.50537
836.4691, 34.33618
836.9512, 58.01709
837.4333, 67.70410
837.9155, 57.29126
838.3976, 43.68677
838.8796, 29.28638
839.3618, 19.07373
839.8439, 18.20923
840.3260, 34.16357
840.8081, 42.14673
841.2902, 39.41455
841.7723, 33.46436
842.2545, 31.72021
842.7366, 34.07495
843.2187, 41.90991
843.7008, 57.66016
844.1829, 68.87378
844.6650, 57.64526
845.1472, 37.78369
845.6293, 27.18140
846.1114, 42.24170
846.5935, 46.81299
847.0756, 28.28345
847.5577, 3.741455
848.0399, 7.294189
848.5220, 3.240234
849.0041, 3.342041
849.4862, 11.35620
849.9683, 19.99341
850.4504, 28.88257
850.9326, 37.50952
851.4147, 44.73608
851.8968, 50.21436
852.3789, 54.15430
852.8610, 59.14111
853.3431, 61.72046
853.8253, 55.72192
854.3074, 33.18164
854.7895, 19.91870
855.2716, 21.88818
855.7537, 29.07568
856.2358, 21.43457
856.7180, 3.453613
857.2001, 5.244141
857.6822, 3.428711
858.1643, 17.55322
858.6464, 28.60547
859.1285, 37.12769
859.6107, 44.19067
860.0928, 49.67554
860.5749, 54.16504
861.0570, 59.71509
861.5391, 63.18262
862.0212, 55.90259
862.5034, 35.77051
862.9855, 29.57788
863.4676, 48.15210
863.9497, 71.73022
864.4318, 69.26074
864.9139, 50.54688
865.3961, 35.30811
865.8782, 26.39038
866.3603, 25.82642
866.8424, 42.21265
867.3245, 65.62939
867.8066, 76.55518
868.2888, 69.24072
868.7709, 64.12915
869.2530, 64.28223
869.7351, 68.55835
870.2172, 80.61621
870.6993, 96.34375
871.1815, 97.77539
871.6636, 71.12476
872.1457, 40.66504
872.6278, 22.71924
873.1099, 14.79614
873.5920, 10.75439
874.0742, 12.02734
874.5563, 13.51416
875.0384, 12.30273
875.5205, 11.26074
876.0026, 19.44067
876.4847, 37.07861
876.9669, 52.83008
877.4490, 63.89941
877.9311, 67.17358
878.4132, 50.71118
878.8953, 25.40820
879.3774, 11.47583
879.8596, 29.38550
880.3417, 42.74121
880.8238, 38.40381
881.3059, 26.85181
881.7880, 24.27759
882.2701, 31.90552
882.7523, 42.16528
883.2344, 54.34253
883.7165, 66.72705
884.1986, 81.08301
884.6807, 93.16455
885.1628, 92.15088
885.6450, 62.92529
886.1271, 36.53833
886.6092, 21.50220
887.0913, 20.55713
887.5734, 39.50903
888.0555, 99.69946
888.5377, 122.3628
889.0198, 87.36182
889.5019, 31.62524
889.9840, 17.49536
890.4661, 35.06909
890.9482, 48.15869
891.4304, 44.77368
891.9125, 38.47339
892.3946, 38.30005
892.8767, 41.37915
893.3588, 43.70508
893.8409, 45.51196
894.3231, 45.61035
894.8052, 43.45947
895.2873, 38.28735
895.7694, 23.58154
896.2515, 1.631104
896.7336, 5.773682
897.2158, 8.467529
897.6979, 28.10425
898.1800, 38.60059
898.6621, 44.07300
899.1442, 50.19019
899.6263, 64.33496
900.1085, 68.19727
900.5906, 51.65576
901.0727, 32.32788
901.5548, 32.20117
902.0369, 52.76196
902.5190, 63.79053
903.0012, 61.58984
903.4833, 51.44238
903.9654, 31.87524
904.4475, 10.73145
904.9296, 0.5065920
905.4117, 1.291016
905.8939, 9.981445
906.3760, 33.42554
906.8581, 57.35986
907.3402, 69.08130
907.8223, 65.08862
908.3044, 69.24780
908.7866, 84.83667
909.2687, 96.56372
909.7508, 81.94312
910.2329, 54.75513
910.7150, 42.00366
911.1971, 49.15747
911.6793, 56.94922
912.1614, 58.15332
912.6435, 55.10938
913.1256, 47.98926
913.6077, 34.17773
914.0898, 30.10962
914.5720, 37.41162
915.0541, 48.28174
915.5362, 60.60767
916.0183, 71.89795
916.5004, 74.92017
916.9825, 69.08765
917.4647, 60.74365
917.9468, 47.91431
918.4289, 38.59131
918.9110, 40.59790
919.3931, 55.32886
919.8752, 63.98999
920.3574, 66.00879
920.8395, 63.67651
921.3216, 54.81738
921.8037, 42.74487
922.2858, 43.42163
922.7679, 54.45776
923.2501, 59.64233
923.7322, 39.75854
924.2143, 19.48364
924.6964, 13.50439
925.1785, 21.93701
925.6606, 29.80127
926.1428, 35.95435
926.6249, 43.89453
927.1070, 57.63477
927.5891, 72.81079
928.0712, 74.19189
928.5533, 63.43213
929.0354, 49.79199
929.5175, 35.30518
929.9996, 22.86841
930.4818, 13.99243
930.9639, 8.832764
931.4460, 7.298828
931.9281, 8.732910
932.4102, 15.23608
932.8923, 29.45093
933.3745, 47.04150
933.8566, 59.05029
934.3387, 65.18774
934.8208, 62.24731
935.3029, 40.38086
935.7850, 21.06982
936.2672, 26.42871
936.7493, 43.74316
937.2314, 47.51538
937.7135, 20.56470
938.1956, 7.800781
938.6777, 14.96167
939.1599, 30.43921
939.6420, 38.33716
940.1241, 40.49243
940.6062, 41.51929
941.0883, 41.32495
941.5704, 44.05151
942.0526, 59.78784
942.5347, 77.18823
943.0168, 82.62720
943.4989, 62.90234
943.9810, 51.18091
944.4631, 52.46118
944.9453, 53.93604
945.4274, 35.80957
945.9095, 4.427002
946.3916, 1.930420
946.8737, 22.48364
947.3558, 47.99683
947.8380, 51.56689
948.3201, 45.71167
948.8022, 40.61938
949.2843, 37.45703
949.7664, 36.27637
950.2485, 39.73853
950.7307, 40.06689
951.2128, 19.94092
951.6949, 10.80127
952.1770, 23.38989
952.6591, 117.5518
953.1412, 185.1675
953.6234, 143.9607
954.1055, 74.63452
954.5876, 29.09717
955.0697, 10.93652
955.5518, 3.343994
956.0339, 9.399902
956.5161, 17.04468
956.9982, 23.33130
957.4803, 27.23779
957.9624, 22.25391
958.4445, 10.69507
958.9266, 3.989258
959.4088, 14.17627
959.8909, 25.09155
960.3730, 27.58838
960.8551, 23.29932
961.3372, 16.89917
961.8193, 5.872803
962.3015, 0.1123050
962.7836, 3.187256
963.2657, 9.705566
963.7478, 8.802734
964.2299, 2.879883
964.7120, 0.3007810
965.1942, 2.900879
965.6763, 6.761230
966.1584, 9.021973
966.6405, 9.599365
967.1226, 8.211670
967.6047, 3.737549
968.0869, 0.2536620
968.5690, 2.495361
969.0511, 2.886963
969.5332, 1.454346
970.0153, 9.422363
970.4974, 20.87256
970.9796, 36.76245
971.4617, 44.80444
971.9438, 31.91211
972.4259, 13.77295
972.9080, 0.4738770
973.3901, 7.651123
973.8723, 11.24121
974.3544, 9.827881
974.8365, 6.218506
975.3186, 3.819580
975.8007, 7.4951001E-02
976.2828, 13.42798
976.7650, 34.60449
977.2471, 50.96094
977.7292, 61.00488
978.2113, 59.86328
978.6934, 37.76172
979.1755, 3.076660
979.6577, 3.729248
980.1398, 20.54468
980.6219, 34.46240
981.1040, 14.47461
981.5861, 13.40649
982.0682, 10.13354
982.5504, 12.52344
983.0325, 29.01343
983.5146, 24.35889
983.9967, 20.61157
984.4788, 21.21460
984.9609, 24.94409
985.4431, 32.20850
985.9252, 42.94897
986.4073, 45.21631
986.8894, 35.86426
987.3715, 23.66821
987.8536, 14.13916
988.3358, 8.601074
988.8179, 9.494385
989.3000, 20.49634
989.7821, 28.84204
990.2642, 33.68872
990.7463, 35.78491
991.2285, 36.00122
991.7106, 34.12305
992.1927, 23.46655
992.6748, 4.529785
993.1569, 2.979736
993.6390, 38.35522
994.1212, 76.59619
994.6033, 63.75659
995.0854, 0.2104490
995.5675, 34.43115
996.0496, 32.55688
996.5317, 15.28442
997.0139, 17.95044
997.4960, 54.38037
997.9781, 56.16333
998.4602, 32.70459
998.9423, 17.05347
999.4244, 36.23096
999.9066, 53.66309
1000.389, 49.12720
1000.871, 33.92114
1001.353, 28.70044
1001.835, 36.27393
1002.317, 41.55786
1002.799, 41.96484
1003.281, 41.34546
1003.763, 44.48389
1004.246, 49.99951
1004.728, 56.17700
1005.210, 63.02197
1005.692, 68.58887
1006.174, 74.53125
1006.656, 76.73486
1007.138, 71.12305
1007.620, 57.21411
1008.103, 47.70776
1008.585, 42.82446
1009.067, 40.17871
1009.549, 41.12207
1010.031, 41.38892
1010.513, 31.34180
1010.995, 12.85327
1011.477, 4.854004
1011.959, 16.27588
1012.442, 29.71680
1012.924, 43.05200
1013.406, 53.49927
1013.888, 49.59082
1014.370, 34.63647
1014.852, 25.55103
1015.334, 33.66699
1015.816, 42.32861
1016.299, 35.95386
1016.781, 25.71802
1017.263, 30.63354
1017.745, 62.15308
1018.227, 75.10303
1018.709, 62.56128
1019.191, 43.74146
1019.673, 37.08276
1020.155, 41.15259
1020.638, 59.92725
1021.120, 96.57690
1021.602, 114.9155
1022.084, 76.01904
1022.566, 37.05981
1023.048, 31.73413
1023.530, 58.36353
1024.012, 69.74292
1024.495, 65.54614
1024.977, 58.27393
1025.459, 52.09912
1025.941, 49.22314
1026.423, 55.00513
1026.905, 66.39819
1027.387, 73.23584
1027.869, 69.83057
1028.351, 65.79907
1028.833, 60.24023
1029.316, 57.55029
1029.798, 69.72949
1030.280, 92.83838
1030.762, 109.8999
1031.244, 116.1284
1031.726, 116.0859
1032.208, 114.1313
1032.690, 106.5608
1033.173, 84.96021
1033.655, 36.94507
1034.137, 32.08594
1034.619, 80.24097
1035.101, 126.6230
1035.583, 116.6382
1036.065, 82.42554
1036.547, 81.16113
1037.030, 110.8154
1037.512, 132.2241
1037.994, 128.1372
1038.476, 114.6392
1038.958, 89.70190
1039.440, 61.51636
1039.922, 67.63672
1040.404, 105.0039
1040.886, 129.9595
1041.369, 122.6746
1041.851, 106.1750
1042.333, 94.23901
1042.815, 88.04810
1043.297, 89.96509
1043.779, 106.9587
1044.261, 119.2695
1044.743, 128.5308
1045.225, 128.8003
1045.708, 101.7244
1046.190, 64.01758
1046.672, 61.27344
1047.154, 97.01172
1047.636, 126.0251
1048.118, 118.3469
1048.600, 105.9294
1049.082, 104.7903
1049.565, 113.0925
1050.047, 118.0518
1050.529, 120.7300
1051.011, 122.8611
1051.493, 122.6306
1051.975, 124.1797
1052.457, 135.5566
1052.939, 150.0593
1053.422, 152.6799
1053.904, 138.2646
1054.386, 120.1692
1054.868, 94.87427
1055.350, 72.54736
1055.832, 68.87842
1056.314, 78.80396
1056.796, 87.03760
1057.278, 91.74512
1057.760, 95.41089
1058.243, 101.9709
1058.725, 106.0706
1059.207, 102.3245
1059.689, 91.54785
1060.171, 82.07666
1060.653, 74.00244
1061.135, 67.55469
1061.617, 62.86426
1062.100, 59.86206
1062.582, 55.80688
1063.064, 53.48486
1063.546, 59.69141
1064.028, 86.70923
1064.510, 106.0808
1064.992, 114.2771
1065.474, 116.2207
1065.956, 117.5859
1066.439, 118.3376
1066.921, 115.6172
1067.403, 107.5586
1067.885, 110.1821
1068.367, 145.5286
1068.849, 183.6003
1069.331, 205.0544
1069.813, 210.1628
1070.296, 209.6890
1070.778, 203.7954
1071.260, 188.7617
1071.742, 153.6606
1072.224, 117.8000
1072.706, 103.9172
1073.188, 105.1216
1073.670, 104.7761
1074.152, 101.2922
1074.635, 91.44897
1075.117, 70.59424
1075.599, 51.19995
1076.081, 53.66870
1076.563, 70.66333
1077.045, 80.54761
1077.527, 79.66943
1078.009, 75.89429
1078.491, 73.87109
1078.974, 71.00830
1079.456, 62.97119
1079.938, 50.78833
1080.420, 60.77002
1080.902, 94.38916
1081.384, 112.7686
1081.866, 82.20508
1082.348, 43.14697
1082.831, 31.90039
1083.313, 41.09766
1083.795, 54.59888
1084.277, 78.57178
1084.759, 87.61035
1085.241, 76.76416
1085.723, 58.17505
1086.205, 50.59106
1086.688, 48.98291
1087.170, 37.35083
1087.652, 11.95410
1088.134, 0.1833500
1088.616, 28.35547
1089.098, 59.28003
1089.580, 77.69263
1090.062, 83.50806
1090.544, 70.32056
1091.026, 40.12720
1091.509, 16.79932
1091.991, 11.72363
1092.473, 17.91772
1092.955, 42.90015
1093.437, 71.98682
1093.919, 75.73999
1094.401, 42.62280
1094.883, 20.31274
1095.366, 13.05615
1095.848, 13.09180
1096.330, 12.38257
1096.812, 13.71655
1097.294, 23.73022
1097.776, 43.20532
1098.258, 56.99536
1098.740, 57.48755
1099.223, 57.37329
1099.705, 62.59131
1100.187, 69.16357
1100.669, 62.50732
1101.151, 45.36987
1101.633, 29.24658
1102.115, 15.41382
1102.597, 8.160889
1103.079, 15.21191
1103.562, 27.10132
1104.044, 33.45093
1104.526, 33.85620
1105.008, 30.15747
1105.490, 21.98853
1105.972, 15.18726
1106.454, 19.40161
1106.936, 23.42822
1107.418, 10.27686
1107.901, 17.59668
1108.383, 21.53052
1108.865, 13.20752
1109.347, 35.28540
1109.829, 26.03149
1110.311, 5.115967
1110.793, 10.23218
1111.275, 29.34717
1111.758, 36.13965
1112.240, 15.99805
1112.722, 1.526367
1113.204, 2.078369
1113.686, 7.870361
1114.168, 15.05322
1114.650, 22.72021
1115.132, 18.31470
1115.615, 3.364502
1116.097, 7.395508
1116.579, 0.4797360
1117.061, 8.577881
1117.543, 10.86426
1118.025, 9.079834
1118.507, 10.13184
1118.989, 14.43823
1119.471, 16.83057
1119.953, 15.60229
1120.436, 14.95520
1120.918, 18.51855
1121.400, 25.56201
1121.882, 36.92468
1122.364, 55.67371
1122.846, 67.80286
1123.328, 68.86865
1123.810, 63.89429
1124.293, 55.75012
1124.775, 47.25989
1125.257, 45.11279
1125.739, 47.36536
1126.221, 48.47559
1126.703, 46.15222
1127.185, 42.85669
1127.667, 41.38635
1128.150, 36.32153
1128.632, 14.12854
1129.114, 18.75513
1129.596, 28.26184
1130.078, 10.79553
1130.560, 10.97327
1131.042, 33.51208
1131.524, 46.35974
1132.006, 39.40417
1132.489, 18.28076
1132.971, 8.471924
1133.453, 9.936646
1133.935, 9.891235
1134.417, 0.9542240
1134.899, 4.476440
1135.381, 8.398438
1135.863, 29.78699
1136.345, 48.72961
1136.828, 69.44446
1137.310, 60.91138
1137.792, 11.81616
1138.274, 11.35217
1138.756, 87.29602
1139.238, 212.2195
1139.720, 213.9572
1140.202, 118.0673
1140.685, 48.67749
1141.167, 54.62000
1141.649, 51.72607
1142.131, 21.46021
1142.613, 11.48340
1143.095, 0.5567630
1143.577, 35.08704
1144.059, 47.02966
1144.542, 23.08240
1145.024, 6.029297
1145.506, 19.57263
1145.988, 37.23145
1146.470, 49.64868
1146.952, 56.41150
1147.434, 52.94531
1147.916, 41.06030
1148.398, 31.42432
1148.880, 31.05481
1149.363, 31.24109
1149.845, 26.28064
1150.327, 20.42859
1150.809, 19.33252
1151.291, 23.76184
1151.773, 23.72424
1152.255, 17.11841
1152.737, 13.83179
1153.219, 22.21497
1153.702, 36.16040
1154.184, 56.33411
1154.666, 78.80542
1155.148, 83.56873
1155.630, 66.34619
1156.112, 50.69885
1156.594, 42.17517
1157.076, 36.83606
1157.559, 29.62988
1158.041, 22.91357
1158.523, 19.21118
1159.005, 18.57971
1159.487, 26.69690
1159.969, 50.04724
1160.451, 64.20081
1160.933, 49.19788
1161.416, 21.03198
1161.898, 13.50305
1162.380, 21.02258
1162.862, 29.04810
1163.344, 31.10608
1163.826, 35.71167
1164.308, 46.50684
1164.790, 56.08862
1165.272, 52.55042
1165.755, 40.11462
1166.237, 41.92358
1166.719, 60.05444
1167.201, 69.99316
1167.683, 47.96985
1168.165, 30.56274
1168.647, 33.60986
1169.129, 48.38123
1169.611, 51.15894
1170.094, 44.19910
1170.576, 42.55212
1171.058, 52.00940
1171.540, 59.85376
1172.022, 56.72144
1172.504, 49.86572
1172.986, 43.01562
1173.468, 36.05884
1173.951, 38.73596
1174.433, 51.76123
1174.915, 61.18494
1175.397, 57.95850
1175.879, 50.40515
1176.361, 41.78564
1176.843, 33.92407
1177.325, 29.95386
1177.807, 30.91565
1178.290, 32.10950
1178.772, 34.09326
1179.254, 29.40710
1179.736, 4.685913
1180.218, 36.05957
1180.700, 24.17224
1181.182, 24.66333
1181.664, 50.19824
1182.146, 45.19507
1182.629, 35.32690
1183.111, 24.25525
1183.593, 16.12878
1184.075, 18.92615
1184.557, 26.66797
1185.039, 30.60339
1185.521, 27.88135
1186.003, 29.37830
1186.486, 35.72009
1186.968, 44.33997
1187.450, 59.70789
1187.932, 75.81018
1188.414, 73.69592
1188.896, 60.12085
1189.378, 52.18042
1189.860, 59.91443
1190.343, 66.45752
1190.825, 71.14697
1191.307, 73.97510
1191.789, 77.51526
1192.271, 78.12915
1192.753, 61.11841
1193.235, 30.96802
1193.717, 11.99744
1194.199, 23.31677
1194.682, 35.52112
1195.164, 42.78516
1195.646, 47.00366
1196.128, 51.82825
1196.610, 58.40881
1197.092, 62.11218
1197.574, 62.28918
1198.056, 60.39209
1198.538, 53.19360
1199.021, 48.61890
1199.503, 51.61304
1199.985, 58.70105
1200.467, 56.61255
1200.949, 48.78052
1201.431, 41.97681
1201.913, 38.47070
1202.395, 34.67554
1202.878, 22.31897
1203.360, 15.64587
1203.842, 27.69397
1204.324, 56.60547
1204.806, 71.85803
1205.288, 75.92896
1205.770, 90.82214
1206.252, 160.9537
1206.734, 208.7278
1207.217, 180.4340
1207.699, 116.7089
1208.181, 59.88049
1208.663, 10.08923
1209.145, 8.027222
1209.627, 7.739258
1210.109, 30.02039
1210.591, 46.83826
1211.073, 57.18396
1211.556, 59.06726
1212.038, 53.85938
1212.520, 43.95374
1213.002, 29.62170
1213.484, 22.76208
1213.966, 27.45642
1214.448, 34.56091
1214.930, 41.93665
1215.413, 44.53906
1215.895, 32.56445
1216.377, 8.349487
1216.859, 11.34949
1217.341, 41.22278
1217.823, 59.88428
1218.305, 41.23108
1218.787, 20.43799
1219.270, 25.83704
1219.752, 44.40063
1220.234, 61.50586
1220.716, 79.55566
1221.198, 74.20447
1221.680, 44.02966
1222.162, 17.85571
1222.644, 20.99451
1223.126, 29.70154
1223.609, 18.57129
1224.091, 1.484497
1224.573, 14.13916
1225.055, 64.18994
1225.537, 96.26855
1226.019, 104.5453
1226.501, 91.99463
1226.983, 51.57471
1227.465, 16.05237
1227.948, 19.90747
1228.430, 55.22717
1228.912, 57.25793
1229.394, 19.93213
1229.876, 4.643555
1230.358, 4.196411
1230.840, 10.87744
1231.322, 46.53186
1231.805, 80.69177
1232.287, 84.31140
1232.769, 55.31726
1233.251, 41.64478
1233.733, 44.79675
1234.215, 51.52795
1234.697, 59.18616
1235.179, 62.72693
1235.661, 51.31335
1236.144, 35.29358
1236.626, 30.67480
1237.108, 41.61499
1237.590, 43.53235
1238.072, 34.86877
1238.554, 31.96875
1239.036, 54.88391
1239.518, 79.53784
1240.000, 82.51892
1240.483, 71.15955
1240.965, 62.17896
1241.447, 60.57690
1241.929, 52.97693
1242.411, 36.77893
1242.893, 28.40576
1243.375, 55.39697
1243.857, 85.74268
1244.339, 88.48669
1244.822, 67.65344
1245.304, 52.24792
1245.786, 41.86316
1246.268, 36.99500
1246.750, 38.45764
1247.232, 41.30615
1247.714, 38.59656
1248.196, 36.58533
1248.679, 41.58362
1249.161, 54.06873
1249.643, 66.14282
1250.125, 78.67908
1250.607, 77.93433
1251.089, 54.87158
1251.571, 27.12708
1252.053, 5.577515
1252.536, 3.726074
1253.018, 13.48303
1253.500, 59.37488
1253.982, 75.16882
1254.464, 60.24963
1254.946, 47.51904
1255.428, 59.90015
1255.910, 72.52856
1256.392, 63.13123
1256.875, 44.40125
1257.357, 33.07996
1257.839, 29.60596
1258.321, 34.06689
1258.803, 46.35449
1259.285, 55.27344
1259.767, 51.38293
1260.249, 43.61243
1260.731, 34.14929
1261.214, 26.31885
1261.696, 26.58679
1262.178, 35.15588
1262.660, 40.90991
1263.142, 45.03906
1263.624, 47.56714
1264.106, 49.21875
1264.588, 49.63721
1265.071, 50.19824
1265.553, 48.77625
1266.035, 36.77124
1266.517, 15.77502
1266.999, 5.430664
1267.481, 10.67102
1267.963, 16.22876
1268.445, 3.061523
1268.927, 2.681641
1269.410, 19.55396
1269.892, 57.22620
1270.374, 63.89941
1270.856, 29.17847
1271.338, 9.551758
1271.820, 2.937500
1272.302, 0.0000000E+00
##END=



