##NAMES=Poldervaartite
##RRUFFID=R080080
##IDEAL CHEMISTRY=Ca_2_(SiO_3_OH)(OH)
##LOCALITY=Wessels mine, Hotazel, Kalahari Manganese Fields, Cape Province, South Africa
##OWNER=RRUFF
##SOURCE=William W. Pinch
##DESCRIPTION=Colorless prismatic crystals
##STATUS=The identification of this mineral has been confirmed by single-crystal X-ray diffraction.
##URL=rruff.info/R080080
111.8081, 0.0000000E+00
112.2902, 0.1349030
112.7723, 0.7307130
113.2545, 2.288177
113.7366, 3.240173
114.2187, 5.776245
114.7008, 9.674942
115.1829, 14.76784
115.6650, 20.79425
116.1472, 27.66577
116.6293, 35.78275
117.1114, 46.78185
117.5935, 62.25595
118.0756, 76.97096
118.5577, 92.40648
119.0399, 106.7568
119.5220, 115.0366
120.0041, 113.7363
120.4862, 104.5406
120.9683, 93.41458
121.4504, 78.74583
121.9326, 65.02849
122.4147, 55.49988
122.8968, 50.23322
123.3789, 48.31729
123.8610, 51.05904
124.3431, 56.91554
124.8252, 64.65236
125.3074, 74.24352
125.7895, 86.46719
126.2716, 101.4045
126.7537, 120.5901
127.2358, 138.9723
127.7179, 155.7504
128.2001, 169.0443
128.6822, 178.5999
129.1643, 184.5563
129.6464, 187.0433
130.1285, 184.9931
130.6107, 175.9187
131.0928, 164.4520
131.5749, 149.9940
132.0570, 133.0962
132.5391, 115.9371
133.0212, 100.3435
133.5034, 86.41432
133.9855, 72.61060
134.4676, 57.67322
134.9497, 44.14673
135.4318, 33.34169
135.9139, 25.49821
136.3961, 19.50917
136.8782, 14.37767
137.3603, 10.22025
137.8424, 6.537193
138.3245, 3.384567
138.8066, 0.7976300
139.2888, 1.103554
139.7709, 2.207779
140.2530, 2.910202
140.7351, 3.722771
141.2172, 4.626350
141.6993, 5.240784
142.1815, 5.481728
142.6636, 5.320229
143.1457, 4.597824
143.6278, 3.038986
144.1099, 1.133049
144.5920, 0.7998810
145.0742, 2.765747
145.5563, 4.633163
146.0384, 6.473938
146.5205, 8.370270
147.0026, 9.370628
147.4847, 8.683968
147.9669, 7.384178
148.4490, 5.838058
148.9311, 4.181206
149.4132, 2.612068
149.8953, 1.323395
150.3774, 7.8841999E-02
150.8596, 0.4993440
151.3417, 1.0201000E-02
151.8238, 0.8127440
152.3059, 1.414337
152.7880, 1.555557
153.2701, 1.365219
153.7523, 1.177330
154.2344, 0.7046430
154.7165, 0.6217270
155.1986, 1.484222
155.6807, 2.613594
156.1628, 3.007515
156.6449, 2.093597
157.1271, 0.3581160
157.6092, 0.1703640
158.0913, 1.261345
158.5734, 2.783806
159.0555, 3.907196
159.5376, 4.729820
160.0198, 5.506401
160.5019, 6.261848
160.9840, 7.066788
161.4661, 8.155396
161.9482, 9.484894
162.4303, 11.09988
162.9125, 13.21807
163.3946, 15.82316
163.8767, 18.38941
164.3588, 20.73317
164.8409, 22.76567
165.3230, 24.30756
165.8052, 24.93161
166.2873, 25.40602
166.7694, 26.81628
167.2515, 29.41754
167.7336, 32.11183
168.2157, 34.30170
168.6979, 36.29030
169.1800, 38.53909
169.6621, 41.95183
170.1442, 45.56816
170.6263, 47.85212
171.1084, 48.34290
171.5906, 48.03593
172.0727, 47.43696
172.5548, 46.36109
173.0369, 44.48508
173.5190, 41.51942
174.0011, 37.59106
174.4833, 33.78300
174.9654, 29.96624
175.4475, 26.40752
175.9296, 23.13584
176.4117, 20.17472
176.8938, 17.52602
177.3760, 15.20834
177.8581, 13.22562
178.3402, 11.41566
178.8223, 9.700073
179.3044, 8.209480
179.7865, 7.021538
180.2687, 6.114685
180.7508, 5.419205
181.2329, 4.875618
181.7150, 4.487198
182.1971, 4.413094
182.6792, 4.904739
183.1614, 5.445740
183.6435, 5.780846
184.1256, 5.882423
184.6077, 5.818314
185.0898, 5.692841
185.5719, 5.483559
186.0541, 4.848923
186.5362, 3.201660
187.0183, 1.467003
187.5004, 0.5503920
187.9825, 0.5646970
188.4646, 0.9437480
188.9468, 1.205208
189.4289, 1.406036
189.9110, 1.826645
190.3931, 2.781914
190.8752, 3.919197
191.3573, 4.602676
191.8395, 4.605919
192.3216, 4.676971
192.8037, 5.442780
193.2858, 6.705139
193.7679, 8.063385
194.2500, 9.365746
194.7322, 10.62639
195.2143, 11.85708
195.6964, 12.92284
196.1785, 14.16516
196.6606, 15.82149
197.1427, 17.70947
197.6249, 19.50363
198.1070, 20.99454
198.5891, 22.19498
199.0712, 23.31080
199.5533, 24.50571
200.0354, 25.46918
200.5176, 26.18675
200.9997, 26.64587
201.4818, 26.82226
201.9639, 26.69485
202.4460, 26.26476
202.9281, 25.35860
203.4103, 23.67879
203.8924, 21.68188
204.3745, 19.14931
204.8566, 16.33693
205.3387, 13.87345
205.8208, 12.41348
206.3030, 12.14157
206.7851, 11.04143
207.2672, 8.062904
207.7493, 5.312057
208.2314, 3.577194
208.7135, 2.840691
209.1957, 2.774353
209.6778, 3.098419
210.1599, 3.868164
210.6420, 4.325027
211.1241, 3.877701
211.6062, 3.673714
212.0884, 4.408386
212.5705, 6.019485
213.0526, 7.939644
213.5347, 9.683464
214.0168, 11.21144
214.4989, 12.72668
214.9811, 14.22953
215.4632, 15.70278
215.9453, 17.22137
216.4274, 18.75981
216.9095, 20.19282
217.3916, 21.27485
217.8738, 22.05146
218.3559, 23.54465
218.8380, 26.38355
219.3201, 29.56098
219.8022, 32.18186
220.2843, 34.18173
220.7665, 36.10793
221.2486, 38.21667
221.7307, 40.61415
222.2128, 43.61627
222.6949, 47.58482
223.1770, 52.02309
223.6592, 56.24224
224.1413, 60.13660
224.6234, 64.42638
225.1055, 69.77058
225.5876, 75.86668
226.0697, 82.26820
226.5519, 88.77187
227.0340, 95.53735
227.5161, 102.7768
227.9982, 110.5047
228.4803, 118.6815
228.9624, 127.0684
229.4446, 135.8600
229.9267, 145.4852
230.4088, 155.7811
230.8909, 167.1663
231.3730, 180.3075
231.8551, 195.2159
232.3373, 211.9367
232.8194, 230.4541
233.3015, 250.7178
233.7836, 273.0859
234.2657, 297.9844
234.7478, 324.6413
235.2300, 351.6344
235.7121, 380.2971
236.1942, 406.6382
236.6763, 433.1511
237.1584, 455.9272
237.6405, 471.2124
238.1227, 477.5621
238.6048, 475.0294
239.0869, 463.4404
239.5690, 439.9767
240.0511, 411.1390
240.5332, 375.8429
241.0154, 337.9197
241.4975, 300.8069
241.9796, 265.9037
242.4617, 233.5072
242.9438, 204.9088
243.4259, 180.8445
243.9081, 159.9329
244.3902, 142.1790
244.8723, 127.0302
245.3544, 114.3308
245.8365, 103.9206
246.3186, 95.25237
246.8008, 86.93069
247.2829, 78.49932
247.7650, 71.36237
248.2471, 65.82842
248.7292, 61.38088
249.2113, 57.75084
249.6935, 54.79667
250.1756, 52.21915
250.6577, 49.41658
251.1398, 45.90906
251.6219, 42.92900
252.1040, 40.68649
252.5862, 38.85059
253.0683, 37.18900
253.5504, 35.62697
254.0325, 34.12780
254.5146, 32.60792
254.9967, 30.78868
255.4789, 29.55005
255.9610, 29.19151
256.4431, 29.23623
256.9252, 29.35305
257.4073, 29.44568
257.8894, 29.47219
258.3716, 29.37351
258.8537, 29.10974
259.3358, 28.79214
259.8179, 28.22441
260.3000, 27.71703
260.7821, 27.59803
261.2643, 27.90950
261.7464, 28.34124
262.2285, 28.49250
262.7106, 28.22813
263.1927, 28.52319
263.6748, 30.00359
264.1570, 31.65909
264.6391, 32.49038
265.1212, 32.42704
265.6033, 32.32813
266.0854, 33.05439
266.5675, 34.66328
267.0497, 36.00320
267.5318, 36.73148
268.0139, 37.40142
268.4960, 38.58743
268.9781, 40.27890
269.4602, 41.83999
269.9424, 42.89957
270.4245, 43.37183
270.9066, 43.24646
271.3887, 41.76607
271.8708, 40.24680
272.3529, 39.97887
272.8351, 40.84951
273.3172, 41.36061
273.7993, 40.43133
274.2814, 38.46849
274.7635, 36.97678
275.2456, 36.23766
275.7278, 35.69846
276.2099, 35.01052
276.6920, 34.18861
277.1741, 33.37030
277.6562, 32.71188
278.1383, 32.02202
278.6205, 30.94540
279.1026, 29.29347
279.5847, 27.63808
280.0668, 26.38981
280.5489, 25.48489
281.0310, 24.62311
281.5132, 23.87155
281.9953, 22.91135
282.4774, 21.20828
282.9595, 18.59242
283.4416, 16.23883
283.9237, 15.03846
284.4059, 14.74478
284.8880, 14.32657
285.3701, 13.55878
285.8522, 12.55428
286.3343, 11.35199
286.8164, 9.965935
287.2986, 8.750191
287.7807, 8.070892
288.2628, 7.731483
288.7449, 7.067932
289.2270, 5.867996
289.7091, 4.543022
290.1913, 3.355415
290.6734, 2.306374
291.1555, 1.399582
291.6376, 0.6646960
292.1197, 7.7164002E-02
292.6018, 0.3858260
293.0840, 0.6322400
293.5661, 0.9705200
294.0482, 1.702858
294.5303, 2.655830
295.0124, 3.538254
295.4945, 4.276237
295.9767, 4.850372
296.4588, 5.172173
296.9409, 5.164536
297.4230, 5.169571
297.9051, 5.550560
298.3872, 5.993248
298.8694, 6.077866
299.3515, 5.581161
299.8336, 4.862068
300.3157, 4.383926
300.7978, 4.175529
301.2799, 4.020798
301.7621, 3.951180
302.2442, 3.835274
302.7263, 3.626411
303.2084, 3.355843
303.6905, 2.742783
304.1726, 1.362045
304.6548, 0.8177190
305.1369, 3.002342
305.6190, 5.377762
306.1011, 7.359955
306.5832, 8.332924
307.0653, 8.291817
307.5475, 8.107826
308.0296, 8.424072
308.5117, 9.213531
308.9938, 10.14973
309.4759, 11.05002
309.9580, 12.30600
310.4402, 14.25143
310.9223, 16.75399
311.4044, 19.31999
311.8865, 21.59300
312.3686, 23.65009
312.8507, 25.84193
313.3329, 28.09175
313.8150, 30.64439
314.2971, 33.87611
314.7792, 37.45934
315.2613, 40.77633
315.7434, 43.35442
316.2256, 45.63687
316.7077, 48.60760
317.1898, 52.45299
317.6719, 56.55959
318.1540, 60.90382
318.6361, 65.26986
319.1183, 69.23617
319.6004, 72.45878
320.0825, 75.91908
320.5646, 81.16998
321.0467, 88.48808
321.5288, 95.82680
322.0110, 102.2601
322.4931, 108.6535
322.9752, 115.6401
323.4573, 123.2936
323.9394, 131.3686
324.4215, 139.8923
324.9037, 148.7982
325.3858, 157.2029
325.8679, 164.7370
326.3500, 171.8688
326.8321, 179.2107
327.3142, 186.6369
327.7964, 193.2672
328.2785, 198.9364
328.7606, 203.4351
329.2427, 205.7433
329.7248, 205.4816
330.2069, 203.4239
330.6891, 199.9186
331.1712, 195.2066
331.6533, 189.6483
332.1354, 182.8726
332.6175, 175.6213
333.0996, 169.5546
333.5818, 165.0111
334.0639, 160.4648
334.5460, 154.7270
335.0281, 148.7141
335.5102, 143.5220
335.9923, 139.5069
336.4745, 136.1347
336.9566, 132.9277
337.4387, 129.9259
337.9208, 126.6217
338.4029, 122.7836
338.8850, 118.5775
339.3672, 114.1574
339.8493, 109.5044
340.3314, 104.7912
340.8135, 100.2580
341.2956, 95.80061
341.7777, 90.97062
342.2599, 85.53732
342.7420, 79.91331
343.2241, 74.29488
343.7062, 68.72021
344.1883, 63.55328
344.6704, 59.20293
345.1526, 55.33857
345.6347, 51.13461
346.1168, 46.36736
346.5989, 41.86654
347.0810, 38.35123
347.5631, 35.53181
348.0453, 32.99329
348.5274, 30.81258
349.0095, 28.71092
349.4916, 26.18765
349.9737, 23.21275
350.4558, 20.72650
350.9380, 19.51072
351.4201, 18.88995
351.9022, 17.71545
352.3843, 15.79177
352.8664, 13.68147
353.3485, 11.52747
353.8307, 9.457359
354.3128, 8.006020
354.7949, 7.467216
355.2770, 7.408424
355.7591, 7.250511
356.2412, 6.983246
356.7234, 6.897118
357.2055, 7.180069
357.6876, 7.736298
358.1697, 8.388145
358.6518, 9.099014
359.1339, 9.878693
359.6161, 10.69585
360.0982, 11.58373
360.5803, 12.66737
361.0624, 14.26179
361.5445, 15.85707
362.0266, 16.74094
362.5088, 17.08261
362.9909, 18.02271
363.4730, 20.31252
363.9551, 23.65823
364.4372, 27.07336
364.9193, 30.53651
365.4015, 34.06989
365.8836, 37.51737
366.3657, 41.03797
366.8478, 44.93408
367.3299, 49.26431
367.8120, 54.11008
368.2942, 59.78316
368.7763, 66.46468
369.2584, 73.06401
369.7405, 79.38384
370.2226, 85.55885
370.7047, 91.85976
371.1869, 98.30628
371.6690, 104.3382
372.1511, 109.5609
372.6332, 113.9187
373.1153, 117.2893
373.5974, 120.0854
374.0796, 121.6531
374.5617, 121.6401
375.0438, 120.1547
375.5259, 117.4450
376.0080, 113.6258
376.4901, 108.7695
376.9723, 103.0850
377.4544, 95.48228
377.9365, 88.48478
378.4186, 82.63706
378.9007, 77.38186
379.3828, 72.03893
379.8650, 66.44772
380.3471, 61.12970
380.8292, 56.82371
381.3113, 53.72791
381.7934, 51.15532
382.2755, 49.16821
382.7577, 47.56694
383.2398, 46.31635
383.7219, 45.36375
384.2040, 44.66765
384.6861, 44.16963
385.1682, 43.86762
385.6504, 43.81174
386.1325, 43.96252
386.6146, 44.37822
387.0967, 44.93904
387.5788, 45.80639
388.0609, 47.35363
388.5431, 49.73325
389.0252, 52.44662
389.5073, 54.40194
389.9894, 54.81685
390.4715, 56.23190
390.9536, 59.13900
391.4358, 62.66469
391.9179, 66.14832
392.4000, 69.58767
392.8821, 73.54807
393.3642, 78.74001
393.8463, 85.24328
394.3285, 91.32887
394.8106, 96.18694
395.2927, 101.6709
395.7748, 108.6018
396.2569, 116.4794
396.7390, 124.5899
397.2212, 132.6940
397.7033, 140.7294
398.1854, 148.4523
398.6675, 155.7961
399.1496, 163.1139
399.6317, 170.5097
400.1139, 177.9666
400.5960, 185.6720
401.0781, 193.6212
401.5602, 201.0807
402.0423, 207.5125
402.5244, 212.8903
403.0066, 217.0669
403.4887, 220.2240
403.9708, 221.7042
404.4529, 221.2566
404.9350, 219.0216
405.4171, 215.2389
405.8993, 209.7514
406.3814, 202.9159
406.8635, 195.1882
407.3456, 186.5418
407.8277, 177.0456
408.3098, 165.8473
408.7920, 154.1200
409.2741, 143.8909
409.7562, 135.5490
410.2383, 127.8890
410.7204, 120.0790
411.2025, 112.3188
411.6847, 105.0676
412.1668, 98.36811
412.6489, 92.31523
413.1310, 87.21828
413.6131, 83.00909
414.0952, 78.95609
414.5774, 74.88638
415.0595, 70.94799
415.5416, 67.28882
416.0237, 63.91457
416.5058, 60.77162
416.9879, 57.80779
417.4701, 55.05818
417.9522, 52.69759
418.4343, 51.13348
418.9164, 49.40253
419.3985, 47.01497
419.8806, 44.36375
420.3628, 42.03616
420.8449, 40.21255
421.3270, 38.70902
421.8091, 37.26555
422.2912, 35.90965
422.7733, 34.56122
423.2555, 33.06543
423.7376, 31.71230
424.2197, 30.65467
424.7018, 29.90407
425.1839, 29.44728
425.6660, 29.29628
426.1482, 29.41071
426.6303, 29.51044
427.1124, 29.59243
427.5945, 29.66229
428.0766, 29.67869
428.5587, 29.70518
429.0409, 29.86161
429.5230, 30.16531
430.0051, 30.42957
430.4872, 30.41815
430.9693, 30.14132
431.4514, 29.55534
431.9336, 28.49984
432.4157, 27.24677
432.8978, 25.76316
433.3799, 24.15609
433.8620, 22.65934
434.3441, 21.52699
434.8263, 20.53064
435.3084, 18.95021
435.7905, 16.57914
436.2726, 14.20947
436.7547, 12.00497
437.2368, 9.979683
437.7190, 8.180672
438.2011, 6.618538
438.6832, 5.238014
439.1653, 4.024513
439.6474, 2.965172
440.1295, 1.971775
440.6117, 1.025536
441.0938, 0.1632460
441.5759, 0.5765720
442.0580, 1.208290
442.5401, 1.749477
443.0222, 2.300919
443.5044, 2.693840
443.9865, 2.596439
444.4686, 2.081070
444.9507, 1.833717
445.4328, 2.284195
445.9149, 3.089001
446.3971, 3.411964
446.8792, 3.050499
447.3613, 2.877399
447.8434, 3.317516
448.3255, 3.987053
448.8076, 4.510029
449.2898, 4.802513
449.7719, 4.732914
450.2540, 4.100506
450.7361, 2.861736
451.2182, 1.969856
451.7003, 1.611053
452.1825, 1.335800
452.6646, 1.125175
453.1467, 0.8550570
453.6288, 0.2532390
454.1109, 0.8024710
454.5930, 1.989353
455.0752, 2.634380
455.5573, 2.302223
456.0394, 2.272205
456.5215, 2.671963
457.0036, 3.211235
457.4857, 3.675350
457.9679, 4.108654
458.4500, 4.719223
458.9321, 5.672874
459.4142, 6.936211
459.8963, 8.353661
460.3784, 10.10758
460.8606, 11.67807
461.3427, 12.76040
461.8248, 13.71994
462.3069, 14.88847
462.7890, 16.34939
463.2711, 18.04493
463.7532, 19.86708
464.2354, 21.83897
464.7175, 24.19227
465.1996, 27.11830
465.6817, 30.17558
466.1638, 33.19565
466.6459, 36.10879
467.1281, 38.69793
467.6102, 40.58631
468.0923, 42.38426
468.5744, 44.98540
469.0565, 48.28431
469.5386, 50.97807
470.0208, 52.42987
470.5029, 53.17347
470.9850, 54.24343
471.4671, 55.84707
471.9492, 56.71406
472.4313, 56.45421
472.9135, 55.34491
473.3956, 53.23986
473.8777, 50.32574
474.3598, 47.84272
474.8419, 46.82871
475.3240, 47.11298
475.8062, 47.03073
476.2883, 46.07584
476.7704, 45.42812
477.2525, 45.37859
477.7346, 45.74251
478.2167, 46.27166
478.6989, 46.90915
479.1810, 47.80859
479.6631, 49.22448
480.1452, 51.26530
480.6273, 53.22926
481.1094, 54.88143
481.5916, 56.69050
482.0737, 58.99714
482.5558, 61.53298
483.0379, 63.85678
483.5200, 65.77020
484.0021, 67.35194
484.4843, 68.75774
484.9664, 70.00671
485.4485, 71.01317
485.9306, 71.71417
486.4127, 72.18565
486.8948, 72.58650
487.3770, 72.85461
487.8591, 72.65115
488.3412, 71.67623
488.8233, 70.13726
489.3054, 68.23129
489.7875, 65.91862
490.2697, 64.09052
490.7518, 63.60890
491.2339, 63.68263
491.7160, 62.53865
492.1981, 59.65198
492.6802, 57.12991
493.1624, 56.05337
493.6445, 55.83559
494.1266, 55.53454
494.6087, 54.99866
495.0908, 54.80484
495.5729, 55.52821
496.0551, 57.16129
496.5372, 58.66919
497.0193, 59.59510
497.5014, 60.93539
497.9835, 63.19894
498.4656, 65.99339
498.9478, 68.70196
499.4299, 71.10684
499.9120, 73.60565
500.3941, 76.78316
500.8762, 80.81405
501.3583, 84.95929
501.8405, 88.62088
502.3226, 93.08002
502.8047, 99.02248
503.2868, 105.9999
503.7689, 113.1684
504.2510, 120.2338
504.7332, 127.3121
505.2153, 134.5408
505.6974, 141.8989
506.1795, 149.1581
506.6616, 156.2656
507.1437, 163.2709
507.6259, 170.6215
508.1080, 178.1728
508.5901, 184.6539
509.0722, 189.5958
509.5543, 192.9687
510.0364, 194.7365
510.5186, 194.9091
511.0007, 193.8229
511.4828, 191.8186
511.9649, 188.4723
512.4470, 182.6379
512.9291, 173.8039
513.4113, 164.7795
513.8934, 156.2135
514.3755, 147.8797
514.8576, 139.7160
515.3397, 131.6682
515.8218, 123.6031
516.3040, 115.3060
516.7861, 106.8821
517.2682, 99.26948
517.7503, 92.85109
518.2324, 86.83469
518.7145, 80.76764
519.1967, 75.24673
519.6788, 71.09180
520.1609, 68.26920
520.6430, 65.72751
521.1251, 62.32666
521.6072, 58.09285
522.0894, 54.60192
522.5715, 52.25030
523.0536, 49.98462
523.5357, 47.36547
524.0178, 44.68163
524.4999, 42.33843
524.9821, 40.46699
525.4642, 38.56609
525.9463, 36.06212
526.4284, 33.11425
526.9105, 30.26655
527.3926, 27.49055
527.8748, 25.17609
528.3569, 23.95384
528.8390, 23.48495
529.3211, 22.55259
529.8032, 20.67738
530.2853, 18.73256
530.7675, 17.17910
531.2496, 15.89521
531.7317, 14.63321
532.2138, 13.31485
532.6959, 12.08935
533.1780, 11.16908
533.6602, 10.62272
534.1423, 9.952122
534.6244, 8.930244
535.1065, 8.047966
535.5886, 7.478348
536.0707, 7.161144
536.5529, 7.040714
537.0350, 7.094913
537.5171, 7.235764
537.9992, 7.393959
538.4813, 7.651402
538.9634, 7.438225
539.4456, 6.141796
539.9277, 5.033295
540.4098, 4.864548
540.8919, 5.283180
541.3740, 5.548615
541.8561, 5.310081
542.3383, 4.922054
542.8204, 4.953651
543.3025, 5.327507
543.7846, 5.207890
544.2667, 4.210953
544.7488, 3.025047
545.2310, 2.532063
545.7131, 2.626328
546.1952, 2.325218
546.6773, 0.8512760
547.1594, 0.4586940
547.6415, 0.4864270
548.1237, 0.3337900
548.6058, 0.8198660
549.0879, 0.4807360
549.5700, 0.1335750
550.0521, 7.3463000E-02
550.5342, 1.036213
551.0164, 1.691040
551.4985, 1.684296
551.9806, 1.488697
552.4627, 1.243324
552.9448, 1.000298
553.4269, 0.7854120
553.9091, 0.5382650
554.3912, 0.3024440
554.8733, 0.1421970
555.3554, 6.1358999E-02
555.8375, 0.1053430
556.3196, 0.4901010
556.8018, 0.7366030
557.2839, 0.4224470
557.7660, 0.2559390
558.2481, 0.7470210
558.7302, 0.7629550
559.2123, 0.6317440
559.6945, 0.7151720
560.1766, 0.9509510
560.6587, 1.010681
561.1408, 0.7437900
561.6229, 0.4498520
562.1050, 0.5630720
562.5872, 1.181244
563.0693, 1.443207
563.5514, 1.082474
564.0335, 0.6133880
564.5156, 0.1994130
564.9977, 0.1072810
565.4799, 0.2026670
565.9620, 4.6436001E-02
566.4441, 0.1843830
566.9262, 0.2049980
567.4083, 3.7025001E-02
567.8904, 0.3143270
568.3726, 0.7630730
568.8547, 1.109497
569.3368, 1.292355
569.8189, 1.287762
570.3010, 0.9742620
570.7831, 0.2195550
571.2653, 0.4434430
571.7474, 0.1918450
572.2295, 0.8363420
572.7116, 1.365166
573.1937, 1.020443
573.6758, 0.6254200
574.1580, 1.015621
574.6401, 1.939960
575.1222, 2.406693
575.6043, 1.888916
576.0864, 1.432522
576.5685, 1.663723
577.0507, 2.197796
577.5328, 2.439793
578.0149, 2.249695
578.4970, 1.796158
578.9791, 1.176479
579.4612, 0.3696630
579.9434, 0.2356300
580.4255, 1.775414
580.9076, 2.754303
581.3897, 2.339939
581.8718, 1.417469
582.3539, 0.9548260
582.8361, 1.157101
583.3182, 1.560829
583.8003, 1.642735
584.2824, 1.482830
584.7645, 1.748264
585.2466, 2.680004
585.7288, 3.393826
586.2109, 3.304966
586.6930, 2.798084
587.1751, 2.384998
587.6572, 2.076630
588.1393, 1.953457
588.6215, 2.195869
589.1036, 2.578342
589.5857, 2.824696
590.0678, 2.900841
590.5499, 2.818745
591.0320, 2.568001
591.5142, 2.192245
591.9963, 1.852444
592.4784, 1.354202
592.9605, 1.189720
593.4426, 1.724228
593.9247, 2.292850
594.4069, 2.276894
594.8890, 1.847557
595.3711, 1.730476
595.8532, 2.492928
596.3353, 3.656734
596.8174, 4.042576
597.2996, 3.513336
597.7817, 2.955383
598.2638, 2.409073
598.7459, 2.073425
599.2280, 2.228870
599.7101, 2.770603
600.1923, 3.126163
600.6744, 3.060211
601.1565, 2.785767
601.6386, 2.284832
602.1207, 1.710022
602.6028, 1.610260
603.0850, 2.201241
603.5671, 2.913338
604.0492, 2.972015
604.5313, 2.215664
605.0134, 1.756218
605.4955, 1.730721
605.9777, 1.890079
606.4598, 2.354431
606.9419, 2.818878
607.4240, 2.797092
607.9061, 2.205551
608.3882, 1.562267
608.8704, 1.599297
609.3525, 2.227463
609.8346, 2.121029
610.3167, 0.8072430
610.7988, 9.3085997E-02
611.2809, 0.7061120
611.7631, 2.178234
612.2452, 2.874058
612.7273, 2.510651
613.2094, 2.160454
613.6915, 2.517197
614.1736, 3.044601
614.6558, 2.968517
615.1379, 2.314705
615.6200, 1.672688
616.1021, 1.383938
616.5842, 1.395893
617.0663, 1.489395
617.5485, 1.654346
618.0306, 1.883163
618.5127, 2.424229
618.9948, 2.834034
619.4769, 2.805454
619.9590, 2.407658
620.4412, 1.832317
620.9233, 1.174332
621.4054, 0.5998800
621.8875, 0.2927550
622.3696, 0.2477260
622.8517, 0.5214840
623.3339, 1.339710
623.8160, 2.035801
624.2981, 1.931000
624.7802, 1.242294
625.2623, 0.6435510
625.7444, 0.1852380
626.2266, 0.1561050
626.7087, 0.3863490
627.1908, 0.5138930
627.6729, 0.5693660
628.1550, 0.5497700
628.6371, 0.3634000
629.1193, 0.1027530
629.6014, 0.8184780
630.0835, 1.108177
630.5656, 0.5324590
631.0477, 0.2103960
631.5298, 0.6299550
632.0120, 1.081013
632.4941, 0.9149930
632.9762, 0.2117160
633.4583, 0.3640940
633.9404, 0.4157410
634.4225, 0.1090550
634.9047, 0.4824180
635.3868, 1.308487
635.8689, 1.606426
636.3510, 0.9837110
636.8331, 0.1247710
637.3152, 0.1000670
637.7974, 0.4036520
638.2795, 0.5911870
638.7616, 0.2544670
639.2437, 0.2107390
639.7258, 0.9581030
640.2079, 1.606998
640.6901, 1.487946
641.1722, 0.5093120
641.6543, 0.6152730
642.1364, 1.109928
642.6185, 1.030960
643.1006, 1.059956
643.5828, 1.265945
644.0649, 1.412048
644.5470, 1.182213
645.0291, 1.002907
645.5112, 1.297878
645.9933, 2.094948
646.4755, 3.030098
646.9576, 4.314541
647.4397, 5.382675
647.9218, 5.325878
648.4039, 4.425404
648.8860, 3.979588
649.3682, 4.551796
649.8503, 5.456089
650.3324, 5.582844
650.8145, 4.608109
651.2966, 4.378208
651.7787, 5.576633
652.2609, 6.690407
652.7430, 7.256554
653.2251, 7.480072
653.7072, 7.570755
654.1893, 7.600639
654.6714, 7.717567
655.1536, 8.038563
655.6357, 8.555195
656.1178, 9.338734
656.5999, 10.44240
657.0820, 11.33594
657.5641, 11.67119
658.0463, 11.74936
658.5284, 12.29017
659.0105, 13.53473
659.4926, 13.98660
659.9747, 12.30110
660.4568, 10.83564
660.9390, 11.39944
661.4211, 13.28467
661.9032, 14.99086
662.3853, 15.86982
662.8674, 16.25076
663.3495, 16.53999
663.8317, 16.73067
664.3138, 17.10657
664.7959, 17.62057
665.2780, 18.48569
665.7601, 20.17360
666.2422, 22.02216
666.7244, 23.21018
667.2065, 23.57889
667.6886, 23.87776
668.1707, 24.35538
668.6528, 25.01307
669.1349, 26.01475
669.6171, 27.19333
670.0992, 28.21936
670.5813, 28.96112
671.0634, 29.45555
671.5455, 29.68697
672.0276, 29.42054
672.5098, 29.76275
672.9919, 31.60452
673.4740, 33.07306
673.9561, 33.31491
674.4382, 32.98824
674.9203, 32.85394
675.4025, 33.10491
675.8846, 33.79437
676.3667, 35.42942
676.8488, 37.40022
677.3309, 38.18445
677.8130, 37.73347
678.2952, 37.43481
678.7773, 37.98500
679.2594, 38.97186
679.7415, 39.70610
680.2236, 40.24267
680.7057, 40.30958
681.1879, 39.27558
681.6700, 38.46762
682.1521, 38.83829
682.6342, 39.67393
683.1163, 39.84117
683.5984, 39.01668
684.0806, 37.84123
684.5627, 36.90891
685.0448, 36.21721
685.5269, 35.81089
686.0090, 35.79332
686.4911, 35.52247
686.9733, 34.62639
687.4554, 33.42794
687.9375, 32.47021
688.4196, 31.77544
688.9017, 30.94158
689.3839, 29.84911
689.8660, 28.69869
690.3481, 27.40352
690.8302, 26.17072
691.3123, 25.43951
691.7944, 25.34373
692.2766, 25.38865
692.7587, 24.96967
693.2408, 24.11446
693.7229, 23.34428
694.2050, 22.71024
694.6871, 21.93825
695.1693, 20.70861
695.6514, 19.51869
696.1335, 18.98802
696.6156, 19.09581
697.0977, 18.82102
697.5798, 17.27225
698.0620, 15.75809
698.5441, 15.52213
699.0262, 16.09330
699.5083, 16.39645
699.9904, 16.07357
700.4725, 15.37106
700.9547, 14.46017
701.4368, 13.40018
701.9189, 13.16849
702.4010, 14.49922
702.8831, 15.17545
703.3652, 13.80284
703.8474, 12.22364
704.3295, 11.94070
704.8116, 12.81161
705.2937, 13.48713
705.7758, 13.29884
706.2579, 12.84451
706.7401, 12.56869
707.2222, 12.40987
707.7043, 12.20506
708.1864, 11.92307
708.6685, 11.75008
709.1506, 11.93573
709.6328, 12.35096
710.1149, 11.93340
710.5970, 9.855591
711.0791, 8.471817
711.5612, 8.564468
712.0433, 8.982094
712.5255, 9.227684
713.0076, 9.190926
713.4897, 8.684608
713.9718, 7.441414
714.4539, 6.074638
714.9360, 5.092972
715.4182, 4.404854
715.9003, 3.776939
716.3824, 3.179062
716.8645, 2.874985
717.3466, 3.162613
717.8287, 3.739960
718.3109, 3.428535
718.7930, 1.386154
719.2751, 5.8768999E-02
719.7572, 4.5311000E-02
720.2393, 9.7153001E-02
720.7214, 0.2189250
721.2036, 0.1885990
721.6857, 0.2420120
722.1678, 1.233849
722.6499, 2.199997
723.1320, 2.681908
723.6141, 2.778687
724.0963, 2.582298
724.5784, 2.135498
725.0605, 1.841972
725.5426, 1.981171
726.0247, 2.206497
726.5068, 1.740532
726.9890, 0.1510390
727.4711, 0.8095550
727.9532, 0.5651780
728.4353, 0.3613280
728.9174, 0.5307620
729.3995, 1.012497
729.8817, 1.673485
730.3638, 2.490196
730.8459, 3.618462
731.3280, 5.371826
731.8101, 7.409889
732.2922, 9.036522
732.7744, 10.35461
733.2565, 12.08675
733.7386, 14.49969
734.2207, 17.38951
734.7028, 20.48938
735.1849, 23.79967
735.6671, 27.64898
736.1492, 32.32567
736.6313, 37.05185
737.1134, 41.69551
737.5955, 46.45806
738.0776, 51.08992
738.5598, 55.84874
739.0419, 61.81421
739.5240, 69.98744
740.0061, 79.11406
740.4882, 87.78449
740.9703, 96.28301
741.4525, 105.3705
741.9346, 115.2025
742.4167, 125.5634
742.8988, 136.3716
743.3809, 147.3826
743.8630, 157.3959
744.3452, 166.3924
744.8273, 174.3493
745.3094, 181.9462
745.7915, 187.8952
746.2736, 191.2377
746.7557, 192.4488
747.2379, 192.5685
747.7200, 191.8926
748.2021, 190.2421
748.6842, 187.2206
749.1663, 183.2380
749.6484, 178.9223
750.1306, 174.3426
750.6127, 169.5626
751.0948, 164.6517
751.5769, 159.4095
752.0590, 153.2575
752.5411, 145.6854
753.0233, 139.6145
753.5054, 136.0091
753.9875, 132.6549
754.4696, 129.3106
754.9517, 125.6073
755.4338, 120.8162
755.9160, 114.9479
756.3981, 109.7650
756.8802, 106.6781
757.3623, 104.1196
757.8444, 100.3650
758.3265, 95.97299
758.8087, 92.47622
759.2908, 90.23985
759.7729, 88.17578
760.2550, 85.21458
760.7371, 81.55887
761.2192, 78.60696
761.7014, 76.71930
762.1835, 74.52459
762.6656, 71.29384
763.1477, 68.23257
763.6298, 66.50348
764.1119, 65.56146
764.5941, 63.80022
765.0762, 60.50510
765.5583, 57.16664
766.0404, 54.48122
766.5225, 52.14970
767.0046, 49.91560
767.4868, 47.70735
767.9689, 45.39029
768.4510, 42.87842
768.9331, 40.43935
769.4152, 38.64714
769.8973, 37.52847
770.3795, 36.05428
770.8616, 34.14764
771.3437, 32.02957
771.8258, 29.49409
772.3079, 27.03478
772.7900, 25.53178
773.2722, 25.08855
773.7543, 24.23882
774.2364, 22.05261
774.7185, 20.17649
775.2006, 19.54770
775.6827, 19.67812
776.1649, 20.04467
776.6470, 20.45177
777.1291, 20.66271
777.6112, 20.46785
778.0933, 20.15350
778.5754, 20.34761
779.0576, 21.03002
779.5397, 21.93958
780.0218, 23.15376
780.5039, 24.00108
780.9860, 23.92356
781.4681, 23.11783
781.9503, 22.35019
782.4324, 21.35098
782.9145, 20.86322
783.3966, 21.87422
783.8787, 22.40742
784.3608, 20.96172
784.8430, 18.46392
785.3251, 16.45876
785.8072, 15.40294
786.2893, 14.67028
786.7714, 13.88706
787.2535, 13.02406
787.7357, 12.05043
788.2178, 10.93864
788.6999, 9.422424
789.1820, 7.355782
789.6641, 5.310326
790.1462, 4.015961
790.6284, 3.469101
791.1105, 2.824074
791.5926, 2.217285
792.0747, 1.280106
792.5568, 0.6513670
793.0389, 2.408165
793.5211, 2.932831
794.0032, 2.559158
794.4853, 2.525810
794.9674, 3.409912
795.4495, 4.294334
795.9316, 4.776772
796.4138, 4.828560
796.8959, 4.245651
797.3780, 3.161339
797.8601, 2.020294
798.3422, 1.042473
798.8243, 0.3355180
799.3065, 0.1771550
799.7886, 0.5920640
800.2707, 0.8458940
800.7528, 1.001953
801.2349, 0.7685170
801.7170, 0.1966860
802.1992, 1.406891
802.6813, 2.208809
803.1634, 2.607666
803.6455, 2.896042
804.1276, 2.722076
804.6097, 2.901718
805.0919, 3.981430
805.5740, 5.394310
806.0561, 6.782188
806.5382, 7.938744
807.0203, 8.452911
807.5024, 7.920517
807.9846, 7.134674
808.4667, 7.383766
808.9488, 8.343285
809.4309, 8.572548
809.9130, 7.889503
810.3951, 7.543007
810.8773, 8.348289
811.3594, 9.688164
811.8415, 10.31134
812.3236, 10.05545
812.8057, 9.690666
813.2878, 8.878899
813.7700, 8.385445
814.2521, 8.665070
814.7342, 9.187622
815.2163, 9.283119
815.6984, 8.978081
816.1805, 9.098953
816.6627, 10.56960
817.1448, 11.97840
817.6269, 12.07512
818.1090, 11.51305
818.5911, 11.23617
819.0732, 11.40976
819.5554, 11.87949
820.0375, 12.56771
820.5196, 13.37640
821.0017, 14.16728
821.4838, 14.94795
821.9659, 15.36189
822.4481, 15.23537
822.9302, 15.22939
823.4123, 15.66886
823.8944, 16.42796
824.3765, 17.20951
824.8586, 17.86789
825.3408, 19.34240
825.8229, 22.78484
826.3050, 25.68133
826.7871, 26.69553
827.2692, 27.06764
827.7513, 28.08459
828.2335, 29.82176
828.7156, 31.58834
829.1977, 32.91954
829.6798, 34.31205
830.1619, 36.20905
830.6440, 38.61949
831.1262, 41.61130
831.6083, 45.16451
832.0904, 49.05524
832.5725, 53.19426
833.0546, 57.47824
833.5367, 61.63013
834.0188, 65.56401
834.5009, 70.01836
834.9830, 75.05054
835.4651, 80.48501
835.9473, 85.98598
836.4294, 92.05217
836.9115, 99.33112
837.3936, 107.7659
837.8757, 116.5842
838.3578, 125.4380
838.8400, 134.9798
839.3221, 145.4155
839.8042, 156.7396
840.2863, 169.0898
840.7684, 182.3368
841.2505, 196.0183
841.7327, 209.9162
842.2148, 224.6006
842.6969, 240.4753
843.1790, 257.7225
843.6611, 277.2101
844.1432, 298.9203
844.6254, 321.8759
845.1075, 345.6746
845.5896, 370.7299
846.0717, 397.7692
846.5538, 426.6417
847.0359, 457.3737
847.5181, 489.5374
848.0002, 524.0312
848.4823, 561.0374
848.9644, 600.6461
849.4465, 643.3168
849.9286, 688.7098
850.4108, 736.1714
850.8929, 786.3691
851.3750, 836.6709
851.8571, 886.9072
852.3392, 936.5315
852.8214, 986.0804
853.3035, 1034.446
853.7856, 1080.496
854.2677, 1123.580
854.7498, 1161.339
855.2319, 1191.394
855.7141, 1214.563
856.1962, 1233.895
856.6783, 1248.691
857.1604, 1254.391
857.6425, 1249.716
858.1246, 1237.085
858.6068, 1218.132
859.0889, 1193.378
859.5710, 1164.586
860.0531, 1132.169
860.5352, 1094.249
861.0173, 1048.736
861.4995, 1000.387
861.9816, 950.2653
862.4637, 898.9131
862.9458, 846.5112
863.4279, 793.1965
863.9100, 740.3376
864.3922, 686.8498
864.8743, 635.1094
865.3564, 586.4883
865.8385, 540.5402
866.3206, 496.1741
866.8027, 453.8112
867.2849, 415.4167
867.7670, 382.3792
868.2491, 353.2565
868.7312, 326.9380
869.2133, 303.2303
869.6954, 281.4943
870.1776, 261.5971
870.6597, 243.2466
871.1418, 226.2857
871.6239, 211.0790
872.1060, 198.2031
872.5881, 187.6606
873.0703, 177.1942
873.5524, 166.5429
874.0345, 156.6781
874.5166, 147.6294
874.9987, 139.5430
875.4808, 132.9686
875.9630, 127.4054
876.4451, 121.2723
876.9272, 113.6667
877.4093, 107.2502
877.8914, 103.3373
878.3735, 99.92289
878.8557, 95.50606
879.3378, 90.83931
879.8199, 87.34296
880.3020, 85.21788
880.7841, 83.20620
881.2662, 80.27112
881.7484, 77.14349
882.2305, 74.62667
882.7126, 72.64289
883.1947, 71.09959
883.6768, 69.93462
884.1589, 68.87540
884.6411, 67.74943
885.1232, 66.65314
885.6053, 65.67101
886.0874, 64.78428
886.5695, 64.86832
887.0516, 66.32848
887.5338, 67.13499
888.0159, 66.41800
888.4980, 64.87768
888.9801, 63.35101
889.4622, 61.83189
889.9443, 59.70161
890.4265, 56.44758
890.9086, 53.33076
891.3907, 50.65376
891.8728, 47.95737
892.3549, 44.80148
892.8370, 41.45837
893.3192, 38.46297
893.8013, 35.92571
894.2834, 33.67754
894.7655, 31.72405
895.2476, 29.93812
895.7297, 28.26631
896.2119, 26.66522
896.6940, 24.99144
897.1761, 23.27819
897.6582, 21.84035
898.1403, 20.90239
898.6224, 20.30868
899.1046, 19.99309
899.5867, 19.80896
900.0688, 18.99377
900.5509, 17.49063
901.0330, 15.98656
901.5151, 14.76140
901.9973, 13.91472
902.4794, 13.68676
902.9615, 14.07875
903.4436, 13.95402
903.9257, 12.88827
904.4078, 12.47441
904.8900, 13.70388
905.3721, 14.81700
905.8542, 14.14696
906.3363, 12.31556
906.8184, 11.26051
907.3005, 11.28156
907.7827, 11.42706
908.2648, 11.65293
908.7469, 11.89934
909.2290, 12.30070
909.7111, 12.61060
910.1932, 12.41117
910.6754, 11.74348
911.1575, 11.23062
911.6396, 11.28683
912.1217, 11.43854
912.6038, 11.17739
913.0859, 10.84377
913.5681, 11.14381
914.0502, 11.86047
914.5323, 12.03166
915.0144, 11.24226
915.4965, 10.06654
915.9786, 9.255020
916.4608, 8.602272
916.9429, 7.171207
917.4250, 5.048622
917.9071, 3.507027
918.3892, 2.881271
918.8713, 2.616779
919.3535, 2.320934
919.8356, 1.984451
920.3177, 1.563663
920.7998, 0.9875530
921.2819, 0.6135480
921.7640, 0.6965180
922.2462, 0.4803500
922.7283, 0.5672990
923.2104, 1.863800
923.6925, 2.760159
924.1746, 3.268505
924.6567, 3.433434
925.1389, 2.790981
925.6210, 2.464436
926.1031, 2.968292
926.5852, 3.549564
927.0673, 3.643993
927.5494, 3.462021
928.0316, 3.510155
928.5137, 3.919468
928.9958, 4.101887
929.4779, 3.543011
929.9600, 2.840000
930.4421, 2.485611
930.9243, 2.305332
931.4064, 2.088108
931.8885, 1.749592
932.3706, 1.105503
932.8527, 5.5539999E-03
933.3348, 1.062748
933.8170, 1.146080
934.2991, 0.7001080
934.7812, 1.042946
935.2633, 2.114285
935.7454, 2.971954
936.2275, 3.304379
936.7097, 3.816803
937.1918, 5.271053
937.6739, 7.357048
938.1560, 8.825584
938.6381, 9.559937
939.1202, 10.55540
939.6024, 11.89103
940.0845, 13.58333
940.5666, 15.83665
941.0487, 18.18197
941.5308, 19.76698
942.0129, 20.47194
942.4951, 21.80439
942.9772, 24.34945
943.4593, 26.64775
943.9414, 28.14142
944.4235, 29.68258
944.9056, 31.84045
945.3878, 34.43681
945.8699, 37.04427
946.3520, 39.56718
946.8341, 42.25670
947.3162, 45.06790
947.7983, 48.18414
948.2805, 51.74463
948.7626, 55.61893
949.2447, 59.88400
949.7268, 64.35626
950.2089, 68.36169
950.6910, 71.36687
951.1732, 74.65143
951.6553, 79.58259
952.1374, 85.09659
952.6195, 89.80413
953.1016, 93.95428
953.5837, 98.40812
954.0659, 103.4006
954.5480, 108.7316
955.0301, 114.4532
955.5122, 120.0497
955.9943, 124.2998
956.4764, 127.5940
956.9586, 131.6205
957.4407, 136.5098
957.9228, 141.1141
958.4049, 144.9211
958.8870, 148.2417
959.3691, 151.5520
959.8513, 154.7513
960.3334, 156.8045
960.8155, 157.4643
961.2976, 158.9503
961.7797, 162.0646
962.2618, 164.6505
962.7440, 165.2395
963.2261, 164.4356
963.7082, 163.5227
964.1903, 162.5957
964.6724, 161.0667
965.1545, 159.1763
965.6367, 156.2787
966.1188, 151.7185
966.6009, 146.5821
967.0830, 141.6992
967.5651, 136.9022
968.0472, 131.7128
968.5294, 126.1284
969.0115, 120.0648
969.4936, 112.9323
969.9757, 105.9593
970.4578, 99.73209
970.9399, 93.87911
971.4221, 87.77364
971.9042, 81.54705
972.3863, 76.03785
972.8684, 71.69468
973.3505, 67.79131
973.8326, 64.16893
974.3148, 60.60507
974.7969, 56.75232
975.2790, 52.88439
975.7611, 49.54253
976.2432, 46.80339
976.7253, 44.23369
977.2075, 41.61029
977.6896, 38.95974
978.1717, 36.16693
978.6538, 33.44168
979.1359, 31.12882
979.6180, 29.21967
980.1002, 27.49090
980.5823, 25.80384
981.0644, 24.27293
981.5465, 23.21547
982.0286, 22.29861
982.5107, 20.55528
982.9929, 18.26017
983.4750, 16.43344
983.9571, 15.17349
984.4392, 14.31387
984.9213, 13.83496
985.4034, 13.47400
985.8856, 12.83289
986.3677, 11.89568
986.8498, 10.63207
987.3319, 9.021423
987.8140, 7.911785
988.2961, 7.486610
988.7783, 7.320148
989.2604, 7.142822
989.7425, 7.104141
990.2246, 7.624344
990.7067, 8.903839
991.1888, 9.200161
991.6710, 7.925411
992.1531, 6.913155
992.6352, 6.688858
993.1173, 6.826099
993.5994, 7.098774
994.0815, 7.402668
994.5637, 7.487011
995.0458, 7.258492
995.5279, 7.088623
996.0100, 6.559067
996.4921, 6.626091
996.9742, 8.328972
997.4564, 10.06475
997.9385, 10.09672
998.4206, 8.995869
998.9027, 8.949726
999.3848, 10.77150
999.8669, 12.22602
1000.349, 12.55146
1000.831, 12.80171
1001.313, 13.67695
1001.795, 14.60485
1002.278, 14.76193
1002.760, 14.31063
1003.242, 14.27851
1003.724, 15.16886
1004.206, 16.04847
1004.688, 16.58976
1005.170, 16.86509
1005.652, 16.81670
1006.134, 16.60291
1006.617, 16.46190
1007.099, 16.40526
1007.581, 16.19587
1008.063, 15.50972
1008.545, 15.15551
1009.027, 16.39344
1009.509, 17.85000
1009.991, 17.69987
1010.474, 16.48839
1010.956, 15.64198
1011.438, 15.52533
1011.920, 15.66173
1012.402, 15.83376
1012.884, 15.84546
1013.366, 15.33947
1013.848, 14.55547
1014.330, 13.92311
1014.813, 13.44056
1015.295, 12.95998
1015.777, 12.43839
1016.259, 12.01002
1016.741, 11.84758
1017.223, 11.71748
1017.705, 11.00644
1018.187, 9.969101
1018.669, 9.730701
1019.152, 10.21719
1019.634, 10.11772
1020.116, 8.955040
1020.598, 7.538479
1021.080, 6.677876
1021.562, 6.197769
1022.044, 5.660271
1022.526, 5.063431
1023.009, 4.203030
1023.491, 3.053135
1023.973, 2.593227
1024.455, 3.314884
1024.937, 4.294952
1025.419, 4.405441
1025.901, 3.779556
1026.383, 3.107029
1026.865, 2.362335
1027.348, 2.061470
1027.830, 2.310265
1028.312, 2.727058
1028.794, 3.256645
1029.276, 3.451855
1029.758, 2.576637
1030.240, 0.8799360
1030.722, 0.5573770
1031.205, 2.086754
1031.687, 2.770790
1032.169, 2.058159
1032.651, 1.358635
1033.133, 1.293564
1033.615, 1.705360
1034.097, 2.511333
1034.579, 3.647594
1035.062, 3.953648
1035.544, 3.123573
1036.026, 2.241772
1036.508, 1.194981
1036.990, 0.4598690
1037.472, 0.3069000
1037.954, 0.5449790
1038.436, 0.9742430
1038.918, 1.596363
1039.401, 2.243622
1039.883, 3.380711
1040.365, 3.628670
1040.847, 2.214077
1041.329, 0.8252720
1041.811, 0.2020260
1042.293, 7.3779998E-03
1042.775, 0.2127720
1043.257, 0.4115750
1043.740, 0.5698660
1044.222, 0.6999930
1044.704, 0.7330860
1045.186, 0.7112160
1045.668, 0.6448480
1046.150, 0.4053190
1046.632, 0.1852420
1047.114, 0.2933690
1047.597, 0.6984480
1048.079, 0.9049340
1048.561, 0.7768480
1049.043, 0.5683140
1049.525, 0.1216770
1050.007, 0.1862260
1050.489, 2.4261000E-02
1050.971, 0.3312230
1051.453, 0.1642230
1051.936, 0.4554630
1052.418, 0.7339100
1052.900, 0.1590540
1053.382, 9.9453002E-02
1053.864, 0.4854240
1054.346, 1.086296
1054.828, 1.334698
1055.310, 1.322269
1055.792, 1.107479
1056.275, 0.7440220
1056.757, 0.4248200
1057.239, 0.1534270
1057.721, 2.8625000E-02
1058.203, 0.1658060
1058.685, 0.3763920
1059.167, 0.6452790
1059.649, 0.8389320
1060.132, 0.7108920
1060.614, 0.3915900
1061.096, 0.4078520
1061.578, 1.122421
1062.060, 1.590450
1062.542, 1.263229
1063.024, 0.8379100
1063.506, 0.6552540
1063.989, 0.6340870
1064.471, 0.6945760
1064.953, 0.8039050
1065.435, 0.9143070
1065.917, 1.084553
1066.399, 1.000259
1066.881, 0.1336170
1067.363, 0.5548320
1067.845, 0.4538960
1068.328, 7.9098001E-02
1068.810, 0.8471640
1069.292, 1.651684
1069.774, 2.085251
1070.256, 2.007015
1070.738, 1.719822
1071.220, 1.100273
1071.702, 0.6100160
1072.184, 0.5004690
1072.667, 0.6754150
1073.149, 1.252411
1073.631, 1.978672
1074.113, 2.205685
1074.595, 1.718456
1075.077, 1.350479
1075.559, 1.769600
1076.041, 2.060371
1076.524, 1.533504
1077.006, 0.7795180
1077.488, 0.2405170
1077.970, 5.5689998E-03
1078.452, 0.1776080
1078.934, 0.8166770
1079.416, 1.184700
1079.898, 0.7049290
1080.380, 0.2038920
1080.863, 0.2044180
1081.345, 0.2869490
1081.827, 0.1221010
1082.309, 0.6616860
1082.791, 0.4875140
1083.273, 0.4961620
1083.755, 1.251575
1084.237, 1.238216
1084.719, 1.046745
1085.202, 0.8845140
1085.684, 0.7342830
1086.166, 0.4951170
1086.648, 0.3049350
1087.130, 0.4452210
1087.612, 0.9033160
1088.094, 1.280529
1088.576, 1.511703
1089.058, 1.461521
1089.541, 0.8424220
1090.023, 0.1681290
1090.505, 0.4263590
1090.987, 0.7141610
1091.469, 0.1550450
1091.951, 1.017361
1092.433, 1.583519
1092.915, 0.9253920
1093.398, 0.3516080
1093.880, 0.5114270
1094.362, 0.7466910
1094.844, 0.6857130
1095.326, 0.4821000
1095.808, 0.2216930
1096.290, 9.1399997E-04
1096.772, 5.9781998E-02
1097.255, 0.5414180
1097.737, 0.9091610
1098.219, 0.8047200
1098.701, 0.7720390
1099.183, 1.200661
1099.665, 1.685589
1100.147, 1.976322
1100.629, 1.993040
1101.111, 1.515068
1101.594, 0.4393410
1102.076, 0.2447470
1102.558, 2.7079999E-03
1103.040, 0.3089830
1103.522, 0.2555520
1104.004, 0.3026200
1104.486, 1.115854
1104.968, 2.071869
1105.450, 2.022791
1105.933, 0.9008450
1106.415, 2.0029999E-03
1106.897, 0.3422070
1107.379, 0.5865310
1107.861, 1.153643
1108.343, 1.304405
1108.825, 0.1704940
1109.307, 1.270617
1109.790, 1.699799
1110.272, 1.223633
1110.754, 1.099577
1111.236, 1.630325
1111.718, 2.150856
1112.200, 2.961906
1112.682, 3.291166
1113.164, 2.019619
1113.646, 0.8777390
1114.129, 2.166040
1114.611, 4.844017
1115.093, 5.200333
1115.575, 2.080612
1116.057, 0.1027620
1116.539, 0.3556960
1117.021, 0.2308160
1117.503, 0.9330900
1117.985, 1.868639
1118.468, 1.484089
1118.950, 0.4763320
1119.432, 0.2226350
1119.914, 0.8130840
1120.396, 0.9993690
1120.878, 0.3715130
1121.360, 0.2561910
1121.842, 1.090942
1122.325, 1.929270
1122.807, 2.400621
1123.289, 2.522903
1123.771, 2.232700
1124.253, 1.602701
1124.735, 1.221077
1125.217, 1.034039
1125.699, 1.249033
1126.182, 2.104916
1126.664, 2.673170
1127.146, 2.542040
1127.628, 2.308544
1128.110, 2.572491
1128.592, 3.070410
1129.074, 2.953341
1129.556, 2.126579
1130.038, 1.704489
1130.521, 1.706585
1131.003, 2.112774
1131.485, 3.033323
1131.967, 3.536013
1132.449, 2.934643
1132.931, 1.919703
1133.413, 1.628864
1133.895, 1.964100
1134.377, 2.335745
1134.860, 2.730499
1135.342, 2.583117
1135.824, 1.830133
1136.306, 1.522045
1136.788, 2.125443
1137.270, 2.732904
1137.752, 2.294844
1138.234, 1.339869
1138.717, 1.240341
1139.199, 1.784096
1139.681, 2.052223
1140.163, 2.004511
1140.645, 1.879900
1141.127, 1.794949
1141.609, 2.022205
1142.091, 2.837547
1142.573, 3.593573
1143.056, 3.102285
1143.538, 2.057947
1144.020, 1.997709
1144.502, 2.526426
1144.984, 2.416618
1145.466, 1.706749
1145.948, 1.504883
1146.430, 2.269905
1146.912, 3.078733
1147.395, 3.048077
1147.877, 2.719849
1148.359, 2.621971
1148.841, 2.647022
1149.323, 2.691843
1149.805, 2.745329
1150.287, 2.898932
1150.769, 3.117662
1151.252, 3.029102
1151.734, 2.271095
1152.216, 1.609694
1152.698, 1.599321
1153.180, 1.839947
1153.662, 2.102709
1154.144, 2.338602
1154.626, 2.572359
1155.109, 2.813345
1155.591, 2.970772
1156.073, 3.045427
1156.555, 2.980316
1157.037, 2.648905
1157.519, 2.311909
1158.001, 1.921480
1158.483, 1.717926
1158.965, 2.093761
1159.448, 2.672806
1159.930, 2.704031
1160.412, 2.191269
1160.894, 2.002325
1161.376, 2.521065
1161.858, 2.869816
1162.340, 2.692236
1162.822, 2.716570
1163.304, 3.653358
1163.787, 4.441946
1164.269, 3.843409
1164.751, 2.333652
1165.233, 1.568600
1165.715, 1.662590
1166.197, 2.000874
1166.679, 2.953196
1167.161, 3.310522
1167.644, 2.553658
1168.126, 1.846033
1168.608, 1.933372
1169.090, 2.341805
1169.572, 2.345367
1170.054, 2.018719
1170.536, 1.834044
1171.018, 1.720629
1171.500, 2.195446
1171.983, 3.378414
1172.465, 3.878963
1172.947, 3.182127
1173.429, 2.428886
1173.911, 2.587273
1174.393, 3.170261
1174.875, 3.352186
1175.357, 3.221729
1175.839, 2.901403
1176.322, 2.501793
1176.804, 2.664097
1177.286, 3.352636
1177.768, 3.405167
1178.250, 2.378256
1178.732, 1.399794
1179.214, 1.669975
1179.696, 2.439053
1180.179, 2.822033
1180.661, 2.937092
1181.143, 2.779072
1181.625, 2.488190
1182.107, 2.426918
1182.589, 2.627201
1183.071, 2.840317
1183.553, 3.005798
1184.036, 2.947926
1184.518, 2.205555
1185.000, 1.588928
1185.482, 1.887321
1185.964, 2.442604
1186.446, 2.473892
1186.928, 2.186066
1187.410, 2.284306
1187.892, 2.904675
1188.375, 3.132328
1188.857, 2.344872
1189.339, 1.760662
1189.821, 1.720177
1190.303, 1.824265
1190.785, 2.024014
1191.267, 2.153252
1191.749, 1.955036
1192.231, 1.538593
1192.714, 1.329384
1193.196, 1.284229
1193.678, 1.672497
1194.160, 2.834370
1194.642, 3.479004
1195.124, 3.215702
1195.606, 2.790848
1196.088, 2.618282
1196.571, 2.542233
1197.053, 2.330410
1197.535, 2.027336
1198.017, 1.823906
1198.499, 1.725945
1198.981, 2.040932
1199.463, 2.756393
1199.945, 3.018986
1200.427, 2.596638
1200.910, 2.022224
1201.392, 1.634567
1201.874, 1.472370
1202.356, 1.739738
1202.838, 2.183517
1203.320, 2.205059
1203.802, 1.997200
1204.284, 2.000576
1204.766, 2.198467
1205.249, 2.357452
1205.731, 2.403419
1206.213, 2.423706
1206.695, 2.525566
1207.177, 2.507679
1207.659, 2.133282
1208.141, 1.624653
1208.623, 0.9674870
1209.106, 0.4338570
1209.588, 0.4767990
1210.070, 0.9141270
1210.552, 1.161701
1211.034, 1.104614
1211.516, 0.8081670
1211.998, 0.1305200
1212.480, 0.6955720
1212.963, 0.3257680
1213.445, 0.1067310
1213.927, 7.6393001E-02
1214.409, 7.4638002E-02
1214.891, 3.5590001E-03
1215.373, 0.2695810
1215.855, 0.6914750
1216.337, 1.373222
1216.819, 1.695145
1217.302, 1.586636
1217.784, 1.363121
1218.266, 1.050179
1218.748, 0.8162080
1219.230, 0.7701000
1219.712, 0.7449110
1220.194, 0.4870220
1220.676, 0.1633720
1221.158, 0.1743700
1221.641, 0.4626350
1222.123, 0.8760030
1222.605, 1.341240
1223.087, 1.481953
1223.569, 1.258831
1224.051, 0.9719160
1224.533, 0.7722240
1225.015, 0.7852250
1225.498, 1.435890
1225.980, 2.042427
1226.462, 1.701298
1226.944, 0.9249880
1227.426, 9.7682998E-02
1227.908, 0.4875410
1228.390, 0.1862910
1228.872, 0.9081120
1229.354, 1.518753
1229.837, 0.9938090
1230.319, 0.5535320
1230.801, 0.7502480
1231.283, 0.9390790
1231.765, 0.5316310
1232.247, 0.3274690
1232.729, 1.522636
1233.211, 3.040962
1233.693, 2.614502
1234.176, 0.3564340
1234.658, 0.4095880
1235.140, 0.9776040
1235.622, 1.830177
1236.104, 2.012714
1236.586, 1.749107
1237.068, 0.9932370
1237.550, 0.2405470
1238.033, 0.2122040
1238.515, 0.1561360
1238.997, 1.051338
1239.479, 2.885067
1239.961, 3.064281
1240.443, 1.988010
1240.925, 1.231148
1241.407, 0.9785040
1241.890, 1.353539
1242.372, 2.269115
1242.854, 2.973602
1243.336, 2.987507
1243.818, 2.672359
1244.300, 2.288601
1244.782, 1.883606
1245.264, 1.303314
1245.746, 0.8622970
1246.229, 0.6975060
1246.711, 0.7174680
1247.193, 0.8101730
1247.675, 0.9084170
1248.157, 0.8613820
1248.639, 0.4530180
1249.121, 0.2676700
1249.603, 0.5187070
1250.085, 0.8591920
1250.568, 1.266769
1251.050, 1.557858
1251.532, 1.611530
1252.014, 1.517368
1252.496, 1.324512
1252.978, 0.9215470
1253.460, 0.6748730
1253.942, 0.5774650
1254.425, 0.7293130
1254.907, 1.174694
1255.389, 1.436806
1255.871, 1.424442
1256.353, 1.401978
1256.835, 1.970837
1257.317, 2.430901
1257.799, 1.772377
1258.281, 0.5733800
1258.764, 0.4088400
1259.246, 0.7251210
1259.728, 0.8971630
1260.210, 0.9031370
1260.692, 0.5752070
1261.174, 5.5225000E-02
1261.656, 0.1726300
1262.138, 1.448387
1262.620, 2.333206
1263.103, 1.841061
1263.585, 1.108288
1264.067, 0.2522350
1264.549, 9.6396998E-02
1265.031, 0.9932750
1265.513, 2.459843
1265.995, 2.808739
1266.477, 2.243141
1266.960, 1.708302
1267.442, 1.160164
1267.924, 0.7421190
1268.406, 0.4245720
1268.888, 0.3008500
1269.370, 0.3872340
1269.852, 0.3755870
1270.334, 0.2493400
1270.817, 0.1393620
1271.299, 0.1395530
1271.781, 0.4098890
1272.263, 0.9263310
1272.745, 1.440964
1273.227, 1.078674
1273.709, 0.2883340
1274.191, 0.4684450
1274.673, 1.402027
1275.156, 1.614250
1275.638, 0.6233900
1276.120, 1.5198000E-02
1276.602, 1.132313
1277.084, 1.678806
1277.566, 0.0000000E+00
##END=



