##NAMES=Polylithionite
##RRUFFID=R060225
##IDEAL CHEMISTRY=KLi_2_AlSi_4_O_10_F_2_
##LOCALITY=Mont Saint-Hilaire, Rouville County, Quebec, Canada
##OWNER=RRUFF
##SOURCE=Royal Ontario Museum
##DESCRIPTION=Tan colored hexagonal shaped mica
##STATUS=The identification of this mineral is confirmed by single-crystal X-ray diffraction and chemical analysis.
##URL=rruff.info/R060225
##MEASURED CHEMISTRY=(K_0.95_[box]_0.05_)_Σ=1_(Li_1.95_Mg_0.04_Mn_0.01_)_Σ=2_(Al_0.97_Fe^3+^_0.03_)_Σ=1_Si_4.00_O_10_(F_1.40_(OH)_0.60_)_Σ=2_
150.1633, 0.0000000E+00
150.6454, 0.2917610
151.1275, 0.2578880
151.6096, 0.2024280
152.0917, 0.1455490
152.5739, 4.7455002E-02
153.0560, 8.7120002E-03
153.5381, 1.2570000E-02
154.0202, 0.1014530
154.5023, 0.2422040
154.9844, 0.4942690
155.4665, 0.6535130
155.9487, 0.5437810
156.4308, 0.3484370
156.9129, 0.1671660
157.3950, 1.2940000E-03
157.8771, 4.7141001E-02
158.3592, 0.2650330
158.8414, 1.196664
159.3235, 1.815929
159.8056, 1.631377
160.2877, 1.203681
160.7698, 1.034911
161.2519, 1.346140
161.7341, 1.968449
162.2162, 2.431247
162.6983, 2.680784
163.1804, 2.829350
163.6625, 2.854349
164.1446, 2.803616
164.6268, 2.696603
165.1089, 2.527296
165.5910, 2.343669
166.0731, 2.462135
166.5552, 3.352152
167.0373, 4.032914
167.5195, 4.134165
168.0016, 3.891385
168.4837, 3.798053
168.9658, 4.173844
169.4479, 4.937680
169.9300, 5.339656
170.4122, 5.289474
170.8943, 5.140586
171.3764, 5.123225
171.8585, 5.259533
172.3406, 5.298427
172.8227, 5.241655
173.3049, 5.110963
173.7870, 5.011551
174.2691, 4.923816
174.7512, 4.901258
175.2333, 4.974811
175.7154, 5.017539
176.1976, 5.268044
176.6797, 5.367222
177.1618, 5.386787
177.6439, 5.448002
178.1260, 5.547133
178.6081, 5.544191
179.0903, 5.454906
179.5724, 5.340266
180.0545, 5.136294
180.5366, 4.727077
181.0187, 4.219852
181.5008, 3.786091
181.9830, 3.551710
182.4651, 3.440325
182.9472, 3.215187
183.4293, 2.811136
183.9114, 2.412939
184.3935, 2.118090
184.8757, 1.885439
185.3578, 1.633178
185.8399, 1.254988
186.3220, 0.7825390
186.8041, 0.4876320
187.2862, 0.4450730
187.7684, 0.5285500
188.2505, 0.8849330
188.7326, 1.341930
189.2147, 1.557970
189.6968, 1.202253
190.1789, 0.2382550
190.6611, 2.7272999E-02
191.1432, 8.9060999E-02
191.6253, 0.1701260
192.1074, 0.1512320
192.5895, 6.0520001E-02
193.0716, 0.1361360
193.5538, 0.1100300
194.0359, 0.8612290
194.5180, 1.316070
195.0001, 1.400191
195.4822, 1.335889
195.9643, 1.125721
196.4465, 0.8295510
196.9286, 0.6251390
197.4107, 0.7220160
197.8928, 1.188586
198.3749, 1.282877
198.8570, 0.6428430
199.3392, 5.5906001E-02
199.8213, 3.4091000E-02
200.3034, 9.7874999E-02
200.7855, 0.1427400
201.2676, 3.8334001E-02
201.7497, 0.3107510
202.2319, 0.5830290
202.7140, 0.1460910
203.1961, 0.1009590
203.6782, 0.3576270
204.1603, 0.2046200
204.6424, 7.6546997E-02
205.1246, 6.2578000E-02
205.6067, 0.1002000
206.0888, 0.1355770
206.5709, 7.0054002E-02
207.0530, 1.2897000E-02
207.5351, 0.2431860
208.0173, 0.3621140
208.4994, 0.4367480
208.9815, 0.5386380
209.4636, 0.6444900
209.9457, 0.6946490
210.4278, 0.6271720
210.9100, 0.4891620
211.3921, 0.4161390
211.8742, 0.4355020
212.3563, 0.4737220
212.8384, 0.4638860
213.3205, 0.4375640
213.8027, 0.4704180
214.2848, 0.5834810
214.7669, 0.7882160
215.2490, 1.156723
215.7311, 1.903509
216.2132, 2.472702
216.6954, 2.583413
217.1775, 2.384430
217.6596, 2.136544
218.1417, 2.009002
218.6238, 1.963681
219.1059, 1.748572
219.5881, 1.056166
220.0702, 0.5887440
220.5523, 0.6756130
221.0344, 1.097955
221.5165, 1.484446
221.9986, 1.562300
222.4808, 1.388667
222.9629, 1.510619
223.4450, 2.464382
223.9271, 3.152221
224.4092, 3.131363
224.8913, 2.708457
225.3735, 2.416686
225.8556, 2.622308
226.3377, 3.273664
226.8198, 3.800171
227.3019, 4.124459
227.7840, 4.395637
228.2662, 4.629594
228.7483, 4.831172
229.2304, 4.978678
229.7125, 5.044980
230.1946, 5.054185
230.6767, 5.272226
231.1589, 6.032722
231.6410, 6.621400
232.1231, 6.744832
232.6052, 6.571434
233.0873, 6.456226
233.5694, 6.630798
234.0516, 7.029760
234.5337, 7.172729
235.0158, 6.781547
235.4979, 6.492844
235.9800, 6.544731
236.4621, 6.841355
236.9443, 7.184376
237.4264, 7.485350
237.9085, 7.727815
238.3906, 7.832423
238.8727, 7.730347
239.3548, 7.600155
239.8370, 7.380104
240.3191, 7.165459
240.8012, 7.233972
241.2833, 7.793145
241.7654, 8.649358
242.2475, 9.232152
242.7297, 9.482602
243.2118, 9.614542
243.6939, 9.771935
244.1760, 9.889247
244.6581, 9.733027
245.1402, 9.121103
245.6224, 8.286808
246.1045, 7.734374
246.5866, 7.596725
247.0687, 7.350658
247.5508, 6.599761
248.0329, 5.486185
248.5151, 4.514942
248.9972, 3.903409
249.4793, 3.543080
249.9614, 3.218703
250.4435, 2.906392
250.9256, 2.679034
251.4078, 2.695686
251.8899, 2.877435
252.3720, 2.910587
252.8541, 2.661285
253.3362, 2.295571
253.8183, 1.989688
254.3005, 1.741527
254.7826, 1.530570
255.2647, 1.304338
255.7468, 1.093014
256.2289, 1.081994
256.7110, 1.466913
257.1931, 1.809577
257.6753, 1.717196
258.1574, 1.268986
258.6395, 0.8570310
259.1216, 0.7727920
259.6037, 0.9206080
260.0858, 0.9218280
260.5680, 0.6524450
261.0501, 0.4660060
261.5322, 0.6708510
262.0143, 1.124698
262.4964, 1.401215
262.9785, 1.091375
263.4607, 0.3237980
263.9428, 0.1582570
264.4249, 0.1898000
264.9070, 0.1095090
265.3891, 8.8290997E-02
265.8712, 0.1099250
266.3534, 0.1453170
266.8355, 0.1522570
267.3176, 7.2815001E-02
267.7997, 8.8896997E-02
268.2818, 0.8407820
268.7639, 1.429993
269.2461, 1.091877
269.7282, 0.2821070
270.2103, 4.0220000E-02
270.6924, 1.4065000E-02
271.1745, 3.7785999E-02
271.6566, 0.2365670
272.1388, 0.4406340
272.6209, 0.5408190
273.1030, 0.4743550
273.5851, 0.3393490
274.0672, 0.2437190
274.5493, 0.2363390
275.0315, 0.2914380
275.5136, 0.3358220
275.9957, 0.3061000
276.4778, 0.3932640
276.9599, 0.8024020
277.4420, 1.237981
277.9242, 1.386414
278.4063, 1.142604
278.8884, 0.7289050
279.3705, 0.5455930
279.8526, 0.6383610
280.3347, 0.8849570
280.8169, 1.437367
281.2990, 2.006860
281.7811, 2.406530
282.2632, 2.581691
282.7453, 2.557955
283.2274, 2.309854
283.7096, 1.622605
284.1917, 1.261915
284.6738, 1.480205
285.1559, 1.799322
285.6380, 1.933284
286.1201, 1.856522
286.6023, 1.734571
287.0844, 1.765911
287.5665, 2.005848
288.0486, 2.178803
288.5307, 2.253172
289.0128, 2.294690
289.4950, 2.330184
289.9771, 2.367477
290.4592, 2.378330
290.9413, 2.364893
291.4234, 2.323961
291.9055, 2.320588
292.3877, 2.392330
292.8698, 2.463515
293.3519, 2.511663
293.8340, 2.540064
294.3161, 2.563742
294.7982, 2.595797
295.2804, 2.632820
295.7625, 2.629010
296.2446, 2.669018
296.7267, 2.569772
297.2088, 2.198955
297.6909, 1.684754
298.1731, 1.189507
298.6552, 0.7977510
299.1373, 0.5250040
299.6194, 0.4396480
300.1015, 0.8047430
300.5836, 1.046950
301.0658, 0.9894660
301.5479, 0.8402150
302.0300, 0.8710750
302.5121, 1.181884
302.9942, 1.587317
303.4763, 1.691619
303.9585, 1.176435
304.4406, 0.8267020
304.9227, 0.7833720
305.4048, 0.8139160
305.8869, 0.6823400
306.3690, 0.3571790
306.8512, 4.4819999E-02
307.3333, 6.2066998E-02
307.8154, 0.5810640
308.2975, 0.9141850
308.7796, 1.025190
309.2617, 1.037056
309.7439, 1.010906
310.2260, 0.9574120
310.7081, 0.8602950
311.1902, 0.6973250
311.6723, 0.4531460
312.1544, 0.2710300
312.6366, 0.1773820
313.1187, 8.6762004E-02
313.6008, 7.1644999E-02
314.0829, 9.1535002E-02
314.5650, 7.7360002E-03
315.0471, 5.4609001E-02
315.5293, 7.0495002E-02
316.0114, 0.1485780
316.4935, 0.4623220
316.9756, 0.7012560
317.4577, 0.8069710
317.9398, 0.7917660
318.4220, 0.7190820
318.9041, 0.6284830
319.3862, 0.5335020
319.8683, 0.4302680
320.3504, 0.1910960
320.8326, 0.1334920
321.3147, 0.4101880
321.7968, 0.7702470
322.2789, 0.9998650
322.7610, 1.020570
323.2431, 0.8960200
323.7253, 0.7279310
324.2074, 0.4675220
324.6895, 0.2593440
325.1716, 2.0486001E-02
325.6537, 0.1112780
326.1358, 3.2655999E-02
326.6180, 0.4207620
327.1001, 0.8468080
327.5822, 1.098875
328.0643, 1.164572
328.5464, 1.065300
329.0285, 0.5550480
329.5107, 0.1414020
329.9928, 0.1147080
330.4749, 0.3711790
330.9570, 0.6121500
331.4391, 0.6093870
331.9212, 0.3820940
332.4034, 0.2118900
332.8855, 1.7945999E-02
333.3676, 2.3229999E-02
333.8497, 0.2592520
334.3318, 0.6828250
334.8139, 0.9868860
335.2961, 1.037750
335.7782, 0.9217970
336.2603, 0.8999190
336.7424, 1.167719
337.2245, 1.225328
337.7066, 0.8180540
338.1888, 0.3269580
338.6709, 9.8305002E-02
339.1530, 0.2202510
339.6351, 0.5271190
340.1172, 0.8044490
340.5993, 1.129983
341.0815, 1.211457
341.5636, 0.8253010
342.0457, 0.4151190
342.5278, 0.2308640
343.0099, 0.2678960
343.4920, 0.3673740
343.9742, 0.3798840
344.4563, 0.2979220
344.9384, 0.2691700
345.4205, 0.4402190
345.9026, 0.5190780
346.3847, 0.2964910
346.8669, 6.1094999E-02
347.3490, 0.1817800
347.8311, 1.0010001E-03
348.3132, 0.5077250
348.7953, 0.7506200
349.2774, 0.5122670
349.7596, 0.3362230
350.2417, 0.3292550
350.7238, 0.4222660
351.2059, 0.5661550
351.6880, 0.7423050
352.1701, 0.9177290
352.6523, 1.035869
353.1344, 1.083940
353.6165, 1.112274
354.0986, 1.144192
354.5807, 1.144854
355.0628, 1.068793
355.5450, 0.9265480
356.0271, 0.7897150
356.5092, 0.7383100
356.9913, 0.7767400
357.4734, 0.7800610
357.9555, 0.6870700
358.4377, 0.6291120
358.9198, 0.6169530
359.4019, 0.6791950
359.8840, 0.8940990
360.3661, 1.390605
360.8482, 2.010368
361.3304, 2.255317
361.8125, 1.997931
362.2946, 1.633899
362.7767, 1.238994
363.2588, 0.8445110
363.7409, 0.4398790
364.2231, 3.2939999E-03
364.7052, 9.1871001E-02
365.1873, 0.1623880
365.6694, 0.5279220
366.1515, 0.9858420
366.6336, 0.8650110
367.1158, 0.5811620
367.5979, 0.4571230
368.0800, 0.4945440
368.5621, 0.4714220
369.0442, 0.1154410
369.5263, 6.5485999E-02
370.0085, 0.3631530
370.4906, 0.2429570
370.9727, 7.5500002E-03
371.4548, 0.1637570
371.9369, 4.2043000E-02
372.4190, 0.1991000
372.9012, 0.3414720
373.3833, 0.3974100
373.8654, 0.1553590
374.3475, 5.2230000E-03
374.8296, 0.4293490
375.3117, 0.2485210
375.7939, 0.1596600
376.2760, 0.1505830
376.7581, 0.2282530
377.2402, 0.1889610
377.7223, 4.1510001E-02
378.2044, 0.1645470
378.6866, 2.7238000E-02
379.1687, 7.9509998E-03
379.6508, 6.0240999E-02
380.1329, 4.0833998E-02
380.6150, 0.3530640
381.0971, 0.6409650
381.5793, 0.6737190
382.0614, 0.5779870
382.5435, 0.5053650
383.0256, 0.4695640
383.5077, 0.4997520
383.9898, 0.6756530
384.4720, 0.9659130
384.9541, 1.177683
385.4362, 1.202244
385.9183, 1.239249
386.4004, 1.449220
386.8825, 1.781693
387.3647, 2.067363
387.8468, 2.229611
388.3289, 2.293062
388.8110, 2.308927
389.2931, 2.225975
389.7752, 2.198910
390.2574, 2.233778
390.7395, 2.355850
391.2216, 2.604530
391.7037, 2.986783
392.1858, 3.414732
392.6679, 3.810790
393.1501, 4.198160
393.6322, 4.369234
394.1143, 4.105853
394.5964, 3.843765
395.0785, 3.815703
395.5606, 3.998498
396.0428, 4.279034
396.5249, 4.596117
397.0070, 4.934934
397.4891, 5.218244
397.9712, 5.521308
398.4533, 5.669394
398.9355, 5.405423
399.4176, 5.085550
399.8997, 5.166583
400.3818, 5.764553
400.8639, 6.527429
401.3460, 6.917731
401.8282, 6.799564
402.3103, 6.672773
402.7924, 6.430680
403.2745, 6.274149
403.7566, 6.385776
404.2387, 6.685894
404.7209, 6.919825
405.2030, 6.873393
405.6851, 6.617970
406.1672, 6.523965
406.6493, 6.737462
407.1314, 6.904501
407.6136, 6.969881
408.0957, 6.940468
408.5778, 6.811807
409.0599, 6.581666
409.5420, 6.294629
410.0241, 5.996380
410.5063, 5.675369
410.9884, 5.413196
411.4705, 5.283065
411.9526, 5.166904
412.4347, 5.000861
412.9168, 4.788253
413.3990, 4.563947
413.8811, 4.335824
414.3632, 4.114434
414.8453, 3.950851
415.3274, 3.874640
415.8095, 3.783157
416.2917, 3.561265
416.7738, 3.307551
417.2559, 3.184522
417.7380, 3.311529
418.2201, 3.409113
418.7022, 3.127600
419.1844, 2.515512
419.6665, 2.037594
420.1486, 1.862592
420.6307, 1.840657
421.1128, 1.787475
421.5949, 1.702212
422.0771, 1.638211
422.5592, 1.606975
423.0413, 1.612014
423.5234, 1.659216
424.0055, 1.728697
424.4876, 1.802515
424.9698, 1.927245
425.4519, 2.050117
425.9340, 1.907593
426.4161, 1.200303
426.8982, 0.5535290
427.3803, 0.2317000
427.8625, 0.1491570
428.3446, 0.2301970
428.8267, 0.4609410
429.3088, 0.7054750
429.7909, 0.7508260
430.2730, 0.4642500
430.7552, 0.2251740
431.2373, 1.4260000E-02
431.7194, 0.1311370
432.2015, 0.1613190
432.6836, 0.1109080
433.1657, 5.7904001E-02
433.6479, 0.1030420
434.1300, 0.1173760
434.6121, 0.1479340
435.0942, 0.2326370
435.5763, 0.5501810
436.0584, 0.5925150
436.5406, 0.5088950
437.0227, 0.4452190
437.5048, 0.4509050
437.9869, 0.4891710
438.4690, 0.4730270
438.9511, 0.3569690
439.4333, 0.3385960
439.9154, 0.5789240
440.3975, 0.7771510
440.8796, 0.7640270
441.3617, 0.5916500
441.8438, 0.4343620
442.3260, 0.3888410
442.8081, 0.4117690
443.2902, 0.4170430
443.7723, 0.3911220
444.2544, 0.3447960
444.7365, 0.3087660
445.2187, 0.2377380
445.7008, 4.2419001E-02
446.1829, 8.6282000E-02
446.6650, 0.3647500
447.1471, 0.2258710
447.6292, 2.2505000E-02
448.1114, 0.3961320
448.5935, 0.5910910
449.0756, 0.6996240
449.5577, 0.7304760
450.0398, 0.7268770
450.5219, 0.7943400
451.0041, 1.108148
451.4862, 1.416255
451.9683, 1.355791
452.4504, 0.9560690
452.9325, 0.7056390
453.4146, 0.8750070
453.8968, 1.237242
454.3789, 1.254293
454.8610, 0.7987500
455.3431, 0.4822140
455.8252, 0.5136180
456.3073, 0.7140420
456.7895, 0.9306550
457.2716, 1.127635
457.7537, 1.265834
458.2358, 1.300896
458.7179, 1.232747
459.2000, 1.210117
459.6822, 1.232615
460.1643, 1.292511
460.6464, 1.430676
461.1285, 1.591187
461.6106, 1.691171
462.0927, 1.700972
462.5748, 1.665926
463.0569, 1.660805
463.5391, 1.697241
464.0212, 1.732378
464.5033, 1.679241
464.9854, 1.704775
465.4675, 1.948560
465.9496, 2.340728
466.4318, 2.712594
466.9139, 2.974202
467.3960, 3.115983
467.8781, 3.089698
468.3602, 2.834339
468.8423, 2.568803
469.3245, 2.311504
469.8066, 2.095552
470.2887, 1.981020
470.7708, 1.972277
471.2529, 1.942790
471.7350, 1.721296
472.2172, 1.387597
472.6993, 1.311516
473.1814, 1.642775
473.6635, 1.882325
474.1456, 1.491299
474.6277, 0.7570560
475.1099, 0.3300000
475.5920, 0.4560690
476.0741, 0.7285120
476.5562, 0.9392970
477.0383, 1.075909
477.5204, 1.077679
478.0026, 0.9012730
478.4847, 0.6747450
478.9668, 0.6017040
479.4489, 0.7407190
479.9310, 0.7321310
480.4131, 0.3363980
480.8953, 2.6629999E-02
481.3774, 1.2899000E-02
481.8595, 0.2963080
482.3416, 0.6070780
482.8237, 0.7554670
483.3058, 0.7543930
483.7880, 0.6412450
484.2701, 0.1991230
484.7522, 3.6242999E-02
485.2343, 0.1212700
485.7164, 0.3599820
486.1985, 0.4159740
486.6807, 0.2840060
487.1628, 0.1573820
487.6449, 0.2216720
488.1270, 0.4603820
488.6091, 0.6442280
489.0912, 0.8136850
489.5734, 0.8445010
490.0555, 0.6291430
490.5376, 0.3303050
491.0197, 0.1173170
491.5018, 3.1936001E-02
491.9839, 2.3880000E-03
492.4661, 1.8231999E-02
492.9482, 1.8810000E-02
493.4303, 4.6050001E-02
493.9124, 0.1274310
494.3945, 0.1942620
494.8766, 0.2155770
495.3588, 0.1860800
495.8409, 5.1801000E-02
496.3230, 0.3422410
496.8051, 0.7093690
497.2872, 0.8115010
497.7693, 0.6851160
498.2515, 0.4203640
498.7336, 8.5819997E-03
499.2157, 4.5283999E-02
499.6978, 0.1350650
500.1799, 4.1092999E-02
500.6620, 0.1304220
501.1442, 9.1072999E-02
501.6263, 0.4328280
502.1084, 0.4113460
502.5905, 0.1039620
503.0726, 0.2088940
503.5547, 0.1094000
504.0369, 7.4515000E-02
504.5190, 3.1668000E-02
505.0011, 1.3610000E-02
505.4832, 1.2061000E-02
505.9653, 6.6311002E-02
506.4474, 0.1775620
506.9296, 2.0575000E-02
507.4117, 0.3819400
507.8938, 0.5941270
508.3759, 0.2433180
508.8580, 8.7440005E-03
509.3401, 0.1364070
509.8223, 0.1873480
510.3044, 0.9016350
510.7865, 1.055521
511.2686, 0.9403830
511.7507, 0.7862620
512.2328, 0.6274840
512.7150, 0.5112060
513.1971, 0.4818130
513.6792, 0.5221480
514.1613, 0.5889120
514.6434, 0.6834680
515.1255, 0.7665340
515.6077, 0.7688350
516.0898, 0.7355740
516.5719, 0.8490930
517.0540, 1.283593
517.5361, 1.662285
518.0182, 1.789225
518.5004, 1.755102
518.9825, 1.679414
519.4646, 1.597741
519.9467, 1.565531
520.4288, 1.647172
520.9109, 1.848012
521.3931, 2.138059
521.8752, 2.714491
522.3573, 3.154443
522.8394, 3.219620
523.3215, 3.079465
523.8036, 2.981510
524.2858, 3.026199
524.7679, 3.157771
525.2500, 3.281492
525.7321, 3.380890
526.2142, 3.557225
526.6964, 3.905025
527.1785, 4.235619
527.6606, 4.446311
528.1427, 4.574243
528.6248, 4.710258
529.1069, 4.902690
529.5891, 5.102266
530.0712, 5.209425
530.5533, 5.234264
531.0354, 5.332887
531.5175, 5.499805
531.9996, 5.831504
532.4818, 6.608626
532.9639, 7.782550
533.4460, 8.650160
533.9281, 8.709331
534.4102, 8.709693
534.8923, 9.322454
535.3745, 10.39953
535.8566, 11.41981
536.3387, 12.14778
536.8208, 12.62245
537.3029, 12.89290
537.7850, 12.74182
538.2672, 12.85093
538.7493, 13.53317
539.2314, 14.16749
539.7135, 14.33538
540.1956, 14.15173
540.6777, 13.97304
541.1599, 13.99862
541.6420, 14.21726
542.1241, 14.65422
542.6062, 15.40540
543.0883, 16.00490
543.5704, 16.21957
544.0526, 16.36294
544.5347, 16.66063
545.0168, 17.07793
545.4989, 17.39430
545.9810, 17.46154
546.4631, 17.37998
546.9453, 17.25347
547.4274, 17.08584
547.9095, 17.06003
548.3916, 17.33219
548.8737, 17.68261
549.3558, 17.72134
549.8380, 17.44682
550.3201, 17.03474
550.8022, 16.47550
551.2843, 15.82337
551.7664, 15.02577
552.2485, 14.15711
552.7307, 13.46740
553.2128, 13.11677
553.6949, 12.97733
554.1770, 12.68201
554.6591, 12.27660
555.1412, 11.56842
555.6234, 10.11508
556.1055, 8.782213
556.5876, 8.213394
557.0697, 8.222728
557.5518, 8.187432
558.0339, 7.723986
558.5161, 7.014859
558.9982, 6.421426
559.4803, 5.899712
559.9624, 5.471367
560.4445, 5.239303
560.9266, 5.009776
561.4088, 4.593535
561.8909, 4.012926
562.3730, 3.486913
562.8551, 3.059778
563.3372, 2.749681
563.8193, 2.643125
564.3015, 2.696232
564.7836, 2.696085
565.2657, 2.518931
565.7478, 2.252922
566.2299, 2.053069
566.7120, 1.893771
567.1942, 1.844701
567.6763, 2.069415
568.1584, 2.282276
568.6405, 2.329257
569.1226, 2.243342
569.6047, 2.082240
570.0869, 1.874858
570.5690, 1.692126
571.0511, 1.645428
571.5332, 1.772623
572.0153, 1.804091
572.4974, 1.684553
572.9796, 1.519450
573.4617, 1.347542
573.9438, 1.175242
574.4259, 1.024561
574.9080, 0.8748670
575.3901, 0.7491640
575.8723, 0.6560730
576.3544, 0.5931490
576.8365, 0.6396490
577.3186, 0.8447720
577.8007, 1.071275
578.2828, 1.156009
578.7650, 1.089127
579.2471, 1.049775
579.7292, 1.037472
580.2113, 1.085761
580.6934, 1.232839
581.1755, 1.419311
581.6577, 1.571126
582.1398, 1.659411
582.6219, 1.674488
583.1040, 1.575771
583.5861, 1.332973
584.0682, 1.235495
584.5504, 1.531565
585.0325, 1.674616
585.5146, 1.340854
585.9967, 0.8342230
586.4788, 0.5676190
586.9609, 0.6681460
587.4431, 0.8490110
587.9252, 0.8229400
588.4073, 0.6434240
588.8894, 0.5876050
589.3715, 0.7109330
589.8536, 0.8083840
590.3358, 0.6840340
590.8179, 0.4416150
591.3000, 0.4459730
591.7821, 0.8997750
592.2642, 1.234022
592.7463, 1.192689
593.2285, 0.9901500
593.7106, 0.8670080
594.1927, 0.8436530
594.6748, 0.7810620
595.1569, 0.5534450
595.6390, 0.2204450
596.1212, 0.1139650
596.6033, 0.4147730
597.0854, 0.6293550
597.5675, 0.7224280
598.0496, 0.7017460
598.5317, 0.4744980
599.0139, 0.1104460
599.4960, 0.1154000
599.9781, 5.1252998E-02
600.4602, 0.4139170
600.9423, 0.6034860
601.4244, 0.6290380
601.9066, 0.5966290
602.3887, 0.4875540
602.8708, 0.4132340
603.3529, 0.6487450
603.8350, 1.208400
604.3171, 1.439221
604.7993, 0.9493290
605.2814, 0.4040810
605.7635, 0.2325980
606.2456, 0.3282840
606.7277, 0.4047780
607.2098, 0.3520620
607.6920, 0.2429660
608.1741, 0.1862100
608.6562, 0.1826690
609.1383, 0.2156810
609.6204, 0.4091000
610.1025, 0.5068650
610.5847, 0.3409040
611.0668, 6.8811998E-02
611.5489, 0.1041500
612.0310, 0.1213360
612.5131, 4.6741001E-02
612.9952, 0.1134690
613.4774, 0.3263160
613.9595, 0.4801120
614.4416, 0.5682290
614.9237, 0.5053110
615.4058, 0.1387720
615.8879, 7.6811001E-02
616.3701, 0.2758630
616.8522, 1.5717000E-02
617.3343, 5.0606001E-02
617.8164, 7.5039998E-02
618.2985, 0.2110580
618.7806, 0.6112630
619.2628, 1.176196
619.7449, 1.493066
620.2270, 1.276775
620.7091, 0.7187110
621.1912, 0.3490090
621.6733, 0.1967310
622.1555, 0.1487900
622.6376, 0.3457460
623.1197, 0.5012780
623.6018, 0.4091540
624.0839, 0.1467510
624.5660, 6.9011003E-02
625.0482, 9.3964003E-02
625.5303, 9.4371997E-02
626.0124, 5.4421999E-02
626.4945, 0.3963890
626.9766, 0.4189990
627.4587, 1.5408000E-02
627.9409, 0.2104190
628.4230, 0.2477870
628.9051, 0.1231970
629.3872, 0.1890430
629.8693, 0.5812290
630.3514, 0.7641790
630.8336, 0.5249560
631.3157, 0.1415010
631.7978, 9.5973000E-02
632.2799, 3.9349999E-02
632.7620, 3.5362002E-02
633.2441, 0.1068820
633.7263, 0.1700420
634.2084, 0.3436680
634.6905, 0.3969430
635.1726, 0.4167690
635.6547, 0.4651610
636.1368, 0.4519270
636.6190, 0.2261900
637.1011, 4.0142000E-02
637.5832, 0.2266430
638.0653, 0.1384350
638.5474, 4.8103999E-02
639.0295, 8.0798998E-02
639.5117, 5.8308002E-02
639.9938, 4.3520000E-02
640.4759, 1.4429000E-02
640.9580, 4.4640000E-03
641.4401, 2.3345999E-02
641.9222, 0.1058880
642.4044, 5.8561001E-02
642.8865, 7.0120998E-02
643.3686, 6.5817997E-02
643.8507, 2.8525000E-02
644.3328, 0.1157930
644.8149, 8.0508001E-02
645.2971, 9.3156002E-02
645.7792, 9.1277003E-02
646.2613, 0.3110190
646.7434, 0.5081880
647.2255, 0.6233110
647.7076, 0.6550930
648.1898, 0.5737250
648.6719, 0.2910450
649.1540, 9.8829996E-03
649.6361, 4.9212001E-02
650.1182, 0.5899160
650.6003, 0.8437190
651.0825, 0.4122350
651.5646, 1.5783001E-02
652.0467, 0.1648040
652.5288, 0.6182630
653.0109, 0.9183200
653.4930, 0.8974360
653.9752, 0.7047520
654.4573, 0.4879730
654.9394, 0.2414710
655.4215, 0.1970730
655.9036, 0.5161740
656.3857, 0.7194000
656.8679, 0.3853660
657.3500, 9.1945998E-02
657.8321, 4.3152999E-02
658.3142, 0.1552860
658.7963, 0.4306850
659.2784, 0.2456640
659.7606, 4.3035999E-02
660.2427, 5.4420002E-02
660.7248, 0.4462260
661.2069, 0.6080390
661.6890, 0.2691340
662.1711, 8.9670001E-03
662.6533, 5.2506998E-02
663.1354, 0.2590200
663.6175, 0.6398550
664.0996, 0.8502950
664.5817, 0.8651350
665.0638, 0.4610810
665.5460, 5.8467999E-02
666.0281, 3.0420001E-03
666.5102, 1.0194000E-02
666.9923, 0.3255240
667.4744, 0.4675180
667.9565, 0.4737780
668.4387, 0.4987900
668.9208, 0.5507340
669.4029, 0.5142070
669.8850, 0.3110040
670.3671, 4.4071000E-02
670.8492, 9.6850999E-02
671.3314, 0.1039690
671.8135, 6.5660002E-03
672.2956, 0.3489820
672.7777, 0.6543510
673.2598, 0.6799240
673.7419, 0.5391710
674.2241, 0.4864780
674.7062, 0.6397610
675.1883, 0.8568510
675.6704, 0.9650430
676.1525, 0.9716170
676.6346, 1.012627
677.1168, 1.130000
677.5989, 1.135093
678.0810, 0.8038530
678.5631, 0.3865550
679.0452, 0.3402700
679.5273, 0.7291590
680.0095, 1.128002
680.4916, 1.547502
680.9737, 1.852882
681.4558, 1.821077
681.9379, 1.598300
682.4200, 1.485678
682.9022, 1.610313
683.3843, 1.852100
683.8664, 2.031465
684.3485, 2.126551
684.8306, 2.374818
685.3127, 2.905255
685.7949, 3.340935
686.2770, 3.580065
686.7591, 3.671363
687.2412, 3.551940
687.7233, 3.178972
688.2054, 3.008060
688.6876, 3.369619
689.1697, 3.933225
689.6518, 4.381136
690.1339, 4.725416
690.6160, 4.983477
691.0981, 5.177493
691.5803, 5.458727
692.0624, 6.031655
692.5445, 6.963098
693.0266, 7.708343
693.5087, 8.052251
693.9908, 8.510436
694.4730, 9.294270
694.9551, 10.18826
695.4372, 11.01001
695.9193, 11.74764
696.4014, 12.44415
696.8835, 13.03965
697.3657, 13.65557
697.8478, 14.41537
698.3299, 15.33817
698.8120, 16.55274
699.2941, 18.11670
699.7762, 19.76604
700.2584, 21.15879
700.7405, 22.26730
701.2226, 23.47956
701.7047, 24.92513
702.1868, 26.30354
702.6689, 27.56441
703.1511, 28.74213
703.6332, 29.89822
704.1153, 31.01076
704.5974, 32.03234
705.0795, 32.90400
705.5616, 33.67579
706.0438, 34.36089
706.5259, 34.98623
707.0080, 35.79509
707.4901, 36.91314
707.9722, 37.95616
708.4543, 38.49590
708.9365, 38.54422
709.4186, 38.72966
709.9007, 39.14972
710.3828, 39.57282
710.8649, 40.21349
711.3470, 40.65795
711.8292, 40.47223
712.3113, 39.73868
712.7934, 38.92464
713.2755, 38.37128
713.7576, 37.74386
714.2397, 36.47761
714.7219, 34.64367
715.2040, 32.63113
715.6861, 30.50310
716.1682, 28.37161
716.6503, 26.29713
717.1324, 24.29235
717.6146, 22.37649
718.0967, 20.74604
718.5788, 18.94692
719.0609, 16.54007
719.5430, 14.30368
720.0251, 12.87430
720.5073, 12.06835
720.9894, 11.31404
721.4715, 10.32615
721.9536, 9.258133
722.4357, 8.291944
722.9178, 7.416745
723.4000, 6.592336
723.8821, 5.807645
724.3642, 5.115256
724.8463, 4.520706
725.3284, 4.039837
725.8105, 3.759131
726.2927, 3.822623
726.7748, 3.714035
727.2569, 3.287961
727.7390, 2.801675
728.2211, 2.325343
728.7032, 1.903961
729.1854, 1.620437
729.6675, 1.503086
730.1496, 1.467790
730.6317, 1.485481
731.1138, 1.518288
731.5959, 1.393589
732.0781, 1.098587
732.5602, 0.8349980
733.0423, 0.6821490
733.5244, 0.6142660
734.0065, 0.6032230
734.4886, 0.6592400
734.9708, 0.7185910
735.4529, 0.8817830
735.9350, 0.9528350
736.4171, 0.7736590
736.8992, 0.4642050
737.3813, 0.1239830
737.8635, 0.1740060
738.3456, 0.2686690
738.8277, 7.6739997E-02
739.3098, 0.6018380
739.7919, 0.7783660
740.2740, 0.6113660
740.7562, 0.3600960
741.2383, 5.8345001E-02
741.7204, 0.1360190
742.2025, 2.3584001E-02
742.6846, 0.3615590
743.1667, 0.5334370
743.6489, 0.2444650
744.1310, 8.7489001E-02
744.6131, 0.2906510
745.0952, 0.5304720
745.5773, 0.5442820
746.0594, 0.3977950
746.5416, 0.3110190
747.0237, 0.4101430
747.5058, 0.4680140
747.9879, 3.6137000E-02
748.4700, 0.1333530
748.9521, 0.3719880
749.4343, 1.4282000E-02
749.9164, 9.5876001E-02
750.3985, 0.1169420
750.8806, 0.1691820
751.3627, 0.1948720
751.8448, 0.1794340
752.3270, 0.1739740
752.8091, 0.2099110
753.2912, 0.2199870
753.7733, 0.1162920
754.2554, 3.1700000E-04
754.7375, 4.6943001E-02
755.2197, 0.2619400
755.7018, 0.4524830
756.1839, 0.4182420
756.6660, 0.2900670
757.1481, 0.3060000
757.6302, 0.4390620
758.1124, 0.5044230
758.5945, 0.4339190
759.0766, 0.3611320
759.5587, 0.4469410
760.0408, 0.6942090
760.5229, 0.8715970
761.0051, 0.9676260
761.4872, 0.9965920
761.9693, 0.9288990
762.4514, 0.8475270
762.9335, 0.7933560
763.4156, 0.7762350
763.8978, 0.8021490
764.3799, 0.8486230
764.8620, 0.9883130
765.3441, 1.412717
765.8262, 1.925354
766.3083, 2.084086
766.7905, 1.891438
767.2726, 1.811244
767.7547, 2.141240
768.2368, 2.686580
768.7189, 2.983010
769.2010, 2.956543
769.6832, 2.961032
770.1653, 3.036895
770.6474, 3.089419
771.1295, 3.076109
771.6116, 3.019126
772.0938, 2.894240
772.5759, 2.682542
773.0580, 2.662020
773.5401, 3.143503
774.0222, 3.669768
774.5043, 3.821905
774.9865, 3.754112
775.4686, 3.830302
775.9507, 4.129002
776.4328, 4.379156
776.9149, 4.284923
777.3970, 3.944367
777.8792, 3.831346
778.3613, 4.000667
778.8434, 4.096202
779.3255, 4.032315
779.8076, 3.888381
780.2897, 3.709048
780.7719, 3.501824
781.2540, 3.308654
781.7361, 3.171209
782.2182, 2.981495
782.7003, 2.629564
783.1824, 2.285747
783.6646, 2.167455
784.1467, 2.166567
784.6288, 1.975985
785.1109, 1.458288
785.5930, 0.8587790
786.0751, 0.4049420
786.5573, 0.1157960
787.0394, 0.1673900
787.5215, 0.5851760
788.0036, 0.8093780
788.4857, 0.5443540
788.9678, 0.1089110
789.4500, 2.8852001E-02
789.9321, 0.1776760
790.4142, 0.3076210
790.8963, 0.3733170
791.3784, 0.3503030
791.8605, 0.2063340
792.3427, 8.0519998E-03
792.8248, 1.6295001E-02
793.3069, 0.4441470
793.7890, 0.5322350
794.2711, 0.1019070
794.7532, 0.4424600
795.2354, 0.5408390
795.7175, 0.2281820
796.1996, 0.1932150
796.6817, 0.2184550
797.1638, 0.3145140
797.6459, 0.1608010
798.1281, 0.5008440
798.6102, 0.7415200
799.0923, 0.3575640
799.5744, 2.3838000E-02
800.0565, 6.7667998E-02
800.5386, 9.7374998E-02
801.0208, 0.1620190
801.5029, 0.3001470
801.9850, 0.4495180
802.4671, 0.2525570
802.9492, 4.8781000E-02
803.4313, 0.1782380
803.9135, 0.1265440
804.3956, 7.0592001E-02
804.8777, 0.5222600
805.3598, 0.5846310
805.8419, 0.2313380
806.3240, 0.1317170
806.8062, 0.1740170
807.2883, 2.5960000E-03
807.7704, 7.9623997E-02
808.2525, 7.8097001E-02
808.7346, 9.7505003E-02
809.2167, 0.1507790
809.6989, 0.2544630
810.1810, 0.4713110
810.6631, 0.7054130
811.1452, 0.6627240
811.6273, 7.4511997E-02
812.1094, 0.1677660
812.5916, 0.2931240
813.0737, 0.6907690
813.5558, 0.6370730
814.0379, 0.3752710
814.5200, 0.2132520
815.0021, 0.2095370
815.4843, 0.2693220
815.9664, 0.4456690
816.4485, 0.5676200
816.9306, 0.3244460
817.4127, 0.1179970
817.8948, 8.5138999E-02
818.3770, 0.1616790
818.8591, 4.8820999E-02
819.3412, 0.1085070
819.8233, 6.4130001E-02
820.3054, 6.3349001E-02
820.7875, 0.1143500
821.2697, 0.1708430
821.7518, 0.2221570
822.2339, 0.2909510
822.7160, 0.4198870
823.1981, 0.5624160
823.6802, 0.6337570
824.1624, 0.6233460
824.6445, 0.5836360
825.1266, 0.4473110
825.6087, 0.3677860
826.0908, 0.4381230
826.5729, 0.6144180
827.0551, 0.9005500
827.5372, 1.249686
828.0193, 1.450490
828.5014, 1.281386
828.9835, 0.9631790
829.4656, 0.8628430
829.9478, 0.9463980
830.4299, 1.079761
830.9120, 1.241919
831.3941, 1.345745
831.8762, 1.333551
832.3583, 1.215084
832.8404, 0.9772220
833.3225, 0.4387390
833.8046, 0.3156130
834.2867, 1.048231
834.7689, 1.621423
835.2510, 1.536589
835.7331, 1.186974
836.2152, 1.005050
836.6973, 1.028512
837.1794, 1.108076
837.6616, 1.254038
838.1437, 1.378159
838.6258, 1.421872
839.1079, 1.413750
839.5900, 1.349516
840.0721, 1.264409
840.5543, 1.279772
841.0364, 1.479825
841.5185, 1.785146
842.0006, 2.179255
842.4827, 2.596914
842.9648, 2.498523
843.4470, 1.789879
843.9291, 1.154905
844.4112, 0.9362510
844.8933, 0.9857900
845.3754, 1.082372
845.8575, 1.248420
846.3397, 1.317668
846.8218, 1.164934
847.3039, 1.082571
847.7860, 1.185244
848.2681, 1.339560
848.7502, 1.456735
849.2324, 1.529284
849.7145, 1.555408
850.1966, 1.474034
850.6787, 1.448634
851.1608, 1.677043
851.6429, 1.933509
852.1251, 1.929079
852.6072, 1.715712
853.0893, 1.530698
853.5714, 1.482936
854.0535, 1.518563
854.5356, 1.642569
855.0178, 1.818897
855.4999, 1.896029
855.9820, 1.874863
856.4641, 1.755706
856.9462, 1.499520
857.4283, 1.323453
857.9105, 1.484687
858.3926, 1.921444
858.8747, 2.106514
859.3568, 1.838658
859.8389, 1.693298
860.3210, 1.850567
860.8032, 1.976343
861.2853, 1.793110
861.7674, 1.507894
862.2495, 1.494260
862.7316, 1.832251
863.2137, 2.132458
863.6959, 2.216465
864.1780, 2.208471
864.6601, 2.207192
865.1422, 2.213959
865.6243, 2.103939
866.1064, 1.907621
866.5886, 1.931650
867.0707, 2.487270
867.5528, 3.202965
868.0349, 3.348298
868.5170, 3.020093
868.9991, 2.755330
869.4813, 2.611922
869.9634, 2.448080
870.4455, 2.192346
870.9276, 1.952989
871.4097, 1.942830
871.8918, 2.231247
872.3740, 2.313481
872.8561, 2.018932
873.3382, 1.770218
873.8203, 1.715860
874.3024, 1.733549
874.7845, 1.748693
875.2667, 1.744727
875.7488, 1.696290
876.2309, 1.619879
876.7130, 1.489839
877.1951, 1.160032
877.6772, 0.8648390
878.1594, 0.8080920
878.6415, 0.9481000
879.1236, 1.211767
879.6057, 1.558236
880.0878, 1.825162
880.5699, 1.826423
881.0521, 1.680739
881.5342, 1.552135
882.0163, 1.468167
882.4984, 1.603408
882.9805, 1.987708
883.4626, 2.269039
883.9448, 2.148300
884.4269, 1.757443
884.9090, 1.409537
885.3911, 1.058510
885.8732, 0.9699370
886.3553, 1.297086
886.8375, 1.589298
887.3196, 1.594683
887.8017, 1.484995
888.2838, 1.587711
888.7659, 1.951013
889.2480, 1.909739
889.7302, 0.7616700
890.2123, 0.1223690
890.6944, 0.9116370
891.1765, 1.923157
891.6586, 2.164217
892.1407, 1.767344
892.6229, 1.315146
893.1050, 0.9786900
893.5871, 0.7783190
894.0692, 0.8551310
894.5513, 0.9926040
895.0334, 0.8137760
895.5156, 0.4773380
895.9977, 0.4298730
896.4798, 0.7606720
896.9619, 1.072582
897.4440, 0.9929540
897.9261, 0.6803860
898.4083, 0.5207660
898.8904, 0.5001920
899.3725, 0.5405210
899.8546, 0.6286960
900.3367, 0.6661890
900.8188, 0.5658030
901.3010, 0.4328620
901.7831, 0.4962880
902.2652, 0.8196500
902.7473, 0.9478230
903.2294, 0.7086190
903.7115, 0.5386110
904.1937, 0.5775390
904.6758, 0.6948240
905.1579, 0.8397800
905.6400, 0.9735180
906.1221, 0.9233020
906.6042, 0.4858460
907.0864, 0.2072230
907.5685, 0.3943890
908.0506, 0.6146840
908.5327, 0.5306830
909.0148, 0.2937750
909.4969, 0.1660910
909.9791, 0.2099560
910.4612, 0.3304670
910.9433, 0.5455230
911.4254, 0.7103760
911.9075, 0.6386640
912.3896, 0.4546980
912.8718, 0.4524910
913.3539, 0.6249380
913.8360, 0.6798510
914.3181, 0.4465170
914.8002, 0.1116610
915.2823, 4.0893000E-02
915.7645, 2.6992001E-02
916.2466, 6.0036000E-02
916.7287, 0.2253400
917.2108, 0.3052330
917.6929, 0.2270940
918.1750, 0.1450800
918.6572, 0.2319320
919.1393, 0.4386560
919.6214, 0.4647680
920.1035, 0.1745310
920.5856, 4.3161999E-02
921.0677, 0.2553680
921.5499, 0.4138420
922.0320, 0.2382130
922.5141, 5.3530000E-02
922.9962, 1.1070000E-02
923.4783, 6.2674001E-02
923.9604, 1.8177001E-02
924.4426, 0.3001040
924.9247, 0.4576060
925.4068, 0.1899150
925.8889, 1.7362000E-02
926.3710, 0.2116210
926.8531, 0.2766680
927.3353, 0.1314650
927.8174, 9.0227000E-02
928.2995, 0.3982570
928.7816, 0.2379470
929.2637, 5.6535002E-02
929.7458, 7.1170002E-02
930.2280, 2.8158000E-02
930.7101, 8.4950002E-03
931.1922, 4.8625998E-02
931.6743, 6.4033002E-02
932.1564, 6.6109998E-03
932.6385, 4.2849998E-03
933.1207, 1.3172000E-02
933.6028, 0.2752020
934.0849, 0.3965580
934.5670, 0.3324180
935.0491, 0.2202840
935.5313, 0.1140900
936.0134, 2.6703000E-02
936.4955, 2.8925000E-02
936.9776, 5.0788999E-02
937.4597, 5.9770001E-03
937.9418, 0.1900140
938.4240, 0.2014160
938.9061, 5.9408002E-02
939.3882, 0.1699230
939.8703, 9.3208000E-02
940.3524, 0.4163120
940.8345, 0.5529730
941.3167, 0.1993770
941.7988, 8.2705997E-02
942.2809, 0.2075560
942.7630, 0.3114850
943.2451, 8.5695997E-02
943.7272, 0.3521550
944.2094, 0.5491770
944.6915, 0.5183160
945.1736, 0.4822450
945.6557, 0.5003170
946.1378, 0.4808060
946.6199, 0.4015380
947.1021, 0.2621280
947.5842, 3.5778999E-02
948.0663, 0.1235310
948.5484, 0.2435640
949.0305, 0.1395510
949.5126, 7.5933002E-02
949.9948, 0.5417230
950.4769, 1.019581
950.9590, 0.6902570
951.4411, 2.6862999E-02
951.9232, 5.2508999E-02
952.4053, 2.2510000E-02
952.8875, 0.2397090
953.3696, 0.3090470
953.8517, 0.3198430
954.3338, 0.3862930
954.8159, 0.4473320
955.2980, 0.2730000
955.7802, 8.4789000E-02
956.2623, 1.5567000E-02
956.7444, 0.1249470
957.2265, 1.7399000E-02
957.7086, 4.4700000E-02
958.1907, 1.4219000E-02
958.6729, 3.9790001E-02
959.1550, 0.1246450
959.6371, 8.0426998E-02
960.1192, 0.1224180
960.6013, 7.9699997E-03
961.0834, 9.2923999E-02
961.5656, 2.6511000E-02
962.0477, 0.3993150
962.5298, 0.8217520
963.0119, 0.8923620
963.4940, 0.4076790
963.9761, 8.5946001E-02
964.4583, 7.2760000E-03
964.9404, 1.2880000E-02
965.4225, 2.4235001E-02
965.9046, 8.6989999E-03
966.3867, 9.2719004E-02
966.8688, 0.2509700
967.3510, 0.2839040
967.8331, 2.9959001E-02
968.3152, 0.1268040
968.7973, 0.3749860
969.2794, 0.8557480
969.7615, 0.8556150
970.2437, 0.6414650
970.7258, 0.6386380
971.2079, 0.8883270
971.6900, 1.066871
972.1721, 1.024925
972.6542, 0.8727060
973.1364, 0.5693280
973.6185, 0.2727480
974.1006, 0.1805010
974.5827, 0.2369860
975.0648, 0.2578120
975.5469, 0.1910940
976.0291, 0.2047280
976.5112, 0.5466620
976.9933, 0.9455630
977.4754, 0.9565070
977.9575, 0.7605800
978.4396, 0.8176340
978.9218, 1.123488
979.4039, 1.288479
979.8860, 1.116046
980.3681, 0.8154690
980.8502, 0.6600820
981.3323, 0.6173650
981.8145, 0.5555770
982.2966, 0.4809800
982.7787, 0.4868630
983.2608, 0.5945130
983.7429, 0.7382520
984.2250, 0.8903950
984.7072, 1.011900
985.1893, 0.9831440
985.6714, 0.8028090
986.1535, 0.8449920
986.6356, 1.176227
987.1177, 1.311760
987.5999, 1.071280
988.0820, 0.7676390
988.5641, 0.6437340
989.0462, 0.6583500
989.5283, 0.7136950
990.0104, 0.8682390
990.4926, 0.8791180
990.9747, 0.6015410
991.4568, 0.4860190
991.9389, 0.8154520
992.4210, 1.220437
992.9031, 1.360176
993.3853, 1.251170
993.8674, 0.9945000
994.3495, 0.3034830
994.8316, 5.3252999E-02
995.3137, 0.1398110
995.7958, 0.4439780
996.2780, 0.8186540
996.7601, 1.108708
997.2422, 1.112527
997.7243, 0.8802930
998.2064, 0.7401700
998.6885, 0.8762060
999.1707, 0.8835880
999.6528, 0.3188230
1000.135, 7.5898997E-02
1000.617, 0.4463020
1001.099, 1.341700
1001.581, 1.756430
1002.063, 1.583128
1002.545, 1.291244
1003.028, 0.9320790
1003.510, 0.7122180
1003.992, 0.8938170
1004.474, 1.137869
1004.956, 1.108738
1005.438, 0.8849800
1005.920, 0.6206840
1006.402, 0.3905240
1006.885, 0.3668540
1007.367, 0.8557420
1007.849, 1.339031
1008.331, 1.233018
1008.813, 0.8613280
1009.295, 0.6321300
1009.777, 0.5578160
1010.259, 0.5524610
1010.741, 0.5689300
1011.224, 0.6747780
1011.706, 1.041968
1012.188, 1.411923
1012.670, 1.308154
1013.152, 0.9278930
1013.634, 0.7125400
1014.116, 0.6967650
1014.598, 0.7183770
1015.081, 0.7335820
1015.563, 0.7903850
1016.045, 0.8824070
1016.527, 0.9354090
1017.009, 0.9880300
1017.491, 1.053959
1017.973, 1.117255
1018.455, 1.186250
1018.937, 1.207380
1019.420, 1.165078
1019.902, 1.090669
1020.384, 1.016284
1020.866, 0.9659410
1021.348, 1.142069
1021.830, 1.525167
1022.312, 1.499256
1022.794, 0.9350920
1023.276, 0.4966840
1023.759, 0.5716090
1024.241, 0.9220620
1024.723, 1.210828
1025.205, 1.427016
1025.687, 1.345087
1026.169, 0.9030240
1026.651, 0.7029540
1027.133, 0.8937330
1027.616, 1.045923
1028.098, 0.8727820
1028.580, 0.5645210
1029.062, 0.4556460
1029.544, 0.5483900
1030.026, 0.7719740
1030.508, 1.191678
1030.990, 1.519219
1031.473, 1.723410
1031.955, 1.768434
1032.437, 1.582905
1032.919, 1.282991
1033.401, 1.088080
1033.883, 1.012825
1034.365, 0.9000450
1034.847, 0.6662390
1035.329, 0.5895050
1035.812, 0.8384310
1036.294, 1.069100
1036.776, 1.039114
1037.258, 0.8642990
1037.740, 0.7563600
1038.222, 0.7097490
1038.704, 0.7680870
1039.186, 1.020629
1039.668, 1.235002
1040.151, 1.448236
1040.633, 1.528092
1041.115, 1.274565
1041.597, 0.8743910
1042.079, 0.7267300
1042.561, 0.8989350
1043.043, 0.8696270
1043.525, 0.2858150
1044.008, 1.3228000E-02
1044.490, 0.3563900
1044.972, 0.7967150
1045.454, 0.9968580
1045.936, 0.9981510
1046.418, 0.8030570
1046.900, 0.3577520
1047.382, 0.2819450
1047.865, 1.212789
1048.347, 1.714847
1048.829, 1.063686
1049.311, 0.2930340
1049.793, 3.9377999E-02
1050.275, 0.1397800
1050.757, 0.3125610
1051.239, 0.5336400
1051.721, 0.6617110
1052.203, 0.5158870
1052.686, 0.4852490
1053.168, 0.8583410
1053.650, 1.222860
1054.132, 1.247794
1054.614, 1.066394
1055.096, 0.8933120
1055.578, 0.7583540
1056.060, 0.6595190
1056.543, 0.6198710
1057.025, 0.5818250
1057.507, 0.5095880
1057.989, 0.4488800
1058.471, 0.4612010
1058.953, 0.4984390
1059.435, 0.4850050
1059.917, 0.4169720
1060.400, 0.3504330
1060.882, 0.2083570
1061.364, 0.1581700
1061.846, 0.3664200
1062.328, 0.5941150
1062.810, 0.6322680
1063.292, 0.5936170
1063.774, 0.6809130
1064.256, 0.9036620
1064.739, 1.082449
1065.221, 1.173839
1065.703, 1.164506
1066.185, 0.9376600
1066.667, 0.7270280
1067.149, 0.7310760
1067.631, 0.8378540
1068.113, 0.8726270
1068.595, 0.8253750
1069.078, 0.8180340
1069.560, 0.9668670
1070.042, 1.011642
1070.524, 0.7254770
1071.006, 0.3849560
1071.488, 0.2749590
1071.970, 0.1864680
1072.452, 0.2493390
1072.935, 0.7081280
1073.417, 0.8915520
1073.899, 0.3144850
1074.381, 0.8633810
1074.863, 1.319016
1075.345, 1.393605
1075.827, 1.148990
1076.309, 0.7815180
1076.792, 0.4482030
1077.274, 0.2013520
1077.756, 0.1225880
1078.238, 0.2682180
1078.720, 0.4314950
1079.202, 0.5458780
1079.684, 0.6240670
1080.166, 0.6426130
1080.648, 0.6501440
1081.130, 0.6993400
1081.613, 0.7810570
1082.095, 0.8852290
1082.577, 1.015935
1083.059, 1.021691
1083.541, 0.6388460
1084.023, 0.3794420
1084.505, 0.6714970
1084.987, 1.119207
1085.469, 1.354947
1085.952, 1.404438
1086.434, 1.422559
1086.916, 1.446234
1087.398, 1.345642
1087.880, 0.8859510
1088.362, 0.5228720
1088.844, 0.6086270
1089.326, 0.7601040
1089.809, 0.4818030
1090.291, 9.4706997E-02
1090.773, 0.3205110
1091.255, 1.231837
1091.737, 1.886857
1092.219, 1.818790
1092.701, 1.609434
1093.183, 1.423607
1093.666, 1.237204
1094.148, 0.9755320
1094.630, 0.7350490
1095.112, 0.7253890
1095.594, 0.9127090
1096.076, 0.8960120
1096.558, 0.3302200
1097.040, 7.4709998E-03
1097.522, 0.4975350
1098.005, 0.9494790
1098.487, 0.7081930
1098.969, 0.2719070
1099.451, 0.3175980
1099.933, 0.7503420
1100.415, 0.8918440
1100.897, 0.4103830
1101.379, 0.1966270
1101.861, 0.8797250
1102.344, 1.372305
1102.826, 0.9832810
1103.308, 0.3881640
1103.790, 0.2223460
1104.272, 0.3773700
1104.754, 0.4450310
1105.236, 0.3458080
1105.718, 0.3019330
1106.201, 0.3504510
1106.683, 0.4621040
1107.165, 0.7812660
1107.647, 1.009180
1108.129, 0.8431360
1108.611, 0.4764190
1109.093, 0.2885370
1109.575, 0.3199990
1110.057, 0.2682450
1110.540, 4.7747001E-02
1111.022, 0.1283380
1111.504, 4.6220001E-02
1111.986, 0.1292680
1112.468, 0.1103840
1112.950, 2.0626999E-02
1113.432, 9.2129996E-03
1113.914, 7.6995999E-02
1114.396, 0.2107350
1114.879, 0.5135730
1115.361, 0.7069100
1115.843, 0.8197610
1116.325, 0.7704830
1116.807, 0.3771350
1117.289, 3.2724001E-02
1117.771, 0.1249870
1118.253, 7.8837000E-02
1118.736, 0.2049880
1119.218, 0.8567600
1119.700, 1.074364
1120.182, 0.6230150
1120.664, 0.2308560
1121.146, 7.6536000E-02
1121.628, 1.4716000E-02
1122.110, 5.7402998E-02
1122.593, 0.1065050
1123.075, 6.1046001E-02
1123.557, 8.1836000E-02
1124.039, 0.2856700
1124.521, 0.5986020
1125.003, 0.8001910
1125.485, 0.8617080
1125.967, 0.7827990
1126.449, 0.5366250
1126.932, 0.2106980
1127.414, 0.1046280
1127.896, 0.1338720
1128.378, 3.1851001E-02
1128.860, 0.2745520
1129.342, 0.5151530
1129.824, 0.3743550
1130.306, 8.6842000E-02
1130.788, 6.7832001E-02
1131.271, 0.3704860
1131.753, 0.2905470
1132.235, 7.4270000E-03
1132.717, 0.1022750
1133.199, 0.5604970
1133.681, 0.7277050
1134.163, 0.6089090
1134.645, 0.5659390
1135.128, 0.6796850
1135.610, 0.6624760
1136.092, 0.3161320
1136.574, 9.4765998E-02
1137.056, 7.8239001E-02
1137.538, 1.9820000E-03
1138.020, 0.2653180
1138.502, 0.5538230
1138.984, 0.4218090
1139.467, 8.7387003E-02
1139.949, 6.5998003E-02
1140.431, 1.1982000E-02
1140.913, 0.3690500
1141.395, 0.2604650
1141.877, 4.1166000E-02
1142.359, 0.1101730
1142.841, 3.5100002E-02
1143.323, 1.4100000E-04
1143.806, 1.5305000E-02
1144.288, 0.1043360
1144.770, 0.2903620
1145.252, 0.5800620
1145.734, 1.015759
1146.216, 1.357502
1146.698, 1.323864
1147.180, 1.114838
1147.663, 0.8747920
1148.145, 0.6706500
1148.627, 0.6450280
1149.109, 0.7360230
1149.591, 0.6841350
1150.073, 0.3971740
1150.555, 0.2143530
1151.037, 0.4188710
1151.520, 0.6960330
1152.002, 0.9970630
1152.484, 1.146800
1152.966, 0.8014350
1153.448, 0.2651590
1153.930, 8.9130998E-02
1154.412, 0.3214570
1154.894, 0.5571010
1155.376, 0.6961350
1155.859, 0.7834310
1156.341, 0.7679740
1156.823, 0.7818580
1157.305, 0.8958170
1157.787, 1.077197
1158.269, 1.358306
1158.751, 1.649555
1159.233, 1.677963
1159.715, 1.311350
1160.198, 1.114269
1160.680, 1.388430
1161.162, 1.436064
1161.644, 0.8677420
1162.126, 0.3873040
1162.608, 0.5107490
1163.090, 0.8451940
1163.572, 0.7645350
1164.055, 0.2998080
1164.537, 0.1470850
1165.019, 0.3833350
1165.501, 0.7307200
1165.983, 1.292697
1166.465, 1.563962
1166.947, 1.300433
1167.429, 0.8757300
1167.911, 0.5963380
1168.394, 0.4346280
1168.876, 0.3269010
1169.358, 0.2948150
1169.840, 0.3569540
1170.322, 0.5109570
1170.804, 0.5948100
1171.286, 0.5779210
1171.768, 0.5041730
1172.250, 0.3914650
1172.733, 0.3083180
1173.215, 0.3445420
1173.697, 0.4611810
1174.179, 0.6138750
1174.661, 0.7529300
1175.143, 0.6384690
1175.625, 0.3233670
1176.107, 0.2294630
1176.590, 0.4429610
1177.072, 0.5801670
1177.554, 0.3698360
1178.036, 0.1503460
1178.518, 0.4345310
1179.000, 0.2289950
1179.482, 0.6682410
1179.964, 0.2914940
1180.447, 0.2528270
1180.929, 0.5148450
1181.411, 0.7462040
1181.893, 0.8316470
1182.375, 0.7626310
1182.857, 0.3846720
1183.339, 5.0539002E-02
1183.821, 4.4679999E-02
1184.303, 1.2954000E-02
1184.786, 7.1539998E-02
1185.268, 0.2049220
1185.750, 0.4966170
1186.232, 0.8912860
1186.714, 1.014987
1187.196, 0.6041450
1187.678, 0.4340390
1188.160, 0.8011280
1188.642, 1.202631
1189.125, 1.670330
1189.607, 1.948034
1190.089, 1.736752
1190.571, 1.307483
1191.053, 1.150789
1191.535, 1.262653
1192.017, 1.164071
1192.499, 0.7304790
1192.982, 0.4750410
1193.464, 0.4898570
1193.946, 0.4919000
1194.428, 0.3606510
1194.910, 0.2517290
1195.392, 0.3039000
1195.874, 0.4328140
1196.356, 0.4605700
1196.839, 0.4000860
1197.321, 0.3714820
1197.803, 0.3851670
1198.285, 0.4014260
1198.767, 0.4049000
1199.249, 0.4218950
1199.731, 0.4604840
1200.213, 0.5418410
1200.695, 0.7115650
1201.177, 0.9099600
1201.660, 1.036587
1202.142, 1.124067
1202.624, 1.324695
1203.106, 1.517292
1203.588, 1.277623
1204.070, 0.6788080
1204.552, 0.3901200
1205.034, 0.7364330
1205.517, 1.107447
1205.999, 1.088342
1206.481, 0.9266890
1206.963, 0.7573680
1207.445, 0.5681820
1207.927, 0.2404630
1208.409, 6.9945998E-02
1208.891, 2.8902000E-02
1209.374, 0.3511160
1209.856, 0.5824270
1210.338, 0.4385850
1210.820, 0.3928100
1211.302, 0.7225970
1211.784, 0.8887400
1212.266, 0.4444130
1212.748, 5.9946999E-02
1213.230, 0.3636420
1213.713, 0.9336750
1214.195, 0.9017550
1214.677, 0.2601930
1215.159, 0.1151140
1215.641, 7.4463002E-02
1216.123, 1.4274000E-02
1216.605, 0.7285230
1217.087, 1.201577
1217.569, 1.156840
1218.052, 0.8896680
1218.534, 0.6250600
1219.016, 0.4195250
1219.498, 0.4261290
1219.980, 0.5906570
1220.462, 0.7026500
1220.944, 0.7543700
1221.426, 0.6601320
1221.909, 0.4651010
1222.391, 0.4698990
1222.873, 0.7638660
1223.355, 0.9855060
1223.837, 0.8202620
1224.319, 0.5581150
1224.801, 0.4327120
1225.283, 0.4068040
1225.766, 0.5221940
1226.248, 0.6465260
1226.730, 0.4966370
1227.212, 0.1891180
1227.694, 0.2044220
1228.176, 0.7018750
1228.658, 1.023988
1229.140, 0.8194990
1229.622, 0.6050550
1230.104, 0.5076870
1230.587, 0.4710230
1231.069, 0.5795930
1231.551, 0.6343610
1232.033, 0.2578310
1232.515, 4.1708998E-02
1232.997, 6.5833002E-02
1233.479, 0.8413410
1233.961, 1.199348
1234.444, 0.6431140
1234.926, 0.1878650
1235.408, 1.7583000E-02
1235.890, 3.5037000E-02
1236.372, 0.2167970
1236.854, 0.4392310
1237.336, 0.5814090
1237.818, 0.6217570
1238.301, 0.4218120
1238.783, 8.4100999E-02
1239.265, 1.7546000E-02
1239.747, 0.1813580
1240.229, 0.4038560
1240.711, 0.6117390
1241.193, 0.6497230
1241.675, 0.4536120
1242.157, 0.2685670
1242.640, 0.3586150
1243.122, 0.4506400
1243.604, 0.2280930
1244.086, 3.1222999E-02
1244.568, 8.5033998E-02
1245.050, 2.8831000E-02
1245.532, 0.3439810
1246.014, 0.7468580
1246.496, 0.8131610
1246.979, 0.3346750
1247.461, 8.9455999E-02
1247.943, 0.4170820
1248.425, 0.6592080
1248.907, 0.5844630
1249.389, 0.5665230
1249.871, 0.9012000
1250.353, 1.183070
1250.836, 0.9514000
1251.318, 0.3706480
1251.800, 5.0273001E-02
1252.282, 1.7854000E-02
1252.764, 0.1314750
1253.246, 9.5541000E-02
1253.728, 6.5819998E-03
1254.210, 0.1239880
1254.693, 5.0526001E-02
1255.175, 0.2318180
1255.657, 0.4478650
1256.139, 0.7536900
1256.621, 1.029254
1257.103, 1.128391
1257.585, 1.049818
1258.067, 0.6102620
1258.549, 8.7086000E-02
1259.031, 1.9546000E-02
1259.514, 0.3533540
1259.996, 0.5796210
1260.478, 0.5268740
1260.960, 0.5251880
1261.442, 0.7696000
1261.924, 1.012497
1262.406, 1.316293
1262.888, 1.419957
1263.371, 0.9913460
1263.853, 0.4600630
1264.335, 0.2002430
1264.817, 0.1815370
1265.299, 0.3766080
1265.781, 0.8371570
1266.263, 1.143085
1266.745, 1.303350
1267.228, 1.207730
1267.710, 0.7978440
1268.192, 0.5505350
1268.674, 0.6286270
1269.156, 0.6727780
1269.638, 0.5987840
1270.120, 0.5467440
1270.602, 0.6567270
1271.084, 0.7697050
1271.567, 0.4562620
1272.049, 0.6961330
1272.531, 0.1786310
1273.013, 0.7624690
1273.495, 0.9961260
1273.977, 0.7525070
1274.459, 0.5172210
1274.941, 0.4705090
1275.423, 0.5842140
1275.906, 1.135702
1276.388, 1.462963
1276.870, 1.050200
1277.352, 0.4974640
1277.834, 0.1504640
1278.316, 4.3770999E-02
1278.798, 0.3135280
1279.280, 0.8700580
1279.763, 1.091202
1280.245, 0.9167230
1280.727, 0.5966420
1281.209, 5.8216002E-02
1281.691, 2.7497999E-02
1282.173, 0.2540780
1282.655, 0.6608220
1283.137, 0.8857710
1283.620, 0.7399780
1284.102, 0.4199480
1284.584, 3.3351000E-02
1285.066, 0.0000000E+00
##END=



