##NAMES=Portlandite
##RRUFFID=R070210
##IDEAL CHEMISTRY=Ca(OH)_2_
##LOCALITY=N'Chwaning II mine, Kalahari Manganese Field, northern Cape Province, South Africa
##OWNER=RRUFF
##SOURCE=Michael Scott
##DESCRIPTION=White flexible platy crystals associated with calcite
##STATUS=The identification of this mineral has been confirmed by X-ray diffraction and chemical analysis
##URL=rruff.info/R070210
##MEASURED CHEMISTRY=Ca_1.00_(OH)_2_
160.2684, 0.0000000E+00
160.7505, 4.124023
161.2326, 6.437500
161.7148, 4.993164
162.1969, 0.8095700
162.6790, 3.393555
163.1611, 0.5166020
163.6432, 17.18848
164.1253, 33.49756
164.6075, 36.80762
165.0896, 26.49219
165.5717, 18.90869
166.0538, 24.75195
166.5359, 38.74072
167.0180, 53.34619
167.5002, 65.90576
167.9823, 77.84229
168.4644, 88.67285
168.9465, 97.53320
169.4286, 110.8438
169.9107, 142.5410
170.3929, 182.3452
170.8750, 209.9526
171.3571, 205.3711
171.8392, 186.9121
172.3213, 173.0781
172.8034, 166.0166
173.2856, 163.9067
173.7677, 166.2456
174.2498, 172.5693
174.7319, 180.8853
175.2140, 192.2847
175.6961, 204.3994
176.1783, 213.2485
176.6604, 217.0601
177.1425, 218.7358
177.6246, 223.3452
178.1067, 229.7954
178.5888, 232.4224
179.0710, 221.6484
179.5531, 203.7539
180.0352, 193.4834
180.5173, 198.2603
180.9994, 208.2095
181.4815, 205.6509
181.9637, 191.0269
182.4458, 174.4424
182.9279, 164.0259
183.4100, 158.7583
183.8921, 154.1191
184.3742, 143.8691
184.8564, 135.6030
185.3385, 152.0601
185.8206, 195.3091
186.3027, 241.4331
186.7848, 268.5117
187.2669, 277.5566
187.7491, 278.0244
188.2312, 271.3555
188.7133, 258.5786
189.1954, 239.1245
189.6775, 210.0654
190.1596, 187.5205
190.6418, 200.6538
191.1239, 248.2339
191.6060, 284.6377
192.0881, 286.3545
192.5702, 257.4766
193.0524, 230.6387
193.5345, 203.2744
194.0166, 184.5801
194.4987, 195.7432
194.9808, 239.0264
195.4629, 278.1982
195.9451, 294.5518
196.4272, 288.9014
196.9093, 279.9209
197.3914, 266.6816
197.8735, 252.4824
198.3556, 242.8066
198.8378, 237.5010
199.3199, 237.3701
199.8020, 246.5166
200.2841, 266.0049
200.7662, 275.8066
201.2483, 274.0420
201.7305, 262.6475
202.2126, 241.4531
202.6947, 205.2305
203.1768, 178.6631
203.6589, 182.7324
204.1410, 223.3096
204.6232, 250.7920
205.1053, 257.3877
205.5874, 249.5898
206.0695, 250.1650
206.5516, 262.7217
207.0337, 274.1699
207.5159, 274.2148
207.9980, 259.6797
208.4801, 247.1611
208.9622, 237.2490
209.4443, 230.9014
209.9264, 235.3574
210.4086, 256.5840
210.8907, 276.7227
211.3728, 280.7842
211.8549, 264.8613
212.3370, 245.4639
212.8191, 219.3594
213.3013, 189.8174
213.7834, 188.0137
214.2655, 227.8115
214.7476, 273.2285
215.2297, 291.4863
215.7118, 273.8496
216.1940, 253.4824
216.6761, 233.6055
217.1582, 214.5615
217.6403, 207.0713
218.1224, 215.6582
218.6045, 227.5537
219.0867, 228.3418
219.5688, 213.4229
220.0509, 197.6064
220.5330, 181.5742
221.0151, 165.1592
221.4972, 162.1514
221.9794, 181.3467
222.4615, 204.2178
222.9436, 209.0039
223.4257, 182.8301
223.9078, 165.8320
224.3899, 172.2383
224.8721, 205.3857
225.3542, 215.9355
225.8363, 189.0312
226.3184, 153.8096
226.8005, 148.5303
227.2827, 194.0205
227.7648, 227.9844
228.2469, 232.7480
228.7290, 203.6270
229.2111, 180.4629
229.6932, 160.0947
230.1754, 148.2227
230.6575, 155.5693
231.1396, 197.7021
231.6217, 231.2305
232.1038, 243.4111
232.5859, 230.9219
233.0681, 213.7861
233.5502, 184.1250
234.0323, 154.1973
234.5144, 145.7480
234.9965, 173.2354
235.4786, 197.7783
235.9608, 207.1875
236.4429, 197.9482
236.9250, 187.1436
237.4071, 165.4688
237.8892, 148.0811
238.3713, 163.2930
238.8535, 237.3164
239.3356, 299.9795
239.8177, 326.3447
240.2998, 306.1064
240.7819, 290.5947
241.2640, 279.9648
241.7462, 273.0684
242.2283, 267.4072
242.7104, 257.6914
243.1925, 259.4111
243.6746, 280.7334
244.1567, 330.9883
244.6389, 366.6738
245.1210, 376.5566
245.6031, 377.5098
246.0852, 400.5244
246.5673, 457.7666
247.0494, 516.2773
247.5316, 562.9287
248.0137, 590.9268
248.4958, 630.5449
248.9779, 684.6230
249.4600, 748.5205
249.9421, 811.1748
250.4243, 868.2500
250.9064, 932.9023
251.3885, 1013.310
251.8706, 1118.304
252.3527, 1210.234
252.8348, 1297.113
253.3170, 1366.677
253.7991, 1393.396
254.2812, 1372.445
254.7633, 1313.589
255.2454, 1212.820
255.7275, 1055.396
256.2097, 913.6689
256.6918, 787.6641
257.1739, 677.6973
257.6560, 583.9795
258.1381, 508.5479
258.6202, 445.0342
259.1024, 392.0088
259.5845, 352.2090
260.0666, 312.7471
260.5487, 271.3906
261.0308, 232.1631
261.5129, 200.4805
261.9951, 175.1953
262.4772, 160.7061
262.9593, 162.5312
263.4414, 186.8252
263.9235, 199.0547
264.4056, 199.0596
264.8878, 187.3311
265.3699, 159.2891
265.8520, 103.5127
266.3341, 63.84277
266.8162, 64.82715
267.2983, 116.4092
267.7805, 142.8154
268.2626, 137.3877
268.7447, 113.7334
269.2268, 93.15723
269.7089, 75.01465
270.1910, 62.36914
270.6732, 59.40820
271.1553, 68.03125
271.6374, 64.90039
272.1195, 44.73340
272.6016, 20.57422
273.0837, 17.52734
273.5659, 40.93652
274.0480, 58.12012
274.5301, 51.26758
275.0122, 18.94141
275.4943, 5.739258
275.9764, 15.95898
276.4586, 37.20020
276.9407, 53.08398
277.4228, 63.35938
277.9049, 67.75586
278.3870, 62.80371
278.8691, 49.19238
279.3513, 45.43945
279.8334, 55.07812
280.3155, 65.53613
280.7976, 53.29492
281.2798, 16.81250
281.7619, 5.582031
282.2440, 12.41406
282.7261, 62.25684
283.2082, 72.12988
283.6903, 33.96094
284.1725, 14.56934
284.6546, 21.43555
285.1367, 11.54102
285.6188, 36.73438
286.1009, 28.78711
286.5830, 1.397461
287.0652, 1.740234
287.5473, 31.82520
288.0294, 70.25781
288.5115, 81.40918
288.9936, 67.59766
289.4757, 46.79297
289.9579, 17.11621
290.4400, 13.32422
290.9221, 18.48047
291.4042, 3.164063
291.8863, 31.19531
292.3684, 46.57422
292.8506, 51.08984
293.3327, 53.07715
293.8148, 55.98730
294.2969, 57.63281
294.7790, 52.99512
295.2611, 42.05469
295.7433, 29.75000
296.2254, 20.60156
296.7075, 13.52930
297.1896, 5.143555
297.6717, 7.606445
298.1538, 20.31641
298.6360, 24.65527
299.1181, 21.27832
299.6002, 18.43164
300.0823, 25.25684
300.5644, 36.69531
301.0465, 43.79199
301.5287, 46.30957
302.0108, 40.90918
302.4929, 15.28711
302.9750, 26.31348
303.4571, 57.46875
303.9392, 49.10156
304.4214, 23.24805
304.9035, 10.93066
305.3856, 26.03223
305.8677, 46.06738
306.3498, 53.23633
306.8319, 49.10254
307.3141, 39.46387
307.7962, 19.47070
308.2783, 0.5976560
308.7604, 8.742188
309.2425, 3.384766
309.7246, 14.59570
310.2068, 6.031250
310.6889, 14.64746
311.1710, 27.61816
311.6531, 13.69629
312.1352, 5.766602
312.6173, 13.14258
313.0995, 0.3730470
313.5816, 9.663086
314.0637, 2.539063
314.5458, 14.57715
315.0279, 28.34863
315.5100, 34.23340
315.9922, 34.97363
316.4743, 29.93945
316.9564, 16.47559
317.4385, 7.945313
317.9206, 14.06836
318.4027, 26.52930
318.8849, 33.71387
319.3670, 28.12207
319.8491, 20.58496
320.3312, 14.43262
320.8133, 9.795898
321.2954, 7.419922
321.7776, 8.550781
322.2597, 11.61328
322.7418, 14.90039
323.2239, 16.09082
323.7060, 19.55469
324.1881, 26.41309
324.6703, 36.80469
325.1524, 49.23047
325.6345, 70.31934
326.1166, 89.57129
326.5987, 98.70605
327.0808, 80.88574
327.5630, 72.80664
328.0451, 84.71289
328.5272, 115.1709
329.0093, 132.0928
329.4914, 118.3477
329.9735, 105.9746
330.4557, 118.4775
330.9378, 185.8262
331.4199, 224.7529
331.9020, 217.5469
332.3841, 175.2529
332.8662, 151.1641
333.3484, 147.6758
333.8305, 158.9727
334.3126, 186.3105
334.7947, 239.5322
335.2768, 274.7949
335.7589, 279.3096
336.2411, 270.4668
336.7232, 295.8389
337.2053, 364.5439
337.6874, 440.0938
338.1695, 508.9453
338.6516, 570.9570
339.1338, 617.2793
339.6159, 637.7432
340.0980, 657.5146
340.5801, 724.9004
341.0622, 846.4453
341.5443, 964.4326
342.0265, 1055.053
342.5086, 1120.562
342.9907, 1184.934
343.4728, 1243.173
343.9549, 1315.325
344.4370, 1428.433
344.9192, 1577.539
345.4013, 1735.257
345.8834, 1887.478
346.3655, 2040.519
346.8476, 2198.510
347.3297, 2359.983
347.8119, 2545.877
348.2940, 2779.258
348.7761, 3052.761
349.2582, 3339.235
349.7403, 3641.810
350.2225, 3948.674
350.7046, 4232.660
351.1867, 4499.736
351.6688, 4791.141
352.1509, 5151.205
352.6331, 5552.842
353.1152, 5961.599
353.5973, 6385.604
354.0794, 6785.120
354.5615, 7132.465
355.0436, 7427.959
355.5258, 7672.369
356.0079, 7890.424
356.4900, 8041.965
356.9721, 8091.482
357.4542, 8027.240
357.9363, 7881.170
358.4185, 7655.604
358.9006, 7362.055
359.3827, 7020.316
359.8648, 6606.168
360.3469, 6172.600
360.8290, 5739.594
361.3112, 5304.463
361.7933, 4887.578
362.2754, 4488.293
362.7575, 4110.408
363.2396, 3756.348
363.7217, 3427.621
364.2039, 3122.795
364.6860, 2841.014
365.1681, 2581.626
365.6502, 2357.138
366.1323, 2186.258
366.6144, 2037.902
367.0966, 1891.117
367.5787, 1733.012
368.0608, 1592.225
368.5429, 1473.238
369.0250, 1373.124
369.5071, 1280.652
369.9893, 1201.393
370.4714, 1123.091
370.9535, 1036.902
371.4356, 926.6416
371.9177, 848.9941
372.3998, 818.6641
372.8820, 813.7930
373.3641, 784.9717
373.8462, 723.0352
374.3283, 662.5967
374.8104, 616.7891
375.2925, 585.1953
375.7747, 559.1963
376.2568, 541.5469
376.7389, 524.7080
377.2210, 495.6553
377.7031, 453.4180
378.1852, 413.4092
378.6674, 377.6309
379.1495, 345.9297
379.6316, 331.8037
380.1137, 337.5537
380.5958, 343.6787
381.0779, 331.2705
381.5601, 302.9893
382.0422, 271.1934
382.5243, 234.3643
383.0064, 200.3213
383.4885, 184.0654
383.9706, 183.9150
384.4528, 187.8730
384.9349, 194.4268
385.4170, 198.1650
385.8991, 186.7754
386.3812, 152.8740
386.8633, 121.7188
387.3455, 125.3174
387.8276, 150.2529
388.3097, 166.1533
388.7918, 144.3438
389.2739, 113.5996
389.7560, 98.18066
390.2382, 100.8271
390.7203, 109.6787
391.2024, 128.2842
391.6845, 146.1836
392.1666, 151.6172
392.6487, 127.5156
393.1309, 102.2969
393.6130, 89.72168
394.0951, 88.63086
394.5772, 81.98730
395.0593, 54.66602
395.5414, 25.99609
396.0236, 8.804688
396.5057, 6.948242
396.9878, 14.58594
397.4699, 40.18652
397.9520, 75.72656
398.4341, 96.52246
398.9163, 99.20312
399.3984, 90.90625
399.8805, 71.23340
400.3626, 31.66699
400.8447, 4.139648
401.3268, 13.22656
401.8090, 17.25098
402.2911, 1.708008
402.7732, 58.21191
403.2553, 98.19141
403.7374, 101.0527
404.2195, 69.62695
404.7017, 58.23438
405.1838, 73.03027
405.6659, 91.20996
406.1480, 91.95020
406.6301, 75.15527
407.1122, 51.25391
407.5944, 14.77637
408.0765, 20.11914
408.5586, 10.07715
409.0407, 44.03809
409.5228, 95.09473
410.0049, 110.1367
410.4871, 97.59961
410.9692, 78.72754
411.4513, 53.84082
411.9334, 29.69727
412.4155, 7.494141
412.8976, 8.820313
413.3798, 8.052734
413.8619, 38.11328
414.3440, 90.48535
414.8261, 103.1162
415.3082, 75.37891
415.7903, 46.15234
416.2725, 42.55957
416.7546, 50.58691
417.2367, 54.68848
417.7188, 47.04004
418.2009, 37.46094
418.6830, 31.14941
419.1652, 26.77734
419.6473, 19.22363
420.1294, 4.421875
420.6115, 23.46094
421.0937, 24.86426
421.5758, 3.139648
422.0579, 27.32812
422.5400, 43.40430
423.0221, 52.49902
423.5042, 56.33691
423.9864, 41.97363
424.4685, 37.15039
424.9506, 55.43359
425.4327, 100.2236
425.9148, 117.2754
426.3969, 90.16113
426.8791, 54.35938
427.3612, 42.37598
427.8433, 64.24219
428.3254, 77.95898
428.8075, 76.24121
429.2896, 63.05078
429.7718, 51.65332
430.2539, 42.79883
430.7360, 32.53516
431.2181, 14.11914
431.7002, 11.13379
432.1823, 22.74805
432.6645, 19.58789
433.1466, 3.171875
433.6287, 40.36035
434.1108, 101.7383
434.5929, 132.8701
435.0750, 85.88770
435.5572, 7.999023
436.0393, 12.93164
436.5214, 21.03027
437.0035, 63.39941
437.4856, 72.72852
437.9677, 69.92578
438.4499, 86.48633
438.9320, 144.8594
439.4141, 199.8184
439.8962, 220.2236
440.3783, 212.3066
440.8604, 192.2891
441.3426, 153.9941
441.8247, 115.5322
442.3068, 86.21680
442.7889, 67.07422
443.2710, 57.60742
443.7531, 72.54297
444.2353, 91.28223
444.7174, 91.50977
445.1995, 39.58496
445.6816, 2.418945
446.1637, 4.109375
446.6458, 16.91309
447.1280, 36.41992
447.6101, 56.84180
448.0922, 73.37109
448.5743, 82.32422
449.0564, 80.09961
449.5385, 81.44727
450.0207, 91.04590
450.5028, 100.4795
450.9849, 88.21191
451.4670, 47.76172
451.9491, 19.88281
452.4312, 27.48340
452.9134, 63.63965
453.3955, 74.21191
453.8776, 56.43066
454.3597, 35.82031
454.8418, 44.39355
455.3239, 74.34766
455.8061, 87.20215
456.2882, 67.41406
456.7703, 36.19141
457.2524, 19.62500
457.7345, 17.52246
458.2166, 27.71484
458.6988, 59.17188
459.1809, 96.16895
459.6630, 125.1816
460.1451, 147.2695
460.6272, 156.2188
461.1093, 136.1230
461.5915, 105.3057
462.0736, 86.40039
462.5557, 94.98438
463.0378, 108.7393
463.5199, 122.6230
464.0020, 135.8252
464.4842, 144.2021
464.9663, 147.4463
465.4484, 144.1221
465.9305, 131.9961
466.4126, 105.6289
466.8947, 86.57129
467.3769, 73.58301
467.8590, 67.16113
468.3411, 69.15918
468.8232, 83.81641
469.3053, 98.81250
469.7874, 113.1270
470.2696, 126.1025
470.7517, 126.8467
471.2338, 114.2422
471.7159, 97.14355
472.1980, 77.79492
472.6801, 56.14160
473.1623, 45.84863
473.6444, 51.78516
474.1265, 66.01953
474.6086, 74.08398
475.0907, 76.11133
475.5728, 78.38281
476.0550, 96.32129
476.5371, 118.3262
477.0192, 123.7783
477.5013, 112.1094
477.9834, 94.28809
478.4655, 62.76270
478.9477, 31.75391
479.4298, 22.26562
479.9119, 59.87793
480.3940, 99.34082
480.8761, 117.7959
481.3582, 119.3887
481.8404, 116.3623
482.3225, 112.5039
482.8046, 105.1133
483.2867, 90.25293
483.7688, 62.15820
484.2509, 48.42285
484.7331, 59.95508
485.2152, 80.44336
485.6973, 97.44434
486.1794, 117.3936
486.6615, 124.7168
487.1436, 112.2725
487.6258, 85.47168
488.1079, 69.88770
488.5900, 66.65039
489.0721, 70.04004
489.5542, 77.82031
490.0363, 90.67383
490.5185, 108.5449
491.0006, 134.9561
491.4827, 157.0781
491.9648, 153.2158
492.4470, 127.2793
492.9291, 98.86133
493.4112, 63.98926
493.8933, 38.91016
494.3754, 68.77734
494.8575, 141.5928
495.3397, 198.8740
495.8218, 198.4473
496.3039, 168.8623
496.7860, 136.3916
497.2681, 100.6621
497.7502, 76.59570
498.2324, 75.10938
498.7145, 87.17969
499.1966, 104.1367
499.6787, 136.7275
500.1608, 159.6465
500.6429, 162.5801
501.1251, 146.4248
501.6072, 128.4111
502.0893, 104.8340
502.5714, 84.22949
503.0535, 70.18262
503.5356, 57.59863
504.0178, 56.42383
504.4999, 72.65137
504.9820, 96.51367
505.4641, 114.5117
505.9462, 125.7451
506.4283, 135.1650
506.9105, 146.6807
507.3926, 156.7441
507.8747, 147.4326
508.3568, 117.7598
508.8389, 86.90137
509.3210, 62.29199
509.8032, 46.90234
510.2853, 57.21875
510.7674, 102.8535
511.2495, 143.3867
511.7316, 124.1484
512.2137, 68.99414
512.6959, 26.31641
513.1780, 18.16699
513.6601, 27.27441
514.1422, 51.27148
514.6243, 86.50586
515.1064, 111.4365
515.5886, 118.6357
516.0707, 113.4463
516.5528, 95.27930
517.0349, 48.04102
517.5170, 20.62207
517.9991, 32.01270
518.4813, 60.20410
518.9634, 78.06348
519.4455, 81.74902
519.9276, 81.61035
520.4097, 79.69336
520.8918, 75.59570
521.3740, 64.30566
521.8561, 40.92578
522.3382, 26.56836
522.8203, 44.53516
523.3024, 91.50781
523.7845, 109.6748
524.2667, 90.91602
524.7488, 62.57520
525.2309, 60.67969
525.7130, 78.10254
526.1951, 89.81934
526.6772, 85.08203
527.1594, 72.70117
527.6415, 60.83105
528.1236, 49.64160
528.6057, 39.73535
529.0878, 28.56152
529.5699, 20.71289
530.0521, 23.06641
530.5342, 41.16992
531.0163, 48.00781
531.4984, 15.92969
531.9805, 23.17578
532.4626, 35.66895
532.9448, 19.53027
533.4269, 57.61230
533.9090, 66.15723
534.3911, 50.39258
534.8732, 26.86035
535.3553, 16.94141
535.8375, 44.37695
536.3196, 32.95605
536.8017, 19.96582
537.2838, 45.13574
537.7659, 38.25195
538.2480, 22.50000
538.7302, 26.39453
539.2123, 46.12207
539.6944, 53.56055
540.1765, 39.39648
540.6586, 16.30371
541.1407, 2.948242
541.6229, 17.29688
542.1050, 22.62109
542.5871, 6.246094
543.0692, 13.95410
543.5513, 20.24219
544.0334, 11.59082
544.5156, 2.250977
544.9977, 3.818359
545.4798, 6.396484
545.9619, 4.997070
546.4440, 4.600586
546.9261, 12.33594
547.4083, 14.19629
547.8904, 14.04492
548.3725, 18.71094
548.8546, 31.85938
549.3367, 44.51465
549.8188, 59.56738
550.3010, 74.77637
550.7831, 56.68457
551.2652, 6.215820
551.7473, 65.21484
552.2294, 77.73926
552.7115, 49.29883
553.1937, 33.64551
553.6758, 36.62109
554.1579, 45.70703
554.6400, 50.70410
555.1221, 49.75977
555.6042, 36.77734
556.0864, 4.727539
556.5685, 45.76367
557.0506, 52.04004
557.5327, 31.94336
558.0148, 16.42773
558.4969, 32.67188
558.9791, 49.11719
559.4612, 39.42383
559.9433, 8.806641
560.4254, 32.59863
560.9075, 7.926758
561.3896, 61.75488
561.8718, 84.08105
562.3539, 52.36523
562.8360, 27.70996
563.3181, 14.41016
563.8002, 10.64453
564.2823, 13.30859
564.7645, 23.09766
565.2466, 36.17188
565.7287, 55.69922
566.2108, 77.51953
566.6929, 76.47070
567.1750, 51.43555
567.6572, 22.40625
568.1393, 4.585938
568.6214, 20.85547
569.1035, 2.187500
569.5856, 64.33594
570.0677, 129.3086
570.5499, 159.0684
571.0320, 159.3242
571.5141, 139.3066
571.9962, 76.07227
572.4783, 19.51367
572.9604, 14.33984
573.4426, 25.68359
573.9247, 17.39258
574.4068, 42.85352
574.8889, 91.91992
575.3710, 98.43750
575.8531, 49.25391
576.3353, 36.08398
576.8174, 75.54492
577.2995, 125.1328
577.7816, 144.8027
578.2637, 132.1504
578.7458, 111.4590
579.2280, 83.21875
579.7101, 53.51562
580.1922, 30.11719
580.6743, 14.85547
581.1564, 13.06641
581.6385, 39.39062
582.1207, 73.74609
582.6028, 87.05273
583.0849, 81.55664
583.5670, 76.68945
584.0491, 86.56445
584.5313, 99.83398
585.0134, 107.3262
585.4955, 105.7324
585.9776, 104.4473
586.4597, 106.0703
586.9418, 108.8809
587.4240, 110.7402
587.9061, 108.6172
588.3882, 112.0488
588.8703, 126.4297
589.3524, 144.5312
589.8345, 143.8926
590.3167, 121.4141
590.7988, 103.0645
591.2809, 101.9062
591.7630, 110.7520
592.2451, 83.90625
592.7272, 19.24219
593.2094, 35.93750
593.6915, 32.22461
594.1736, 11.22266
594.6557, 59.28906
595.1378, 104.4199
595.6199, 141.6602
596.1021, 165.5117
596.5842, 179.4844
597.0663, 188.2617
597.5485, 196.1484
598.0306, 195.8086
598.5127, 179.7031
598.9948, 151.1484
599.4769, 127.2227
599.9590, 106.0449
600.4412, 95.46875
600.9233, 101.1094
601.4054, 123.8262
601.8875, 133.2695
602.3696, 123.4629
602.8517, 114.1270
603.3339, 126.0684
603.8160, 157.4277
604.2981, 177.9316
604.7802, 181.8672
605.2623, 180.2559
605.7444, 185.7812
606.2266, 197.2227
606.7087, 210.6738
607.1908, 229.5742
607.6729, 245.4160
608.1550, 246.9570
608.6371, 239.1406
609.1193, 237.9863
609.6014, 248.7402
610.0835, 266.6230
610.5656, 298.3164
611.0477, 348.5977
611.5298, 364.6758
612.0120, 312.6250
612.4941, 257.9004
612.9762, 249.6602
613.4583, 309.5566
613.9404, 338.3984
614.4225, 320.6699
614.9047, 285.7500
615.3868, 275.6484
615.8689, 288.7754
616.3510, 303.8652
616.8331, 313.7207
617.3152, 323.5977
617.7974, 343.9082
618.2795, 371.0898
618.7616, 397.7598
619.2437, 425.4082
619.7258, 442.8066
620.2079, 434.7109
620.6901, 400.7832
621.1722, 376.2422
621.6543, 379.6953
622.1364, 392.0410
622.6185, 401.8145
623.1006, 411.4805
623.5828, 410.9102
624.0649, 392.9238
624.5470, 371.2480
625.0291, 361.5488
625.5112, 364.4258
625.9933, 377.9277
626.4755, 405.6133
626.9576, 438.1895
627.4397, 451.6719
627.9218, 448.1172
628.4039, 443.5664
628.8860, 451.8145
629.3682, 460.5176
629.8503, 445.1094
630.3324, 409.8379
630.8145, 386.6875
631.2966, 404.0820
631.7787, 434.2676
632.2609, 459.3223
632.7430, 477.5664
633.2251, 486.4395
633.7072, 475.2734
634.1893, 460.4805
634.6714, 455.5332
635.1536, 463.2324
635.6357, 474.4004
636.1178, 486.9277
636.5999, 503.9043
637.0820, 539.1270
637.5641, 594.0273
638.0463, 624.0273
638.5284, 602.7559
639.0105, 558.4668
639.4926, 551.1055
639.9747, 574.8145
640.4568, 595.5176
640.9390, 588.9688
641.4211, 572.4668
641.9032, 561.1074
642.3853, 556.0098
642.8674, 552.8594
643.3495, 553.6328
643.8317, 553.2891
644.3138, 547.3555
644.7959, 525.2715
645.2780, 518.0488
645.7601, 534.3672
646.2422, 557.8926
646.7244, 569.6934
647.2065, 567.7988
647.6886, 562.8242
648.1707, 555.1895
648.6528, 547.2461
649.1349, 544.5000
649.6171, 546.3125
650.0992, 548.2637
650.5813, 544.2012
651.0634, 541.1699
651.5455, 554.2031
652.0276, 580.0605
652.5098, 597.9160
652.9919, 596.9102
653.4740, 584.6211
653.9561, 558.0938
654.4382, 510.2812
654.9203, 491.0703
655.4025, 530.5859
655.8846, 580.8613
656.3667, 610.1836
656.8488, 612.6328
657.3309, 611.9434
657.8130, 609.2559
658.2952, 603.1074
658.7773, 587.6758
659.2594, 564.2539
659.7415, 549.2012
660.2236, 547.0020
660.7057, 554.8066
661.1879, 575.8574
661.6700, 604.3145
662.1521, 623.4648
662.6342, 611.7988
663.1163, 599.8535
663.5984, 609.3457
664.0806, 637.9258
664.5627, 662.9980
665.0448, 688.9375
665.5269, 700.0527
666.0090, 682.6133
666.4911, 628.7148
666.9733, 608.8379
667.4554, 634.6152
667.9375, 671.4121
668.4196, 692.6309
668.9017, 698.6250
669.3839, 697.5938
669.8660, 689.0957
670.3481, 679.2773
670.8302, 677.1797
671.3123, 678.9961
671.7944, 675.9980
672.2766, 661.4082
672.7587, 647.9453
673.2408, 647.4395
673.7229, 653.5723
674.2050, 654.0605
674.6871, 634.8633
675.1693, 621.1562
675.6514, 622.5625
676.1335, 635.6641
676.6156, 645.8887
677.0977, 654.2402
677.5798, 657.6797
678.0620, 654.8984
678.5441, 646.8438
679.0262, 628.6270
679.5083, 600.7168
679.9904, 578.2852
680.4725, 579.4238
680.9547, 591.5742
681.4368, 588.7031
681.9189, 565.5605
682.4010, 549.9688
682.8831, 572.1660
683.3652, 606.1445
683.8474, 625.1211
684.3295, 614.0000
684.8116, 602.1504
685.2937, 591.9844
685.7758, 584.5879
686.2579, 579.9609
686.7401, 577.6504
687.2222, 582.7500
687.7043, 602.3672
688.1864, 624.3809
688.6685, 611.1738
689.1506, 564.7734
689.6328, 528.0684
690.1149, 527.0039
690.5970, 544.9707
691.0791, 561.1309
691.5612, 574.6543
692.0433, 580.8984
692.5255, 576.6797
693.0076, 565.2969
693.4897, 545.4785
693.9718, 515.9512
694.4539, 494.5059
694.9360, 490.1133
695.4182, 488.3262
695.9003, 480.5684
696.3824, 463.8086
696.8645, 457.4551
697.3466, 465.1387
697.8287, 472.0137
698.3109, 457.1660
698.7930, 427.2090
699.2751, 411.1621
699.7572, 417.2734
700.2393, 426.6230
700.7214, 420.9434
701.2036, 405.3867
701.6857, 386.6660
702.1678, 366.5195
702.6499, 343.5215
703.1320, 309.7695
703.6141, 272.9238
704.0963, 252.5684
704.5784, 256.0527
705.0605, 265.9863
705.5426, 283.8340
706.0247, 305.1387
706.5068, 308.2988
706.9890, 291.9883
707.4711, 269.1855
707.9532, 237.5684
708.4353, 207.0371
708.9174, 210.3828
709.3995, 242.4297
709.8817, 270.5469
710.3638, 276.4492
710.8459, 270.5059
711.3280, 261.4258
711.8101, 250.4316
712.2922, 233.6270
712.7744, 201.7793
713.2565, 170.8438
713.7386, 150.7305
714.2207, 142.4766
714.7028, 138.6211
715.1849, 141.7109
715.6671, 144.3418
716.1492, 132.6035
716.6313, 109.4629
717.1134, 109.4961
717.5955, 144.8535
718.0776, 184.8398
718.5598, 193.4102
719.0419, 179.0625
719.5240, 157.2207
720.0061, 119.6504
720.4882, 89.03711
720.9703, 82.06250
721.4525, 91.56836
721.9346, 100.9609
722.4167, 116.1309
722.8988, 119.9277
723.3809, 105.2246
723.8630, 26.95898
724.3452, 73.06445
724.8273, 97.42188
725.3094, 101.3027
725.7915, 22.70703
726.2736, 50.32617
726.7557, 35.26953
727.2379, 18.49023
727.7200, 62.10156
728.2021, 1.710938
728.6842, 40.93945
729.1663, 39.35742
729.6484, 57.61719
730.1306, 32.95312
730.6127, 21.56836
731.0948, 53.14844
731.5769, 60.95117
732.0590, 31.39648
732.5411, 51.00586
733.0233, 17.19141
733.5054, 7.173828
733.9875, 39.67578
734.4696, 17.17188
734.9517, 40.06641
735.4338, 43.25391
735.9160, 36.81641
736.3981, 26.67969
736.8802, 26.23828
737.3623, 38.47461
737.8444, 19.71094
738.3266, 1.205078
738.8087, 2.562500
739.2908, 11.23828
739.7729, 4.861328
740.2551, 32.35547
740.7372, 58.27539
741.2193, 68.29492
741.7014, 64.38477
742.1835, 41.44922
742.6656, 0.7304690
743.1478, 17.43164
743.6299, 20.93945
744.1120, 73.42578
744.5941, 70.46680
745.0762, 26.20312
745.5583, 15.58398
746.0405, 45.50586
746.5226, 55.20898
747.0047, 23.62891
747.4868, 38.91406
747.9689, 72.50977
748.4510, 46.50977
748.9332, 20.97266
749.4153, 15.42188
749.8974, 27.47461
750.3795, 35.96289
750.8616, 41.11133
751.3438, 42.42383
751.8259, 38.75977
752.3080, 31.51953
752.7901, 23.03711
753.2722, 12.67383
753.7543, 0.7792970
754.2365, 24.13867
754.7186, 42.23828
755.2007, 34.11523
755.6828, 7.115234
756.1649, 46.40625
756.6470, 96.81055
757.1292, 127.3145
757.6113, 111.3066
758.0934, 30.85156
758.5755, 12.88281
759.0576, 14.36719
759.5397, 1.292969
760.0219, 13.16992
760.5040, 20.92969
760.9861, 21.85547
761.4682, 12.62305
761.9503, 4.111328
762.4324, 8.138672
762.9146, 17.37305
763.3967, 23.05273
763.8788, 21.91211
764.3609, 18.91406
764.8430, 15.19141
765.3251, 9.707031
765.8073, 3.955078
766.2894, 35.74219
766.7715, 30.26758
767.2536, 33.07812
767.7357, 112.3145
768.2178, 135.7773
768.7000, 112.8750
769.1821, 81.84961
769.6642, 51.69727
770.1463, 23.36523
770.6284, 8.015625
771.1105, 36.89648
771.5927, 50.73633
772.0748, 33.74414
772.5569, 13.57227
773.0390, 4.779297
773.5211, 19.72656
774.0032, 26.14844
774.4854, 22.17188
774.9675, 16.57227
775.4496, 11.65820
775.9317, 7.037109
776.4138, 2.580078
776.8959, 14.57227
777.3781, 15.31055
777.8602, 20.53516
778.3423, 56.12305
778.8244, 53.64844
779.3065, 23.67383
779.7886, 4.248047
780.2708, 16.63477
780.7529, 30.86523
781.2350, 36.63672
781.7171, 35.03516
782.1992, 33.24805
782.6813, 28.17188
783.1635, 29.76367
783.6456, 53.10547
784.1277, 85.51758
784.6098, 70.34180
785.0919, 13.85547
785.5740, 22.59180
786.0562, 16.18945
786.5383, 80.23242
787.0204, 138.3750
787.5025, 188.1582
787.9846, 205.2812
788.4667, 147.2129
788.9489, 90.76758
789.4310, 74.08398
789.9131, 101.3145
790.3952, 85.57031
790.8773, 15.79102
791.3594, 46.81250
791.8416, 48.09961
792.3237, 8.123047
792.8058, 23.43555
793.2879, 44.30859
793.7700, 56.30078
794.2521, 62.15820
794.7343, 61.24414
795.2164, 48.11914
795.6985, 15.65234
796.1806, 10.42188
796.6627, 51.09961
797.1448, 102.6543
797.6270, 149.9746
798.1091, 197.2539
798.5912, 196.7188
799.0733, 140.0117
799.5554, 78.95898
800.0375, 67.67969
800.5197, 87.07031
801.0018, 102.3496
801.4839, 109.7852
801.9660, 111.6797
802.4481, 105.7129
802.9302, 97.41797
803.4124, 89.88086
803.8945, 76.93750
804.3766, 81.67578
804.8587, 123.0000
805.3408, 160.5410
805.8229, 146.7266
806.3051, 82.04688
806.7872, 51.31250
807.2693, 65.60156
807.7514, 90.25781
808.2335, 92.06836
808.7156, 79.96289
809.1978, 64.43164
809.6799, 42.62500
810.1620, 34.67188
810.6441, 61.75195
811.1262, 99.59766
811.6083, 124.6230
812.0905, 134.3203
812.5726, 131.0098
813.0547, 110.1270
813.5368, 90.38867
814.0189, 92.64062
814.5010, 113.7656
814.9832, 136.9746
815.4653, 160.9902
815.9474, 178.8086
816.4295, 190.6797
816.9116, 189.6055
817.3937, 162.6016
817.8759, 81.03320
818.3580, 26.03516
818.8401, 33.47266
819.3222, 62.54102
819.8043, 76.22070
820.2864, 71.26367
820.7686, 66.45898
821.2507, 62.72266
821.7328, 61.51758
822.2149, 61.46094
822.6970, 65.54883
823.1791, 85.78711
823.6613, 131.5957
824.1434, 167.3633
824.6255, 157.7441
825.1076, 135.7168
825.5897, 133.8242
826.0718, 207.1836
826.5540, 225.6035
827.0361, 159.9004
827.5182, 72.87305
828.0003, 45.41406
828.4824, 75.64648
828.9645, 81.60352
829.4467, 46.23047
829.9288, 12.08789
830.4109, 35.40234
830.8930, 87.52734
831.3751, 123.6367
831.8572, 124.6699
832.3394, 124.0684
832.8215, 139.0098
833.3036, 154.8945
833.7857, 155.5684
834.2678, 135.8125
834.7499, 114.7031
835.2321, 94.69727
835.7142, 74.68164
836.1963, 36.04688
836.6784, 9.294922
837.1605, 4.662109
837.6426, 73.50195
838.1248, 141.8711
838.6069, 111.1562
839.0890, 45.28516
839.5711, 17.39258
840.0532, 79.50000
840.5353, 109.6055
841.0175, 76.24414
841.4996, 34.40625
841.9817, 47.65625
842.4638, 119.2539
842.9459, 161.6953
843.4280, 163.6035
843.9102, 150.2832
844.3923, 137.1719
844.8744, 124.4707
845.3565, 115.3008
845.8386, 112.3516
846.3207, 104.9141
846.8029, 78.07422
847.2850, 51.78516
847.7671, 42.87891
848.2492, 53.41016
848.7313, 79.50391
849.2134, 127.8105
849.6956, 168.9102
850.1777, 167.8867
850.6598, 133.8418
851.1419, 93.24609
851.6240, 46.28906
852.1061, 20.38672
852.5883, 65.26367
853.0704, 122.9160
853.5525, 136.4961
854.0346, 74.00586
854.5167, 51.85938
854.9988, 97.35156
855.4810, 154.0859
855.9631, 183.7480
856.4452, 186.0664
856.9273, 180.5234
857.4094, 167.1367
857.8915, 152.2227
858.3737, 142.4512
858.8558, 134.1914
859.3379, 123.1895
859.8200, 108.9668
860.3021, 93.12500
860.7842, 68.57227
861.2664, 47.38086
861.7485, 39.10938
862.2306, 45.36133
862.7127, 46.55859
863.1948, 39.90625
863.6769, 40.69922
864.1591, 68.75586
864.6412, 109.9727
865.1233, 131.7539
865.6054, 134.2793
866.0875, 132.5254
866.5696, 137.7676
867.0518, 139.6797
867.5339, 131.0137
868.0160, 110.7988
868.4981, 86.47656
868.9802, 46.24805
869.4623, 25.97266
869.9445, 56.91602
870.4266, 120.9648
870.9087, 125.3105
871.3908, 75.33203
871.8729, 27.58789
872.3550, 21.70898
872.8372, 28.11523
873.3193, 15.61133
873.8014, 9.878906
874.2835, 11.19141
874.7656, 49.63672
875.2477, 99.77148
875.7299, 114.5977
876.2120, 105.3535
876.6941, 132.8516
877.1762, 197.2148
877.6583, 227.9199
878.1404, 173.8125
878.6226, 90.68359
879.1047, 39.73633
879.5869, 19.53906
880.0690, 25.10352
880.5511, 94.16016
881.0332, 143.2012
881.5153, 134.7520
881.9974, 94.62695
882.4796, 73.72070
882.9617, 74.94922
883.4438, 78.52930
883.9259, 75.64062
884.4080, 77.20898
884.8901, 113.1523
885.3723, 165.1230
885.8544, 188.7246
886.3365, 151.0703
886.8186, 112.6719
887.3007, 100.0625
887.7828, 101.0996
888.2650, 99.75977
888.7471, 90.90234
889.2292, 93.63086
889.7113, 114.9180
890.1934, 136.0234
890.6755, 121.3398
891.1577, 86.23242
891.6398, 86.64648
892.1219, 142.0449
892.6040, 185.6074
893.0861, 154.9785
893.5682, 99.41992
894.0504, 65.27344
894.5325, 67.53906
895.0146, 66.02344
895.4967, 56.58008
895.9788, 53.34961
896.4609, 80.97656
896.9431, 130.1895
897.4252, 131.8379
897.9073, 82.95117
898.3894, 46.32617
898.8715, 92.47852
899.3536, 154.9902
899.8358, 175.7617
900.3179, 145.4629
900.8000, 119.2988
901.2821, 102.8770
901.7642, 91.91797
902.2463, 82.63477
902.7285, 76.63281
903.2106, 92.78125
903.6927, 129.8164
904.1748, 157.0137
904.6569, 145.8887
905.1390, 123.1816
905.6212, 119.2363
906.1033, 128.9648
906.5854, 127.2949
907.0675, 85.97070
907.5496, 59.40820
908.0317, 71.52539
908.5139, 102.7559
908.9960, 81.98828
909.4781, 8.947266
909.9602, 37.66016
910.4423, 21.59766
910.9244, 21.53125
911.4066, 59.18359
911.8887, 91.00195
912.3708, 118.0195
912.8529, 129.0801
913.3350, 147.0254
913.8171, 196.3457
914.2993, 240.9238
914.7814, 220.5527
915.2635, 128.3398
915.7456, 65.76172
916.2277, 51.09180
916.7098, 51.37305
917.1920, 20.65625
917.6741, 16.70117
918.1562, 20.98438
918.6383, 25.63281
919.1204, 69.77539
919.6025, 105.8281
920.0847, 124.9414
920.5668, 116.8184
921.0489, 75.83984
921.5310, 44.74609
922.0131, 23.03320
922.4952, 15.80273
922.9774, 42.51758
923.4595, 78.99219
923.9416, 86.64453
924.4237, 64.76953
924.9058, 40.68555
925.3879, 7.365234
925.8701, 6.242188
926.3522, 20.34961
926.8343, 79.57227
927.3164, 107.6914
927.7985, 102.5918
928.2806, 89.53320
928.7628, 78.45508
929.2449, 67.69922
929.7270, 49.13867
930.2091, 28.45312
930.6912, 20.80664
931.1733, 43.68555
931.6555, 66.40039
932.1376, 86.92383
932.6197, 100.9062
933.1018, 93.59375
933.5839, 60.93164
934.0660, 36.64844
934.5482, 27.14258
935.0303, 26.72461
935.5124, 33.43945
935.9945, 42.47656
936.4766, 44.16602
936.9587, 32.14844
937.4409, 24.41992
937.9230, 21.66797
938.4051, 30.03516
938.8872, 63.01758
939.3693, 134.5977
939.8514, 135.1523
940.3336, 53.86523
940.8157, 19.30859
941.2978, 12.98242
941.7799, 89.03320
942.2620, 119.8555
942.7441, 101.3145
943.2263, 72.54102
943.7084, 15.28125
944.1905, 11.42578
944.6726, 32.16016
945.1547, 127.8691
945.6368, 164.9199
946.1190, 141.6250
946.6011, 103.6016
947.0832, 62.16602
947.5653, 26.95508
948.0474, 13.83594
948.5295, 16.45508
949.0117, 20.02539
949.4938, 8.810547
949.9759, 12.31055
950.4580, 38.54492
950.9401, 79.57227
951.4222, 131.9492
951.9044, 196.7207
952.3865, 224.9434
952.8686, 204.4668
953.3507, 167.1738
953.8328, 139.2656
954.3149, 118.4473
954.7971, 101.6016
955.2792, 87.78906
955.7613, 80.89844
956.2434, 87.17969
956.7255, 93.41406
957.2076, 91.88867
957.6898, 82.72461
958.1719, 67.70312
958.6540, 46.91016
959.1361, 32.77930
959.6182, 37.73242
960.1003, 50.08398
960.5825, 62.54883
961.0646, 73.77148
961.5467, 77.81641
962.0288, 60.71289
962.5109, 57.50195
962.9930, 83.55273
963.4752, 122.3164
963.9573, 128.7402
964.4394, 107.6758
964.9215, 90.01172
965.4036, 88.39844
965.8857, 88.24609
966.3679, 69.62500
966.8500, 48.78516
967.3321, 48.65820
967.8142, 103.9199
968.2963, 115.1680
968.7784, 66.04102
969.2606, 3.767578
969.7427, 25.34570
970.2248, 26.61914
970.7069, 13.91211
971.1890, 11.38281
971.6711, 31.50977
972.1533, 24.73828
972.6354, 18.21875
973.1175, 34.88477
973.5996, 72.57422
974.0817, 79.49414
974.5638, 41.62305
975.0460, 25.17383
975.5281, 74.58984
976.0102, 146.1895
976.4923, 137.2754
976.9744, 70.67188
977.4565, 16.27148
977.9387, 8.869141
978.4208, 13.81055
978.9029, 22.20117
979.3850, 34.83398
979.8671, 56.14844
980.3492, 89.98242
980.8314, 108.3184
981.3135, 106.9844
981.7956, 95.00195
982.2777, 71.77734
982.7598, 49.04688
983.2419, 50.21680
983.7241, 83.49219
984.2062, 97.86328
984.6883, 50.68750
985.1704, 10.22461
985.6525, 9.685547
986.1346, 43.51758
986.6168, 61.58398
987.0989, 64.79883
987.5810, 63.74609
988.0631, 64.44336
988.5452, 63.67383
989.0273, 58.72461
989.5095, 49.91211
989.9916, 37.69141
990.4737, 1.517578
990.9558, 1.798828
991.4379, 64.77734
991.9200, 146.2344
992.4022, 147.2246
992.8843, 86.91602
993.3664, 53.15820
993.8485, 65.09961
994.3306, 85.02344
994.8127, 93.20508
995.2949, 93.69727
995.7770, 87.59766
996.2591, 73.51172
996.7412, 68.29492
997.2233, 75.70898
997.7054, 78.17188
998.1876, 51.87500
998.6697, 17.70117
999.1518, 37.92578
999.6339, 97.05859
1000.116, 136.3828
1000.598, 122.0449
1001.080, 91.77734
1001.562, 38.66992
1002.044, 13.20312
1002.527, 9.296875
1003.009, 55.68164
1003.491, 91.87109
1003.973, 78.42188
1004.455, 49.87305
1004.937, 38.89453
1005.419, 38.07617
1005.901, 40.02734
1006.384, 45.82812
1006.866, 42.84961
1007.348, 20.10156
1007.830, 3.455078
1008.312, 12.16602
1008.794, 40.15820
1009.276, 50.34375
1009.758, 44.45508
1010.240, 38.78320
1010.723, 32.19531
1011.205, 34.54688
1011.687, 69.69922
1012.169, 117.0918
1012.651, 118.2246
1013.133, 45.25977
1013.615, 8.843750
1014.097, 32.90430
1014.580, 78.59766
1015.062, 92.08594
1015.544, 87.75586
1016.026, 96.76367
1016.508, 129.2832
1016.990, 147.5723
1017.472, 123.8301
1017.954, 92.60742
1018.436, 71.58789
1018.919, 60.80664
1019.401, 56.34375
1019.883, 58.17188
1020.365, 76.77344
1020.847, 146.1484
1021.329, 211.9277
1021.811, 209.0879
1022.293, 160.6660
1022.776, 123.7031
1023.258, 119.5215
1023.740, 108.3691
1024.222, 80.24805
1024.704, 54.28516
1025.186, 69.54297
1025.668, 109.6074
1026.150, 111.1074
1026.632, 62.22852
1027.115, 18.04883
1027.597, 16.81641
1028.079, 26.57227
1028.561, 26.43750
1029.043, 16.13672
1029.525, 2.025391
1030.007, 18.23633
1030.489, 20.49023
1030.972, 18.09570
1031.454, 67.71875
1031.936, 83.18555
1032.418, 78.54102
1032.900, 83.68555
1033.382, 136.2930
1033.864, 156.7656
1034.346, 123.9082
1034.828, 75.71094
1035.311, 52.90234
1035.793, 52.99414
1036.275, 65.72656
1036.757, 90.47852
1037.239, 106.4219
1037.721, 91.34375
1038.203, 68.67578
1038.685, 51.86523
1039.167, 42.01562
1039.650, 43.47656
1040.132, 61.30859
1040.614, 67.16016
1041.096, 47.50000
1041.578, 17.55078
1042.060, 4.328125
1042.542, 17.06055
1043.024, 18.60547
1043.507, 7.439453
1043.989, 14.48047
1044.471, 60.42969
1044.953, 101.3516
1045.435, 114.9395
1045.917, 102.4512
1046.399, 73.90820
1046.881, 30.67969
1047.364, 5.218750
1047.846, 14.51562
1048.328, 15.52734
1048.810, 26.84570
1049.292, 40.74609
1049.774, 21.84961
1050.256, 46.75195
1050.738, 86.16602
1051.220, 74.57031
1051.703, 44.46484
1052.185, 42.78711
1052.667, 55.13867
1053.149, 55.67969
1053.631, 35.61133
1054.113, 21.44336
1054.595, 16.71484
1055.077, 24.52930
1055.559, 56.69336
1056.042, 104.6973
1056.524, 99.27148
1057.006, 47.94922
1057.488, 12.35352
1057.970, 38.61914
1058.452, 78.22461
1058.934, 110.8379
1059.416, 132.8730
1059.899, 136.5137
1060.381, 117.5508
1060.863, 99.61914
1061.345, 81.79297
1061.827, 73.85938
1062.309, 98.90234
1062.791, 133.8672
1063.273, 142.9121
1063.755, 123.4395
1064.238, 98.87109
1064.720, 57.20703
1065.202, 37.09375
1065.684, 62.67578
1066.166, 108.4414
1066.648, 88.76953
1067.130, 20.39258
1067.612, 20.62109
1068.094, 8.076172
1068.577, 32.74414
1069.059, 135.4258
1069.541, 225.2852
1070.023, 222.3164
1070.505, 101.4961
1070.987, 34.80078
1071.469, 24.94727
1071.951, 34.14844
1072.434, 46.36719
1072.916, 55.25000
1073.398, 52.44531
1073.880, 44.54688
1074.362, 54.83789
1074.844, 112.3496
1075.326, 145.5547
1075.808, 136.0273
1076.291, 116.9102
1076.773, 147.8320
1077.255, 206.0469
1077.737, 221.7969
1078.219, 183.5098
1078.701, 137.3359
1079.183, 90.25977
1079.665, 59.14453
1080.147, 57.80859
1080.630, 79.07227
1081.112, 71.99219
1081.594, 38.28125
1082.076, 33.57812
1082.558, 94.03906
1083.040, 162.1289
1083.522, 188.2793
1084.004, 189.9922
1084.486, 189.2969
1084.969, 186.4453
1085.451, 188.4863
1085.933, 196.3125
1086.415, 205.5625
1086.897, 227.3457
1087.379, 241.0625
1087.861, 191.6074
1088.343, 96.75195
1088.826, 30.74414
1089.308, 33.02539
1089.790, 49.15820
1090.272, 74.14844
1090.754, 101.5820
1091.236, 129.1348
1091.718, 151.6484
1092.200, 134.9688
1092.682, 70.39258
1093.165, 21.57617
1093.647, 43.19336
1094.129, 80.04297
1094.611, 87.29102
1095.093, 35.50000
1095.575, 109.6699
1096.057, 151.1211
1096.539, 161.6016
1097.022, 48.38281
1097.504, 94.89453
1097.986, 77.39648
1098.468, 57.26758
1098.950, 126.2695
1099.432, 31.04102
1099.914, 98.22070
1100.396, 99.61719
1100.879, 130.7266
1101.361, 98.07812
1101.843, 85.90234
1102.325, 138.1582
1102.807, 154.7344
1103.289, 115.2480
1103.771, 149.4844
1104.253, 52.01367
1104.735, 70.11328
1105.218, 137.6367
1105.700, 100.3457
1106.182, 134.6680
1106.664, 140.9863
1107.146, 22.41211
1107.628, 120.7188
1108.110, 58.41406
1108.592, 67.95898
1109.074, 75.40234
1109.557, 80.18164
1110.039, 78.30859
1110.521, 69.73828
1111.003, 58.61914
1111.485, 43.14258
1111.967, 34.94922
1112.449, 54.32812
1112.931, 82.59570
1113.414, 95.93555
1113.896, 84.62305
1114.378, 91.46680
1114.860, 123.5254
1115.342, 142.6719
1115.824, 116.1895
1116.306, 73.22656
1116.788, 53.41797
1117.271, 54.36133
1117.753, 70.68555
1118.235, 119.4219
1118.717, 168.5801
1119.199, 217.4434
1119.681, 239.5547
1120.163, 180.9160
1120.645, 73.97070
1121.127, 11.98047
1121.609, 2.937500
1122.092, 5.412109
1122.574, 55.44531
1123.056, 89.16602
1123.538, 77.39648
1124.020, 46.98828
1124.502, 56.35156
1124.984, 99.78320
1125.466, 127.3535
1125.949, 131.1094
1126.431, 127.4121
1126.913, 120.6465
1127.395, 115.9512
1127.877, 126.2773
1128.359, 146.0449
1128.841, 112.8125
1129.323, 21.59961
1129.806, 30.94336
1130.288, 2.310547
1130.770, 61.99414
1131.252, 100.7031
1131.734, 123.6387
1132.216, 136.6738
1132.698, 142.8770
1133.180, 129.1406
1133.662, 90.16602
1134.145, 53.94141
1134.627, 42.30664
1135.109, 41.46484
1135.591, 24.04102
1136.073, 5.8590001E-03
1136.555, 5.117188
1137.037, 37.83594
1137.519, 68.37109
1138.001, 83.43555
1138.484, 85.44141
1138.966, 58.41602
1139.448, 21.98047
1139.930, 33.97852
1140.412, 90.33398
1140.894, 125.7812
1141.376, 89.00000
1141.858, 60.14453
1142.341, 61.91016
1142.823, 81.24805
1143.305, 96.27344
1143.787, 107.2344
1144.269, 116.8125
1144.751, 126.3008
1145.233, 125.8867
1145.715, 100.5020
1146.198, 72.87305
1146.680, 53.54297
1147.162, 42.50391
1147.644, 42.88477
1148.126, 53.82617
1148.608, 61.85547
1149.090, 58.53125
1149.572, 63.00195
1150.054, 107.2617
1150.536, 154.0254
1151.019, 166.6582
1151.501, 143.4004
1151.983, 112.4004
1152.465, 73.86133
1152.947, 43.40430
1153.429, 28.37695
1153.911, 26.41211
1154.393, 42.71289
1154.876, 68.35352
1155.358, 88.68750
1155.840, 106.2793
1156.322, 106.6426
1156.804, 87.52539
1157.286, 62.06836
1157.768, 29.15430
1158.250, 4.222656
1158.733, 11.92188
1159.215, 45.37109
1159.697, 79.08789
1160.179, 120.9668
1160.661, 133.4043
1161.143, 103.5312
1161.625, 67.57031
1162.107, 76.57422
1162.589, 103.6426
1163.072, 92.67188
1163.554, 43.72461
1164.036, 30.79492
1164.518, 111.3203
1165.000, 160.4062
1165.482, 137.8711
1165.964, 86.45508
1166.446, 84.13477
1166.928, 113.0586
1167.411, 135.7305
1167.893, 145.8945
1168.375, 144.3125
1168.857, 131.8223
1169.339, 104.5879
1169.821, 50.28320
1170.303, 12.73438
1170.785, 21.41992
1171.268, 9.611328
1171.750, 31.68945
1172.232, 24.73047
1172.714, 19.06055
1173.196, 23.85547
1173.678, 38.38477
1174.160, 75.86719
1174.642, 124.8223
1175.125, 76.04297
1175.607, 47.18164
1176.089, 113.9727
1176.571, 10.59375
1177.053, 93.20117
1177.535, 126.0527
1178.017, 121.4258
1178.499, 102.5176
1178.981, 69.52344
1179.464, 43.04688
1179.946, 24.47070
1180.428, 25.57031
1180.910, 71.64258
1181.392, 119.7461
1181.874, 155.4590
1182.356, 174.5723
1182.838, 164.4121
1183.320, 123.0996
1183.803, 108.4805
1184.285, 125.9199
1184.767, 140.6914
1185.249, 112.9746
1185.731, 86.66602
1186.213, 100.0137
1186.695, 138.2207
1187.177, 163.4336
1187.660, 171.3730
1188.142, 143.4082
1188.624, 67.51367
1189.106, 9.800781
1189.588, 49.12500
1190.070, 114.0625
1190.552, 151.9160
1191.034, 161.1602
1191.516, 154.0547
1191.999, 128.7012
1192.481, 99.42969
1192.963, 62.50781
1193.445, 49.47656
1193.927, 144.0801
1194.409, 242.8477
1194.891, 215.3047
1195.373, 50.67188
1195.855, 15.42188
1196.338, 27.97070
1196.820, 73.19141
1197.302, 81.03125
1197.784, 67.58203
1198.266, 28.28320
1198.748, 10.42773
1199.230, 6.820313
1199.712, 54.42969
1200.195, 72.21484
1200.677, 38.37500
1201.159, 19.72266
1201.641, 69.14062
1202.123, 130.0293
1202.605, 128.8223
1203.087, 97.43555
1203.569, 91.32031
1204.052, 133.7793
1204.534, 146.9160
1205.016, 127.7285
1205.498, 97.34961
1205.980, 50.09375
1206.462, 15.74414
1206.944, 57.08594
1207.426, 133.3164
1207.908, 140.1094
1208.391, 17.12109
1208.873, 11.68750
1209.355, 79.13086
1209.837, 176.0938
1210.319, 170.6895
1210.801, 126.8418
1211.283, 111.5176
1211.765, 120.4062
1212.247, 132.5527
1212.730, 153.6465
1213.212, 148.9688
1213.694, 109.9629
1214.176, 68.77539
1214.658, 58.14062
1215.140, 60.78906
1215.622, 52.66406
1216.104, 37.65039
1216.587, 48.30078
1217.069, 99.58594
1217.551, 126.0469
1218.033, 112.4844
1218.515, 91.70898
1218.997, 103.1758
1219.479, 125.5742
1219.961, 138.5039
1220.443, 139.0723
1220.926, 122.0039
1221.408, 79.83398
1221.890, 52.26172
1222.372, 50.85938
1222.854, 58.81836
1223.336, 61.89062
1223.818, 60.77930
1224.300, 50.94922
1224.782, 29.70117
1225.265, 17.82617
1225.747, 17.56641
1226.229, 15.40820
1226.711, 2.384766
1227.193, 0.9082030
1227.675, 56.64453
1228.157, 122.0273
1228.639, 120.4688
1229.122, 37.05078
1229.604, 10.48828
1230.086, 49.40039
1230.568, 86.23242
1231.050, 94.15234
1231.532, 91.33008
1232.014, 84.62891
1232.496, 85.89453
1232.979, 119.8379
1233.461, 186.9453
1233.943, 206.7305
1234.425, 164.5254
1234.907, 123.0859
1235.389, 113.9883
1235.871, 115.6328
1236.353, 111.6680
1236.835, 102.3301
1237.318, 83.83984
1237.800, 51.62305
1238.282, 54.71289
1238.764, 95.51172
1239.246, 120.0684
1239.728, 76.94141
1240.210, 32.04102
1240.692, 44.36523
1241.175, 87.98047
1241.657, 132.4199
1242.139, 183.7422
1242.621, 184.3887
1243.103, 133.9297
1243.585, 74.54102
1244.067, 9.800781
1244.549, 26.28320
1245.031, 13.07227
1245.514, 84.58398
1245.996, 121.8340
1246.478, 123.4824
1246.960, 104.5996
1247.442, 67.20703
1247.924, 47.15430
1248.406, 87.41992
1248.888, 129.5371
1249.370, 137.7422
1249.853, 129.4355
1250.335, 131.7969
1250.817, 143.0156
1251.299, 162.1836
1251.781, 187.3008
1252.263, 192.8359
1252.745, 137.0293
1253.227, 88.91406
1253.710, 86.85547
1254.192, 102.9277
1254.674, 100.3594
1255.156, 83.33789
1255.638, 84.99805
1256.120, 105.6758
1256.602, 124.6504
1257.084, 130.1250
1257.567, 132.5391
1258.049, 137.0234
1258.531, 138.0723
1259.013, 121.6328
1259.495, 96.58398
1259.977, 88.97266
1260.459, 98.56641
1260.941, 102.1582
1261.423, 64.67969
1261.906, 54.43555
1262.388, 94.80859
1262.870, 154.1680
1263.352, 198.4395
1263.834, 222.9277
1264.316, 202.4805
1264.798, 140.5078
1265.280, 102.7949
1265.762, 141.0996
1266.245, 147.5957
1266.727, 88.86719
1267.209, 23.52930
1267.691, 45.49805
1268.173, 111.2227
1268.655, 119.3027
1269.137, 65.43164
1269.619, 41.85156
1270.102, 68.08398
1270.584, 102.1816
1271.066, 141.2695
1271.548, 165.1992
1272.030, 123.1895
1272.512, 67.70312
1272.994, 73.94531
1273.476, 141.0117
1273.958, 156.2246
1274.441, 101.0137
1274.923, 75.12109
1275.405, 106.1348
1275.887, 145.7695
1276.369, 136.7188
1276.851, 117.4629
1277.333, 132.8809
1277.815, 174.4375
1278.297, 171.8457
1278.780, 122.1270
1279.262, 96.71289
1279.744, 122.0352
1280.226, 136.5137
1280.708, 64.20508
1281.190, 8.183594
1281.672, 14.66992
1282.154, 29.72461
1282.637, 78.84961
1283.119, 131.1289
1283.601, 171.9473
1284.083, 198.4414
1284.565, 214.9043
1285.047, 224.1504
1285.529, 222.4688
1286.011, 183.4922
1286.494, 121.9316
1286.976, 111.3965
1287.458, 114.8262
1287.940, 91.70703
1288.422, 27.92578
1288.904, 0.2773440
1289.386, 68.23242
1289.868, 68.00391
1290.350, 0.0000000E+00
##END=



