##NAMES=Poughite
##RRUFFID=R080026
##IDEAL CHEMISTRY=Fe^3+^_2_(Te^4+^O_3_)_2_SO_4_&#183;3H_2_O
##LOCALITY=Mina Candelaria, Moctezuma, Sonora, Mexico
##OWNER=RRUFF
##SOURCE=William W. Pinch
##DESCRIPTION=Bright-yellow to honey-yellow drusy crusts associated with green emmonsite
##STATUS=The identification of this mineral has been confirmed only by X-ray diffraction
##URL=rruff.info/R080026
138.6633, 0.0000000E+00
139.1454, 6.631348
139.6275, 13.52002
140.1097, 13.03174
140.5918, 5.985840
141.0739, 5.307617
141.5560, 10.95312
142.0381, 20.33105
142.5202, 32.99072
143.0023, 50.96191
143.4845, 68.43115
143.9666, 81.57812
144.4487, 89.73828
144.9308, 105.2192
145.4129, 133.2158
145.8951, 166.8433
146.3772, 198.8716
146.8593, 227.6938
147.3414, 255.0820
147.8235, 278.9136
148.3056, 298.7783
148.7878, 313.1431
149.2699, 322.3652
149.7520, 326.7495
150.2341, 326.6538
150.7162, 324.2266
151.1983, 319.6729
151.6805, 311.7427
152.1626, 294.8750
152.6447, 295.7280
153.1268, 318.5786
153.6089, 348.4995
154.0910, 376.4116
154.5732, 403.9380
155.0553, 428.1172
155.5374, 442.2188
156.0195, 435.9917
156.5016, 417.8784
156.9837, 398.2271
157.4659, 382.7573
157.9480, 366.6792
158.4301, 347.4565
158.9122, 328.5513
159.3943, 312.0361
159.8764, 301.1787
160.3586, 287.8345
160.8407, 270.1855
161.3228, 248.4854
161.8049, 223.4146
162.2870, 191.2319
162.7691, 158.1514
163.2513, 128.0356
163.7334, 101.3394
164.2155, 78.16992
164.6976, 60.58984
165.1797, 47.20459
165.6618, 32.61621
166.1440, 10.96729
166.6261, 11.47803
167.1082, 29.24414
167.5903, 38.61084
168.0724, 45.18652
168.5545, 51.49316
169.0367, 57.58057
169.5188, 63.85010
170.0009, 72.11377
170.4830, 80.15234
170.9651, 85.36182
171.4472, 87.63428
171.9293, 86.13281
172.4115, 79.50488
172.8936, 67.92773
173.3757, 53.64893
173.8578, 39.41211
174.3399, 23.63574
174.8220, 3.662109
175.3042, 20.29248
175.7863, 49.40527
176.2684, 86.93994
176.7505, 132.7549
177.2326, 181.4751
177.7147, 226.8115
178.1969, 271.3955
178.6790, 319.7012
179.1611, 374.1572
179.6432, 433.0239
180.1253, 493.7749
180.6074, 555.7212
181.0896, 619.6929
181.5717, 684.5547
182.0538, 751.0249
182.5359, 824.6333
183.0180, 910.6768
183.5001, 1003.728
183.9823, 1089.476
184.4644, 1165.870
184.9465, 1243.428
185.4286, 1334.338
185.9107, 1437.348
186.3928, 1540.727
186.8750, 1641.268
187.3571, 1737.977
187.8392, 1828.136
188.3213, 1909.519
188.8034, 1990.332
189.2855, 2080.762
189.7677, 2179.581
190.2498, 2279.633
190.7319, 2376.187
191.2140, 2470.135
191.6961, 2566.118
192.1782, 2663.862
192.6604, 2763.947
193.1425, 2867.069
193.6246, 2972.783
194.1067, 3076.279
194.5888, 3175.818
195.0709, 3270.372
195.5531, 3357.543
196.0352, 3437.435
196.5173, 3513.433
196.9994, 3585.750
197.4815, 3653.879
197.9636, 3723.401
198.4458, 3796.970
198.9279, 3874.540
199.4100, 3956.459
199.8921, 4042.322
200.3742, 4133.823
200.8563, 4234.522
201.3385, 4346.013
201.8206, 4462.447
202.3027, 4587.657
202.7848, 4724.598
203.2669, 4839.759
203.7490, 4936.292
204.2311, 5007.375
204.7133, 5041.929
205.1954, 5042.279
205.6775, 4997.872
206.1596, 4897.682
206.6417, 4735.716
207.1238, 4554.356
207.6060, 4347.929
208.0881, 4128.120
208.5702, 3917.133
209.0523, 3711.979
209.5344, 3524.445
210.0165, 3358.297
210.4987, 3211.113
210.9808, 3094.571
211.4629, 3012.110
211.9450, 2957.719
212.4271, 2919.647
212.9092, 2898.360
213.3914, 2891.932
213.8735, 2901.315
214.3556, 2929.399
214.8377, 2963.295
215.3198, 3006.705
215.8019, 3053.418
216.2841, 3086.909
216.7662, 3105.867
217.2483, 3115.571
217.7304, 3121.062
218.2125, 3128.907
218.6946, 3110.740
219.1768, 3060.131
219.6589, 2986.195
220.1410, 2907.973
220.6231, 2824.521
221.1052, 2738.083
221.5873, 2648.565
222.0695, 2556.440
222.5516, 2462.059
223.0337, 2365.182
223.5158, 2266.409
223.9979, 2161.071
224.4800, 2045.226
224.9622, 1930.188
225.4443, 1822.819
225.9264, 1724.897
226.4085, 1628.817
226.8906, 1534.754
227.3727, 1442.392
227.8549, 1344.969
228.3370, 1235.935
228.8191, 1134.216
229.3012, 1047.462
229.7833, 980.9058
230.2654, 918.3472
230.7476, 858.7021
231.2297, 804.4849
231.7118, 761.7539
232.1939, 735.2515
232.6760, 712.3608
233.1581, 686.4609
233.6402, 652.8115
234.1224, 629.1904
234.6045, 616.4717
235.0866, 613.2100
235.5687, 616.5288
236.0508, 627.5762
236.5329, 643.0449
237.0151, 661.0908
237.4972, 679.9883
237.9793, 706.3877
238.4614, 742.5200
238.9435, 785.3418
239.4256, 830.0205
239.9078, 878.1821
240.3899, 924.7598
240.8720, 967.3198
241.3541, 1003.920
241.8362, 1043.644
242.3183, 1088.257
242.8005, 1135.706
243.2826, 1183.404
243.7647, 1233.125
244.2468, 1279.644
244.7289, 1322.481
245.2110, 1363.634
245.6932, 1393.133
246.1753, 1410.463
246.6574, 1416.448
247.1395, 1411.618
247.6216, 1392.756
248.1037, 1368.524
248.5859, 1341.373
249.0680, 1311.985
249.5501, 1275.914
250.0322, 1228.867
250.5143, 1178.329
250.9964, 1133.986
251.4786, 1095.673
251.9607, 1063.747
252.4428, 1038.568
252.9249, 1020.782
253.4070, 1005.566
253.8891, 990.4429
254.3713, 980.2749
254.8534, 980.5483
255.3355, 991.0630
255.8176, 1012.867
256.2997, 1049.537
256.7818, 1101.710
257.2639, 1147.947
257.7461, 1182.933
258.2282, 1218.171
258.7103, 1266.259
259.1924, 1333.304
259.6745, 1400.167
260.1566, 1461.819
260.6388, 1519.157
261.1209, 1575.960
261.6030, 1634.160
262.0851, 1689.963
262.5672, 1739.618
263.0493, 1783.896
263.5315, 1821.904
264.0136, 1855.815
264.4957, 1884.368
264.9778, 1895.948
265.4599, 1889.614
265.9420, 1867.992
266.4242, 1831.791
266.9063, 1777.721
267.3884, 1718.604
267.8705, 1655.009
268.3526, 1587.952
268.8347, 1519.720
269.3169, 1448.670
269.7990, 1380.928
270.2811, 1319.909
270.7632, 1266.339
271.2453, 1217.201
271.7274, 1170.638
272.2096, 1128.477
272.6917, 1095.753
273.1738, 1073.940
273.6559, 1057.702
274.1380, 1044.575
274.6201, 1034.280
275.1023, 1027.564
275.5844, 1023.577
276.0665, 1023.495
276.5486, 1032.372
277.0307, 1052.702
277.5128, 1070.431
277.9950, 1078.218
278.4771, 1075.689
278.9592, 1070.044
279.4413, 1060.476
279.9234, 1049.070
280.4055, 1041.469
280.8877, 1038.175
281.3698, 1030.825
281.8519, 1013.289
282.3340, 985.6284
282.8161, 961.8979
283.2982, 942.5176
283.7804, 925.9180
284.2625, 911.2417
284.7446, 898.3394
285.2267, 884.0425
285.7088, 866.3794
286.1909, 846.0303
286.6731, 828.2603
287.1552, 812.9307
287.6373, 799.3887
288.1194, 789.9688
288.6015, 784.3760
289.0836, 772.4287
289.5658, 747.2300
290.0479, 713.8711
290.5300, 691.3345
291.0121, 680.6147
291.4942, 673.7617
291.9763, 662.2588
292.4585, 647.3818
292.9406, 636.4741
293.4227, 633.4614
293.9048, 634.2734
294.3869, 628.6870
294.8690, 616.6421
295.3512, 605.7305
295.8333, 603.5474
296.3154, 607.6865
296.7975, 610.4292
297.2796, 610.4590
297.7617, 607.9028
298.2439, 600.2373
298.7260, 588.5391
299.2081, 580.5957
299.6902, 585.0835
300.1723, 596.9771
300.6544, 605.7593
301.1366, 609.4917
301.6187, 610.7417
302.1008, 614.3374
302.5829, 618.6851
303.0650, 617.7466
303.5471, 600.4707
304.0293, 578.1826
304.5114, 568.3696
304.9935, 573.8149
305.4756, 584.8560
305.9577, 597.4663
306.4398, 608.9346
306.9220, 613.3013
307.4041, 602.3989
307.8862, 585.8418
308.3683, 571.6509
308.8504, 560.2168
309.3326, 553.1777
309.8147, 556.5464
310.2968, 564.3149
310.7789, 567.6021
311.2610, 558.6631
311.7431, 547.0205
312.2252, 538.9346
312.7073, 534.4634
313.1895, 532.5186
313.6716, 534.1880
314.1537, 537.4688
314.6358, 540.2754
315.1179, 541.7856
315.6000, 542.9878
316.0822, 544.2090
316.5643, 545.5215
317.0464, 547.1499
317.5285, 547.8711
318.0106, 549.6929
318.4927, 553.9341
318.9749, 560.7949
319.4570, 570.1323
319.9391, 584.8594
320.4212, 601.9805
320.9033, 614.9258
321.3854, 628.4941
321.8676, 631.9761
322.3497, 618.7275
322.8318, 583.6484
323.3139, 544.6011
323.7960, 499.7241
324.2781, 454.6021
324.7603, 416.5469
325.2424, 397.8633
325.7245, 376.1338
326.2066, 343.7881
326.6887, 298.7573
327.1708, 254.4619
327.6530, 209.3281
328.1351, 166.9800
328.6172, 130.1846
329.0993, 102.2393
329.5814, 76.49658
330.0635, 53.46240
330.5457, 32.96924
331.0278, 9.180176
331.5099, 22.24365
331.9920, 53.70898
332.4741, 80.03809
332.9562, 101.9346
333.4384, 118.1226
333.9205, 125.9282
334.4026, 127.9390
334.8847, 133.9419
335.3668, 146.0176
335.8489, 159.2754
336.3311, 172.3584
336.8132, 187.7988
337.2953, 195.8340
337.7774, 194.8525
338.2595, 187.7192
338.7416, 179.3638
339.2238, 169.3032
339.7059, 159.3647
340.1880, 151.2983
340.6701, 145.3164
341.1522, 133.0132
341.6343, 112.0366
342.1165, 89.37158
342.5986, 73.80371
343.0807, 66.05859
343.5628, 57.10889
344.0449, 44.68018
344.5270, 29.02490
345.0092, 9.938965
345.4913, 13.15283
345.9734, 37.13428
346.4555, 59.52539
346.9376, 80.36670
347.4197, 101.9434
347.9019, 123.9629
348.3840, 147.3813
348.8661, 176.2051
349.3482, 209.8623
349.8303, 243.1968
350.3124, 272.0728
350.7946, 298.3145
351.2767, 326.9697
351.7588, 359.0151
352.2409, 393.1353
352.7230, 428.5200
353.2051, 465.1450
353.6873, 503.7710
354.1694, 544.4497
354.6515, 587.1875
355.1336, 631.0874
355.6157, 676.7681
356.0978, 726.1904
356.5800, 782.9453
357.0621, 844.7217
357.5442, 907.9873
358.0263, 969.6055
358.5084, 1033.868
358.9905, 1107.170
359.4727, 1187.541
359.9548, 1266.574
360.4369, 1332.627
360.9190, 1398.210
361.4011, 1473.772
361.8832, 1564.143
362.3654, 1659.515
362.8475, 1758.302
363.3296, 1858.912
363.8117, 1958.463
364.2938, 2049.343
364.7759, 2143.017
365.2581, 2244.861
365.7402, 2356.406
366.2223, 2471.644
366.7044, 2592.825
367.1865, 2715.358
367.6686, 2836.287
368.1508, 2951.247
368.6329, 3066.929
369.1150, 3183.397
369.5971, 3300.632
370.0792, 3423.591
370.5613, 3555.114
371.0435, 3689.093
371.5256, 3821.695
372.0077, 3954.523
372.4898, 4084.207
372.9719, 4211.387
373.4540, 4336.632
373.9361, 4462.894
374.4182, 4592.662
374.9004, 4717.216
375.3825, 4833.507
375.8646, 4940.936
376.3467, 5040.021
376.8288, 5134.044
377.3109, 5216.536
377.7931, 5280.314
378.2752, 5325.323
378.7573, 5351.888
379.2394, 5361.415
379.7215, 5353.018
380.2036, 5319.871
380.6858, 5261.574
381.1679, 5183.057
381.6500, 5087.500
382.1321, 4974.681
382.6142, 4852.474
383.0963, 4722.255
383.5785, 4582.080
384.0606, 4419.952
384.5427, 4240.039
385.0248, 4056.556
385.5069, 3878.483
385.9890, 3704.583
386.4712, 3535.404
386.9533, 3371.310
387.4354, 3212.445
387.9175, 3064.314
388.3996, 2924.830
388.8817, 2787.987
389.3639, 2648.480
389.8460, 2512.715
390.3281, 2386.563
390.8102, 2270.363
391.2923, 2159.855
391.7744, 2048.673
392.2566, 1943.372
392.7387, 1849.149
393.2208, 1771.691
393.7029, 1698.521
394.1850, 1621.788
394.6671, 1543.918
395.1493, 1471.414
395.6314, 1406.803
396.1135, 1349.535
396.5956, 1299.396
397.0777, 1256.836
397.5598, 1218.890
398.0420, 1184.729
398.5241, 1154.556
399.0062, 1129.144
399.4883, 1109.749
399.9704, 1094.909
400.4525, 1084.933
400.9347, 1079.096
401.4168, 1072.879
401.8989, 1063.233
402.3810, 1056.375
402.8631, 1056.589
403.3452, 1069.080
403.8274, 1077.874
404.3095, 1076.543
404.7916, 1072.371
405.2737, 1084.968
405.7558, 1121.457
406.2379, 1157.253
406.7201, 1182.174
407.2022, 1195.644
407.6843, 1214.744
408.1664, 1240.917
408.6485, 1268.775
409.1306, 1291.077
409.6128, 1307.955
410.0949, 1326.223
410.5770, 1348.003
411.0591, 1372.012
411.5412, 1393.030
412.0233, 1411.378
412.5055, 1433.130
412.9876, 1465.715
413.4697, 1504.914
413.9518, 1540.201
414.4339, 1570.252
414.9160, 1595.011
415.3982, 1613.222
415.8803, 1625.586
416.3624, 1635.002
416.8445, 1643.296
417.3266, 1648.726
417.8087, 1649.370
418.2909, 1645.237
418.7730, 1638.286
419.2551, 1635.478
419.7372, 1627.828
420.2193, 1605.653
420.7014, 1559.962
421.1836, 1509.606
421.6657, 1463.226
422.1478, 1418.710
422.6299, 1370.092
423.1120, 1315.025
423.5941, 1256.258
424.0763, 1195.062
424.5584, 1129.403
425.0405, 1066.967
425.5226, 1010.948
426.0047, 957.3237
426.4868, 902.7090
426.9690, 844.5518
427.4511, 788.6035
427.9332, 736.5400
428.4153, 687.9570
428.8974, 640.1348
429.3795, 591.2095
429.8617, 546.5205
430.3438, 508.7793
430.8259, 477.8062
431.3080, 454.3716
431.7901, 440.7754
432.2722, 431.5806
432.7544, 418.3955
433.2365, 401.0723
433.7186, 382.0259
434.2007, 360.6392
434.6828, 338.3921
435.1649, 320.7378
435.6470, 307.6846
436.1292, 298.4683
436.6113, 294.2773
437.0934, 293.5039
437.5755, 290.7534
438.0576, 284.1724
438.5397, 277.6562
439.0219, 276.7407
439.5040, 279.9507
439.9861, 282.9609
440.4682, 279.8984
440.9503, 277.9312
441.4324, 286.7207
441.9146, 306.5249
442.3967, 323.9438
442.8788, 325.5059
443.3609, 323.1230
443.8430, 329.1050
444.3251, 352.8208
444.8073, 377.3198
445.2894, 397.1343
445.7715, 413.2646
446.2536, 428.3530
446.7357, 447.3325
447.2178, 461.4883
447.7000, 465.0894
448.1821, 453.4443
448.6642, 448.7461
449.1463, 458.1274
449.6284, 470.3218
450.1105, 475.3755
450.5927, 471.1211
451.0748, 462.5415
451.5569, 450.5986
452.0390, 434.9590
452.5211, 412.6162
453.0032, 382.6616
453.4854, 349.5063
453.9675, 315.2017
454.4496, 279.6138
454.9317, 244.6704
455.4138, 210.4873
455.8959, 177.7642
456.3781, 147.8931
456.8602, 120.5674
457.3423, 93.10938
457.8244, 62.04443
458.3065, 33.03516
458.7886, 20.55225
459.2708, 22.81641
459.7529, 26.49854
460.2350, 19.99268
460.7171, 10.11621
461.1992, 6.677246
461.6813, 11.42188
462.1635, 19.67920
462.6456, 29.10742
463.1277, 39.43799
463.6098, 50.35156
464.0919, 60.77295
464.5740, 72.49658
465.0562, 87.61279
465.5383, 105.3843
466.0204, 121.5186
466.5025, 133.5469
466.9846, 144.6196
467.4667, 157.0308
467.9489, 174.6787
468.4310, 186.0781
468.9131, 181.6792
469.3952, 174.3042
469.8773, 181.1865
470.3594, 213.0264
470.8416, 241.9502
471.3237, 261.1943
471.8058, 271.8037
472.2879, 286.0991
472.7700, 304.8726
473.2521, 326.1772
473.7343, 349.3286
474.2164, 374.5884
474.6985, 399.0508
475.1806, 422.5190
475.6627, 446.8779
476.1448, 474.7456
476.6270, 504.7412
477.1091, 532.6411
477.5912, 556.6255
478.0733, 579.5054
478.5554, 604.4238
479.0375, 631.0918
479.5197, 658.7432
480.0018, 690.3916
480.4839, 722.1777
480.9660, 748.6968
481.4481, 768.4644
481.9302, 783.0542
482.4124, 793.6304
482.8945, 800.3286
483.3766, 803.2666
483.8587, 803.2988
484.3408, 798.9370
484.8229, 789.4756
485.3051, 774.8809
485.7872, 756.0957
486.2693, 730.0015
486.7514, 702.0405
487.2335, 675.3599
487.7156, 651.1943
488.1978, 623.6538
488.6799, 593.8413
489.1620, 559.5200
489.6441, 516.9302
490.1262, 460.7104
490.6083, 410.6362
491.0905, 371.9307
491.5726, 343.4277
492.0547, 317.5234
492.5368, 294.3647
493.0189, 270.6880
493.5010, 243.2524
493.9832, 212.7104
494.4653, 185.8926
494.9474, 164.2705
495.4295, 145.9067
495.9116, 129.2402
496.3937, 113.9824
496.8758, 99.49561
497.3579, 84.65234
497.8401, 70.37012
498.3222, 57.39502
498.8043, 46.06543
499.2864, 36.67969
499.7685, 29.13818
500.2506, 22.37451
500.7328, 15.87500
501.2149, 9.563477
501.6970, 5.125488
502.1791, 1.594238
502.6612, 0.5825200
503.1433, 3.745117
503.6255, 23.02490
504.1076, 32.65967
504.5897, 23.94482
505.0718, 3.752930
505.5539, 8.416992
506.0360, 7.395020
506.5182, 6.762695
507.0003, 12.82178
507.4824, 26.55029
507.9645, 30.56787
508.4466, 22.33496
508.9287, 9.718750
509.4109, 1.079102
509.8930, 9.945801
510.3751, 15.18311
510.8572, 15.63525
511.3393, 14.14160
511.8214, 13.89600
512.3036, 15.15527
512.7857, 19.96094
513.2678, 34.82617
513.7499, 51.24268
514.2321, 54.82129
514.7142, 46.32715
515.1963, 38.00635
515.6784, 39.82764
516.1605, 44.92627
516.6426, 46.58350
517.1248, 42.54639
517.6069, 37.84424
518.0890, 32.75732
518.5711, 28.86182
519.0532, 28.47412
519.5353, 39.61328
520.0175, 46.35400
520.4996, 41.62305
520.9817, 27.55029
521.4638, 20.50244
521.9459, 26.24316
522.4280, 31.36865
522.9102, 27.99902
523.3923, 12.59521
523.8744, 6.379395
524.3565, 12.13867
524.8386, 21.13916
525.3207, 22.92090
525.8029, 17.49268
526.2849, 9.586914
526.7670, 0.8696290
527.2491, 11.56543
527.7313, 18.14648
528.2134, 20.83984
528.6955, 20.57764
529.1776, 15.60449
529.6597, 9.068848
530.1418, 4.835938
530.6240, 3.111328
531.1061, 3.095215
531.5882, 3.746582
532.0703, 6.120605
532.5524, 12.05127
533.0345, 26.68506
533.5167, 36.23535
533.9988, 30.74072
534.4809, 18.12549
534.9630, 11.90820
535.4451, 20.48584
535.9272, 28.39893
536.4094, 31.72412
536.8915, 30.90771
537.3736, 32.92285
537.8557, 40.31592
538.3378, 46.28223
538.8199, 46.15723
539.3021, 38.77588
539.7842, 34.23730
540.2663, 32.94434
540.7484, 33.55762
541.2305, 34.88672
541.7126, 36.85254
542.1948, 38.58203
542.6769, 39.77979
543.1590, 40.68164
543.6411, 42.44531
544.1232, 44.39600
544.6053, 44.04883
545.0875, 38.11768
545.5696, 30.40723
546.0517, 23.37256
546.5338, 17.16943
547.0159, 14.35889
547.4980, 17.51514
547.9802, 23.65381
548.4623, 31.13818
548.9444, 44.24268
549.4265, 50.55859
549.9086, 46.69141
550.3907, 35.49561
550.8729, 20.38574
551.3550, 4.398438
551.8371, 22.98193
552.3192, 31.15430
552.8013, 30.30957
553.2834, 27.18652
553.7656, 20.54883
554.2477, 15.67822
554.7298, 17.33447
555.2119, 24.40430
555.6940, 24.43896
556.1761, 16.48047
556.6583, 8.860840
557.1404, 12.67627
557.6225, 23.16162
558.1046, 28.29297
558.5867, 23.65771
559.0688, 17.46143
559.5510, 16.44727
560.0331, 19.46680
560.5152, 24.15430
560.9973, 35.33252
561.4794, 42.80518
561.9615, 38.86133
562.4437, 24.88086
562.9258, 14.23877
563.4079, 10.14453
563.8900, 9.398926
564.3721, 10.88965
564.8542, 15.73340
565.3364, 17.99951
565.8185, 16.69434
566.3006, 14.64062
566.7827, 14.77539
567.2648, 17.53271
567.7469, 18.56934
568.2291, 16.85596
568.7112, 13.81738
569.1933, 12.53369
569.6754, 12.86963
570.1575, 12.65869
570.6396, 8.955078
571.1218, 5.172363
571.6039, 7.862793
572.0860, 16.31299
572.5681, 25.30859
573.0502, 31.23779
573.5323, 35.92578
574.0145, 41.26611
574.4966, 47.57715
574.9787, 53.14844
575.4608, 56.91064
575.9429, 59.49414
576.4250, 61.44043
576.9072, 61.06006
577.3893, 62.06006
577.8714, 65.76074
578.3535, 70.61084
578.8356, 72.82861
579.3177, 71.59375
579.7999, 69.84814
580.2820, 68.32715
580.7641, 67.16406
581.2462, 66.79346
581.7283, 67.28271
582.2104, 68.90967
582.6926, 73.57715
583.1747, 79.62158
583.6568, 80.60400
584.1389, 75.55420
584.6210, 71.66211
585.1031, 78.89209
585.5853, 90.36719
586.0674, 96.18555
586.5495, 92.02051
587.0316, 84.95898
587.5137, 73.60889
587.9958, 62.23389
588.4780, 59.10449
588.9601, 74.78320
589.4422, 89.89551
589.9243, 100.0811
590.4064, 105.1846
590.8885, 104.2114
591.3707, 93.55566
591.8528, 84.34521
592.3349, 82.74756
592.8170, 89.25928
593.2991, 92.04492
593.7813, 90.57861
594.2634, 88.04004
594.7455, 87.79395
595.2276, 89.16260
595.7097, 89.32715
596.1918, 87.80713
596.6740, 85.88281
597.1561, 84.40967
597.6382, 83.60742
598.1203, 83.96436
598.6024, 86.55518
599.0845, 89.41553
599.5667, 92.25684
600.0488, 94.60693
600.5309, 94.56055
601.0130, 87.21436
601.4951, 81.26318
601.9772, 82.40820
602.4594, 92.45605
602.9415, 94.75537
603.4236, 84.33643
603.9057, 72.83350
604.3878, 68.66016
604.8699, 72.94141
605.3521, 75.38867
605.8342, 75.08398
606.3163, 73.67090
606.7984, 72.92578
607.2805, 73.19629
607.7626, 75.17090
608.2448, 80.38623
608.7269, 86.26270
609.2090, 88.87549
609.6911, 89.16260
610.1732, 91.36963
610.6553, 100.2729
611.1375, 109.1426
611.6196, 112.2554
612.1017, 110.2207
612.5838, 110.5283
613.0659, 115.5303
613.5480, 123.0742
614.0302, 132.7490
614.5123, 145.7100
614.9944, 155.0840
615.4765, 158.6265
615.9586, 161.4521
616.4407, 168.6138
616.9229, 180.5410
617.4050, 191.4097
617.8871, 200.8477
618.3692, 209.3501
618.8513, 217.9854
619.3334, 226.3594
619.8156, 233.6152
620.2977, 239.7979
620.7798, 243.5376
621.2619, 241.1309
621.7440, 234.9956
622.2261, 231.9204
622.7083, 240.6919
623.1904, 249.0229
623.6725, 249.5693
624.1546, 242.0405
624.6367, 233.0908
625.1188, 224.3115
625.6010, 214.1724
626.0831, 201.0239
626.5652, 182.6162
627.0473, 170.0488
627.5294, 164.6040
628.0115, 163.0786
628.4937, 162.5928
628.9758, 163.1211
629.4579, 163.9849
629.9400, 164.8252
630.4221, 166.9858
630.9042, 171.7798
631.3864, 179.4126
631.8685, 190.5054
632.3506, 206.2139
632.8327, 224.5542
633.3148, 243.8882
633.7969, 264.5498
634.2791, 287.0630
634.7612, 314.7285
635.2433, 341.7583
635.7254, 363.9214
636.2075, 380.8940
636.6896, 404.4360
637.1718, 438.9624
637.6539, 475.3076
638.1360, 508.2153
638.6181, 535.8477
639.1002, 571.3110
639.5823, 616.3530
640.0645, 664.8203
640.5466, 711.3105
641.0287, 756.1416
641.5108, 798.7437
641.9929, 837.1968
642.4750, 878.8433
642.9572, 933.1372
643.4393, 995.5254
643.9214, 1058.572
644.4035, 1117.012
644.8856, 1177.445
645.3677, 1242.458
645.8499, 1311.772
646.3320, 1382.900
646.8141, 1454.860
647.2962, 1530.175
647.7783, 1610.588
648.2604, 1695.020
648.7426, 1778.812
649.2247, 1861.646
649.7068, 1943.114
650.1888, 2023.275
650.6710, 2101.705
651.1531, 2182.870
651.6352, 2265.895
652.1173, 2349.542
652.5994, 2433.301
653.0815, 2517.427
653.5637, 2602.854
654.0458, 2690.705
654.5279, 2779.142
655.0100, 2866.331
655.4921, 2953.844
655.9742, 3043.499
656.4564, 3137.178
656.9385, 3230.958
657.4206, 3327.374
657.9027, 3422.574
658.3848, 3508.199
658.8669, 3579.501
659.3491, 3650.209
659.8312, 3722.226
660.3133, 3795.579
660.7954, 3873.529
661.2775, 3956.103
661.7596, 4035.691
662.2418, 4108.669
662.7239, 4176.660
663.2060, 4239.871
663.6881, 4299.545
664.1702, 4361.925
664.6523, 4442.455
665.1345, 4520.145
665.6166, 4574.297
666.0987, 4602.406
666.5808, 4627.066
667.0629, 4657.717
667.5450, 4686.369
668.0272, 4708.435
668.5093, 4728.042
668.9914, 4730.464
669.4735, 4709.970
669.9556, 4679.270
670.4377, 4652.787
670.9199, 4631.685
671.4020, 4598.633
671.8841, 4551.381
672.3662, 4492.990
672.8483, 4430.796
673.3304, 4361.701
673.8126, 4276.096
674.2947, 4160.965
674.7768, 4040.749
675.2589, 3935.521
675.7410, 3838.874
676.2231, 3735.579
676.7053, 3616.150
677.1874, 3495.040
677.6695, 3375.970
678.1516, 3259.562
678.6337, 3147.327
679.1158, 3038.257
679.5980, 2932.980
680.0801, 2830.962
680.5622, 2732.979
681.0443, 2635.409
681.5264, 2539.031
682.0085, 2446.177
682.4907, 2359.348
682.9728, 2278.456
683.4549, 2201.952
683.9370, 2130.539
684.4191, 2062.996
684.9012, 2003.088
685.3834, 1944.760
685.8655, 1881.520
686.3476, 1810.554
686.8297, 1742.875
687.3118, 1682.096
687.7939, 1625.981
688.2761, 1572.965
688.7582, 1525.761
689.2403, 1477.371
689.7224, 1426.387
690.2045, 1374.995
690.6866, 1324.219
691.1688, 1274.283
691.6509, 1232.116
692.1330, 1202.934
692.6151, 1177.485
693.0972, 1142.570
693.5793, 1099.834
694.0615, 1055.107
694.5436, 1004.702
695.0257, 957.9199
695.5078, 922.1611
695.9899, 895.3906
696.4720, 868.9272
696.9542, 843.4678
697.4363, 814.9561
697.9184, 780.0356
698.4005, 739.3984
698.8826, 708.5098
699.3647, 688.3340
699.8469, 675.0122
700.3290, 670.3359
700.8111, 672.0371
701.2932, 661.1602
701.7753, 637.4883
702.2574, 615.4116
702.7396, 609.2661
703.2217, 610.5874
703.7038, 608.1348
704.1859, 600.1621
704.6680, 591.8613
705.1501, 587.4766
705.6323, 583.0381
706.1144, 574.9092
706.5965, 558.7886
707.0786, 546.4351
707.5607, 538.8350
708.0428, 534.3271
708.5250, 532.4170
709.0071, 534.1836
709.4892, 529.7007
709.9713, 515.8706
710.4534, 499.9917
710.9355, 495.4106
711.4177, 498.1733
711.8998, 495.1924
712.3819, 480.3389
712.8640, 461.2871
713.3461, 443.6372
713.8282, 426.8315
714.3104, 410.0981
714.7925, 393.8628
715.2746, 377.1953
715.7567, 358.9053
716.2388, 340.1353
716.7209, 324.0415
717.2031, 312.7388
717.6852, 299.7773
718.1673, 281.8311
718.6494, 261.3555
719.1315, 249.4668
719.6136, 245.8218
720.0958, 237.9351
720.5779, 213.5576
721.0600, 183.3013
721.5421, 162.2720
722.0242, 149.6504
722.5063, 139.5103
722.9885, 131.1001
723.4706, 122.0088
723.9527, 110.6050
724.4348, 96.30762
724.9169, 82.16748
725.3990, 68.10645
725.8812, 54.45605
726.3633, 41.09277
726.8454, 27.87256
727.3275, 19.57910
727.8096, 17.64648
728.2917, 14.28516
728.7739, 3.351074
729.2560, 27.07080
729.7381, 33.86279
730.2202, 19.55664
730.7023, 3.647461
731.1844, 1.180664
731.6666, 0.7270510
732.1487, 5.680664
732.6308, 16.22510
733.1129, 22.72266
733.5950, 18.53369
734.0771, 12.94922
734.5593, 15.40088
735.0414, 30.13428
735.5235, 39.52393
736.0056, 41.62158
736.4877, 39.06494
736.9698, 34.15332
737.4520, 27.53320
737.9341, 22.08301
738.4162, 17.84131
738.8983, 16.50537
739.3804, 22.84814
739.8625, 32.53662
740.3447, 38.43701
740.8268, 34.66113
741.3089, 30.43848
741.7910, 29.56396
742.2731, 29.83545
742.7552, 25.85400
743.2374, 13.64062
743.7195, 6.212402
744.2016, 8.171387
744.6837, 15.09766
745.1658, 13.39062
745.6479, 3.729004
746.1301, 0.4721680
746.6122, 11.65186
747.0943, 27.01025
747.5764, 26.44141
748.0585, 13.76074
748.5406, 0.4584960
749.0228, 11.07031
749.5049, 19.25098
749.9870, 20.53320
750.4691, 16.41846
750.9512, 18.35645
751.4333, 32.50977
751.9155, 42.81250
752.3976, 42.07373
752.8797, 32.58447
753.3618, 28.46436
753.8439, 29.73828
754.3260, 35.85840
754.8082, 53.59912
755.2903, 72.94287
755.7724, 72.04980
756.2545, 53.83838
756.7366, 41.47559
757.2188, 52.18066
757.7009, 69.25635
758.1830, 85.03760
758.6651, 99.14014
759.1472, 104.5186
759.6293, 96.36084
760.1115, 85.98730
760.5936, 77.43652
761.0757, 70.64014
761.5578, 72.22266
762.0399, 82.92236
762.5220, 95.60400
763.0042, 105.1992
763.4863, 112.6855
763.9684, 120.0771
764.4505, 127.5640
764.9326, 135.1304
765.4147, 144.1543
765.8969, 152.3638
766.3790, 157.1489
766.8611, 156.1162
767.3432, 160.4766
767.8253, 174.3901
768.3074, 189.5957
768.7896, 199.6162
769.2717, 203.4336
769.7538, 212.8672
770.2359, 229.1128
770.7180, 245.2998
771.2001, 252.0928
771.6823, 254.3960
772.1644, 262.5273
772.6465, 278.3232
773.1285, 295.2456
773.6107, 308.2061
774.0928, 320.8198
774.5749, 336.3545
775.0570, 357.4648
775.5391, 376.6172
776.0212, 393.8740
776.5034, 408.6938
776.9855, 419.8813
777.4676, 426.9937
777.9497, 436.6328
778.4318, 450.5034
778.9139, 463.6030
779.3961, 465.6650
779.8782, 463.0679
780.3603, 470.8970
780.8424, 495.3115
781.3245, 518.1416
781.8066, 527.3267
782.2888, 530.6636
782.7709, 535.6030
783.2530, 546.7622
783.7351, 553.0171
784.2172, 552.5293
784.6993, 549.3848
785.1815, 548.5957
785.6636, 550.3223
786.1457, 548.9702
786.6278, 543.3970
787.1099, 535.3301
787.5920, 525.1982
788.0742, 516.8467
788.5563, 516.4014
789.0384, 528.3252
789.5205, 538.5576
790.0026, 539.9038
790.4847, 535.4888
790.9669, 528.9644
791.4490, 518.0225
791.9311, 511.0854
792.4132, 508.6865
792.8953, 508.3477
793.3774, 508.1250
793.8596, 508.3828
794.3417, 509.3184
794.8238, 511.8413
795.3059, 513.6978
795.7880, 511.5654
796.2701, 506.8853
796.7523, 502.3677
797.2344, 499.2021
797.7165, 493.4253
798.1986, 483.3037
798.6807, 471.4473
799.1628, 460.3467
799.6450, 449.5366
800.1271, 440.8262
800.6092, 436.2666
801.0913, 431.7080
801.5734, 420.6968
802.0555, 403.8408
802.5377, 384.4976
803.0198, 362.9004
803.5019, 343.0825
803.9840, 329.4326
804.4661, 318.1646
804.9482, 304.9131
805.4304, 286.4165
805.9125, 272.3042
806.3946, 270.5552
806.8767, 270.6230
807.3588, 260.3945
807.8409, 235.4697
808.3231, 217.6562
808.8052, 209.8081
809.2873, 206.4839
809.7694, 201.2974
810.2515, 194.6875
810.7336, 188.1855
811.2158, 182.3154
811.6979, 175.1870
812.1800, 165.0713
812.6621, 153.1514
813.1442, 140.3765
813.6263, 122.4673
814.1085, 111.8140
814.5906, 113.9888
815.0727, 118.5166
815.5548, 112.6050
816.0369, 95.33496
816.5190, 86.25000
817.0012, 89.04492
817.4833, 92.55420
817.9654, 82.41943
818.4475, 64.60645
818.9296, 49.43066
819.4117, 38.85498
819.8939, 31.20215
820.3760, 26.75342
820.8581, 24.40674
821.3402, 22.91553
821.8223, 20.05029
822.3044, 23.06836
822.7866, 35.25000
823.2687, 47.06396
823.7508, 46.67871
824.2329, 36.26562
824.7150, 29.78223
825.1971, 28.84961
825.6793, 29.46924
826.1614, 27.91553
826.6435, 26.08545
827.1256, 26.74463
827.6077, 31.60693
828.0898, 33.86475
828.5720, 28.65039
829.0541, 22.90479
829.5362, 21.45850
830.0183, 25.74316
830.5004, 26.04932
830.9825, 21.40332
831.4647, 17.18066
831.9468, 19.32227
832.4289, 25.40479
832.9110, 31.43359
833.3931, 37.08398
833.8752, 38.74414
834.3574, 32.49512
834.8395, 22.57373
835.3216, 10.26953
835.8037, 6.045410
836.2858, 12.66406
836.7679, 5.204102
837.2501, 4.601074
837.7322, 11.00342
838.2143, 14.00342
838.6964, 11.36719
839.1785, 3.104004
839.6606, 4.123535
840.1428, 5.666992
840.6249, 3.691406
841.1070, 0.8115230
841.5891, 7.368652
842.0712, 11.98340
842.5533, 11.18604
843.0355, 10.10059
843.5176, 11.10400
843.9997, 13.83545
844.4818, 14.02246
844.9639, 11.05908
845.4460, 8.817871
845.9282, 9.514648
846.4103, 12.26855
846.8924, 16.23438
847.3745, 20.87549
847.8566, 23.65430
848.3387, 22.97510
848.8209, 20.34766
849.3030, 14.90381
849.7851, 7.861328
850.2672, 5.528809
850.7493, 12.39551
851.2314, 14.62598
851.7136, 6.161621
852.1957, 7.865723
852.6778, 11.50928
853.1599, 6.182617
853.6420, 1.369141
854.1241, 3.437012
854.6063, 4.983887
855.0884, 4.371094
855.5705, 18.83447
856.0526, 26.51953
856.5347, 19.03418
857.0168, 10.41016
857.4990, 0.3969730
857.9811, 7.876953
858.4632, 7.227539
858.9453, 2.896973
859.4274, 12.84570
859.9095, 21.11279
860.3917, 26.55518
860.8738, 25.45996
861.3559, 20.77637
861.8380, 17.92090
862.3201, 18.11621
862.8022, 20.97119
863.2844, 31.06641
863.7665, 41.05371
864.2486, 42.14600
864.7307, 30.14990
865.2128, 21.36084
865.6949, 16.37451
866.1771, 14.90283
866.6592, 18.78076
867.1413, 25.74072
867.6234, 28.46387
868.1055, 25.41260
868.5876, 23.69727
869.0698, 31.17334
869.5519, 39.86963
870.0340, 42.74658
870.5161, 36.50781
870.9982, 33.17822
871.4803, 33.76270
871.9625, 35.67529
872.4446, 35.99805
872.9267, 35.27148
873.4088, 42.32764
873.8909, 56.90820
874.3730, 68.54199
874.8552, 69.36572
875.3373, 63.88525
875.8194, 53.32715
876.3015, 38.53564
876.7836, 28.76758
877.2657, 32.50146
877.7479, 34.62842
878.2300, 28.76904
878.7121, 17.32080
879.1942, 15.89502
879.6763, 24.78125
880.1584, 33.27539
880.6406, 36.31738
881.1227, 36.06738
881.6048, 33.76611
882.0869, 30.45459
882.5690, 28.81299
883.0511, 30.28516
883.5333, 32.99805
884.0154, 37.29639
884.4975, 42.15039
884.9796, 45.36914
885.4617, 46.68213
885.9438, 48.02832
886.4260, 50.50000
886.9081, 51.39014
887.3902, 43.27979
887.8723, 30.96045
888.3544, 25.26807
888.8365, 31.65967
889.3187, 40.12500
889.8008, 48.88037
890.2829, 55.45508
890.7650, 56.57373
891.2471, 47.86133
891.7292, 46.62891
892.2114, 55.66846
892.6935, 65.34180
893.1756, 64.18018
893.6577, 55.51855
894.1398, 50.05273
894.6219, 49.60303
895.1041, 50.39502
895.5862, 47.89111
896.0683, 46.36133
896.5504, 49.32080
897.0325, 57.45020
897.5146, 65.44775
897.9967, 76.06494
898.4788, 81.61328
898.9609, 74.46924
899.4431, 59.23047
899.9252, 57.13330
900.4073, 66.04395
900.8894, 72.40576
901.3715, 64.64990
901.8536, 54.97119
902.3358, 50.71484
902.8179, 51.47168
903.3000, 55.41699
903.7821, 67.84619
904.2642, 72.57568
904.7463, 62.03076
905.2285, 46.21729
905.7106, 50.06006
906.1927, 70.06006
906.6748, 83.80029
907.1569, 83.84033
907.6390, 77.17920
908.1212, 63.76562
908.6033, 50.08984
909.0854, 44.66406
909.5675, 58.53613
910.0496, 64.54834
910.5317, 58.56738
911.0139, 50.72803
911.4960, 51.72656
911.9781, 60.18750
912.4602, 63.95410
912.9423, 62.51514
913.4244, 60.57910
913.9066, 62.81104
914.3887, 65.76221
914.8708, 65.64502
915.3529, 61.72998
915.8350, 58.47949
916.3171, 57.23730
916.7993, 57.71094
917.2814, 60.20068
917.7635, 63.78662
918.2456, 62.04883
918.7277, 55.15967
919.2098, 48.47461
919.6920, 43.22559
920.1741, 41.08740
920.6562, 46.63672
921.1383, 56.77881
921.6204, 62.97363
922.1025, 60.34521
922.5847, 56.34668
923.0668, 51.37451
923.5489, 46.43555
924.0310, 44.68506
924.5131, 45.92627
924.9952, 41.81836
925.4774, 28.96875
925.9595, 16.60742
926.4416, 13.54297
926.9237, 16.82324
927.4058, 23.89502
927.8879, 38.55908
928.3701, 44.22559
928.8522, 32.49170
929.3343, 19.56445
929.8164, 18.20703
930.2985, 28.10938
930.7806, 32.80371
931.2628, 32.20410
931.7449, 29.15771
932.2270, 22.63623
932.7091, 16.89014
933.1912, 17.96191
933.6733, 24.93066
934.1555, 28.19189
934.6376, 22.64014
935.1197, 16.96338
935.6018, 12.83789
936.0839, 10.27588
936.5660, 9.135254
937.0482, 9.619629
937.5303, 13.49316
938.0124, 23.76904
938.4945, 32.86865
938.9766, 31.43018
939.4587, 24.21191
939.9409, 19.30273
940.4230, 21.54297
940.9051, 21.63525
941.3872, 17.43262
941.8693, 13.42725
942.3514, 15.99561
942.8336, 23.97900
943.3157, 25.90918
943.7978, 20.65967
944.2799, 14.87646
944.7620, 15.77539
945.2441, 17.28613
945.7263, 12.87402
946.2084, 1.737305
946.6905, 5.671875
947.1726, 8.441895
947.6547, 7.891602
948.1368, 3.912598
948.6190, 2.704590
949.1011, 11.66064
949.5832, 21.79590
950.0653, 25.94580
950.5474, 16.27734
951.0295, 4.531738
951.5117, 2.043945
951.9938, 4.803711
952.4759, 6.067383
952.9580, 5.641113
953.4401, 4.560547
953.9222, 2.135742
954.4044, 0.5209960
954.8865, 4.778320
955.3686, 12.28271
955.8507, 12.77979
956.3328, 4.549805
956.8149, 4.740234
957.2971, 13.06006
957.7792, 18.16113
958.2613, 16.45068
958.7434, 7.062500
959.2255, 6.058594
959.7076, 16.01172
960.1898, 23.33252
960.6719, 19.73779
961.1540, 10.71729
961.6361, 7.177734
962.1182, 9.185547
962.6003, 16.82568
963.0825, 39.03418
963.5646, 55.90771
964.0467, 54.36914
964.5288, 44.57178
965.0109, 44.14160
965.4930, 55.86035
965.9752, 64.81104
966.4573, 69.02490
966.9394, 71.33057
967.4215, 75.64648
967.9036, 80.25195
968.3857, 80.53662
968.8679, 74.82129
969.3500, 74.60400
969.8321, 86.55469
970.3142, 103.3599
970.7963, 122.7451
971.2784, 144.0410
971.7606, 161.6748
972.2427, 175.4839
972.7248, 184.9058
973.2069, 181.1753
973.6890, 179.8403
974.1711, 207.0659
974.6533, 250.8799
975.1354, 284.2349
975.6175, 285.5381
976.0996, 293.6357
976.5817, 317.2227
977.0638, 345.5034
977.5460, 363.6445
978.0281, 372.3823
978.5102, 377.9795
978.9923, 381.2261
979.4744, 381.5186
979.9565, 379.9761
980.4387, 374.0820
980.9208, 361.1299
981.4029, 340.2793
981.8850, 316.0117
982.3671, 287.6406
982.8492, 258.9268
983.3314, 232.0186
983.8135, 205.7749
984.2956, 174.3740
984.7777, 140.1294
985.2598, 112.1440
985.7419, 99.96973
986.2241, 89.29248
986.7062, 70.15918
987.1883, 49.40381
987.6704, 38.49414
988.1525, 40.47852
988.6346, 43.05322
989.1168, 46.18262
989.5989, 46.12646
990.0810, 34.64111
990.5631, 18.74561
991.0452, 10.96045
991.5273, 12.70703
992.0095, 15.71484
992.4916, 19.17676
992.9737, 20.30908
993.4558, 17.36328
993.9379, 11.09131
994.4200, 5.233887
994.9022, 0.2153320
995.3843, 3.841309
995.8664, 6.155273
996.3485, 4.693848
996.8306, 7.673828
997.3127, 24.32617
997.7949, 34.83789
998.2770, 29.82910
998.7591, 28.95117
999.2412, 35.23828
999.7233, 41.59277
1000.205, 38.34180
1000.688, 28.47559
1001.170, 29.47363
1001.652, 41.58496
1002.134, 53.78906
1002.616, 53.60059
1003.098, 55.57910
1003.580, 72.74512
1004.062, 101.9609
1004.544, 119.9688
1005.027, 125.4229
1005.509, 126.7129
1005.991, 124.5615
1006.473, 123.4492
1006.955, 135.5703
1007.437, 152.4609
1007.919, 157.3975
1008.401, 142.7783
1008.884, 124.0195
1009.366, 101.6445
1009.848, 80.78320
1010.330, 65.02637
1010.812, 54.73535
1011.294, 45.20410
1011.776, 36.49316
1012.258, 28.00488
1012.740, 16.72559
1013.223, 6.723633
1013.705, 4.806641
1014.187, 8.731445
1014.669, 8.979492
1015.151, 1.282227
1015.633, 6.835938
1016.115, 15.96582
1016.597, 22.45898
1017.080, 17.62402
1017.562, 5.391602
1018.044, 0.8574220
1018.526, 1.613281
1019.008, 5.933594
1019.490, 11.46680
1019.972, 14.51172
1020.454, 11.27734
1020.936, 2.295898
1021.419, 2.134766
1021.901, 1.654297
1022.383, 0.3808590
1022.865, 0.9794920
1023.347, 0.4238280
1023.829, 7.328125
1024.311, 18.68457
1024.793, 26.63965
1025.276, 25.24121
1025.758, 26.10938
1026.240, 30.51562
1026.722, 37.14746
1027.204, 46.17383
1027.686, 56.66113
1028.168, 59.79492
1028.650, 55.44629
1029.132, 54.89062
1029.615, 67.49414
1030.097, 84.60449
1030.579, 102.0811
1031.061, 118.8135
1031.543, 131.6797
1032.025, 139.1143
1032.507, 148.6650
1032.989, 163.1924
1033.471, 177.4482
1033.954, 181.6816
1034.436, 181.0156
1034.918, 185.0615
1035.400, 197.9395
1035.882, 208.1113
1036.364, 209.3213
1036.846, 211.8711
1037.328, 222.6777
1037.811, 240.6318
1038.293, 253.1064
1038.775, 260.7598
1039.257, 266.6133
1039.739, 272.7363
1040.221, 277.4912
1040.703, 278.6904
1041.185, 278.0635
1041.667, 279.0586
1042.150, 282.1670
1042.632, 285.0527
1043.114, 287.0400
1043.596, 290.2178
1044.078, 296.8730
1044.560, 306.0859
1045.042, 318.4912
1045.524, 333.3906
1046.006, 343.1934
1046.489, 343.9600
1046.971, 340.0146
1047.453, 330.7646
1047.935, 319.0732
1048.417, 314.4092
1048.899, 315.5547
1049.381, 311.8789
1049.863, 298.9580
1050.346, 285.9336
1050.828, 283.1250
1051.310, 281.7793
1051.792, 271.9453
1052.274, 251.5625
1052.756, 234.4883
1053.238, 221.3496
1053.720, 208.7148
1054.203, 193.5664
1054.685, 178.9141
1055.167, 170.6016
1055.649, 166.2031
1056.131, 159.2744
1056.613, 147.6396
1057.095, 132.3828
1057.577, 109.5342
1058.059, 88.64062
1058.542, 84.44434
1059.024, 93.44727
1059.506, 92.29883
1059.988, 79.37891
1060.470, 62.32617
1060.952, 39.57031
1061.434, 20.58301
1061.916, 13.50977
1062.398, 15.72754
1062.881, 16.85352
1063.363, 16.40430
1063.845, 17.33984
1064.327, 19.54297
1064.809, 25.70898
1065.291, 45.47363
1065.773, 68.35645
1066.255, 78.89453
1066.738, 70.67480
1067.220, 65.13477
1067.702, 65.28613
1068.184, 66.52441
1068.666, 66.06250
1069.148, 65.08496
1069.630, 70.17773
1070.112, 78.68848
1070.594, 80.76465
1071.077, 63.65039
1071.559, 50.87793
1072.041, 55.16602
1072.523, 66.15527
1073.005, 73.39844
1073.487, 76.11914
1073.969, 80.89746
1074.451, 88.06445
1074.933, 96.95703
1075.416, 109.4111
1075.898, 121.1006
1076.380, 126.6426
1076.862, 127.6133
1077.344, 131.8428
1077.826, 143.9561
1078.308, 148.4775
1078.790, 141.3311
1079.273, 130.5283
1079.755, 127.7891
1080.237, 128.9238
1080.719, 124.6973
1081.201, 113.1514
1081.683, 108.1230
1082.165, 121.9668
1082.647, 133.9102
1083.129, 135.8379
1083.612, 131.0107
1084.094, 131.6094
1084.576, 135.9648
1085.058, 134.6094
1085.540, 121.5605
1086.022, 109.3174
1086.504, 106.4863
1086.986, 107.1572
1087.469, 105.3428
1087.951, 100.3691
1088.433, 99.55664
1088.915, 103.2051
1089.397, 107.1768
1089.879, 109.8193
1090.361, 110.6934
1090.843, 106.0303
1091.325, 99.74609
1091.807, 100.9805
1092.290, 119.7061
1092.772, 127.9980
1093.254, 121.9150
1093.736, 112.1191
1094.218, 106.1562
1094.700, 105.3701
1095.182, 115.6074
1095.664, 135.5088
1096.147, 152.0986
1096.629, 159.1846
1097.111, 162.8311
1097.593, 162.3936
1098.075, 161.9053
1098.557, 169.6807
1099.039, 184.5166
1099.521, 201.7432
1100.004, 220.9521
1100.486, 235.4541
1100.968, 236.2773
1101.450, 234.2598
1101.932, 238.6787
1102.414, 247.5195
1102.896, 244.1484
1103.378, 228.0576
1103.860, 213.3340
1104.343, 206.7705
1104.825, 199.8740
1105.307, 179.9873
1105.789, 156.7939
1106.271, 143.0293
1106.753, 144.9541
1107.235, 140.3760
1107.717, 128.2012
1108.199, 113.4551
1108.682, 96.36719
1109.164, 80.67773
1109.646, 76.63281
1110.128, 78.89355
1110.610, 74.55273
1111.092, 51.87695
1111.574, 32.40918
1112.056, 17.83594
1112.539, 7.516602
1113.021, 1.382813
1113.503, 0.9667970
1113.985, 0.4169920
1114.467, 4.842773
1114.949, 7.086914
1115.431, 2.012695
1115.913, 2.608398
1116.396, 3.491211
1116.878, 2.277344
1117.360, 1.214844
1117.842, 0.2822270
1118.324, 1.191406
1118.806, 4.219727
1119.288, 3.541016
1119.770, 9.787109
1120.252, 23.39941
1120.734, 26.88184
1121.217, 22.18359
1121.699, 18.91602
1122.181, 16.86035
1122.663, 18.55664
1123.145, 25.00098
1123.627, 33.91992
1124.109, 42.64551
1124.591, 52.45020
1125.074, 67.01758
1125.556, 88.82422
1126.038, 95.64355
1126.520, 80.65039
1127.002, 72.92285
1127.484, 88.41406
1127.966, 113.1016
1128.448, 120.7207
1128.931, 119.8613
1129.413, 126.9297
1129.895, 152.9111
1130.377, 170.6494
1130.859, 174.3945
1131.341, 176.6299
1131.823, 185.4404
1132.305, 198.8652
1132.787, 210.7920
1133.270, 221.6113
1133.752, 233.1426
1134.234, 248.1270
1134.716, 261.1855
1135.198, 270.0078
1135.680, 277.7002
1136.162, 287.3086
1136.644, 298.5293
1137.126, 308.7607
1137.609, 318.1631
1138.091, 328.8447
1138.573, 348.2031
1139.055, 362.9600
1139.537, 362.6494
1140.019, 355.2266
1140.501, 351.6885
1140.983, 351.9697
1141.466, 355.0000
1141.948, 360.6025
1142.430, 365.9473
1142.912, 368.7314
1143.394, 369.4238
1143.876, 370.3799
1144.358, 370.4287
1144.840, 364.3447
1145.323, 351.3662
1145.805, 337.9639
1146.287, 325.2832
1146.769, 313.7549
1147.251, 303.5566
1147.733, 295.2695
1148.215, 290.5342
1148.697, 289.7002
1149.179, 286.3857
1149.661, 279.7432
1150.144, 273.5146
1150.626, 268.6865
1151.108, 265.0205
1151.590, 264.8643
1152.072, 264.3857
1152.554, 256.3027
1153.036, 235.9229
1153.518, 225.1836
1154.001, 228.5410
1154.483, 233.3008
1154.965, 235.4521
1155.447, 233.9219
1155.929, 226.1367
1156.411, 214.2383
1156.893, 202.9355
1157.375, 192.3994
1157.858, 185.8506
1158.340, 185.3008
1158.822, 185.4922
1159.304, 184.7363
1159.786, 181.7695
1160.268, 168.6367
1160.750, 149.0186
1161.232, 135.0020
1161.714, 139.3594
1162.197, 138.4785
1162.679, 125.1572
1163.161, 108.6035
1163.643, 93.92578
1164.125, 82.33203
1164.607, 84.74023
1165.089, 98.79492
1165.571, 110.1055
1166.053, 113.4961
1166.536, 109.6318
1167.018, 94.52539
1167.500, 76.10059
1167.982, 62.71875
1168.464, 54.03320
1168.946, 46.21875
1169.428, 39.24316
1169.910, 34.77246
1170.393, 36.68652
1170.875, 38.42383
1171.357, 36.23633
1171.839, 32.09961
1172.321, 29.05176
1172.803, 27.05566
1173.285, 23.64453
1173.767, 18.44238
1174.250, 15.07129
1174.732, 21.47070
1175.214, 25.41992
1175.696, 14.07910
1176.178, 4.938477
1176.660, 10.41211
1177.142, 2.057617
1177.624, 2.318359
1178.106, 1.000000
1178.589, 4.595703
1179.071, 0.2753910
1179.553, 4.839844
1180.035, 3.981445
1180.517, 1.099609
1180.999, 1.142578
1181.481, 2.708984
1181.963, 4.329102
1182.445, 2.339844
1182.928, 0.8154300
1183.410, 5.900391
1183.892, 11.31934
1184.374, 9.404297
1184.856, 0.5253910
1185.338, 1.846680
1185.820, 3.218750
1186.302, 6.107422
1186.785, 2.559570
1187.267, 0.5732420
1187.749, 5.167969
1188.231, 13.42090
1188.713, 17.20410
1189.195, 15.76855
1189.677, 14.39453
1190.159, 13.06836
1190.641, 10.44141
1191.124, 3.783203
1191.606, 2.2461001E-02
1192.088, 12.71094
1192.570, 29.38574
1193.052, 32.66016
1193.534, 17.23828
1194.016, 8.767578
1194.498, 8.236328
1194.980, 8.569336
1195.463, 6.204102
1195.945, 3.002930
1196.427, 1.596680
1196.909, 0.8164060
1197.391, 1.408203
1197.873, 6.101563
1198.355, 9.259766
1198.837, 10.87305
1199.320, 10.93848
1199.802, 10.84473
1200.284, 7.946289
1200.766, 4.040039
1201.248, 20.14258
1201.730, 31.48145
1202.212, 36.82422
1202.694, 35.98438
1203.177, 27.56641
1203.659, 19.35254
1204.141, 17.06836
1204.623, 17.86035
1205.105, 18.91016
1205.587, 20.32812
1206.069, 22.53613
1206.551, 27.13770
1207.033, 28.50391
1207.516, 26.03418
1207.998, 23.50195
1208.480, 25.19824
1208.962, 27.57617
1209.444, 24.91016
1209.926, 19.41406
1210.408, 17.97168
1210.890, 25.63281
1211.372, 22.61328
1211.854, 5.420898
1212.337, 10.33496
1212.819, 10.63379
1213.301, 2.815430
1213.783, 8.199219
1214.265, 20.03711
1214.747, 26.15918
1215.229, 25.47559
1215.711, 22.52637
1216.194, 17.61426
1216.676, 11.99023
1217.158, 5.443359
1217.640, 0.1406250
1218.122, 1.417969
1218.604, 0.5458980
1219.086, 4.635742
1219.568, 11.51172
1220.051, 17.31836
1220.533, 21.60352
1221.015, 24.29004
1221.497, 23.82520
1221.979, 22.62891
1222.461, 21.64160
1222.943, 21.90039
1223.425, 27.41211
1223.907, 39.43945
1224.390, 51.28320
1224.872, 62.63379
1225.354, 69.55566
1225.836, 63.20996
1226.318, 55.00391
1226.800, 58.34082
1227.282, 70.23438
1227.764, 73.09375
1228.246, 65.83203
1228.729, 53.97852
1229.211, 37.34668
1229.693, 25.50000
1230.175, 35.05859
1230.657, 46.96582
1231.139, 41.24414
1231.621, 22.47754
1232.103, 16.77930
1232.586, 26.23535
1233.068, 28.02441
1233.550, 17.70020
1234.032, 6.365234
1234.514, 2.619141
1234.996, 3.695313
1235.478, 7.901367
1235.960, 14.20605
1236.443, 21.93359
1236.925, 31.73535
1237.407, 27.31836
1237.889, 3.956055
1238.371, 15.58398
1238.853, 10.49805
1239.335, 3.223633
1239.817, 18.43750
1240.299, 31.98633
1240.781, 33.91406
1241.264, 24.98633
1241.746, 19.69824
1242.228, 21.16699
1242.710, 21.71191
1243.192, 14.60938
1243.674, 6.484375
1244.156, 0.7812500
1244.638, 5.479492
1245.121, 0.6591800
1245.603, 12.05273
1246.085, 18.97754
1246.567, 17.14160
1247.049, 13.95898
1247.531, 14.05664
1248.013, 12.98828
1248.495, 7.330078
1248.978, 0.5996090
1249.460, 5.634766
1249.942, 18.83203
1250.424, 24.25586
1250.906, 18.31836
1251.388, 15.96875
1251.870, 30.23438
1252.352, 40.39453
1252.834, 38.49023
1253.317, 32.13770
1253.799, 36.14844
1254.281, 45.46680
1254.763, 47.67090
1255.245, 40.17285
1255.727, 37.17773
1256.209, 48.52832
1256.691, 57.03809
1257.173, 58.06641
1257.656, 53.45898
1258.138, 42.43848
1258.620, 29.83887
1259.102, 23.66699
1259.584, 26.45117
1260.066, 34.01367
1260.548, 47.16895
1261.030, 53.73730
1261.513, 48.73926
1261.995, 38.36719
1262.477, 30.66211
1262.959, 27.69238
1263.441, 32.37891
1263.923, 45.19922
1264.405, 57.62695
1264.887, 71.64551
1265.370, 74.36328
1265.852, 59.38184
1266.334, 42.98926
1266.816, 49.39746
1267.298, 61.27051
1267.780, 57.42871
1268.262, 37.83496
1268.744, 30.14258
1269.226, 35.74316
1269.708, 39.06348
1270.191, 34.69629
1270.673, 31.66992
1271.155, 41.82324
1271.637, 53.25293
1272.119, 53.52832
1272.601, 47.16699
1273.083, 37.03223
1273.565, 21.25977
1274.048, 17.03418
1274.530, 29.41992
1275.012, 38.23828
1275.494, 22.65527
1275.976, 11.95996
1276.458, 21.17969
1276.940, 40.70312
1277.422, 44.56250
1277.905, 37.61816
1278.387, 35.59766
1278.869, 40.79297
1279.351, 45.93262
1279.833, 45.89648
1280.315, 46.08301
1280.797, 48.29004
1281.279, 51.61914
1281.761, 57.30176
1282.244, 62.26855
1282.726, 56.32812
1283.208, 38.37500
1283.690, 25.83594
1284.172, 23.74902
1284.654, 29.23340
1285.136, 45.67383
1285.618, 60.25391
1286.100, 49.64844
1286.583, 28.27637
1287.065, 17.48145
1287.547, 18.86328
1288.029, 24.21875
1288.511, 34.72461
1288.993, 41.03906
1289.475, 40.92871
1289.957, 38.30078
1290.440, 37.52734
1290.922, 36.48145
1291.404, 29.76758
1291.886, 20.40527
1292.368, 23.78516
1292.850, 41.86719
1293.332, 53.95020
1293.814, 56.97949
1294.297, 54.15625
1294.779, 41.01855
1295.261, 30.09668
1295.743, 34.23047
1296.225, 44.62695
1296.707, 44.99121
1297.189, 36.48242
1297.671, 29.60449
1298.153, 25.37109
1298.635, 22.88574
1299.118, 25.22949
1299.600, 23.67578
1300.082, 11.34082
1300.564, 1.641602
1301.046, 4.750977
1301.528, 23.24707
1302.010, 29.13184
1302.492, 22.78320
1302.975, 17.78125
1303.457, 24.11914
1303.939, 22.72559
1304.421, 8.623047
1304.903, 0.1054690
1305.385, 0.0000000E+00
##END=



