##NAMES=Poughite
##RRUFFID=R080026
##IDEAL CHEMISTRY=Fe^3+^_2_(Te^4+^O_3_)_2_SO_4_&#183;3H_2_O
##LOCALITY=Mina Candelaria, Moctezuma, Sonora, Mexico
##OWNER=RRUFF
##SOURCE=William W. Pinch
##DESCRIPTION=Bright-yellow to honey-yellow drusy crusts associated with green emmonsite
##STATUS=The identification of this mineral has been confirmed only by X-ray diffraction
##URL=rruff.info/R080026
136.0440, 0.0000000E+00
136.5262, 2.396240
137.0083, 6.204712
137.4904, 9.637573
137.9725, 12.77014
138.4546, 15.90869
138.9367, 19.11340
139.4189, 21.46741
139.9010, 21.27075
140.3831, 16.95862
140.8652, 13.24622
141.3473, 10.05176
141.8294, 7.642822
142.3116, 6.602051
142.7937, 7.257080
143.2758, 9.342773
143.7579, 11.27588
144.2400, 12.07117
144.7221, 13.73950
145.2043, 16.53674
145.6864, 19.66785
146.1685, 22.42676
146.6506, 24.35669
147.1327, 25.61670
147.6148, 27.66553
148.0970, 31.86169
148.5791, 35.43164
149.0612, 36.80786
149.5433, 36.88049
150.0254, 37.80750
150.5075, 41.17480
150.9896, 48.79700
151.4718, 58.59900
151.9539, 69.26526
152.4360, 77.97510
152.9181, 82.64355
153.4002, 84.63318
153.8823, 85.22473
154.3645, 84.74304
154.8466, 84.05090
155.3287, 83.41675
155.8108, 83.24377
156.2929, 82.95374
156.7750, 81.07568
157.2572, 76.87903
157.7393, 72.16174
158.2214, 67.55078
158.7035, 63.25647
159.1856, 59.83154
159.6677, 58.44934
160.1499, 58.88940
160.6320, 57.25549
161.1141, 52.79858
161.5962, 46.66968
162.0783, 38.18762
162.5604, 28.18042
163.0426, 18.78882
163.5247, 12.24597
164.0068, 9.258057
164.4889, 5.781738
164.9710, 1.277466
165.4531, 3.166748
165.9353, 7.332520
166.4174, 11.02612
166.8995, 13.97327
167.3816, 15.80420
167.8637, 16.28235
168.3458, 16.02393
168.8280, 14.30518
169.3101, 12.43884
169.7922, 11.68079
170.2743, 12.21472
170.7564, 12.90820
171.2385, 12.09021
171.7207, 9.269531
172.2028, 5.868530
172.6849, 2.087891
173.1670, 2.268066
173.6491, 7.897583
174.1312, 15.24792
174.6133, 22.70093
175.0955, 26.61682
175.5776, 26.23804
176.0597, 27.56213
176.5418, 32.74084
177.0239, 40.87915
177.5060, 50.43604
177.9882, 61.85083
178.4703, 73.16016
178.9524, 81.18811
179.4345, 85.50317
179.9166, 90.87976
180.3987, 100.7214
180.8809, 114.5870
181.3630, 128.4841
181.8451, 141.2559
182.3272, 153.7853
182.8093, 166.6667
183.2914, 179.9164
183.7736, 193.8094
184.2557, 209.1593
184.7378, 226.2839
185.2199, 242.0901
185.7020, 255.7448
186.1841, 267.7617
186.6663, 277.6980
187.1484, 285.5497
187.6305, 292.7812
188.1126, 301.3521
188.5947, 311.2446
189.0768, 322.4982
189.5590, 336.2535
190.0411, 350.4337
190.5232, 363.4805
191.0053, 374.9606
191.4874, 385.9504
191.9695, 398.6764
192.4517, 414.2827
192.9338, 429.7876
193.4159, 445.3868
193.8980, 461.1301
194.3801, 476.7749
194.8622, 492.3643
195.3443, 507.1750
195.8265, 519.5876
196.3086, 526.6794
196.7907, 534.6335
197.2728, 543.5525
197.7549, 553.3430
198.2370, 564.2141
198.7192, 576.2744
199.2013, 588.8540
199.6834, 599.8918
200.1655, 607.5671
200.6476, 616.4287
201.1297, 628.2029
201.6119, 641.4587
202.0940, 654.3389
202.5761, 666.4226
203.0582, 676.6670
203.5403, 682.1421
204.0224, 683.9656
204.5046, 680.9175
204.9867, 672.1715
205.4688, 658.2175
205.9509, 639.7196
206.4330, 616.0461
206.9151, 588.9653
207.3973, 561.7278
207.8794, 533.3970
208.3615, 507.4043
208.8436, 486.2388
209.3257, 469.4193
209.8078, 453.7721
210.2900, 437.3032
210.7721, 422.6934
211.2542, 412.8116
211.7363, 408.2107
212.2184, 406.6006
212.7005, 407.2628
213.1827, 410.2124
213.6648, 412.1899
214.1469, 411.2161
214.6290, 409.4805
215.1111, 408.6085
215.5932, 408.7976
216.0754, 410.0140
216.5575, 413.2915
217.0396, 419.3894
217.5217, 422.3855
218.0038, 419.2615
218.4859, 413.3259
218.9680, 405.8792
219.4502, 397.2511
219.9323, 387.9668
220.4144, 378.5320
220.8965, 368.8286
221.3786, 359.1636
221.8607, 350.0378
222.3429, 340.6824
222.8250, 330.6838
223.3071, 319.8164
223.7892, 308.0103
224.2713, 294.9076
224.7534, 279.6372
225.2356, 265.3854
225.7177, 252.9219
226.1998, 241.0504
226.6819, 229.0344
227.1640, 216.7582
227.6461, 204.5568
228.1283, 193.0480
228.6104, 182.1744
229.0925, 172.2504
229.5746, 162.9988
230.0567, 154.9445
230.5388, 148.2819
231.0210, 142.9646
231.5031, 139.0729
231.9852, 136.9404
232.4673, 138.2303
232.9494, 137.9506
233.4315, 133.8309
233.9137, 129.6967
234.3958, 128.8213
234.8779, 131.8110
235.3600, 136.4662
235.8421, 139.6360
236.3242, 139.8170
236.8064, 142.2061
237.2885, 147.9103
237.7706, 155.1102
238.2527, 162.5386
238.7348, 169.8918
239.2169, 177.0186
239.6991, 183.6014
240.1812, 189.4438
240.6633, 195.6614
241.1454, 202.6654
241.6275, 209.8713
242.1096, 217.0018
242.5918, 223.9563
243.0739, 230.3606
243.5560, 235.7271
244.0381, 240.0106
244.5202, 243.2837
245.0023, 245.1199
245.4845, 246.1747
245.9666, 247.6191
246.4487, 249.7062
246.9308, 250.4006
247.4129, 247.1188
247.8950, 240.1953
248.3772, 233.0211
248.8593, 225.1943
249.3414, 217.7817
249.8235, 212.6034
250.3056, 210.0541
250.7877, 207.3678
251.2699, 200.8356
251.7520, 192.0996
252.2341, 186.4802
252.7162, 187.1169
253.1983, 190.5001
253.6804, 191.9706
254.1626, 190.9727
254.6447, 190.6917
255.1268, 193.9542
255.6089, 199.4259
256.0910, 204.9623
256.5731, 209.7799
257.0552, 214.6071
257.5374, 220.3627
258.0195, 227.0668
258.5016, 234.5955
258.9837, 243.9297
259.4658, 253.8174
259.9479, 262.8000
260.4301, 270.4861
260.9122, 277.1279
261.3943, 283.0116
261.8764, 288.1410
262.3585, 292.5693
262.8406, 296.7416
263.3228, 299.9857
263.8049, 301.5187
264.2870, 301.1045
264.7691, 299.0194
265.2512, 295.9519
265.7333, 292.2327
266.2155, 285.8062
266.6976, 274.5110
267.1797, 260.9170
267.6618, 246.0154
268.1439, 229.9753
268.6260, 214.2860
269.1082, 200.9805
269.5903, 190.4215
270.0724, 180.1583
270.5545, 168.9720
271.0366, 158.4673
271.5187, 149.8832
272.0009, 143.4824
272.4830, 138.3707
272.9651, 133.6138
273.4472, 129.1384
273.9293, 125.2246
274.4114, 121.9419
274.8936, 119.0767
275.3757, 116.4888
275.8578, 114.1913
276.3399, 112.2572
276.8220, 110.9270
277.3041, 110.2073
277.7863, 109.3947
278.2684, 107.3484
278.7505, 106.1246
279.2326, 107.3199
279.7147, 110.2789
280.1968, 112.8547
280.6790, 113.1804
281.1611, 111.3401
281.6432, 109.1636
282.1253, 105.2448
282.6074, 102.0946
283.0895, 100.7603
283.5717, 100.6365
284.0538, 100.5389
284.5359, 99.58801
285.0180, 97.86072
285.5001, 96.40405
285.9822, 95.21558
286.4644, 94.39368
286.9465, 94.85767
287.4286, 95.70520
287.9107, 95.31433
288.3928, 92.58594
288.8749, 88.20117
289.3571, 85.20117
289.8392, 84.65442
290.3213, 84.21326
290.8034, 83.66260
291.2855, 82.94202
291.7676, 81.95068
292.2498, 80.64294
292.7319, 79.17017
293.2140, 77.92480
293.6961, 76.98926
294.1782, 76.16785
294.6603, 75.32959
295.1425, 74.65442
295.6246, 74.29395
296.1067, 74.29968
296.5888, 74.62512
297.0709, 75.19556
297.5530, 76.06567
298.0351, 77.11865
298.5172, 78.96228
298.9994, 80.54065
299.4815, 80.98767
299.9636, 80.24023
300.4457, 79.00439
300.9278, 78.15894
301.4099, 77.91211
301.8921, 77.37463
302.3742, 76.35071
302.8563, 75.23804
303.3384, 74.09961
303.8205, 73.02063
304.3026, 72.23279
304.7848, 72.05103
305.2669, 72.59082
305.7490, 72.34351
306.2311, 71.26318
306.7132, 69.50317
307.1953, 66.24805
307.6775, 62.31409
308.1596, 59.49890
308.6417, 59.21570
309.1238, 61.12158
309.6059, 61.59119
310.0880, 58.68359
310.5702, 56.40198
311.0523, 55.39111
311.5344, 55.46497
312.0165, 56.43359
312.4986, 58.23792
312.9807, 60.54810
313.4629, 62.34680
313.9450, 63.80115
314.4271, 64.39111
314.9092, 63.77173
315.3913, 62.45898
315.8734, 60.60364
316.3556, 58.33679
316.8377, 56.34851
317.3198, 56.02979
317.8019, 59.16040
318.2840, 60.71155
318.7661, 59.85791
319.2483, 58.22668
319.7304, 56.99695
320.2125, 56.31152
320.6946, 55.47021
321.1767, 53.57214
321.6588, 50.15649
322.1410, 47.41907
322.6231, 46.31177
323.1052, 44.89050
323.5873, 41.79346
324.0694, 37.44055
324.5515, 33.52673
325.0337, 31.62292
325.5158, 31.74512
325.9979, 29.75732
326.4800, 23.60559
326.9621, 17.53162
327.4442, 12.49084
327.9264, 8.281738
328.4085, 4.546509
328.8906, 1.113281
329.3727, 2.127563
329.8548, 5.634644
330.3369, 10.15454
330.8191, 13.91504
331.3012, 16.71362
331.7833, 18.71118
332.2654, 19.83594
332.7475, 20.10547
333.2296, 20.13306
333.7118, 21.20361
334.1939, 24.51880
334.6760, 26.53491
335.1581, 26.66235
335.6402, 26.06689
336.1223, 25.58850
336.6045, 25.31763
337.0866, 24.70300
337.5687, 22.81396
338.0508, 18.95117
338.5329, 17.25037
339.0150, 20.46436
339.4972, 23.16150
339.9793, 23.00549
340.4614, 20.43774
340.9435, 17.12488
341.4256, 14.27820
341.9077, 11.84314
342.3898, 9.178467
342.8719, 6.029785
343.3541, 2.885376
343.8362, 0.4703370
344.3183, 3.683960
344.8004, 6.045898
345.2825, 7.129028
345.7646, 7.778320
346.2468, 10.33276
346.7289, 16.10779
347.2110, 21.37292
347.6931, 25.27527
348.1752, 28.76392
348.6573, 32.46997
349.1395, 36.59521
349.6216, 41.14185
350.1037, 46.21289
350.5858, 51.90625
351.0679, 57.62903
351.5500, 63.90503
352.0322, 69.68469
352.5143, 73.89478
352.9964, 76.96716
353.4785, 80.54211
353.9606, 86.03552
354.4427, 93.37329
354.9249, 101.1289
355.4070, 110.0157
355.8891, 118.3842
356.3712, 125.2533
356.8533, 131.3750
357.3354, 137.8901
357.8176, 145.3090
358.2997, 153.6144
358.7818, 162.8645
359.2639, 173.6134
359.7460, 184.0908
360.2281, 192.9050
360.7103, 201.7349
361.1924, 212.4696
361.6745, 225.6130
362.1566, 239.1635
362.6387, 250.4187
363.1208, 259.1726
363.6030, 268.4755
364.0851, 279.0863
364.5672, 290.2150
365.0493, 301.5245
365.5314, 312.8993
366.0135, 324.0698
366.4957, 334.3834
366.9778, 344.1663
367.4599, 355.1160
367.9420, 367.5739
368.4241, 380.6326
368.9063, 393.9237
369.3884, 407.3629
369.8705, 420.9332
370.3526, 434.6998
370.8347, 448.4485
371.3168, 462.2537
371.7990, 476.2687
372.2811, 489.0575
372.7632, 498.8873
373.2453, 507.7855
373.7274, 518.3981
374.2095, 531.4741
374.6917, 544.1915
375.1738, 554.8242
375.6559, 563.4066
376.1380, 570.1221
376.6201, 574.8204
377.1022, 577.9403
377.5844, 580.2726
378.0665, 581.8104
378.5486, 581.4219
379.0307, 579.4490
379.5128, 575.0046
379.9949, 565.9369
380.4771, 551.6741
380.9592, 536.4358
381.4413, 523.3284
381.9234, 511.6395
382.4055, 498.9044
382.8876, 485.4832
383.3698, 470.3368
383.8519, 451.9460
384.3340, 431.0262
384.8161, 409.9495
385.2982, 389.7112
385.7803, 370.1261
386.2624, 351.2749
386.7445, 332.9429
387.2267, 315.1285
387.7088, 297.6003
388.1909, 280.5085
388.6730, 264.2737
389.1551, 248.9637
389.6372, 234.5479
390.1194, 221.0541
390.6015, 208.7368
391.0836, 196.6266
391.5657, 183.0629
392.0478, 170.9091
392.5299, 163.0419
393.0121, 158.6293
393.4942, 154.2428
393.9763, 147.5935
394.4584, 139.2604
394.9405, 132.3789
395.4226, 128.0382
395.9048, 124.0238
396.3869, 119.8536
396.8690, 115.3690
397.3511, 110.4015
397.8332, 105.1700
398.3153, 100.7620
398.7975, 98.88037
399.2796, 100.9757
399.7617, 101.7266
400.2438, 99.93176
400.7259, 98.12646
401.2080, 97.71460
401.6902, 98.63318
402.1723, 100.0038
402.6544, 101.0337
403.1365, 101.7607
403.6186, 103.0491
404.1007, 104.9155
404.5829, 107.4194
405.0650, 111.1813
405.5471, 115.3328
406.0292, 118.8412
406.5113, 121.3053
406.9934, 123.1615
407.4756, 124.8463
407.9577, 125.6406
408.4398, 128.5057
408.9219, 135.9883
409.4040, 143.7708
409.8861, 149.6252
410.3683, 153.5148
410.8504, 156.5461
411.3325, 159.2721
411.8146, 161.8151
412.2967, 165.1124
412.7788, 169.5247
413.2610, 174.1167
413.7431, 179.2045
414.2252, 184.0198
414.7073, 187.3090
415.1894, 188.3422
415.6715, 188.5010
416.1537, 189.7216
416.6358, 192.0806
417.1179, 193.9531
417.6000, 194.7520
418.0821, 194.9531
418.5642, 195.2957
419.0464, 195.7799
419.5285, 195.3936
420.0106, 193.1671
420.4927, 189.7499
420.9748, 186.5520
421.4569, 183.7203
421.9391, 181.0493
422.4212, 179.1927
422.9033, 177.3646
423.3854, 172.9984
423.8675, 163.3953
424.3496, 153.5066
424.8318, 147.0681
425.3139, 143.2888
425.7960, 139.2823
426.2781, 133.7332
426.7602, 127.7098
427.2423, 123.5140
427.7245, 121.6774
428.2066, 119.4377
428.6887, 115.1750
429.1708, 110.9580
429.6529, 109.2015
430.1350, 110.0469
430.6172, 111.5526
431.0992, 112.0334
431.5814, 111.4753
432.0635, 111.4479
432.5456, 112.7792
433.0277, 113.6139
433.5098, 112.9968
433.9919, 111.5759
434.4741, 110.2284
434.9562, 109.3168
435.4383, 109.0316
435.9204, 109.9127
436.4025, 113.5645
436.8846, 115.2734
437.3668, 113.3676
437.8489, 111.1993
438.3310, 110.9122
438.8131, 112.3856
439.2952, 114.2219
439.7773, 115.3081
440.2595, 115.7108
440.7416, 116.1136
441.2237, 116.6799
441.7058, 116.9811
442.1879, 116.0060
442.6700, 115.1348
443.1522, 116.3020
443.6343, 120.2028
444.1164, 124.7026
444.5985, 126.7743
445.0806, 126.1278
445.5627, 126.0427
446.0449, 127.4963
446.5270, 129.1700
447.0091, 130.5206
447.4912, 131.3872
447.9733, 131.3452
448.4554, 129.8809
448.9376, 127.5198
449.4197, 125.1471
449.9018, 122.7817
450.3839, 120.3456
450.8660, 117.7701
451.3481, 115.0438
451.8303, 112.5068
452.3124, 110.7582
452.7945, 107.3499
453.2766, 99.61609
453.7587, 89.64233
454.2408, 81.62207
454.7230, 76.47498
455.2051, 71.90576
455.6872, 65.37012
456.1693, 56.73547
456.6514, 50.00867
457.1335, 45.45166
457.6157, 42.56250
458.0978, 41.89270
458.5799, 42.68799
459.0620, 43.29553
459.5441, 42.98169
460.0262, 41.84692
460.5084, 40.11011
460.9905, 36.67969
461.4726, 34.56946
461.9547, 34.44775
462.4368, 35.00146
462.9189, 35.09973
463.4011, 34.68457
463.8832, 34.69666
464.3653, 36.24976
464.8474, 39.28931
465.3295, 40.86975
465.8116, 38.98022
466.2938, 37.86389
466.7759, 39.09351
467.2580, 41.21545
467.7401, 42.39539
468.2222, 42.07031
468.7043, 41.61719
469.1865, 43.38477
469.6686, 47.69287
470.1507, 50.14294
470.6328, 49.38794
471.1149, 47.88037
471.5970, 46.08984
472.0792, 44.52466
472.5613, 44.56030
473.0434, 47.55188
473.5255, 51.98267
474.0076, 55.57117
474.4897, 58.20630
474.9719, 60.24976
475.4540, 61.56824
475.9361, 62.66711
476.4182, 64.47424
476.9003, 67.16748
477.3824, 69.22754
477.8645, 69.56555
478.3466, 69.13843
478.8288, 69.19397
479.3109, 69.89490
479.7930, 71.13452
480.2751, 73.00793
480.7572, 75.33020
481.2393, 76.80750
481.7215, 77.38306
482.2036, 77.29272
482.6857, 76.23889
483.1678, 74.82434
483.6499, 73.90027
484.1320, 73.67200
484.6142, 73.50342
485.0963, 72.57861
485.5784, 70.76599
486.0605, 68.69629
486.5426, 66.80469
487.0247, 64.22559
487.5069, 60.23926
487.9890, 55.41113
488.4711, 50.69177
488.9532, 46.57031
489.4353, 42.85425
489.9174, 39.16663
490.3996, 35.29944
490.8817, 32.44031
491.3638, 32.25403
491.8459, 32.02332
492.3280, 30.32471
492.8102, 27.19727
493.2923, 23.34412
493.7744, 18.24890
494.2565, 12.99060
494.7386, 10.45618
495.2207, 11.20789
495.7029, 11.65320
496.1850, 9.926392
496.6671, 7.068481
497.1492, 4.574707
497.6313, 2.380493
498.1134, 1.028931
498.5956, 1.395020
499.0777, 2.549316
499.5598, 3.094849
500.0419, 2.823608
500.5240, 1.880615
501.0061, 0.1131590
501.4883, 2.325195
501.9704, 3.439453
502.4525, 1.871948
502.9346, 0.7222900
503.4167, 1.351563
503.8988, 2.784302
504.3810, 3.667236
504.8631, 3.609253
505.3452, 3.171509
505.8273, 3.065918
506.3094, 3.315674
506.7915, 3.722412
507.2737, 4.633057
507.7558, 5.336792
508.2379, 5.565552
508.7200, 5.438965
509.2021, 5.092285
509.6842, 4.560913
510.1664, 4.079712
510.6485, 4.288208
511.1306, 5.412842
511.6127, 5.579224
512.0948, 3.621948
512.5769, 1.540527
513.0590, 0.6782230
513.5411, 0.8236080
514.0233, 1.125610
514.5054, 1.326416
514.9875, 1.385864
515.4696, 1.276367
515.9517, 0.9836430
516.4338, 0.1380620
516.9160, 1.901367
517.3981, 3.932373
517.8802, 3.567627
518.3623, 0.4693600
518.8444, 2.166016
519.3265, 3.968994
519.8087, 4.783325
520.2908, 3.707642
520.7729, 1.218140
521.2550, 0.3353270
521.7371, 0.7225340
522.2192, 3.622681
522.7014, 5.271729
523.1835, 4.525146
523.6656, 3.943359
524.1477, 3.901978
524.6298, 3.850708
525.1119, 3.294922
525.5941, 2.260986
526.0762, 1.127563
526.5583, 0.1160890
527.0404, 0.7116700
527.5225, 0.7515870
528.0046, 0.7645260
528.4868, 1.567749
528.9689, 0.2366940
529.4510, 2.334961
529.9331, 2.202515
530.4152, 0.5677490
530.8973, 3.359375
531.3795, 3.914734
531.8616, 2.911438
532.3437, 2.336792
532.8258, 2.396790
533.3079, 2.629272
533.7900, 2.874207
534.2722, 3.047180
534.7543, 2.893066
535.2364, 2.128296
535.7185, 1.523315
536.2006, 1.520813
536.6827, 1.828796
537.1649, 2.247375
537.6470, 2.676025
538.1291, 2.422485
538.6112, 0.5767210
539.0933, 2.901794
539.5754, 4.584717
540.0576, 3.141846
540.5397, 1.614258
541.0218, 0.2833250
541.5039, 0.6364140
541.9860, 0.8076170
542.4681, 0.2114260
542.9503, 0.6756590
543.4324, 1.340027
543.9145, 1.777832
544.3966, 2.125488
544.8787, 2.610535
545.3608, 2.630432
545.8430, 1.119690
546.3251, 0.6809080
546.8072, 0.8348390
547.2893, 1.458313
547.7714, 4.084351
548.2535, 5.213440
548.7357, 5.178406
549.2178, 5.114075
549.6999, 5.230652
550.1820, 5.204712
550.6641, 4.374817
551.1462, 3.038818
551.6284, 3.278381
552.1105, 6.836304
552.5926, 10.02667
553.0747, 11.21747
553.5568, 11.16907
554.0389, 10.89148
554.5211, 10.68256
555.0032, 10.52478
555.4853, 10.37585
555.9674, 10.21539
556.4495, 10.29816
556.9316, 11.00037
557.4138, 11.51440
557.8959, 11.40997
558.3780, 11.12811
558.8601, 11.18054
559.3422, 11.69013
559.8243, 12.49146
560.3065, 13.93652
560.7886, 15.87518
561.2707, 15.86389
561.7528, 12.71259
562.2349, 9.728271
562.7170, 9.351196
563.1992, 10.42322
563.6813, 11.20367
564.1634, 11.27075
564.6455, 11.31506
565.1276, 11.87048
565.6097, 12.65729
566.0919, 13.16827
566.5740, 13.32123
567.0561, 13.20612
567.5382, 12.79736
568.0203, 12.12445
568.5024, 11.93726
568.9846, 12.87567
569.4667, 13.33423
569.9488, 12.38995
570.4309, 11.26978
570.9130, 11.50781
571.3951, 13.21173
571.8773, 15.05481
572.3594, 15.84662
572.8415, 15.59888
573.3236, 14.19550
573.8057, 10.29364
574.2878, 7.756897
574.7700, 9.073120
575.2521, 11.52679
575.7342, 12.41711
576.2163, 11.27228
576.6984, 9.646851
577.1805, 8.862122
577.6627, 8.504272
578.1448, 7.402344
578.6269, 5.497498
579.1090, 4.387512
579.5911, 5.218140
580.0732, 7.048950
580.5554, 7.436218
581.0375, 5.898010
581.5196, 4.607666
582.0017, 3.662354
582.4838, 3.291931
582.9659, 4.283813
583.4481, 6.273071
583.9302, 7.637268
584.4123, 7.160217
584.8944, 5.399048
585.3765, 4.433899
585.8586, 4.602356
586.3408, 4.626953
586.8229, 3.978149
587.3050, 3.749146
587.7871, 4.900391
588.2692, 6.948059
588.7513, 8.452148
589.2334, 8.885254
589.7155, 8.439819
590.1976, 6.791443
590.6797, 3.937683
591.1619, 1.863586
591.6440, 1.354126
592.1261, 1.657288
592.6082, 2.042114
593.0903, 2.562256
593.5724, 2.683838
594.0546, 1.940552
594.5367, 1.057434
595.0188, 0.4017940
595.5009, 4.2114001E-02
595.9830, 0.3471680
596.4651, 0.4600830
596.9473, 0.1478270
597.4294, 0.8770140
597.9115, 2.900085
598.3936, 3.590698
598.8757, 1.023010
599.3578, 0.8461300
599.8400, 2.6550001E-02
600.3221, 2.095764
600.8042, 2.981689
601.2863, 1.853027
601.7684, 0.3613280
602.2505, 0.4387820
602.7327, 1.675049
603.2148, 1.987671
603.6969, 0.8363040
604.1790, 0.2581180
604.6611, 0.1808470
605.1432, 1.012207
605.6254, 2.497437
606.1075, 4.453796
606.5896, 6.112549
607.0717, 6.824890
607.5538, 7.375061
608.0359, 8.814148
608.5181, 11.04285
609.0002, 13.05414
609.4823, 14.20709
609.9644, 14.66461
610.4465, 14.57233
610.9286, 13.11304
611.4108, 12.61163
611.8929, 13.83142
612.3750, 15.58093
612.8571, 17.28186
613.3392, 18.84833
613.8214, 20.30530
614.3035, 21.62628
614.7856, 22.89404
615.2677, 24.28766
615.7498, 25.77844
616.2319, 26.98254
616.7141, 27.69409
617.1962, 28.31372
617.6783, 29.26508
618.1604, 30.55988
618.6425, 32.07074
619.1246, 34.06097
619.6068, 35.94653
620.0889, 37.76495
620.5710, 39.22089
621.0531, 39.65784
621.5352, 38.98657
622.0173, 38.11725
622.4995, 38.18927
622.9816, 39.20593
623.4637, 39.65320
623.9458, 39.58820
624.4279, 38.81464
624.9100, 36.96075
625.3922, 34.62732
625.8743, 32.23566
626.3564, 29.85382
626.8385, 27.84344
627.3206, 26.28369
627.8027, 25.27411
628.2849, 25.22900
628.7670, 26.08655
629.2491, 26.73090
629.7312, 26.51434
630.2133, 26.01166
630.6954, 26.34442
631.1776, 27.85077
631.6597, 29.35168
632.1418, 30.46240
632.6239, 31.96729
633.1060, 34.59338
633.5881, 37.83789
634.0703, 40.63263
634.5524, 42.53522
635.0345, 44.45490
635.5166, 47.90363
635.9987, 52.93774
636.4808, 57.51263
636.9630, 61.33606
637.4451, 65.12561
637.9272, 69.30145
638.4093, 73.71429
638.8914, 78.04883
639.3735, 82.12610
639.8557, 86.73132
640.3378, 92.64319
640.8199, 99.13745
641.3020, 105.1573
641.7841, 110.7116
642.2662, 116.6053
642.7484, 123.3902
643.2305, 130.6706
643.7126, 137.2282
644.1947, 142.0107
644.6768, 148.0807
645.1589, 156.5227
645.6411, 165.0751
646.1232, 172.0638
646.6053, 178.3235
647.0874, 185.9163
647.5695, 195.9391
648.0516, 206.6844
648.5338, 216.0488
649.0159, 224.2938
649.4980, 232.9770
649.9801, 242.5479
650.4622, 251.9235
650.9443, 260.1769
651.4265, 267.5991
651.9086, 275.7284
652.3907, 284.8046
652.8728, 294.1488
653.3549, 304.0820
653.8370, 313.9319
654.3192, 323.1146
654.8013, 331.6354
655.2834, 339.6866
655.7655, 347.3809
656.2476, 354.7722
656.7297, 362.0884
657.2119, 369.4727
657.6940, 375.9978
658.1761, 380.4746
658.6582, 385.2872
659.1403, 392.3652
659.6224, 400.8867
660.1046, 408.8785
660.5867, 415.9886
661.0688, 422.0881
661.5509, 426.7883
662.0330, 430.4782
662.5151, 433.2505
662.9973, 435.3115
663.4794, 438.5636
663.9615, 444.9117
664.4436, 453.2828
664.9257, 458.2409
665.4078, 457.1140
665.8900, 456.8091
666.3721, 458.5784
666.8542, 460.5300
667.3363, 461.7101
667.8184, 462.0529
668.3005, 461.8275
668.7827, 461.3478
669.2648, 459.9547
669.7469, 456.6583
670.2290, 451.6558
670.7111, 446.0822
671.1932, 440.0791
671.6754, 433.4844
672.1575, 426.1445
672.6396, 418.1702
673.1217, 409.8540
673.6038, 401.3752
674.0859, 392.2546
674.5681, 382.7448
675.0502, 372.2019
675.5323, 359.1744
676.0144, 344.4439
676.4965, 331.0689
676.9786, 321.2374
677.4608, 312.9031
677.9428, 301.1892
678.4249, 285.7981
678.9070, 272.8575
679.3892, 263.9391
679.8713, 255.9908
680.3534, 246.5689
680.8355, 236.3814
681.3176, 227.1812
681.7997, 219.3975
682.2819, 212.1851
682.7640, 205.6664
683.2461, 199.1540
683.7282, 191.4148
684.2103, 182.7060
684.6924, 174.8064
685.1746, 168.9309
685.6567, 164.5312
686.1388, 160.3353
686.6209, 156.4618
687.1030, 152.1714
687.5851, 147.3035
688.0673, 142.1566
688.5494, 136.4370
689.0315, 130.6647
689.5136, 126.1485
689.9957, 123.9371
690.4778, 121.0627
690.9600, 114.3115
691.4421, 106.2932
691.9242, 101.3024
692.4063, 99.53009
692.8884, 98.32324
693.3705, 96.04559
693.8527, 93.08795
694.3348, 90.61664
694.8169, 89.18970
695.2990, 86.96649
695.7811, 83.07318
696.2632, 79.22034
696.7454, 76.18835
697.2275, 73.66406
697.7096, 70.99176
698.1917, 67.87274
698.6738, 65.16260
699.1559, 63.92157
699.6381, 63.48047
700.1202, 62.42975
700.6023, 60.67749
701.0844, 58.89478
701.5665, 57.46399
702.0486, 56.18634
702.5308, 54.57428
703.0129, 52.14197
703.4950, 50.60291
703.9771, 50.32404
704.4592, 50.41803
704.9413, 51.26544
705.4235, 51.96332
705.9056, 50.94000
706.3877, 47.78339
706.8698, 44.58582
707.3519, 43.23657
707.8340, 43.24487
708.3162, 43.60565
708.7983, 44.27924
709.2804, 44.38141
709.7625, 43.44348
710.2446, 41.91547
710.7267, 40.49377
711.2089, 39.26617
711.6910, 37.77936
712.1731, 35.62390
712.6552, 33.70038
713.1373, 32.44318
713.6194, 31.53851
714.1016, 30.56445
714.5837, 29.43811
715.0658, 28.37286
715.5479, 27.79517
716.0300, 27.31659
716.5121, 25.78516
716.9943, 23.17822
717.4764, 20.71252
717.9585, 18.73328
718.4406, 17.08972
718.9227, 15.62244
719.4048, 14.33173
719.8870, 13.34412
720.3691, 13.38965
720.8512, 12.82141
721.3333, 10.59479
721.8154, 7.917847
722.2975, 5.969604
722.7797, 4.864197
723.2618, 4.089355
723.7439, 3.357910
724.2260, 2.643494
724.7081, 1.708252
725.1902, 0.5805050
725.6724, 0.3579100
726.1545, 1.612305
726.6366, 2.756897
727.1187, 2.267334
727.6008, 0.5018920
728.0829, 0.4078370
728.5651, 0.6907350
729.0472, 0.8759160
729.5293, 1.189819
730.0114, 3.646118
730.4935, 5.227600
730.9756, 5.909973
731.4578, 6.060852
731.9399, 5.846191
732.4220, 5.346313
732.9041, 4.552246
733.3862, 3.516296
733.8683, 2.553162
734.3505, 1.498535
734.8326, 1.543335
735.3147, 4.188171
735.7968, 7.808350
736.2789, 8.413879
736.7610, 4.903076
737.2432, 2.342712
737.7253, 1.633545
738.2074, 1.511780
738.6895, 1.590149
739.1716, 1.676575
739.6537, 1.591492
740.1359, 1.273560
740.6180, 0.7269900
741.1001, 0.3312990
741.5822, 1.606018
742.0643, 1.815552
742.5464, 0.8716430
743.0286, 9.0636998E-02
743.5107, 0.1869510
743.9928, 0.1079710
744.4749, 1.310120
744.9570, 3.541077
745.4391, 4.781860
745.9213, 3.985718
746.4034, 3.535217
746.8855, 4.223694
747.3676, 5.489258
747.8497, 6.923157
748.3318, 8.370422
748.8140, 9.628540
749.2961, 10.52814
749.7782, 11.25336
750.2603, 12.14966
750.7424, 13.17889
751.2245, 14.05951
751.7067, 14.75263
752.1888, 15.21393
752.6709, 15.32574
753.1530, 15.21545
753.6351, 15.39496
754.1172, 15.81122
754.5994, 16.63269
755.0815, 18.57422
755.5636, 20.23761
756.0457, 20.27380
756.5278, 19.58661
757.0099, 20.05951
757.4921, 22.36707
757.9742, 24.96307
758.4563, 26.16949
758.9384, 26.62799
759.4205, 28.19446
759.9026, 30.85162
760.3848, 32.67828
760.8669, 32.67267
761.3490, 32.09082
761.8311, 32.80548
762.3132, 34.96375
762.7953, 37.34528
763.2775, 40.62451
763.7596, 43.27148
764.2417, 44.21765
764.7238, 44.91760
765.2059, 46.95270
765.6880, 50.20386
766.1702, 53.10785
766.6523, 54.50659
767.1344, 55.61017
767.6165, 57.89923
768.0986, 60.91211
768.5807, 63.24164
769.0628, 64.67645
769.5449, 66.50995
770.0270, 69.80078
770.5092, 74.12317
770.9913, 78.03247
771.4734, 81.48743
771.9555, 84.62073
772.4376, 87.15112
772.9197, 89.65009
773.4019, 92.08881
773.8840, 94.76465
774.3661, 98.43488
774.8482, 103.5297
775.3303, 107.7831
775.8124, 108.8996
776.2946, 109.4917
776.7767, 112.6112
777.2588, 117.5737
777.7409, 122.1087
778.2230, 125.3940
778.7051, 128.0978
779.1873, 131.0452
779.6694, 134.1697
780.1515, 136.7521
780.6336, 138.6111
781.1157, 140.5219
781.5978, 142.8076
782.0800, 145.1348
782.5621, 147.3857
783.0442, 149.4368
783.5263, 150.6671
784.0084, 149.8289
784.4905, 149.6545
784.9727, 152.4321
785.4548, 155.4092
785.9369, 155.2961
786.4190, 152.6832
786.9011, 150.3608
787.3832, 149.8056
787.8654, 149.9706
788.3475, 149.4819
788.8296, 148.6087
789.3117, 148.6125
789.7938, 149.7717
790.2759, 150.7216
790.7581, 150.9244
791.2402, 150.4136
791.7223, 149.0249
792.2044, 146.3968
792.6865, 144.5386
793.1686, 143.4553
793.6508, 142.7092
794.1329, 142.8931
794.6150, 143.5097
795.0971, 143.5328
795.5792, 142.8805
796.0613, 142.6378
796.5435, 144.2835
797.0256, 145.6638
797.5077, 143.6582
797.9898, 139.2612
798.4719, 135.2470
798.9540, 132.1994
799.4362, 129.6687
799.9183, 127.3398
800.4004, 125.0930
800.8825, 122.6715
801.3646, 120.1219
801.8467, 117.1077
802.3289, 113.3931
802.8110, 109.6081
803.2931, 106.1863
803.7752, 102.7258
804.2573, 98.50775
804.7394, 93.40338
805.2216, 88.77344
805.7037, 85.53162
806.1858, 82.53278
806.6679, 78.76923
807.1500, 74.69409
807.6321, 71.21887
808.1143, 68.47150
808.5964, 65.83191
809.0785, 62.68927
809.5606, 59.39917
810.0427, 57.10333
810.5248, 55.85699
811.0070, 53.75726
811.4891, 50.18964
811.9712, 46.61664
812.4533, 43.86957
812.9354, 41.90015
813.4175, 40.77454
813.8997, 41.43073
814.3818, 40.69635
814.8639, 37.00610
815.3460, 33.37012
815.8281, 31.02142
816.3102, 29.75281
816.7924, 29.60742
817.2745, 30.39679
817.7566, 30.47809
818.2387, 27.98883
818.7208, 24.68494
819.2029, 23.23901
819.6851, 23.15527
820.1672, 22.74603
820.6493, 21.61499
821.1314, 20.37408
821.6135, 19.56512
822.0956, 19.02313
822.5778, 18.02283
823.0599, 16.29828
823.5420, 14.99963
824.0241, 14.44824
824.5062, 14.04297
824.9883, 13.65137
825.4705, 13.11621
825.9526, 11.96802
826.4347, 9.921448
826.9168, 8.811707
827.3989, 10.31281
827.8810, 11.72833
828.3632, 10.85175
828.8453, 8.926697
829.3274, 8.088928
829.8095, 8.657471
830.2916, 9.237915
830.7737, 8.672424
831.2559, 7.515076
831.7380, 6.795959
832.2201, 6.504883
832.7022, 6.750549
833.1843, 7.638367
833.6664, 8.098511
834.1486, 7.305054
834.6307, 5.710022
835.1128, 4.530518
835.5949, 3.837463
836.0770, 3.360168
836.5591, 3.172729
837.0413, 3.116821
837.5234, 3.508057
838.0055, 3.784485
838.4876, 3.068726
838.9697, 1.377563
839.4518, 0.1679690
839.9340, 0.2640990
840.4161, 0.8118290
840.8982, 1.591248
841.3803, 2.229309
841.8624, 1.970337
842.3445, 0.9302370
842.8267, 0.1211550
843.3088, 0.2061770
843.7909, 0.6154790
844.2730, 4.9805000E-02
844.7551, 1.615112
845.2372, 1.126404
845.7194, 2.014099
846.2015, 4.513123
846.6836, 4.764526
847.1657, 3.695251
847.6478, 2.489563
848.1299, 1.011353
848.6121, 0.5648800
849.0942, 2.216980
849.5763, 3.464661
850.0584, 3.906494
850.5405, 3.712341
851.0226, 2.700195
851.5048, 1.188110
851.9869, 2.0140000E-03
852.4690, 0.6674190
852.9511, 0.7387700
853.4332, 0.3288570
853.9153, 1.716003
854.3975, 2.586060
854.8796, 2.817871
855.3617, 2.197876
855.8438, 0.6807860
856.3259, 0.9699100
856.8080, 1.832153
857.2901, 2.029297
857.7722, 2.344788
858.2543, 2.837402
858.7365, 2.618774
859.2186, 1.243103
859.7007, 0.2919310
860.1828, 1.124817
860.6649, 1.374817
861.1470, 1.676758
861.6292, 2.373657
862.1113, 2.554871
862.5934, 1.667969
863.0755, 0.8664550
863.5576, 0.7415160
864.0397, 1.024902
864.5219, 1.321838
865.0040, 1.558838
865.4861, 1.811157
865.9682, 2.437805
866.4503, 2.782654
866.9324, 1.729004
867.4146, 0.2622680
867.8967, 0.3361820
868.3788, 1.970642
868.8609, 3.245483
869.3430, 2.747314
869.8251, 1.579285
870.3073, 2.017151
870.7894, 3.810486
871.2715, 4.277222
871.7536, 3.075928
872.2357, 2.122437
872.7178, 2.427368
873.2000, 3.046997
873.6821, 2.416992
874.1642, 0.3468630
874.6463, 0.1075440
875.1284, 2.774414
875.6105, 4.654114
876.0927, 4.236328
876.5748, 3.251282
877.0569, 2.596802
877.5390, 2.365967
878.0211, 2.684692
878.5032, 3.905334
878.9854, 4.759766
879.4675, 4.457458
879.9496, 3.805786
880.4317, 3.586792
880.9138, 3.633789
881.3959, 3.272095
881.8781, 2.370178
882.3602, 1.831177
882.8423, 2.569458
883.3244, 3.854553
883.8065, 4.008728
884.2886, 3.336487
884.7708, 3.255920
885.2529, 3.997986
885.7350, 5.138855
886.2171, 6.550659
886.6992, 7.728699
887.1813, 7.429810
887.6635, 5.276123
888.1456, 4.001038
888.6277, 4.042358
889.1098, 4.152466
889.5919, 3.747498
890.0740, 3.410522
890.5562, 3.978027
891.0383, 5.273560
891.5204, 6.023804
892.0025, 5.988831
892.4846, 5.711975
892.9667, 5.024170
893.4489, 4.376953
893.9310, 3.896667
894.4131, 3.765137
894.8952, 4.438904
895.3773, 6.033508
895.8594, 7.422180
896.3416, 7.948059
896.8237, 7.716980
897.3058, 6.125000
897.7879, 4.042847
898.2700, 3.858459
898.7521, 5.717285
899.2343, 7.152710
899.7164, 6.357056
900.1985, 4.468079
900.6806, 3.901184
901.1627, 4.594055
901.6448, 4.829346
902.1270, 4.392456
902.6091, 4.095642
903.0912, 4.528320
903.5733, 5.278503
904.0554, 5.670349
904.5375, 5.703613
905.0197, 5.425842
905.5018, 4.602295
905.9839, 3.865173
906.4660, 2.846741
906.9481, 2.410095
907.4302, 3.739929
907.9124, 5.771973
908.3945, 6.194702
908.8766, 4.309204
909.3587, 2.941528
909.8408, 3.369629
910.3229, 4.019409
910.8051, 4.026794
911.2872, 3.770020
911.7693, 3.583008
912.2514, 3.554504
912.7335, 3.771057
913.2156, 4.372192
913.6978, 4.940735
914.1799, 4.776306
914.6620, 4.287964
915.1441, 4.443909
915.6262, 5.118164
916.1083, 5.375916
916.5905, 4.902588
917.0726, 4.320984
917.5547, 4.288208
918.0368, 4.605774
918.5189, 4.563904
919.0010, 4.109863
919.4832, 4.273010
919.9653, 5.515869
920.4474, 6.246643
920.9295, 5.168457
921.4116, 3.125610
921.8937, 2.063477
922.3759, 2.164734
922.8580, 2.569397
923.3401, 3.769592
923.8222, 4.573181
924.3043, 4.761047
924.7864, 4.371643
925.2686, 2.913086
925.7507, 0.8242800
926.2328, 0.1159670
926.7149, 0.8513180
927.1970, 2.017029
927.6791, 3.489838
928.1613, 4.378174
928.6434, 3.458099
929.1255, 1.773163
929.6076, 1.134460
930.0897, 1.831207
930.5718, 2.409882
931.0540, 1.771729
931.5361, 0.7919920
932.0182, 0.2876890
932.5003, 0.1231690
932.9824, 0.2015080
933.4645, 0.3971560
933.9467, 0.4144290
934.4288, 0.1120300
934.9109, 0.1203310
935.3930, 0.4295650
935.8751, 1.490753
936.3572, 1.941528
936.8394, 1.774689
937.3215, 0.5007020
937.8036, 2.216583
938.2857, 3.972443
938.7678, 2.567230
939.2499, 0.6532290
939.7321, 1.545044
940.2142, 0.8222660
940.6963, 1.704010
941.1784, 0.4682620
941.6605, 0.9459840
942.1426, 2.137634
942.6248, 2.893188
943.1069, 2.850067
943.5890, 2.062714
944.0711, 1.359650
944.5532, 0.3141780
945.0353, 1.5625000E-02
945.5175, 1.325989
945.9996, 2.478455
946.4817, 2.287994
946.9637, 1.347839
947.4459, 0.4110720
947.9280, 0.3733830
948.4101, 0.6259460
948.8922, 0.3569950
949.3743, 1.253387
949.8564, 0.9990840
950.3386, 0.4743960
950.8207, 0.6497190
951.3028, 1.462677
951.7849, 2.569824
952.2670, 3.840637
952.7491, 4.665710
953.2313, 4.235596
953.7134, 3.200500
954.1955, 2.458435
954.6776, 1.943207
955.1597, 1.187073
955.6418, 0.2564700
956.1240, 0.3924870
956.6061, 2.560730
957.0882, 5.159790
957.5703, 4.877350
958.0524, 2.293427
958.5345, 1.801636
959.0167, 3.552765
959.4988, 4.526917
959.9809, 3.608887
960.4630, 2.638367
960.9451, 3.383118
961.4272, 5.571106
961.9094, 7.668304
962.3915, 9.724182
962.8736, 11.02643
963.3557, 11.21683
963.8378, 11.45859
964.3199, 12.14438
964.8021, 13.22198
965.2842, 14.64005
965.7663, 16.39636
966.2484, 18.34265
966.7305, 20.85489
967.2126, 22.97223
967.6948, 24.18365
968.1769, 25.48685
968.6590, 27.52414
969.1411, 29.91214
969.6232, 31.99246
970.1053, 33.68393
970.5875, 35.71994
971.0696, 38.96851
971.5517, 41.73645
972.0338, 42.49170
972.5159, 43.20966
972.9980, 45.82968
973.4802, 49.86026
973.9623, 53.89978
974.4444, 57.54437
974.9265, 60.76059
975.4086, 62.84900
975.8907, 65.18939
976.3729, 69.93491
976.8550, 75.29846
977.3371, 78.35233
977.8192, 79.11029
978.3013, 79.67194
978.7834, 81.17636
979.2656, 81.68466
979.7477, 78.80148
980.2298, 73.56140
980.7119, 67.44751
981.1940, 60.80850
981.6761, 54.43588
982.1583, 48.53918
982.6404, 42.99655
983.1225, 37.66693
983.6046, 32.59717
984.0867, 27.76532
984.5688, 23.25443
985.0510, 19.34155
985.5331, 16.02380
986.0152, 13.69711
986.4973, 12.54364
986.9794, 11.80930
987.4615, 10.83594
987.9437, 9.699860
988.4258, 8.560303
988.9079, 7.323761
989.3900, 6.732452
989.8721, 6.903839
990.3542, 7.456696
990.8364, 8.349243
991.3185, 9.387573
991.8006, 10.40167
992.2827, 11.35608
992.7648, 11.97427
993.2469, 12.11481
993.7291, 12.31964
994.2112, 12.54547
994.6933, 12.91885
995.1754, 13.80975
995.6575, 14.51129
996.1396, 14.10287
996.6218, 12.83667
997.1039, 12.51053
997.5860, 13.20145
998.0681, 14.31195
998.5502, 16.34848
999.0323, 18.35397
999.5145, 19.33279
999.9966, 20.03836
1000.479, 21.90948
1000.961, 25.02066
1001.443, 27.23120
1001.925, 26.48962
1002.407, 26.73599
1002.889, 30.33743
1003.371, 34.64816
1003.854, 38.02255
1004.336, 40.28650
1004.818, 41.18005
1005.300, 40.73932
1005.782, 40.71515
1006.264, 43.17090
1006.746, 45.12466
1007.228, 44.48022
1007.710, 42.16168
1008.193, 38.69485
1008.675, 34.66556
1009.157, 31.15936
1009.639, 28.50485
1010.121, 25.93784
1010.603, 22.64243
1011.085, 19.26559
1011.567, 16.69220
1012.049, 14.53091
1012.532, 11.99078
1013.014, 9.206329
1013.496, 7.082245
1013.978, 5.983856
1014.460, 5.314667
1014.942, 4.640747
1015.424, 3.835846
1015.906, 2.275970
1016.389, 0.4653630
1016.871, 0.2472530
1017.353, 1.523499
1017.835, 1.921356
1018.317, 0.2634280
1018.799, 1.795471
1019.281, 2.101898
1019.763, 1.205994
1020.245, 0.9549560
1020.728, 1.209564
1021.210, 0.9808650
1021.692, 0.1231990
1022.174, 0.7736510
1022.656, 1.400574
1023.138, 1.703796
1023.620, 1.451202
1024.102, 0.8026730
1024.584, 1.065948
1025.067, 2.268799
1025.549, 2.679901
1026.031, 1.913055
1026.513, 1.057465
1026.995, 0.6869200
1027.477, 0.8820500
1027.959, 1.997284
1028.441, 3.954498
1028.924, 4.219482
1029.406, 2.288818
1029.888, 1.670624
1030.370, 3.341736
1030.852, 5.173035
1031.334, 5.846985
1031.816, 5.949493
1032.298, 6.565399
1032.781, 7.726563
1033.263, 8.619690
1033.745, 9.143402
1034.227, 9.706238
1034.709, 10.36487
1035.191, 11.11700
1035.673, 12.00427
1036.155, 12.93939
1036.637, 13.68091
1037.120, 14.15115
1037.602, 15.34311
1038.084, 18.07831
1038.566, 19.85187
1039.048, 19.70074
1039.530, 19.33353
1040.012, 19.86801
1040.494, 20.76535
1040.976, 20.95663
1041.459, 20.28036
1041.941, 20.21725
1042.423, 21.28015
1042.905, 22.16046
1043.387, 22.62320
1043.869, 22.94461
1044.351, 23.24695
1044.833, 23.51453
1045.316, 23.69458
1045.798, 23.77145
1046.280, 23.95389
1046.762, 24.60825
1047.244, 24.85059
1047.726, 24.18539
1048.208, 23.45908
1048.690, 23.18240
1049.172, 23.14301
1049.655, 23.10214
1050.137, 23.04666
1050.619, 22.56628
1051.101, 21.15341
1051.583, 19.97101
1052.065, 19.61600
1052.547, 19.18057
1053.029, 17.80038
1053.511, 16.18274
1053.994, 15.58820
1054.476, 16.04486
1054.958, 15.93036
1055.440, 14.37619
1055.922, 12.96429
1056.404, 12.24539
1056.886, 11.61240
1057.368, 10.82391
1057.851, 9.809875
1058.333, 8.260651
1058.815, 6.289856
1059.297, 5.029388
1059.779, 5.486694
1060.261, 5.533539
1060.743, 3.872925
1061.225, 2.244629
1061.708, 1.967560
1062.190, 2.219238
1062.672, 1.640045
1063.154, 0.3433230
1063.636, 5.4565001E-02
1064.118, 1.765625
1064.600, 2.697968
1065.082, 0.5885010
1065.564, 1.675201
1066.047, 2.274994
1066.529, 1.941010
1067.011, 1.651062
1067.493, 1.445190
1067.975, 0.7710880
1068.457, 0.8908080
1068.939, 1.935883
1069.421, 0.9296880
1069.903, 3.4759998E-02
1070.386, 0.6711120
1070.868, 1.940002
1071.350, 2.428375
1071.832, 2.217896
1072.314, 2.137604
1072.796, 2.450592
1073.278, 2.813568
1073.760, 3.241425
1074.243, 3.475677
1074.725, 2.893921
1075.207, 2.405273
1075.689, 3.380341
1076.171, 5.227936
1076.653, 5.894104
1077.135, 4.797363
1077.617, 4.279053
1078.099, 6.058472
1078.582, 7.735748
1079.064, 7.959198
1079.546, 7.543030
1080.028, 6.991333
1080.510, 6.497986
1080.992, 6.414978
1081.474, 6.815155
1081.956, 6.843170
1082.438, 5.458435
1082.921, 4.460205
1083.403, 4.769653
1083.885, 5.859619
1084.367, 7.941711
1084.849, 10.16510
1085.331, 10.98291
1085.813, 10.24646
1086.295, 9.667114
1086.777, 9.626923
1087.260, 10.36273
1087.742, 12.81927
1088.224, 15.24930
1088.706, 16.05859
1089.188, 16.08987
1089.670, 16.62128
1090.152, 17.79105
1090.634, 19.13855
1091.117, 20.74451
1091.599, 21.96201
1092.081, 21.80215
1092.563, 21.97598
1093.045, 24.07568
1093.527, 26.78900
1094.009, 28.21198
1094.491, 28.67685
1094.974, 30.35202
1095.456, 34.41895
1095.938, 37.39670
1096.420, 36.93048
1096.902, 36.38730
1097.384, 37.75430
1097.866, 39.65872
1098.348, 40.92557
1098.830, 41.50784
1099.313, 41.56094
1099.795, 41.05286
1100.277, 40.57697
1100.759, 40.05402
1101.241, 39.93271
1101.723, 40.97574
1102.205, 41.91803
1102.687, 41.78381
1103.169, 40.85370
1103.652, 39.87863
1104.134, 38.94223
1104.616, 36.95923
1105.098, 31.98819
1105.580, 28.41650
1106.062, 28.69778
1106.544, 29.11438
1107.026, 27.59290
1107.509, 24.91568
1107.991, 21.83917
1108.473, 18.59167
1108.955, 16.20206
1109.437, 15.51700
1109.919, 14.36798
1110.401, 12.31210
1110.883, 9.968414
1111.365, 6.836639
1111.848, 4.128754
1112.330, 3.278168
1112.812, 3.832397
1113.294, 4.053192
1113.776, 3.671143
1114.258, 3.514435
1114.740, 4.160583
1115.222, 4.270569
1115.704, 3.233795
1116.187, 1.877533
1116.669, 0.3395080
1117.151, 0.9721370
1117.633, 1.083527
1118.115, 0.1841430
1118.597, 1.047943
1119.079, 1.473358
1119.561, 1.533020
1120.044, 1.011017
1120.526, 0.4675900
1121.008, 0.1099550
1121.490, 6.5948002E-02
1121.972, 2.9053001E-02
1122.454, 0.2081300
1122.936, 0.4987490
1123.418, 0.7184450
1123.901, 1.117981
1124.383, 1.857117
1124.865, 2.600739
1125.347, 3.229156
1125.829, 3.858002
1126.311, 4.603760
1126.793, 5.353058
1127.275, 5.845551
1127.757, 6.047546
1128.240, 6.090149
1128.722, 5.764160
1129.204, 6.440643
1129.686, 8.701050
1130.168, 10.76782
1130.650, 11.44080
1131.132, 11.43338
1131.614, 11.91818
1132.096, 12.90033
1132.579, 13.63052
1133.061, 14.11865
1133.543, 15.56165
1134.025, 18.20523
1134.507, 19.52014
1134.989, 18.28839
1135.471, 16.86435
1135.953, 17.81046
1136.436, 20.22641
1136.918, 21.80273
1137.400, 22.59042
1137.882, 22.82794
1138.364, 22.57397
1138.846, 22.26443
1139.328, 22.04172
1139.810, 22.24878
1140.292, 23.15710
1140.775, 24.30530
1141.257, 25.01505
1141.739, 25.43213
1142.221, 25.91159
1142.703, 26.40952
1143.185, 26.89908
1143.667, 27.31540
1144.149, 27.26840
1144.631, 26.66177
1145.114, 26.15961
1145.596, 26.69504
1146.078, 27.53876
1146.560, 27.67929
1147.042, 27.47784
1147.524, 27.62109
1148.006, 27.88046
1148.488, 27.43958
1148.971, 26.26807
1149.453, 25.34790
1149.935, 25.26654
1150.417, 25.38544
1150.899, 25.03864
1151.381, 24.82407
1151.863, 25.86279
1152.345, 27.03052
1152.828, 26.34222
1153.310, 24.34766
1153.792, 23.40591
1154.274, 24.26785
1154.756, 24.72604
1155.238, 23.48801
1155.720, 21.97568
1156.202, 20.59314
1156.684, 19.51309
1157.167, 19.02521
1157.649, 18.79462
1158.131, 18.34744
1158.613, 17.66003
1159.095, 16.79407
1159.577, 15.31424
1160.059, 14.40945
1160.541, 14.84491
1161.023, 15.23618
1161.506, 15.25485
1161.988, 14.80695
1162.470, 13.31351
1162.952, 11.42258
1163.434, 11.11478
1163.916, 12.77899
1164.398, 13.20499
1164.880, 11.39819
1165.363, 10.53210
1165.845, 12.03259
1166.327, 12.62210
1166.809, 10.07211
1167.291, 6.588531
1167.773, 5.027802
1168.255, 5.162018
1168.737, 5.841034
1169.219, 7.343384
1169.702, 7.239075
1170.184, 5.137634
1170.666, 3.531281
1171.148, 3.177612
1171.630, 3.204132
1172.112, 2.950989
1172.594, 2.784119
1173.076, 3.696960
1173.558, 5.281738
1174.041, 4.801758
1174.523, 2.645813
1175.005, 1.747559
1175.487, 2.369843
1175.969, 2.951660
1176.451, 2.802124
1176.933, 2.160065
1177.415, 1.066925
1177.897, 7.3792003E-02
1178.380, 0.2053220
1178.862, 0.9764710
1179.344, 1.571655
1179.826, 1.937378
1180.308, 2.046112
1180.790, 1.958557
1181.272, 1.880127
1181.754, 1.902496
1182.237, 2.094604
1182.719, 2.884888
1183.201, 3.427155
1183.683, 2.707428
1184.165, 1.612305
1184.647, 1.045258
1185.129, 0.9081120
1185.611, 0.8064270
1186.094, 0.7130130
1186.576, 1.066071
1187.058, 2.520844
1187.540, 3.353455
1188.022, 2.699951
1188.504, 1.663788
1188.986, 6.7901999E-02
1189.468, 1.039276
1189.950, 0.1369020
1190.432, 1.899445
1190.915, 2.622437
1191.397, 1.634064
1191.879, 1.157928
1192.361, 1.686066
1192.843, 1.785004
1193.325, 1.099030
1193.807, 0.3042910
1194.289, 0.4694210
1194.772, 0.8974000
1195.254, 0.5133060
1195.736, 0.4046020
1196.218, 0.7854610
1196.700, 0.5397030
1197.182, 0.7226560
1197.664, 1.413818
1198.146, 1.558319
1198.629, 0.9084170
1199.111, 0.2218020
1199.593, 9.0301998E-02
1200.075, 9.1430999E-02
1200.557, 0.2477420
1201.039, 0.6863400
1201.521, 0.2072450
1202.003, 0.6318660
1202.485, 0.6288150
1202.968, 3.309662
1203.450, 4.050537
1203.932, 2.333832
1204.414, 0.7058720
1204.896, 0.6120000
1205.378, 1.085876
1205.860, 1.396545
1206.342, 1.621124
1206.824, 1.755615
1207.307, 1.899841
1207.789, 2.453186
1208.271, 3.038330
1208.753, 2.650909
1209.235, 1.229645
1209.717, 0.1714780
1210.199, 5.7739001E-02
1210.681, 0.2326970
1211.164, 0.7201540
1211.646, 1.137054
1212.128, 1.382050
1212.610, 1.394836
1213.092, 0.9901120
1213.574, 0.3486330
1214.056, 0.1185910
1214.538, 0.4172670
1215.021, 0.4086910
1215.503, 0.1967770
1215.985, 0.3881530
1216.467, 0.2055360
1216.949, 0.4852600
1217.431, 0.1204830
1217.913, 0.7888790
1218.395, 0.7089540
1218.877, 0.2332760
1219.359, 0.4212340
1219.842, 1.185791
1220.324, 0.3468630
1220.806, 1.902618
1221.288, 2.605072
1221.770, 1.409302
1222.252, 7.3517002E-02
1222.734, 1.138947
1223.216, 1.577240
1223.699, 1.003845
1224.181, 0.2727360
1224.663, 0.9430850
1225.145, 2.065826
1225.627, 1.774109
1226.109, 0.8287960
1226.591, 0.9155880
1227.073, 1.999329
1227.556, 3.125549
1228.038, 3.970825
1228.520, 4.254913
1229.002, 3.155609
1229.484, 2.344727
1229.966, 2.934509
1230.448, 3.840210
1230.930, 4.670105
1231.412, 5.159271
1231.895, 4.790375
1232.377, 3.828705
1232.859, 3.341705
1233.341, 3.426727
1233.823, 4.071991
1234.305, 6.225464
1234.787, 6.896423
1235.269, 4.970367
1235.751, 3.033051
1236.234, 2.116119
1236.716, 2.195618
1237.198, 3.519073
1237.680, 5.390411
1238.162, 5.459045
1238.644, 3.743286
1239.126, 2.530304
1239.608, 1.758972
1240.091, 2.075165
1240.573, 3.379364
1241.055, 3.688843
1241.537, 2.422150
1242.019, 1.316345
1242.501, 2.083130
1242.983, 3.410126
1243.465, 3.578125
1243.948, 3.220032
1244.430, 3.024719
1244.912, 2.932739
1245.394, 3.038208
1245.876, 3.270508
1246.358, 3.953125
1246.840, 5.236633
1247.322, 5.898315
1247.804, 4.899628
1248.286, 4.039795
1248.769, 4.186462
1249.251, 4.280334
1249.733, 3.270721
1250.215, 2.216705
1250.697, 2.460663
1251.179, 3.400665
1251.661, 3.475708
1252.143, 2.219727
1252.626, 2.327606
1253.108, 4.109039
1253.590, 5.192780
1254.072, 4.899445
1254.554, 4.294708
1255.036, 4.605804
1255.518, 4.670563
1256.000, 3.698212
1256.483, 2.396698
1256.965, 1.751007
1257.447, 1.729553
1257.929, 2.331573
1258.411, 3.201294
1258.893, 3.395660
1259.375, 2.967163
1259.857, 2.428375
1260.339, 1.992615
1260.822, 1.898071
1261.304, 2.393890
1261.786, 2.919464
1262.268, 3.493591
1262.750, 3.585327
1263.232, 2.180969
1263.714, 0.6802370
1264.196, 0.6147770
1264.678, 1.403839
1265.161, 1.975861
1265.643, 2.241760
1266.125, 2.434174
1266.607, 2.588074
1267.089, 2.616974
1267.571, 2.485626
1268.053, 2.293518
1268.535, 2.036591
1269.017, 1.812286
1269.500, 1.760376
1269.982, 1.724335
1270.464, 1.506592
1270.946, 1.288696
1271.428, 1.898468
1271.910, 2.988800
1272.392, 3.049194
1272.874, 2.273743
1273.357, 1.563812
1273.839, 1.161560
1274.321, 1.188477
1274.803, 1.692444
1275.285, 1.962463
1275.767, 0.9908450
1276.249, 0.2344060
1276.731, 1.146271
1277.214, 2.069366
1277.696, 1.098450
1278.178, 0.2253110
1278.660, 0.3977660
1279.142, 2.402039
1279.624, 3.497955
1280.106, 3.424225
1280.588, 2.814484
1281.070, 1.001678
1281.552, 0.3724370
1282.035, 1.521606
1282.517, 2.531616
1282.999, 2.416016
1283.481, 2.482056
1283.963, 3.267700
1284.445, 3.891876
1284.927, 2.562622
1285.409, 0.1538700
1285.892, 9.1549996E-03
1286.374, 1.064148
1286.856, 0.0000000E+00
##END=



