##NAMES=Powellite
##RRUFFID=R050355
##IDEAL CHEMISTRY=CaMoO_4_
##LOCALITY=Nasik, India
##OWNER=RRUFF
##SOURCE=George Rossman
##DESCRIPTION=Light brown fragment
##STATUS=The identification of this mineral has been confirmed by X-ray diffraction and chemical analysis
##URL=rruff.info/R050355
##MEASURED CHEMISTRY=Ca_1.00_Mo_1.00_O_4_
128.0302, 0.0000000E+00
128.5123, 7.139526
128.9944, 8.626831
129.4765, 0.1022950
129.9586, 1.833130
130.4407, 12.73450
130.9229, 41.64209
131.4050, 79.07727
131.8871, 125.1827
132.3692, 176.8436
132.8513, 226.0983
133.3334, 269.6925
133.8156, 305.3075
134.2977, 338.8867
134.7798, 376.6802
135.2619, 409.9943
135.7440, 432.5048
136.2261, 448.2969
136.7083, 486.0439
137.1904, 549.5635
137.6725, 622.0144
138.1546, 683.0439
138.6367, 728.6925
139.1188, 785.5559
139.6010, 857.6971
140.0831, 944.5537
140.5652, 1058.070
141.0473, 1197.557
141.5294, 1365.156
142.0115, 1575.198
142.4937, 1872.361
142.9758, 2123.222
143.4579, 2309.420
143.9400, 2462.542
144.4221, 2428.740
144.9042, 2140.647
145.3864, 1703.684
145.8685, 1327.791
146.3506, 1013.349
146.8327, 759.0935
147.3148, 558.3781
147.7969, 431.6803
148.2791, 324.4961
148.7612, 237.3613
149.2433, 169.1385
149.7254, 119.2902
150.2075, 103.5093
150.6896, 94.81689
151.1718, 83.55042
151.6539, 64.31055
152.1360, 50.34827
152.6181, 44.95227
153.1002, 45.43579
153.5823, 43.80823
154.0645, 38.71545
154.5466, 31.96094
155.0287, 24.37854
155.5108, 14.25854
155.9929, 5.432495
156.4750, 4.408936
156.9572, 13.54272
157.4393, 14.33521
157.9214, 2.648315
158.4035, 23.75378
158.8856, 40.47986
159.3677, 57.02979
159.8499, 62.97620
160.3320, 47.07593
160.8141, 13.85596
161.2962, 9.586060
161.7783, 4.639893
162.2604, 10.12610
162.7426, 19.39539
163.2247, 14.73950
163.7068, 7.075928
164.1889, 0.9249270
164.6710, 8.855469
165.1531, 12.71716
165.6353, 8.723511
166.1174, 0.2719730
166.5995, 8.980225
167.0816, 21.93787
167.5637, 32.15613
168.0458, 33.31152
168.5280, 25.37622
169.0101, 18.36975
169.4922, 15.89136
169.9743, 18.81177
170.4564, 28.44263
170.9385, 56.93018
171.4207, 85.41980
171.9028, 93.75439
172.3849, 80.34021
172.8670, 65.84229
173.3491, 66.85767
173.8312, 78.02161
174.3134, 89.17590
174.7955, 95.69312
175.2776, 99.62610
175.7597, 102.3896
176.2418, 103.7780
176.7239, 106.7242
177.2061, 114.9977
177.6882, 127.2700
178.1703, 139.7207
178.6524, 149.4406
179.1345, 159.7106
179.6166, 172.4225
180.0988, 187.9196
180.5809, 205.7772
181.0630, 225.0902
181.5451, 246.0559
182.0272, 270.0721
182.5093, 296.7687
182.9915, 325.6293
183.4736, 358.7078
183.9557, 394.7845
184.4378, 433.9229
184.9199, 468.6743
185.4020, 494.5028
185.8842, 530.5021
186.3663, 594.3568
186.8484, 677.6823
187.3305, 746.2817
187.8126, 795.8304
188.2947, 835.3427
188.7769, 878.4269
189.2590, 924.6611
189.7411, 969.8479
190.2232, 1015.731
190.7053, 1060.516
191.1874, 1091.666
191.6696, 1106.093
192.1517, 1113.476
192.6338, 1130.952
193.1159, 1157.822
193.5980, 1187.513
194.0801, 1218.068
194.5623, 1249.781
195.0444, 1283.908
195.5265, 1318.955
196.0086, 1358.890
196.4907, 1411.282
196.9728, 1476.179
197.4550, 1552.927
197.9371, 1641.488
198.4192, 1741.274
198.9013, 1848.554
199.3834, 1963.052
199.8655, 2085.321
200.3477, 2216.693
200.8298, 2355.272
201.3119, 2511.224
201.7940, 2702.472
202.2761, 2934.243
202.7582, 3144.493
203.2404, 3331.536
203.7225, 3491.346
204.2046, 3618.185
204.6867, 3718.431
205.1688, 3764.691
205.6509, 3740.106
206.1331, 3643.541
206.6152, 3481.088
207.0973, 3237.200
207.5794, 2936.076
208.0615, 2645.876
208.5436, 2361.452
209.0258, 2100.177
209.5079, 1874.785
209.9900, 1687.750
210.4721, 1528.954
210.9542, 1401.950
211.4363, 1301.156
211.9185, 1208.155
212.4006, 1121.968
212.8827, 1044.971
213.3648, 980.7690
213.8469, 930.1436
214.3290, 886.5376
214.8112, 852.2113
215.2933, 824.5022
215.7754, 792.0876
216.2575, 753.3582
216.7396, 710.5999
217.2217, 664.3337
217.7038, 612.0691
218.1860, 564.5785
218.6681, 525.0697
219.1502, 489.6986
219.6323, 447.8607
220.1144, 395.1951
220.5965, 344.6152
221.0787, 304.1366
221.5608, 276.1715
222.0429, 251.7786
222.5250, 232.4741
223.0071, 216.3643
223.4892, 195.5098
223.9714, 164.4218
224.4535, 137.5934
224.9356, 124.0508
225.4177, 131.5333
225.8998, 133.0056
226.3819, 125.1154
226.8641, 110.4452
227.3462, 98.83325
227.8283, 94.03381
228.3104, 86.89038
228.7925, 71.10291
229.2746, 37.37488
229.7568, 15.47266
230.2389, 9.294678
230.7210, 14.93994
231.2031, 20.81677
231.6852, 28.51489
232.1673, 34.07642
232.6495, 35.06763
233.1316, 28.82190
233.6137, 24.11829
234.0958, 22.43445
234.5779, 22.18188
235.0600, 18.48547
235.5422, 8.427246
236.0243, 0.8723140
236.5064, 5.961304
236.9885, 4.334106
237.4706, 4.223999
237.9527, 7.024902
238.4349, 10.99036
238.9170, 10.96350
239.3991, 2.046997
239.8812, 3.497314
240.3633, 1.343750
240.8454, 25.76233
241.3276, 37.03577
241.8097, 28.56909
242.2918, 9.283569
242.7739, 1.366699
243.2560, 0.7276610
243.7381, 4.417969
244.2203, 12.53137
244.7024, 26.25305
245.1845, 35.54321
245.6666, 40.14526
246.1487, 40.43298
246.6308, 36.67432
247.1130, 26.56616
247.5951, 16.04688
248.0772, 6.272339
248.5593, 4.691895
249.0414, 7.153809
249.5235, 5.238281
250.0057, 22.14600
250.4878, 25.18604
250.9699, 4.738159
251.4520, 12.42151
251.9341, 16.58411
252.4162, 4.601685
252.8984, 4.570557
253.3805, 10.27319
253.8626, 13.69250
254.3447, 17.12000
254.8268, 23.14880
255.3089, 23.73792
255.7911, 14.07666
256.2732, 8.249146
256.7553, 20.12817
257.2374, 16.65015
257.7195, 7.580200
258.2017, 5.404419
258.6838, 13.74023
259.1659, 20.60889
259.6480, 21.99133
260.1301, 17.47095
260.6122, 17.92383
261.0944, 24.37720
261.5765, 34.60413
262.0586, 47.02795
262.5407, 63.10315
263.0228, 77.21777
263.5049, 87.50989
263.9871, 94.27039
264.4692, 101.8978
264.9513, 110.9492
265.4334, 120.1399
265.9155, 129.7977
266.3976, 142.0238
266.8798, 146.5743
267.3619, 139.6576
267.8440, 122.7833
268.3261, 107.5153
268.8082, 92.31702
269.2903, 81.93005
269.7725, 83.74048
270.2546, 102.6357
270.7367, 109.8177
271.2188, 96.38855
271.7009, 69.02246
272.1830, 58.26440
272.6652, 70.07739
273.1473, 82.31213
273.6294, 76.64441
274.1115, 48.44751
274.5936, 31.67542
275.0757, 32.53699
275.5579, 44.77026
276.0400, 49.55176
276.5221, 44.84338
277.0042, 40.85400
277.4863, 45.43262
277.9684, 59.57922
278.4506, 67.99719
278.9327, 68.79626
279.4148, 64.46948
279.8969, 58.18530
280.3790, 48.98523
280.8611, 44.64417
281.3433, 52.15955
281.8254, 71.45435
282.3075, 84.83264
282.7896, 91.65149
283.2717, 93.02100
283.7538, 87.38684
284.2360, 74.27551
284.7181, 66.57373
285.2002, 72.81274
285.6823, 91.16724
286.1644, 105.2302
286.6465, 114.5317
287.1287, 120.6490
287.6108, 123.5820
288.0929, 123.7388
288.5750, 126.5673
289.0571, 135.3291
289.5392, 148.2292
290.0214, 157.2830
290.5035, 161.9485
290.9856, 166.4954
291.4677, 174.9230
291.9498, 187.1187
292.4319, 202.2350
292.9141, 222.8744
293.3962, 244.5323
293.8783, 255.0253
294.3604, 254.3252
294.8425, 253.2368
295.3246, 261.7218
295.8068, 277.1589
296.2889, 290.2847
296.7710, 296.7239
297.2531, 303.8202
297.7352, 323.6123
298.2173, 354.4120
298.6995, 387.1248
299.1816, 417.0691
299.6637, 446.7144
300.1458, 478.3718
300.6279, 511.9973
301.1100, 546.7102
301.5922, 579.8525
302.0743, 612.4086
302.5564, 648.6692
303.0385, 692.9934
303.5206, 742.9587
304.0027, 795.4810
304.4849, 849.2124
304.9670, 908.6128
305.4491, 977.8730
305.9312, 1055.249
306.4133, 1136.671
306.8954, 1217.546
307.3776, 1301.649
307.8597, 1392.944
308.3418, 1494.115
308.8239, 1597.489
309.3060, 1688.520
309.7881, 1778.111
310.2703, 1880.834
310.7524, 2014.378
311.2345, 2155.524
311.7166, 2285.006
312.1987, 2403.017
312.6808, 2523.517
313.1630, 2650.371
313.6451, 2787.700
314.1272, 2940.486
314.6093, 3116.568
315.0914, 3299.289
315.5735, 3480.369
316.0557, 3659.970
316.5378, 3839.178
317.0199, 4008.157
317.5020, 4182.064
317.9841, 4375.277
318.4662, 4593.661
318.9484, 4821.770
319.4305, 5063.754
319.9126, 5312.453
320.3947, 5549.019
320.8768, 5761.245
321.3589, 5965.143
321.8411, 6172.396
322.3232, 6393.068
322.8053, 6590.322
323.2874, 6761.293
323.7695, 6903.740
324.2516, 7014.113
324.7338, 7083.412
325.2159, 7128.329
325.6980, 7153.688
326.1801, 7160.222
326.6622, 7145.010
327.1443, 7114.203
327.6265, 7059.123
328.1086, 6970.604
328.5907, 6858.250
329.0728, 6703.016
329.5549, 6496.394
330.0370, 6237.026
330.5192, 5957.562
331.0013, 5641.353
331.4834, 5317.258
331.9655, 5002.105
332.4476, 4702.707
332.9297, 4398.293
333.4119, 4081.833
333.8940, 3759.379
334.3761, 3461.443
334.8582, 3196.475
335.3403, 2952.455
335.8224, 2725.094
336.3046, 2514.012
336.7867, 2319.361
337.2688, 2140.913
337.7509, 1977.663
338.2330, 1824.137
338.7151, 1682.127
339.1973, 1547.622
339.6794, 1416.978
340.1615, 1291.008
340.6436, 1174.942
341.1257, 1069.537
341.6078, 974.9993
342.0899, 893.4314
342.5721, 826.8372
343.0542, 764.8213
343.5363, 704.6887
344.0184, 647.4758
344.5005, 597.2063
344.9826, 554.8391
345.4648, 515.3970
345.9469, 473.8862
346.4290, 430.6501
346.9111, 392.9561
347.3932, 362.2368
347.8753, 337.0259
348.3575, 316.4006
348.8396, 300.1355
349.3217, 285.0947
349.8038, 269.2612
350.2859, 253.1746
350.7680, 238.7927
351.2502, 226.9336
351.7323, 214.4280
352.2144, 195.9094
352.6965, 173.3086
353.1786, 153.0066
353.6607, 137.3677
354.1429, 126.1931
354.6250, 121.3711
355.1071, 123.2271
355.5892, 123.7415
356.0713, 113.4580
356.5534, 98.59692
357.0356, 88.35571
357.5177, 89.20947
357.9998, 93.23145
358.4819, 96.49731
358.9640, 98.68677
359.4461, 97.81689
359.9283, 91.00244
360.4104, 81.65234
360.8925, 72.55762
361.3746, 62.14209
361.8567, 54.33252
362.3388, 51.12183
362.8210, 51.72168
363.3031, 54.59863
363.7852, 60.58374
364.2673, 66.62793
364.7494, 71.42700
365.2315, 74.14478
365.7137, 78.20557
366.1958, 86.43091
366.6779, 95.54932
367.1600, 101.7876
367.6421, 103.7144
368.1242, 104.7996
368.6064, 101.6077
369.0885, 92.78003
369.5706, 96.05493
370.0527, 116.8759
370.5348, 145.1909
371.0169, 175.2126
371.4991, 206.9501
371.9812, 242.0414
372.4633, 278.5295
372.9454, 316.3345
373.4275, 359.4885
373.9096, 410.2734
374.3918, 464.1917
374.8739, 517.9397
375.3560, 571.2976
375.8381, 631.6973
376.3202, 703.1281
376.8023, 774.1760
377.2845, 822.6637
377.7666, 842.3877
378.2487, 871.9355
378.7308, 927.0312
379.2129, 1003.900
379.6950, 1070.297
380.1772, 1124.110
380.6593, 1176.094
381.1414, 1235.843
381.6235, 1303.005
382.1056, 1379.062
382.5877, 1464.123
383.0699, 1558.679
383.5520, 1662.497
384.0341, 1776.015
384.5162, 1898.514
384.9983, 2024.789
385.4804, 2161.950
385.9626, 2327.597
386.4447, 2525.616
386.9268, 2740.294
387.4089, 2953.043
387.8910, 3172.246
388.3731, 3409.465
388.8553, 3681.703
389.3374, 3965.486
389.8195, 4257.224
390.3016, 4549.906
390.7837, 4789.432
391.2658, 4970.759
391.7480, 5064.972
392.2301, 5040.980
392.7122, 4875.411
393.1943, 4612.475
393.6764, 4234.069
394.1585, 3767.690
394.6407, 3300.529
395.1228, 2805.993
395.6049, 2359.869
396.0870, 2000.921
396.5691, 1753.100
397.0512, 1537.543
397.5334, 1336.154
398.0155, 1159.196
398.4976, 1021.942
398.9797, 945.7380
399.4618, 887.0664
399.9439, 840.2994
400.4261, 805.1140
400.9082, 775.6885
401.3903, 758.5537
401.8724, 740.8865
402.3545, 713.8652
402.8366, 673.3625
403.3188, 633.9263
403.8009, 597.1699
404.2830, 561.6909
404.7651, 522.5518
405.2472, 477.5732
405.7293, 435.9628
406.2115, 402.5426
406.6936, 377.9163
407.1757, 351.7278
407.6578, 323.9875
408.1399, 294.5662
408.6220, 261.1064
409.1042, 223.8015
409.5863, 190.5146
410.0684, 162.6696
410.5505, 140.6093
411.0326, 126.6866
411.5147, 120.5209
411.9969, 112.0265
412.4790, 87.84790
412.9611, 56.20801
413.4432, 38.99658
413.9253, 41.44006
414.4074, 48.65381
414.8896, 43.40820
415.3717, 30.40247
415.8538, 20.67554
416.3359, 26.12415
416.8180, 33.13208
417.3001, 25.46387
417.7823, 3.374023
418.2644, 12.96240
418.7465, 4.640869
419.2286, 11.45496
419.7107, 18.05408
420.1928, 1.711792
420.6750, 12.10461
421.1571, 11.42419
421.6392, 0.7781980
422.1213, 8.150269
422.6034, 12.18848
423.0855, 13.92310
423.5677, 15.11340
424.0498, 17.29407
424.5319, 13.82288
425.0140, 3.330200
425.4961, 22.80164
425.9782, 33.22632
426.4604, 31.07556
426.9425, 24.45459
427.4246, 9.778076
427.9067, 10.18701
428.3888, 13.00513
428.8709, 11.32593
429.3531, 35.05029
429.8352, 41.36426
430.3173, 26.13843
430.7994, 13.95825
431.2815, 5.209839
431.7636, 2.7100001E-02
432.2458, 1.002441
432.7279, 8.764404
433.2100, 12.16541
433.6921, 4.192261
434.1742, 10.75256
434.6563, 15.68384
435.1385, 10.41382
435.6206, 1.514526
436.1027, 9.057373
436.5848, 18.88916
437.0669, 20.04688
437.5490, 8.314697
438.0312, 5.511353
438.5133, 10.65686
438.9954, 8.731445
439.4775, 3.768066
439.9596, 6.746948
440.4417, 16.31421
440.9239, 18.85510
441.4060, 14.04199
441.8881, 6.106567
442.3702, 7.738892
442.8523, 21.20044
443.3344, 28.30322
443.8166, 25.80164
444.2987, 18.61914
444.7808, 2.437256
445.2629, 18.05676
445.7450, 29.24573
446.2271, 18.55115
446.7093, 6.296509
447.1914, 1.121948
447.6735, 7.187500
448.1556, 7.193726
448.6377, 5.098389
449.1198, 19.16724
449.6020, 23.57397
450.0841, 11.37549
450.5662, 4.243652
451.0483, 7.193726
451.5304, 17.62463
452.0125, 23.68481
452.4947, 24.44958
452.9768, 23.74951
453.4589, 23.00977
453.9410, 22.18677
454.4231, 24.81726
454.9052, 32.34229
455.3874, 38.86414
455.8695, 34.37988
456.3516, 20.58337
456.8337, 10.25598
457.3158, 8.280762
457.7979, 11.40759
458.2801, 13.76465
458.7622, 15.66333
459.2443, 19.41748
459.7264, 31.08960
460.2085, 43.84912
460.6906, 47.24487
461.1728, 38.12122
461.6549, 27.69067
462.1370, 23.07947
462.6191, 22.58643
463.1012, 23.86682
463.5833, 27.97131
464.0655, 31.84778
464.5476, 34.37048
465.0297, 35.49915
465.5118, 35.31067
465.9939, 31.16211
466.4760, 27.59485
466.9582, 27.31958
467.4403, 33.40967
467.9224, 37.56274
468.4045, 37.73401
468.8866, 36.65088
469.3687, 38.72070
469.8509, 47.07410
470.3330, 52.39600
470.8151, 51.45361
471.2972, 45.13660
471.7793, 43.52319
472.2614, 48.58704
472.7436, 52.98157
473.2257, 50.08350
473.7078, 39.69873
474.1899, 34.30188
474.6720, 35.96313
475.1541, 39.56482
475.6363, 34.97131
476.1184, 23.73877
476.6005, 18.94678
477.0826, 29.36597
477.5647, 46.69556
478.0468, 58.50061
478.5290, 64.62256
479.0111, 67.03833
479.4932, 63.61548
479.9753, 58.66797
480.4574, 58.39893
480.9395, 65.54895
481.4217, 71.99146
481.9038, 72.54724
482.3859, 69.20276
482.8680, 64.71191
483.3501, 57.03870
483.8322, 49.94836
484.3144, 45.31531
484.7965, 43.39722
485.2786, 43.81189
485.7607, 49.13757
486.2428, 53.58215
486.7249, 52.98438
487.2071, 39.57068
487.6892, 37.66772
488.1713, 56.38489
488.6534, 80.57788
489.1355, 89.38025
489.6176, 77.88416
490.0998, 64.09741
490.5819, 50.63855
491.0640, 38.18982
491.5461, 30.24207
492.0282, 26.87585
492.5103, 26.38000
492.9925, 30.27356
493.4746, 36.88928
493.9567, 35.48511
494.4388, 23.64148
494.9209, 13.10803
495.4030, 23.15088
495.8852, 45.52686
496.3673, 58.73608
496.8494, 47.86829
497.3315, 30.83459
497.8136, 22.84058
498.2957, 22.70862
498.7779, 26.44592
499.2600, 37.60266
499.7421, 48.72595
500.2242, 54.63379
500.7063, 53.44348
501.1884, 49.38647
501.6706, 39.37683
502.1527, 29.10645
502.6348, 24.03943
503.1169, 30.82092
503.5990, 34.59106
504.0811, 34.71411
504.5633, 32.07483
505.0454, 28.32947
505.5275, 19.28674
506.0096, 15.08215
506.4917, 23.12988
506.9738, 45.10278
507.4560, 54.64539
507.9381, 49.00098
508.4202, 37.33679
508.9023, 27.64368
509.3844, 20.31506
509.8665, 18.48828
510.3487, 23.98376
510.8308, 32.84875
511.3129, 40.33240
511.7950, 45.96545
512.2772, 47.59399
512.7593, 37.93420
513.2414, 26.85327
513.7235, 29.09998
514.2056, 44.09753
514.6877, 56.22607
515.1699, 52.58533
515.6520, 43.78284
516.1341, 39.93530
516.6162, 47.21790
517.0983, 51.76147
517.5804, 45.42871
518.0626, 34.08618
518.5447, 27.69946
519.0268, 32.49182
519.5089, 37.34058
519.9910, 40.45312
520.4731, 41.87610
520.9553, 40.12524
521.4374, 32.42212
521.9195, 25.85974
522.4016, 25.06079
522.8837, 31.57581
523.3658, 36.09558
523.8480, 37.38281
524.3301, 38.00977
524.8122, 44.42603
525.2943, 55.88293
525.7764, 56.00366
526.2585, 33.78943
526.7407, 5.279419
527.2228, 3.890625
527.7049, 25.26746
528.1870, 43.74646
528.6691, 37.42468
529.1512, 23.16443
529.6334, 22.98718
530.1155, 38.93176
530.5976, 52.43652
531.0797, 51.75952
531.5618, 43.47534
532.0439, 33.73218
532.5261, 19.36548
533.0082, 10.51709
533.4903, 12.08386
533.9724, 20.25464
534.4545, 27.60498
534.9366, 35.74683
535.4188, 41.11646
535.9009, 41.21228
536.3830, 36.40283
536.8651, 35.37207
537.3472, 40.15881
537.8293, 44.78894
538.3115, 44.78491
538.7936, 39.76367
539.2757, 36.16968
539.7578, 34.77710
540.2399, 34.11060
540.7220, 30.37866
541.2042, 24.57214
541.6863, 19.90479
542.1684, 17.12524
542.6505, 16.19275
543.1326, 20.07849
543.6147, 26.65576
544.0969, 27.75928
544.5790, 8.119995
545.0611, 12.10791
545.5432, 12.26160
546.0253, 10.45679
546.5074, 28.22339
546.9896, 20.34167
547.4717, 7.579224
547.9538, 7.100586
548.4359, 42.34631
548.9180, 61.71033
549.4001, 50.46167
549.8823, 24.48364
550.3644, 10.85193
550.8465, 15.82727
551.3286, 21.45642
551.8107, 23.51672
552.2928, 22.33728
552.7750, 20.65625
553.2571, 18.72559
553.7392, 17.45300
554.2213, 16.89233
554.7034, 17.24731
555.1855, 20.57129
555.6677, 27.42517
556.1498, 33.68372
556.6319, 35.29675
557.1140, 32.99084
557.5961, 27.21594
558.0782, 14.30090
558.5604, 4.399414
559.0425, 10.41504
559.5246, 25.71033
560.0067, 35.48682
560.4888, 28.63208
560.9709, 19.58765
561.4531, 14.12573
561.9352, 12.48682
562.4173, 12.84167
562.8994, 17.31311
563.3815, 21.78906
563.8636, 24.36987
564.3458, 24.94788
564.8279, 23.61816
565.3100, 18.42969
565.7921, 13.76953
566.2742, 16.63232
566.7563, 28.07861
567.2385, 36.87476
567.7206, 40.52979
568.2027, 40.33105
568.6848, 37.08618
569.1669, 31.38318
569.6490, 27.99597
570.1312, 34.15808
570.6133, 42.01599
571.0954, 37.68225
571.5775, 21.70105
572.0596, 7.486084
572.5417, 4.394409
573.0239, 5.875000
573.5060, 8.292847
573.9881, 12.33557
574.4702, 14.19067
574.9523, 10.21667
575.4344, 4.668091
575.9166, 2.836060
576.3987, 7.623901
576.8808, 14.47998
577.3629, 25.76160
577.8450, 38.48499
578.3271, 42.68323
578.8093, 36.71130
579.2914, 26.92285
579.7735, 12.88074
580.2556, 3.619141
580.7377, 7.942993
581.2198, 0.7160640
581.7020, 12.95020
582.1841, 23.59827
582.6662, 31.61304
583.1483, 33.58337
583.6304, 28.14185
584.1125, 21.40857
584.5947, 17.07800
585.0768, 15.36719
585.5589, 16.70557
586.0410, 26.32117
586.5231, 33.16528
587.0052, 29.85535
587.4873, 20.01562
587.9694, 13.76794
588.4515, 13.23035
588.9337, 16.68494
589.4158, 27.20911
589.8979, 44.93018
590.3800, 48.11365
590.8621, 30.06604
591.3442, 9.158447
591.8264, 3.863281
592.3085, 8.972778
592.7906, 7.966553
593.2727, 0.1746830
593.7548, 10.39929
594.2369, 17.43323
594.7191, 21.89441
595.2012, 26.04126
595.6833, 30.88916
596.1654, 32.15710
596.6475, 19.36731
597.1296, 0.3486330
597.6118, 10.76404
598.0939, 6.925781
598.5760, 25.79480
599.0581, 28.66541
599.5402, 17.19128
600.0223, 10.42273
600.5045, 17.32556
600.9866, 25.88367
601.4687, 30.96973
601.9508, 32.21899
602.4329, 31.49915
602.9150, 27.74646
603.3972, 22.66821
603.8793, 16.29834
604.3614, 7.134033
604.8435, 5.996704
605.3256, 16.35986
605.8077, 29.83203
606.2899, 31.92493
606.7720, 24.79773
607.2541, 18.61584
607.7362, 17.02527
608.2183, 18.28967
608.7004, 22.97656
609.1826, 29.42444
609.6647, 31.69922
610.1468, 20.58936
610.6289, 9.477905
611.1110, 7.795288
611.5931, 16.36450
612.0753, 23.49622
612.5574, 27.28479
613.0395, 28.65173
613.5216, 27.98975
614.0037, 24.14771
614.4858, 21.50061
614.9680, 20.91028
615.4501, 20.42017
615.9322, 15.15051
616.4143, 4.159424
616.8964, 4.038818
617.3785, 21.69019
617.8607, 44.40588
618.3428, 48.74963
618.8249, 38.23743
619.3070, 27.56409
619.7891, 20.77466
620.2712, 19.15259
620.7534, 29.15076
621.2355, 47.28674
621.7176, 57.70569
622.1997, 44.86646
622.6818, 28.57214
623.1639, 20.21863
623.6461, 21.95581
624.1282, 23.44019
624.6103, 22.79150
625.0924, 22.30713
625.5745, 23.88477
626.0566, 29.63916
626.5388, 30.99219
627.0209, 26.39624
627.5030, 19.43335
627.9851, 15.71582
628.4672, 14.97217
628.9493, 10.30371
629.4315, 3.007813
629.9136, 15.37476
630.3957, 5.188232
630.8778, 19.40063
631.3599, 33.77441
631.8420, 12.33252
632.3242, 12.61365
632.8063, 14.00085
633.2884, 3.966309
633.7705, 17.26587
634.2526, 10.94897
634.7347, 3.789307
635.2169, 6.526367
635.6990, 22.36108
636.1811, 30.15234
636.6632, 25.16064
637.1453, 18.13672
637.6274, 17.08716
638.1096, 22.94727
638.5917, 26.86816
639.0738, 28.45923
639.5559, 29.36475
640.0380, 32.31104
640.5201, 36.73218
641.0023, 40.20532
641.4844, 42.36987
641.9665, 42.94458
642.4486, 42.70483
642.9307, 40.68359
643.4128, 34.80811
643.8950, 13.88013
644.3771, 1.026123
644.8592, 5.287842
645.3413, 28.17432
645.8234, 42.65723
646.3055, 36.83398
646.7877, 30.01807
647.2698, 28.07080
647.7519, 31.13843
648.2340, 35.08936
648.7161, 41.15869
649.1982, 45.55493
649.6804, 44.37598
650.1625, 38.00171
650.6446, 28.83179
651.1267, 16.75757
651.6088, 5.213867
652.0909, 6.050293
652.5731, 13.21045
653.0552, 6.878906
653.5373, 22.75732
654.0194, 47.68188
654.5015, 45.95825
654.9836, 30.32690
655.4658, 18.91113
655.9479, 19.35889
656.4300, 22.13965
656.9121, 27.31177
657.3942, 33.57910
657.8763, 37.44312
658.3585, 38.77466
658.8406, 37.67236
659.3227, 32.22095
659.8048, 24.37134
660.2869, 26.57373
660.7690, 39.19604
661.2512, 50.85034
661.7333, 51.36475
662.2154, 46.60010
662.6975, 49.86621
663.1796, 61.38281
663.6617, 69.28320
664.1439, 62.49487
664.6260, 50.05908
665.1081, 39.27319
665.5902, 30.99365
666.0723, 26.12231
666.5544, 27.94873
667.0366, 31.67139
667.5187, 32.93188
668.0008, 30.96826
668.4829, 28.12524
668.9650, 23.52905
669.4471, 19.25562
669.9293, 19.52612
670.4114, 24.54468
670.8935, 26.79492
671.3756, 23.48730
671.8577, 17.25195
672.3398, 8.776367
672.8220, 0.5197750
673.3041, 0.4389650
673.7862, 21.71851
674.2683, 45.37476
674.7504, 56.04956
675.2325, 56.01904
675.7147, 55.55542
676.1968, 63.81763
676.6789, 66.66455
677.1610, 52.70264
677.6431, 20.41040
678.1252, 8.527100
678.6074, 25.92041
679.0895, 48.49707
679.5716, 62.27808
680.0537, 67.55688
680.5358, 63.97217
681.0179, 50.42871
681.5001, 37.76440
681.9822, 41.55103
682.4643, 53.70483
682.9464, 55.23120
683.4285, 39.47021
683.9106, 24.98608
684.3928, 27.30933
684.8749, 37.92310
685.3570, 46.11230
685.8391, 46.63940
686.3212, 47.59766
686.8033, 53.64355
687.2855, 59.90820
687.7676, 57.92212
688.2497, 45.03149
688.7318, 31.64551
689.2139, 17.29956
689.6960, 5.480225
690.1782, 7.355469
690.6603, 22.68701
691.1424, 37.75854
691.6245, 46.46069
692.1066, 50.16406
692.5887, 50.19873
693.0709, 47.27734
693.5530, 43.47192
694.0351, 36.15430
694.5172, 31.87036
694.9993, 35.24927
695.4814, 45.73560
695.9636, 57.30273
696.4457, 77.63232
696.9278, 91.86450
697.4099, 90.45239
697.8920, 69.83545
698.3741, 57.66089
698.8563, 55.22168
699.3384, 57.57007
699.8205, 63.94409
700.3026, 71.95093
700.7847, 68.94531
701.2668, 52.22046
701.7490, 35.01489
702.2311, 28.58691
702.7132, 30.10840
703.1953, 36.48389
703.6774, 50.95728
704.1595, 61.48120
704.6417, 64.25537
705.1238, 60.22070
705.6059, 49.65894
706.0880, 18.84595
706.5701, 5.446533
707.0522, 20.13159
707.5344, 49.05127
708.0165, 63.45166
708.4986, 62.72021
708.9807, 58.46777
709.4628, 53.38794
709.9449, 47.70166
710.4271, 42.55151
710.9092, 38.23120
711.3913, 32.55371
711.8734, 19.07495
712.3555, 7.778564
712.8376, 7.674561
713.3198, 16.70630
713.8019, 24.17920
714.2840, 26.33887
714.7661, 27.29419
715.2482, 28.47388
715.7303, 29.86646
716.2125, 30.59375
716.6946, 30.27490
717.1767, 30.37378
717.6588, 32.91846
718.1409, 37.14917
718.6230, 36.56323
719.1052, 31.08252
719.5873, 23.80469
720.0694, 13.00171
720.5515, 3.780518
721.0336, 4.399658
721.5157, 16.97144
721.9979, 28.55005
722.4800, 33.33569
722.9621, 34.58252
723.4442, 34.95068
723.9263, 35.58325
724.4084, 32.84058
724.8906, 23.41235
725.3727, 14.47290
725.8548, 15.28833
726.3369, 26.92529
726.8190, 31.22925
727.3011, 24.79321
727.7833, 15.16113
728.2654, 10.67065
728.7475, 10.68286
729.2296, 14.79053
729.7117, 26.59668
730.1938, 34.50854
730.6760, 24.50488
731.1581, 7.090332
731.6402, 1.656738
732.1223, 11.88281
732.6044, 21.79126
733.0865, 22.59204
733.5687, 18.20898
734.0508, 17.76172
734.5329, 23.40527
735.0150, 23.18872
735.4971, 11.00952
735.9792, 5.623047
736.4614, 8.212646
736.9435, 0.9707030
737.4256, 10.64673
737.9077, 17.79272
738.3898, 20.93188
738.8719, 16.19409
739.3541, 5.746582
739.8362, 2.759277
740.3183, 8.351563
740.8004, 9.802246
741.2825, 3.684570
741.7646, 8.445557
742.2468, 13.73486
742.7289, 9.548828
743.2110, 5.225098
743.6931, 6.698975
744.1752, 11.89844
744.6573, 5.748047
745.1395, 11.27881
745.6216, 24.15234
746.1037, 17.74683
746.5858, 3.677246
747.0679, 3.690674
747.5500, 3.778320
748.0322, 3.729736
748.5143, 9.589600
748.9964, 14.15625
749.4785, 12.05737
749.9606, 1.061279
750.4427, 6.145996
750.9249, 7.636963
751.4070, 8.774414
751.8891, 15.83228
752.3712, 28.26416
752.8533, 25.96924
753.3354, 7.437988
753.8176, 12.57373
754.2997, 21.46899
754.7818, 23.06323
755.2639, 21.47998
755.7460, 16.15479
756.2281, 12.11621
756.7103, 9.802979
757.1924, 11.39746
757.6745, 19.95972
758.1566, 44.87061
758.6387, 58.85571
759.1208, 57.99194
759.6030, 50.48462
760.0851, 42.93481
760.5672, 35.23511
761.0493, 32.34961
761.5314, 36.34619
762.0135, 40.43921
762.4957, 32.44238
762.9778, 19.14111
763.4599, 14.19287
763.9420, 25.03809
764.4241, 33.76196
764.9063, 27.78491
765.3884, 16.06152
765.8705, 9.593018
766.3526, 13.38623
766.8347, 17.66455
767.3168, 21.83862
767.7990, 26.61841
768.2811, 33.73535
768.7632, 43.37573
769.2453, 51.58203
769.7274, 57.62915
770.2095, 60.98828
770.6917, 62.06079
771.1738, 60.33423
771.6559, 53.10083
772.1380, 28.62598
772.6201, 13.63403
773.1022, 30.61108
773.5844, 64.97021
774.0665, 90.73169
774.5486, 96.24829
775.0307, 105.6362
775.5128, 124.7180
775.9949, 147.5315
776.4771, 156.9797
776.9592, 152.3516
777.4413, 159.0474
777.9234, 187.8733
778.4055, 226.1094
778.8876, 254.3474
779.3698, 276.9097
779.8519, 303.9695
780.3340, 343.2871
780.8161, 384.2737
781.2982, 418.9451
781.7803, 451.7095
782.2625, 495.6511
782.7446, 560.6687
783.2267, 619.5820
783.7088, 662.7517
784.1909, 699.1250
784.6730, 755.2463
785.1552, 831.1135
785.6373, 911.5732
786.1194, 986.1658
786.6015, 1066.580
787.0836, 1171.883
787.5657, 1296.334
788.0479, 1423.647
788.5300, 1526.223
789.0121, 1647.148
789.4942, 1809.397
789.9763, 2007.064
790.4584, 2209.132
790.9406, 2418.177
791.4227, 2622.364
791.9048, 2823.245
792.3869, 3012.694
792.8690, 3174.855
793.3511, 3308.606
793.8333, 3379.568
794.3154, 3392.299
794.7975, 3319.336
795.2796, 3092.449
795.7617, 2743.316
796.2438, 2385.552
796.7260, 2034.335
797.2081, 1711.126
797.6902, 1427.215
798.1723, 1181.521
798.6544, 968.7239
799.1365, 792.5710
799.6187, 645.3235
800.1008, 526.4712
800.5829, 432.3149
801.0650, 355.0471
801.5471, 294.3359
802.0292, 244.9434
802.5114, 203.1155
802.9935, 171.3093
803.4756, 162.3350
803.9577, 168.9741
804.4398, 163.9180
804.9219, 120.8152
805.4041, 83.40771
805.8862, 66.38037
806.3683, 65.19019
806.8504, 60.73853
807.3325, 52.76636
807.8146, 41.84155
808.2968, 27.04932
808.7789, 10.69189
809.2610, 4.227783
809.7431, 17.53857
810.2252, 27.38159
810.7073, 27.21680
811.1895, 25.39307
811.6716, 30.27905
812.1537, 39.96216
812.6358, 43.83594
813.1179, 36.92139
813.6000, 28.43970
814.0822, 18.91699
814.5643, 9.750977
815.0464, 8.854004
815.5285, 16.42529
816.0106, 16.71631
816.4927, 3.449219
816.9749, 27.60327
817.4570, 28.86523
817.9391, 13.04980
818.4212, 2.992188
818.9033, 19.84839
819.3854, 26.74756
819.8676, 11.01050
820.3497, 18.94214
820.8318, 33.75586
821.3139, 25.47949
821.7960, 20.44165
822.2781, 26.12524
822.7603, 37.83105
823.2424, 43.08350
823.7245, 43.20361
824.2066, 47.93091
824.6887, 64.92383
825.1708, 83.26392
825.6530, 91.65747
826.1351, 94.12573
826.6172, 99.27710
827.0993, 107.8171
827.5814, 122.1296
828.0635, 144.9255
828.5457, 172.5186
829.0278, 196.0820
829.5099, 213.5662
829.9920, 241.1743
830.4741, 285.1255
830.9562, 336.4773
831.4384, 377.0725
831.9205, 413.9780
832.4026, 465.5642
832.8847, 543.5510
833.3668, 631.5010
833.8489, 723.8130
834.3311, 819.9426
834.8132, 919.5369
835.2953, 1026.953
835.7774, 1129.045
836.2595, 1224.308
836.7416, 1312.702
837.2238, 1385.860
837.7059, 1448.308
838.1880, 1532.483
838.6701, 1647.648
839.1522, 1782.139
839.6343, 1928.645
840.1165, 2085.668
840.5986, 2246.481
841.0807, 2381.386
841.5628, 2568.368
842.0449, 2837.916
842.5270, 3154.365
843.0092, 3485.589
843.4913, 3831.157
843.9734, 4192.999
844.4555, 4570.206
844.9376, 4967.789
845.4197, 5416.170
845.9019, 5883.370
846.3840, 6338.355
846.8661, 6803.407
847.3482, 7115.007
847.8303, 7242.905
848.3124, 7138.009
848.7946, 6718.779
849.2767, 5856.022
849.7588, 5028.304
850.2409, 4215.788
850.7230, 3475.552
851.2051, 2851.687
851.6873, 2346.643
852.1694, 1951.568
852.6515, 1666.428
853.1336, 1455.823
853.6157, 1309.948
854.0978, 1208.247
854.5800, 1133.707
855.0621, 1086.129
855.5442, 1048.000
856.0263, 1005.945
856.5084, 983.9543
856.9905, 998.3218
857.4727, 1048.946
857.9548, 1095.069
858.4369, 1135.625
858.9190, 1186.082
859.4011, 1254.545
859.8832, 1342.107
860.3654, 1446.170
860.8475, 1568.308
861.3296, 1719.747
861.8117, 1911.526
862.2938, 2129.569
862.7759, 2361.519
863.2581, 2609.354
863.7402, 2923.189
864.2223, 3311.160
864.7044, 3733.336
865.1865, 4173.093
865.6686, 4636.083
866.1508, 5129.701
866.6329, 5653.360
867.1150, 6185.528
867.5971, 6701.712
868.0792, 7236.523
868.5613, 7808.324
869.0435, 8417.732
869.5256, 9047.065
870.0077, 9651.065
870.4898, 10346.89
870.9719, 11167.60
871.4540, 12091.15
871.9362, 13060.53
872.4183, 14085.13
872.9004, 15238.35
873.3825, 16540.41
873.8646, 17983.95
874.3467, 19584.78
874.8289, 21319.53
875.3110, 23135.69
875.7931, 25077.54
876.2752, 27005.59
876.7573, 29009.78
877.2394, 30893.87
877.7216, 32556.34
878.2037, 34017.69
878.6858, 34731.70
879.1679, 34638.73
879.6500, 33765.23
880.1321, 31922.58
880.6143, 29404.98
881.0964, 26537.62
881.5785, 23267.70
882.0606, 20191.80
882.5427, 17450.50
883.0248, 15038.16
883.5070, 12966.18
883.9891, 11240.37
884.4712, 9764.584
884.9533, 8565.760
885.4354, 7546.898
885.9175, 6657.187
886.3997, 5884.801
886.8818, 5232.793
887.3639, 4693.941
887.8460, 4221.012
888.3281, 3812.996
888.8102, 3447.037
889.2924, 3115.778
889.7745, 2818.115
890.2566, 2552.435
890.7387, 2322.702
891.2208, 2117.286
891.7029, 1930.833
892.1851, 1765.601
892.6672, 1624.533
893.1493, 1504.269
893.6314, 1396.445
894.1135, 1300.068
894.5956, 1212.262
895.0778, 1133.588
895.5599, 1061.611
896.0420, 992.6389
896.5241, 928.7244
897.0062, 860.3296
897.4883, 782.7463
897.9705, 706.5178
898.4526, 655.7979
898.9347, 624.9983
899.4168, 588.5667
899.8989, 536.1384
900.3810, 488.1106
900.8632, 462.1731
901.3453, 448.6455
901.8274, 436.1833
902.3095, 426.4646
902.7916, 410.2820
903.2737, 383.8274
903.7559, 356.1924
904.2380, 337.4902
904.7201, 326.1694
905.2022, 306.7490
905.6843, 278.4060
906.1664, 251.3105
906.6486, 233.0430
907.1307, 221.4944
907.6128, 216.3420
908.0949, 218.0435
908.5770, 215.0449
909.0591, 206.1467
909.5413, 192.1243
910.0234, 169.8723
910.5055, 142.5974
910.9876, 128.4460
911.4697, 127.0112
911.9518, 130.5376
912.4340, 140.8577
912.9161, 149.2573
913.3982, 141.6091
913.8803, 124.8035
914.3624, 117.1987
914.8445, 137.6978
915.3267, 149.7908
915.8088, 143.4421
916.2909, 128.1396
916.7730, 122.1624
917.2551, 125.3569
917.7372, 132.3057
918.2194, 143.4705
918.7015, 152.5056
919.1836, 148.8091
919.6657, 140.1318
920.1478, 138.4861
920.6299, 156.1650
921.1121, 159.3220
921.5942, 134.2202
922.0763, 104.0012
922.5584, 87.24902
923.0405, 84.45605
923.5226, 80.67188
924.0048, 75.54468
924.4869, 69.36475
924.9690, 62.92651
925.4511, 55.09082
925.9332, 42.52637
926.4153, 25.57617
926.8975, 14.01343
927.3796, 14.24121
927.8617, 16.55103
928.3438, 18.15771
928.8259, 19.19287
929.3080, 19.43896
929.7902, 18.95288
930.2723, 22.55444
930.7544, 37.88623
931.2365, 51.83203
931.7186, 47.59082
932.2007, 30.63110
932.6829, 12.20239
933.1650, 17.09229
933.6471, 29.31519
934.1292, 12.96777
934.6113, 13.90308
935.0934, 26.26611
935.5756, 24.32642
936.0577, 17.74316
936.5398, 7.207031
937.0219, 2.638184
937.5040, 6.687744
937.9861, 7.512451
938.4683, 8.116211
938.9504, 9.334717
939.4325, 8.332520
939.9146, 2.635986
940.3967, 2.581055
940.8788, 5.689941
941.3610, 6.414063
941.8431, 2.312500
942.3252, 20.07202
942.8073, 32.52441
943.2894, 24.32764
943.7715, 11.62231
944.2537, 10.62646
944.7358, 18.01514
945.2179, 20.40063
945.7000, 7.182617
946.1821, 0.1848140
946.6642, 4.453857
947.1464, 14.52246
947.6285, 13.42773
948.1106, 3.488037
948.5927, 3.952881
949.0748, 23.74536
949.5569, 40.74390
950.0391, 35.30298
950.5212, 18.18262
951.0033, 3.855713
951.4854, 39.60840
951.9675, 57.64624
952.4496, 51.92163
952.9318, 38.41455
953.4139, 28.58716
953.8960, 21.68042
954.3781, 11.30298
954.8602, 2.025879
955.3423, 9.692871
955.8245, 4.114746
956.3066, 7.611816
956.7887, 26.45850
957.2708, 49.29688
957.7529, 54.34277
958.2350, 31.26050
958.7172, 14.23267
959.1993, 13.98340
959.6814, 22.95483
960.1635, 26.62695
960.6456, 25.85278
961.1277, 23.05493
961.6099, 18.36719
962.0920, 13.18286
962.5741, 3.715576
963.0562, 3.278564
963.5383, 1.185547
964.0204, 24.69116
964.5026, 37.63647
964.9847, 38.87183
965.4668, 34.33130
965.9489, 21.36743
966.4310, 5.558350
966.9131, 6.251709
967.3953, 23.13354
967.8774, 37.09888
968.3595, 38.58569
968.8416, 34.56323
969.3237, 24.23438
969.8058, 10.82617
970.2880, 11.50317
970.7701, 28.58911
971.2522, 39.40991
971.7343, 33.21533
972.2164, 22.34766
972.6985, 24.44678
973.1807, 35.02051
973.6628, 45.50928
974.1449, 55.73022
974.6270, 61.70776
975.1091, 60.24390
975.5912, 56.66968
976.0734, 57.12524
976.5555, 61.85938
977.0376, 56.26636
977.5197, 39.02075
978.0018, 26.30615
978.4839, 37.40088
978.9661, 55.34912
979.4482, 63.27393
979.9303, 60.52734
980.4124, 56.94971
980.8945, 52.10132
981.3766, 50.11816
981.8588, 53.88086
982.3409, 59.91479
982.8230, 55.64771
983.3051, 43.64868
983.7872, 37.95166
984.2693, 45.92920
984.7515, 56.61328
985.2336, 66.20654
985.7157, 72.21216
986.1978, 70.29272
986.6799, 53.26099
987.1620, 46.18628
987.6442, 52.18677
988.1263, 59.39502
988.6084, 54.18921
989.0905, 42.68140
989.5726, 41.03589
990.0547, 49.15942
990.5369, 57.07715
991.0190, 58.96924
991.5011, 58.58984
991.9832, 60.22534
992.4653, 62.44067
992.9474, 58.74023
993.4296, 48.06104
993.9117, 41.42993
994.3938, 43.58154
994.8759, 47.91260
995.3580, 45.38232
995.8401, 39.26196
996.3223, 34.23999
996.8044, 30.34985
997.2865, 30.42163
997.7686, 36.70532
998.2507, 44.91870
998.7328, 53.24902
999.2150, 61.36499
999.6971, 60.17993
1000.179, 49.27954
1000.661, 40.90625
1001.143, 49.66284
1001.626, 61.46216
1002.108, 63.53296
1002.590, 57.19751
1003.072, 54.55273
1003.554, 61.55591
1004.036, 61.57104
1004.518, 47.68701
1005.000, 29.70117
1005.482, 30.77490
1005.965, 42.65771
1006.447, 37.64209
1006.929, 1.196289
1007.411, 24.58008
1007.893, 4.192139
1008.375, 25.94995
1008.857, 37.18335
1009.339, 26.52466
1009.822, 24.02173
1010.304, 30.51660
1010.786, 35.92603
1011.268, 31.75439
1011.750, 24.33765
1012.232, 20.89941
1012.714, 20.33521
1013.196, 20.85278
1013.678, 21.96216
1014.161, 27.04883
1014.643, 39.53589
1015.125, 51.25073
1015.607, 44.78589
1016.089, 24.92432
1016.571, 25.29346
1017.053, 52.88403
1017.535, 77.83569
1018.018, 71.69336
1018.500, 57.91650
1018.982, 56.49780
1019.464, 68.98730
1019.946, 73.73584
1020.428, 69.75146
1020.910, 60.37793
1021.392, 46.66333
1021.874, 30.74219
1022.357, 8.294922
1022.839, 13.11328
1023.321, 16.20728
1023.803, 25.24902
1024.285, 54.17432
1024.767, 51.62061
1025.249, 37.89404
1025.731, 28.88770
1026.214, 24.49707
1026.696, 25.30273
1027.178, 31.47632
1027.660, 36.90723
1028.142, 36.56079
1028.624, 34.92090
1029.106, 35.10815
1029.588, 37.10767
1030.070, 39.29346
1030.553, 42.45850
1031.035, 44.91675
1031.517, 46.19824
1031.999, 47.95312
1032.481, 54.92041
1032.963, 63.64917
1033.445, 64.04272
1033.927, 50.61230
1034.410, 40.05078
1034.892, 42.47583
1035.374, 48.31006
1035.856, 51.25757
1036.338, 51.61377
1036.820, 49.59595
1037.302, 45.26172
1037.784, 39.86401
1038.266, 29.51392
1038.749, 22.49170
1039.231, 34.64429
1039.713, 56.13989
1040.195, 62.22266
1040.677, 31.46289
1041.159, 16.74609
1041.641, 27.15381
1042.123, 45.23242
1042.605, 47.65869
1043.088, 40.57227
1043.570, 44.12329
1044.052, 60.38867
1044.534, 70.32764
1045.016, 58.23315
1045.498, 42.45874
1045.980, 30.70093
1046.462, 23.31567
1046.945, 23.44629
1047.427, 31.47095
1047.909, 37.34009
1048.391, 37.81348
1048.873, 34.43994
1049.355, 24.30566
1049.837, 13.27417
1050.319, 9.351807
1050.802, 16.71582
1051.284, 26.88452
1051.766, 42.79126
1052.248, 54.16626
1052.730, 48.90479
1053.212, 33.85229
1053.694, 32.30908
1054.176, 41.52271
1054.658, 48.54053
1055.141, 45.12744
1055.623, 40.65405
1056.105, 37.85815
1056.587, 36.22949
1057.069, 35.82568
1057.551, 36.75098
1058.033, 34.31665
1058.515, 27.60547
1058.997, 20.27124
1059.480, 12.60986
1059.962, 7.893555
1060.444, 10.76123
1060.926, 21.63159
1061.408, 30.04370
1061.890, 35.09595
1062.372, 39.52686
1062.854, 45.04419
1063.337, 49.13135
1063.819, 45.55688
1064.301, 36.81396
1064.783, 26.81470
1065.265, 12.02295
1065.747, 7.894043
1066.229, 26.73096
1066.711, 47.52588
1067.193, 57.99805
1067.676, 58.42603
1068.158, 53.27686
1068.640, 43.17603
1069.122, 38.02954
1069.604, 51.14258
1070.086, 63.83789
1070.568, 62.28516
1071.050, 51.53516
1071.532, 42.71338
1072.015, 34.70386
1072.497, 35.04639
1072.979, 46.38818
1073.461, 57.86230
1073.943, 54.38525
1074.425, 45.71997
1074.907, 48.01294
1075.389, 61.81860
1075.872, 68.49072
1076.354, 60.13232
1076.836, 47.81982
1077.318, 31.46533
1077.800, 16.06445
1078.282, 17.31494
1078.764, 29.54175
1079.246, 30.26172
1079.729, 9.846924
1080.211, 9.111572
1080.693, 17.78223
1081.175, 17.38916
1081.657, 5.428955
1082.139, 16.70581
1082.621, 23.16797
1083.103, 13.70532
1083.585, 6.743408
1084.068, 16.21851
1084.550, 28.39331
1085.032, 29.51880
1085.514, 24.00391
1085.996, 19.84033
1086.478, 21.63232
1086.960, 14.83667
1087.442, 5.187500
1087.924, 20.79517
1088.406, 10.28369
1088.889, 13.84058
1089.371, 31.20459
1089.853, 40.73926
1090.335, 43.13525
1090.817, 30.63208
1091.299, 21.24634
1091.781, 19.21436
1092.263, 22.24878
1092.746, 28.90845
1093.228, 37.11108
1093.710, 33.88794
1094.192, 15.47095
1094.674, 1.076660
1095.156, 5.133545
1095.638, 15.84985
1096.120, 26.81323
1096.603, 37.82690
1097.085, 47.60718
1097.567, 55.47266
1098.049, 60.09888
1098.531, 59.06519
1099.013, 58.16870
1099.495, 67.61694
1099.977, 79.11963
1100.459, 81.33398
1100.942, 68.32251
1101.424, 59.53979
1101.906, 55.96606
1102.388, 53.46484
1102.870, 50.02954
1103.352, 45.44434
1103.834, 36.27832
1104.316, 25.49268
1104.798, 21.71069
1105.281, 37.98071
1105.763, 46.92603
1106.245, 42.78491
1106.727, 33.76538
1107.209, 26.52026
1107.691, 22.03613
1108.173, 28.38110
1108.655, 45.04932
1109.138, 57.09766
1109.620, 51.92041
1110.102, 44.68555
1110.584, 42.16797
1111.066, 42.65112
1111.548, 43.08057
1112.030, 43.40527
1112.512, 40.51807
1112.995, 33.26831
1113.477, 26.57886
1113.959, 23.27393
1114.441, 23.49219
1114.923, 30.83789
1115.405, 44.52466
1115.887, 42.47876
1116.369, 20.21167
1116.851, 8.675049
1117.333, 23.30493
1117.816, 44.19434
1118.298, 41.65918
1118.780, 29.64307
1119.262, 29.61548
1119.744, 53.28955
1120.226, 66.52930
1120.708, 67.21826
1121.190, 59.90234
1121.673, 42.42261
1122.155, 21.65942
1122.637, 14.23608
1123.119, 16.99951
1123.601, 21.31860
1124.083, 27.29736
1124.565, 29.90942
1125.047, 28.52979
1125.530, 24.91406
1126.012, 19.13452
1126.494, 13.00562
1126.976, 11.75220
1127.458, 15.66650
1127.940, 19.32739
1128.422, 17.41187
1128.904, 17.14209
1129.386, 24.44287
1129.869, 33.72241
1130.351, 34.40430
1130.833, 26.74048
1131.315, 28.08936
1131.797, 41.06982
1132.279, 52.08667
1132.761, 47.06885
1133.243, 38.96680
1133.725, 37.46704
1134.208, 41.51758
1134.690, 44.20410
1135.172, 45.57788
1135.654, 44.75928
1136.136, 40.91553
1136.618, 37.34082
1137.100, 37.42578
1137.582, 39.87695
1138.065, 44.28735
1138.547, 51.53320
1139.029, 51.39307
1139.511, 43.00146
1139.993, 31.43604
1140.475, 14.53076
1140.957, 1.751709
1141.439, 14.67114
1141.922, 40.33130
1142.404, 57.00269
1142.886, 58.74194
1143.368, 49.88135
1143.850, 23.12183
1144.332, 4.000244
1144.814, 15.09766
1145.296, 41.53833
1145.778, 45.11963
1146.260, 32.60522
1146.743, 19.04590
1147.225, 6.107666
1147.707, 2.426025
1148.189, 7.414551
1148.671, 6.864502
1149.153, 2.772217
1149.635, 19.65137
1150.117, 39.30591
1150.600, 59.66504
1151.082, 68.15405
1151.564, 49.08301
1152.046, 28.23779
1152.528, 13.71460
1153.010, 3.366455
1153.492, 6.991943
1153.974, 16.41333
1154.457, 14.58545
1154.939, 0.9228520
1155.421, 11.98779
1155.903, 14.03296
1156.385, 14.68188
1156.867, 21.49707
1157.349, 30.47388
1157.831, 30.93726
1158.313, 22.68066
1158.796, 17.49609
1159.278, 17.08252
1159.760, 21.86841
1160.242, 40.75586
1160.724, 58.01196
1161.206, 57.82178
1161.688, 42.56934
1162.170, 33.43042
1162.652, 30.97412
1163.135, 27.56592
1163.617, 19.49927
1164.099, 15.16650
1164.581, 31.31250
1165.063, 50.72754
1165.545, 52.59839
1166.027, 32.85132
1166.509, 20.28662
1166.992, 15.06494
1167.474, 15.92822
1167.956, 23.95483
1168.438, 35.07202
1168.920, 50.75635
1169.402, 63.73975
1169.884, 62.31299
1170.366, 37.66626
1170.849, 19.07739
1171.331, 5.909912
1171.813, 1.474609
1172.295, 12.25220
1172.777, 28.41211
1173.259, 34.33325
1173.741, 33.49634
1174.223, 32.56616
1174.705, 32.60767
1175.188, 33.62573
1175.670, 34.93042
1176.152, 38.91235
1176.634, 50.78931
1177.116, 64.90308
1177.598, 71.31763
1178.080, 70.59790
1178.562, 64.99780
1179.044, 49.72095
1179.527, 38.03296
1180.009, 32.41699
1180.491, 27.28296
1180.973, 10.71729
1181.455, 7.314697
1181.937, 6.648438
1182.419, 44.49023
1182.901, 62.35938
1183.384, 14.16235
1183.866, 12.77393
1184.348, 2.210693
1184.830, 31.09399
1185.312, 40.20020
1185.794, 34.98486
1186.276, 25.98438
1186.758, 15.14380
1187.240, 13.02588
1187.723, 38.15259
1188.205, 53.06787
1188.687, 44.77002
1189.169, 27.62793
1189.651, 27.28149
1190.133, 37.55957
1190.615, 37.21216
1191.097, 23.40723
1191.579, 15.38843
1192.062, 28.27441
1192.544, 40.54956
1193.026, 45.99414
1193.508, 45.72583
1193.990, 37.90894
1194.472, 26.38843
1194.954, 25.79395
1195.436, 39.76880
1195.919, 55.52026
1196.401, 78.76660
1196.883, 88.23779
1197.365, 70.72314
1197.847, 36.59644
1198.329, 13.15332
1198.811, 0.5048830
1199.293, 1.000732
1199.776, 18.37402
1200.258, 33.34155
1200.740, 34.78809
1201.222, 33.60889
1201.704, 35.13574
1202.186, 38.32959
1202.668, 38.43066
1203.150, 36.46973
1203.632, 37.48560
1204.115, 45.36548
1204.597, 49.66968
1205.079, 38.51562
1205.561, 29.77930
1206.043, 37.37231
1206.525, 55.91626
1207.007, 52.71069
1207.489, 32.43066
1207.971, 17.50146
1208.454, 19.49097
1208.936, 22.63696
1209.418, 22.07471
1209.900, 18.82544
1210.382, 11.42871
1210.864, 0.4514160
1211.346, 4.971436
1211.828, 5.601074
1212.311, 3.362305
1212.793, 1.427490
1213.275, 8.682129
1213.757, 20.04590
1214.239, 32.62329
1214.721, 47.10767
1215.203, 61.69165
1215.685, 58.98535
1216.167, 41.97998
1216.650, 26.52173
1217.132, 22.32886
1217.614, 18.45117
1218.096, 8.450928
1218.578, 0.5827640
1219.060, 3.551758
1219.542, 15.70264
1220.024, 28.97290
1220.506, 41.64429
1220.989, 45.65356
1221.471, 26.14941
1221.953, 11.36328
1222.435, 9.325439
1222.917, 14.93066
1223.399, 28.75244
1223.881, 46.51074
1224.363, 40.35254
1224.846, 14.31982
1225.328, 1.724121
1225.810, 18.93164
1226.292, 35.21240
1226.774, 34.94507
1227.256, 29.26953
1227.738, 33.95020
1228.220, 44.09863
1228.703, 37.87500
1229.185, 17.31250
1229.667, 4.224365
1230.149, 16.15747
1230.631, 26.43726
1231.113, 27.37158
1231.595, 24.63721
1232.077, 19.25171
1232.559, 13.80298
1233.042, 18.63525
1233.524, 32.64917
1234.006, 41.66357
1234.488, 35.18750
1234.970, 29.19287
1235.452, 26.78638
1235.934, 25.99487
1236.416, 24.41968
1236.898, 22.43823
1237.381, 20.96436
1237.863, 20.03296
1238.345, 18.94336
1238.827, 17.73340
1239.309, 15.70996
1239.791, 11.87915
1240.273, 8.831299
1240.755, 11.71680
1241.238, 17.14917
1241.720, 18.33032
1242.202, 15.06348
1242.684, 12.60571
1243.166, 11.44824
1243.648, 12.57788
1244.130, 17.06934
1244.612, 21.34619
1245.094, 14.28101
1245.577, 7.917480
1246.059, 23.38892
1246.541, 59.53516
1247.023, 73.60742
1247.505, 53.28271
1247.987, 38.44971
1248.469, 38.72485
1248.951, 42.20337
1249.433, 30.79443
1249.916, 16.20874
1250.398, 14.15942
1250.880, 25.09985
1251.362, 30.55884
1251.844, 28.45923
1252.326, 27.16235
1252.808, 28.89233
1253.290, 28.32690
1253.773, 13.82349
1254.255, 1.462158
1254.737, 3.201904
1255.219, 8.408691
1255.701, 19.61914
1256.183, 30.86865
1256.665, 37.62402
1257.147, 38.43701
1257.630, 36.60620
1258.112, 29.31152
1258.594, 25.54980
1259.076, 40.37817
1259.558, 66.18286
1260.040, 64.81909
1260.522, 36.77368
1261.004, 24.61865
1261.486, 40.16797
1261.969, 55.48535
1262.451, 47.57959
1262.933, 33.54956
1263.415, 22.44873
1263.897, 15.12036
1264.379, 14.58472
1264.861, 20.35303
1265.343, 32.36646
1265.825, 52.72754
1266.308, 60.15747
1266.790, 26.10742
1267.272, 3.252930
1267.754, 5.538818
1268.236, 8.450195
1268.718, 9.764404
1269.200, 2.715576
1269.682, 3.932617
1270.165, 17.58057
1270.647, 29.55493
1271.129, 35.75073
1271.611, 36.05127
1272.093, 28.07178
1272.575, 17.49854
1273.057, 5.602295
1273.539, 8.164795
1274.021, 8.931885
1274.504, 10.41016
1274.986, 11.91138
1275.468, 13.80786
1275.950, 16.78442
1276.432, 21.26099
1276.914, 23.41699
1277.396, 13.23926
1277.878, 0.0000000E+00
##END=



