##NAMES=Prehnite
##RRUFFID=R050410
##IDEAL CHEMISTRY=Ca_2_Al(Si_3_Al)O_10_(OH)_2_
##LOCALITY=Topel, Namibia
##OWNER=RRUFF
##SOURCE=John Lucking
##DESCRIPTION=Aggregate of pale green prismatic crystals
##STATUS=The identification of this mineral has been confirmed by X-ray diffraction and chemical analysis
##URL=rruff.info/R050410
##MEASURED CHEMISTRY=Ca_1.98_Al_0.99_(Si_3.02_Al_0.99_)O_10_(OH)_2
139.7709, 0.0000000E+00
140.2530, 1.136375
140.7351, 1.639870
141.2172, 0.2669530
141.6993, 0.4143910
142.1814, 0.2374570
142.6636, 1.981956
143.1457, 4.082207
143.6278, 6.398300
144.1099, 8.966400
144.5920, 12.02955
145.0741, 15.52727
145.5563, 18.79711
146.0384, 21.29892
146.5205, 22.99489
147.0026, 24.13639
147.4847, 24.13540
147.9668, 23.99077
148.4490, 24.34921
148.9311, 25.24328
149.4132, 26.28996
149.8953, 26.95634
150.3774, 26.89804
150.8595, 27.19084
151.3417, 27.71486
151.8238, 28.64607
152.3059, 30.31742
152.7880, 32.80631
153.2701, 35.70631
153.7522, 37.95098
154.2344, 38.32272
154.7165, 39.39619
155.1986, 41.66386
155.6807, 44.57681
156.1628, 47.88951
156.6449, 50.98994
157.1271, 53.93454
157.6092, 57.54727
158.0913, 62.31725
158.5734, 68.00938
159.0555, 74.33127
159.5376, 81.41151
160.0198, 89.24905
160.5019, 97.08318
160.9840, 106.4448
161.4661, 120.9577
161.9482, 138.4805
162.4303, 162.7692
162.9125, 198.3501
163.3946, 244.8300
163.8767, 294.9543
164.3588, 358.3399
164.8409, 417.1522
165.3230, 441.8238
165.8052, 419.6294
166.2873, 368.0113
166.7694, 303.0639
167.2515, 217.8418
167.7336, 142.6421
168.2157, 93.28452
168.6979, 61.17577
169.1800, 38.45914
169.6621, 23.42313
170.1442, 14.54734
170.6263, 7.673935
171.1084, 3.375595
171.5906, 0.4512480
172.0727, 1.322350
172.5548, 2.266434
173.0369, 2.821045
173.5190, 3.262871
174.0011, 3.546852
174.4833, 3.290031
174.9654, 2.050713
175.4475, 0.6393430
175.9296, 0.8477250
176.4117, 2.379547
176.8938, 3.919762
177.3760, 5.406120
177.8581, 6.824493
178.3402, 8.766937
178.8223, 11.42062
179.3044, 14.33439
179.7865, 17.22614
180.2687, 20.20766
180.7508, 23.70470
181.2329, 28.19084
181.7150, 33.82849
182.1971, 38.36502
182.6792, 41.31884
183.1614, 43.75577
183.6435, 45.99892
184.1256, 48.16664
184.6077, 50.63995
185.0898, 53.76675
185.5719, 57.62584
186.0541, 61.75887
186.5362, 65.90256
187.0183, 70.46819
187.5004, 76.19374
187.9825, 83.24722
188.4646, 90.10215
188.9468, 95.65811
189.4289, 99.92552
189.9110, 102.6536
190.3931, 102.5262
190.8752, 101.1856
191.3573, 101.0165
191.8395, 102.1548
192.3216, 104.6252
192.8037, 108.5428
193.2858, 113.6764
193.7679, 119.8179
194.2500, 127.4075
194.7322, 135.9771
195.2143, 144.2141
195.6964, 152.3681
196.1785, 159.9950
196.6606, 167.0795
197.1427, 173.6131
197.6249, 178.8493
198.1070, 182.2808
198.5891, 184.1442
199.0712, 187.2593
199.5533, 192.2710
200.0354, 198.0090
200.5176, 204.2592
200.9997, 210.7857
201.4818, 217.2581
201.9639, 223.6591
202.4460, 230.0191
202.9281, 234.5280
203.4103, 236.1701
203.8924, 236.8048
204.3745, 236.8793
204.8566, 236.3097
205.3387, 234.8696
205.8208, 232.6049
206.3030, 229.6811
206.7851, 224.3661
207.2672, 216.6154
207.7493, 206.8657
208.2314, 194.5161
208.7135, 180.1227
209.1957, 164.9284
209.6778, 149.7701
210.1599, 134.3460
210.6420, 122.1838
211.1241, 113.3417
211.6062, 106.9722
212.0884, 103.2565
212.5705, 101.8612
213.0526, 101.5751
213.5347, 101.2087
214.0168, 100.6840
214.4989, 102.4077
214.9811, 106.8756
215.4632, 112.9626
215.9453, 119.7184
216.4274, 127.1876
216.9095, 136.4219
217.3916, 148.6077
217.8737, 164.0094
218.3559, 179.4600
218.8380, 196.6256
219.3201, 212.8604
219.8022, 226.8764
220.2843, 238.5728
220.7664, 246.0104
221.2486, 247.2005
221.7307, 242.4105
222.2128, 233.3228
222.6949, 218.2045
223.1770, 199.8289
223.6591, 180.6466
224.1413, 160.4909
224.6234, 141.1092
225.1055, 123.5351
225.5876, 107.7511
226.0697, 94.20167
226.5518, 83.63789
227.0340, 75.11208
227.5161, 67.26671
227.9982, 59.96812
228.4803, 53.84745
228.9624, 49.81644
229.4445, 47.06512
229.9267, 44.56253
230.4088, 41.92249
230.8909, 39.44025
231.3730, 37.74418
231.8551, 37.07560
232.3372, 36.67795
232.8194, 36.38062
233.3015, 36.16270
233.7836, 35.91637
234.2657, 35.52417
234.7478, 35.15521
235.2299, 35.20560
235.7121, 35.79648
236.1942, 36.60181
236.6763, 37.58350
237.1584, 38.66527
237.6405, 39.75633
238.1227, 40.81094
238.6048, 41.89983
239.0869, 43.22168
239.5690, 44.96610
240.0511, 46.62630
240.5332, 48.16049
241.0154, 49.55457
241.4975, 50.86304
241.9796, 52.11801
242.4617, 53.12058
242.9438, 53.35648
243.4259, 52.62151
243.9081, 51.31700
244.3902, 49.57307
244.8723, 47.32993
245.3544, 44.50328
245.8365, 41.05113
246.3186, 37.07951
246.8008, 32.72312
247.2829, 27.21025
247.7650, 22.50275
248.2471, 19.02018
248.7292, 16.14359
249.2113, 13.33108
249.6935, 10.39144
250.1756, 7.463715
250.6577, 4.795189
251.1398, 2.137093
251.6219, 0.2256010
252.1040, 0.4893420
252.5862, 0.7251360
253.0683, 1.052597
253.5504, 1.650764
254.0325, 2.430672
254.5146, 3.269402
254.9967, 4.371872
255.4789, 5.096558
255.9610, 5.219696
256.4431, 5.097771
256.9252, 5.073265
257.4073, 5.216675
257.8894, 5.309868
258.3716, 5.055595
258.8537, 4.316933
259.3358, 3.507980
259.8179, 2.374001
260.3000, 1.315506
260.7821, 0.8478320
261.2643, 1.018715
261.7464, 1.179222
262.2285, 0.5738450
262.7106, 1.024261
263.1927, 2.417923
263.6748, 3.199669
264.1570, 4.015747
264.6391, 5.495438
265.1212, 7.679054
265.6033, 10.01360
266.0854, 11.91397
266.5675, 13.36308
267.0497, 15.22443
267.5318, 17.90431
268.0139, 20.72372
268.4960, 23.04499
268.9781, 24.85710
269.4602, 26.80518
269.9424, 29.60290
270.4245, 33.00967
270.9066, 35.45959
271.3887, 36.32887
271.8708, 36.68095
272.3529, 37.19472
272.8351, 37.88351
273.3172, 38.69594
273.7993, 39.63191
274.2814, 40.67841
274.7635, 41.75987
275.2456, 42.90849
275.7278, 44.04894
276.2099, 44.85683
276.6920, 45.44029
277.1741, 46.71161
277.6562, 49.18839
278.1383, 52.64750
278.6205, 56.31120
279.1026, 60.17625
279.5847, 64.32729
280.0668, 68.87470
280.5489, 73.80016
281.0310, 78.99311
281.5132, 84.85363
281.9953, 90.46885
282.4774, 94.65614
282.9595, 97.30205
283.4416, 99.26849
283.9237, 100.7788
284.4059, 101.9512
284.8880, 103.4063
285.3701, 105.6539
285.8522, 107.6854
286.3343, 108.4188
286.8164, 107.9181
287.2986, 107.1302
287.7807, 107.0299
288.2628, 107.0969
288.7449, 105.5291
289.2270, 101.6621
289.7091, 96.81318
290.1913, 92.04241
290.6734, 87.27632
291.1555, 82.05080
291.6376, 75.88225
292.1197, 69.16174
292.6018, 62.71834
293.0840, 56.67903
293.5661, 50.80530
294.0482, 44.51038
294.5303, 38.29013
295.0124, 33.08006
295.4945, 29.44350
295.9767, 26.98431
296.4588, 24.97894
296.9409, 23.34717
297.4230, 22.45671
297.9051, 22.66956
298.3872, 23.67802
298.8694, 25.32482
299.3515, 27.78744
299.8336, 30.48930
300.3157, 32.68694
300.7978, 34.33595
301.2799, 35.81783
301.7621, 37.11428
302.2442, 38.39740
302.7263, 39.72160
303.2084, 41.04265
303.6905, 42.75114
304.1726, 45.43446
304.6548, 49.13127
305.1369, 52.73944
305.6190, 55.89819
306.1011, 58.97748
306.5832, 62.06689
307.0653, 65.20272
307.5475, 68.82890
308.0296, 73.39648
308.5117, 78.84222
308.9938, 84.44539
309.4759, 89.48688
309.9580, 95.42662
310.4402, 103.0421
310.9223, 112.1936
311.4044, 122.3641
311.8865, 133.2872
312.3686, 144.9187
312.8507, 157.0543
313.3329, 168.9089
313.8150, 182.9192
314.2971, 200.8012
314.7792, 221.4970
315.2613, 243.3504
315.7434, 266.1456
316.2256, 289.4346
316.7077, 313.0716
317.1898, 338.7907
317.6719, 360.4772
318.1540, 377.1024
318.6361, 387.8358
319.1183, 390.8254
319.6004, 385.1935
320.0825, 372.7207
320.5646, 354.9038
321.0467, 331.1788
321.5288, 305.1452
322.0110, 274.9710
322.4931, 244.6930
322.9752, 217.3211
323.4573, 193.4221
323.9394, 172.3609
324.4215, 153.6682
324.9037, 137.4404
325.3858, 123.6049
325.8679, 112.9273
326.3500, 104.2008
326.8321, 96.66480
327.3142, 90.19593
327.7964, 84.40142
328.2785, 78.66217
328.7606, 73.27596
329.2427, 69.77921
329.7248, 68.91982
330.2069, 68.89578
330.6891, 68.62907
331.1712, 68.28992
331.6533, 68.26380
332.1354, 68.89426
332.6175, 69.86052
333.0996, 70.71342
333.5818, 71.70978
334.0639, 71.75535
334.5460, 70.27119
335.0281, 67.53145
335.5102, 63.51913
335.9923, 57.92606
336.4745, 51.70117
336.9566, 45.77504
337.4387, 40.17464
337.9208, 34.78115
338.4029, 29.27007
338.8850, 24.21043
339.3671, 20.17188
339.8492, 17.20825
340.3314, 14.90273
340.8135, 13.14651
341.2956, 11.84941
341.7777, 10.55061
342.2598, 9.186905
342.7419, 7.775093
343.2241, 6.241486
343.7062, 4.630676
344.1883, 3.224762
344.6704, 2.161133
345.1525, 1.393089
345.6346, 0.8661350
346.1168, 0.6343690
346.5989, 0.4598690
347.0810, 0.1241460
347.5631, 0.2680440
348.0452, 0.5260310
348.5273, 0.6175230
349.0095, 0.5399480
349.4916, 0.1336140
349.9737, 0.6141360
350.4558, 1.028229
350.9379, 0.5075610
351.4200, 0.3686750
351.9022, 0.6732180
352.3843, 0.2701340
352.8664, 0.4465480
353.3485, 1.412949
353.8306, 2.526367
354.3127, 3.294319
354.7949, 3.378288
355.2770, 3.418472
355.7591, 4.277473
356.2412, 5.917397
356.7233, 7.694031
357.2054, 9.454865
357.6876, 11.18878
358.1697, 12.96800
358.6518, 14.87357
359.1339, 16.56730
359.6160, 17.54842
360.0981, 17.97524
360.5803, 18.70049
361.0624, 19.96741
361.5445, 21.44401
362.0266, 22.74205
362.5087, 23.90813
362.9908, 25.23680
363.4730, 27.01423
363.9551, 29.00182
364.4372, 30.75771
364.9193, 31.80196
365.4014, 33.34142
365.8835, 36.01042
366.3657, 39.52408
366.8478, 43.62708
367.3299, 48.23079
367.8120, 53.23959
368.2941, 58.43951
368.7762, 63.66328
369.2584, 69.53211
369.7405, 76.38608
370.2226, 83.75289
370.7047, 91.45984
371.1868, 99.39304
371.6689, 107.1195
372.1511, 114.4210
372.6332, 121.2328
373.1153, 127.6129
373.5974, 133.9854
374.0795, 139.6667
374.5616, 144.0192
375.0438, 147.4639
375.5259, 151.1617
376.0080, 155.7723
376.4901, 160.9536
376.9722, 165.4620
377.4543, 167.5130
377.9365, 171.1727
378.4186, 177.5091
378.9007, 185.3680
379.3828, 193.4195
379.8649, 201.3096
380.3470, 209.5951
380.8292, 218.9246
381.3113, 229.0256
381.7934, 241.4964
382.2755, 255.9773
382.7576, 272.7748
383.2397, 291.6539
383.7219, 312.9329
384.2040, 337.3056
384.6861, 365.3601
385.1682, 396.9887
385.6503, 429.7583
386.1324, 465.0305
386.6146, 499.8775
387.0967, 537.4933
387.5788, 572.8812
388.0609, 601.8602
388.5430, 622.4388
389.0251, 631.8925
389.5073, 624.0806
389.9894, 594.2584
390.4715, 555.5885
390.9536, 502.6347
391.4357, 447.3213
391.9178, 395.2570
392.4000, 348.0043
392.8821, 305.5356
393.3642, 268.0378
393.8463, 235.4988
394.3284, 206.6176
394.8105, 181.9988
395.2927, 160.5149
395.7748, 142.2423
396.2569, 126.6174
396.7390, 112.6239
397.2211, 99.75980
397.7032, 88.26551
398.1854, 78.90083
398.6675, 71.99453
399.1496, 66.14964
399.6317, 61.19907
400.1138, 56.99316
400.5959, 53.67146
401.0781, 51.24096
401.5602, 49.09146
402.0423, 46.71246
402.5244, 44.13208
403.0065, 41.60721
403.4886, 39.21413
403.9708, 36.82626
404.4529, 34.39201
404.9350, 31.90187
405.4171, 29.28887
405.8992, 26.30663
406.3813, 23.31258
406.8635, 20.88111
407.3456, 19.04877
407.8277, 17.43751
408.3098, 15.86265
408.7919, 14.39208
409.2740, 13.16530
409.7562, 12.30022
410.2383, 11.38694
410.7204, 9.890678
411.2025, 8.116302
411.6846, 7.104622
412.1667, 7.328613
412.6489, 7.753403
413.1310, 6.932457
413.6131, 4.906807
414.0952, 3.214523
414.5773, 2.348618
415.0594, 1.771362
415.5416, 1.015892
416.0237, 6.7855999E-02
416.5058, 0.9065250
416.9879, 1.849342
417.4700, 2.711861
417.9521, 3.233505
418.4343, 3.349586
418.9164, 3.862625
419.3985, 3.431870
419.8806, 3.273476
420.3627, 3.370689
420.8448, 4.601959
421.3270, 4.283409
421.8091, 4.534035
422.2912, 4.772545
422.7733, 4.130112
423.2554, 5.005928
423.7375, 4.302986
424.2197, 4.178490
424.7018, 3.735107
425.1839, 3.864380
425.6660, 3.767906
426.1481, 3.023781
426.6302, 2.579788
427.1124, 2.628685
427.5945, 1.941452
428.0766, 2.463333
428.5587, 1.852486
429.0408, 0.7308960
429.5229, 0.5573270
430.0051, 0.3341290
430.4872, 1.006561
430.9693, 0.5442810
431.4514, 2.164497
431.9335, 2.941391
432.4156, 2.851357
432.8978, 4.522316
433.3799, 4.402443
433.8620, 5.535652
434.3441, 5.419243
434.8262, 6.540802
435.3083, 7.167656
435.7905, 8.020386
436.2726, 8.382797
436.7547, 9.435287
437.2368, 10.96787
437.7189, 12.66116
438.2010, 14.48022
438.6832, 16.45219
439.1653, 18.70847
439.6474, 21.17226
440.1295, 23.46925
440.6116, 25.55376
441.0938, 27.42290
441.5759, 29.18686
442.0580, 30.76794
442.5401, 31.80447
443.0222, 32.20302
443.5043, 31.99923
443.9865, 31.13406
444.4686, 29.64627
444.9507, 27.83441
445.4328, 25.82362
445.9149, 23.57710
446.3970, 20.95403
446.8792, 17.77385
447.3613, 14.81654
447.8434, 12.26360
448.3255, 10.06196
448.8076, 8.136108
449.2897, 6.467552
449.7719, 5.122200
450.2540, 4.190842
450.7361, 3.691994
451.2182, 3.255653
451.7003, 2.848846
452.1824, 2.528870
452.6646, 2.332581
453.1467, 2.232269
453.6288, 2.189384
454.1109, 2.187340
454.5930, 2.220566
455.0751, 2.246979
455.5573, 2.021439
456.0394, 2.303673
456.5215, 3.378067
457.0036, 4.627998
457.4857, 5.718643
457.9678, 6.647064
458.4500, 7.590500
458.9321, 8.703056
459.4142, 9.936707
459.8963, 10.99960
460.3784, 11.73096
460.8605, 12.57665
461.3427, 13.75024
461.8248, 15.03669
462.3069, 16.20184
462.7890, 17.18784
463.2711, 18.20441
463.7532, 19.52237
464.2354, 21.11991
464.7175, 22.53383
465.1996, 23.51796
465.6817, 24.62940
466.1638, 26.51741
466.6459, 28.84248
467.1281, 30.72782
467.6102, 31.65327
468.0923, 32.21561
468.5744, 33.09633
469.0565, 34.25249
469.5386, 35.17064
470.0208, 35.60478
470.5029, 35.75239
470.9850, 35.98018
471.4671, 36.34597
471.9492, 36.49834
472.4313, 36.19054
472.9135, 35.71512
473.3956, 35.38623
473.8777, 35.19147
474.3598, 34.90010
474.8419, 34.27964
475.3240, 33.41608
475.8062, 33.15131
476.2883, 34.04779
476.7704, 34.79370
477.2525, 34.73830
477.7346, 34.63845
478.2167, 35.53226
478.6989, 37.58161
479.1810, 40.09532
479.6631, 42.05489
480.1452, 43.31056
480.6273, 44.76439
481.1094, 46.79050
481.5916, 48.52388
482.0737, 49.48128
482.5558, 49.92809
483.0379, 50.30629
483.5200, 50.88238
484.0021, 51.45628
484.4843, 51.61107
484.9664, 51.34657
485.4485, 50.52112
485.9306, 48.48816
486.4127, 46.30938
486.8948, 44.61731
487.3770, 43.34467
487.8591, 42.31657
488.3412, 41.20836
488.8233, 40.24178
489.3054, 40.08543
489.7875, 40.75858
490.2697, 41.68135
490.7518, 42.52921
491.2339, 43.48532
491.7160, 44.88101
492.1981, 46.79557
492.6802, 48.89180
493.1624, 50.98083
493.6445, 53.16832
494.1266, 55.50801
494.6087, 58.03120
495.0908, 61.04388
495.5729, 64.93236
496.0551, 69.67967
496.5372, 74.20884
497.0193, 78.01347
497.5014, 82.20510
497.9835, 87.31437
498.4656, 92.96664
498.9478, 98.59767
499.4299, 104.0338
499.9120, 109.6017
500.3941, 115.7576
500.8762, 122.6954
501.3583, 129.6223
501.8405, 135.4821
502.3226, 142.3904
502.8047, 151.6069
503.2868, 162.3619
503.7689, 172.9986
504.2510, 182.7069
504.7331, 192.2206
505.2152, 202.9412
505.6974, 215.0328
506.1795, 227.4335
506.6616, 239.3835
507.1437, 252.1321
507.6258, 266.6510
508.1079, 282.8554
508.5901, 299.5626
509.0722, 315.7854
509.5543, 332.4003
510.0364, 350.8083
510.5185, 370.9906
511.0006, 392.6411
511.4828, 415.8776
511.9649, 440.2308
512.4470, 464.4629
512.9291, 488.3010
513.4113, 512.8970
513.8934, 537.7596
514.3755, 563.8273
514.8576, 592.2906
515.3397, 623.1036
515.8218, 654.5389
516.3040, 685.4838
516.7861, 716.1211
517.2682, 747.2383
517.7503, 781.7308
518.2324, 812.9576
518.7145, 841.0853
519.1967, 865.3885
519.6788, 885.9058
520.1609, 902.3625
520.6430, 913.6265
521.1251, 918.7163
521.6072, 917.5904
522.0894, 909.6109
522.5715, 893.6350
523.0536, 872.2067
523.5357, 845.5521
524.0178, 815.0126
524.4999, 781.5463
524.9821, 745.1542
525.4642, 707.8149
525.9463, 670.7714
526.4284, 634.2282
526.9105, 597.6281
527.3926, 560.6409
527.8748, 525.0839
528.3569, 492.1458
528.8390, 461.8141
529.3211, 433.5604
529.8032, 407.0686
530.2853, 383.1035
530.7675, 362.4798
531.2496, 344.7159
531.7317, 328.9267
532.2138, 314.7865
532.6959, 302.5287
533.1780, 292.5019
533.6602, 284.7949
534.1423, 278.8818
534.6244, 275.1669
535.1065, 272.4450
535.5886, 270.2662
536.0707, 268.7897
536.5529, 268.2711
537.0350, 268.8173
537.5171, 270.4651
537.9992, 273.4853
538.4813, 278.1679
538.9634, 282.7520
539.4456, 287.9519
539.9277, 292.0942
540.4098, 294.3290
540.8919, 294.9793
541.3740, 294.8338
541.8561, 294.4799
542.3383, 292.8626
542.8204, 288.7923
543.3025, 282.3080
543.7846, 273.6729
544.2667, 262.6989
544.7488, 250.1056
545.2310, 236.1100
545.7131, 220.8844
546.1952, 205.6550
546.6773, 190.2981
547.1594, 175.3832
547.6415, 161.0534
548.1237, 147.4680
548.6058, 134.7547
549.0879, 123.0388
549.5700, 112.1318
550.0521, 101.7128
550.5342, 91.62745
551.0164, 82.72475
551.4985, 75.21935
551.9806, 68.54008
552.4627, 62.50270
552.9448, 57.04823
553.4269, 52.06458
553.9091, 47.49363
554.3912, 43.41768
554.8733, 40.21072
555.3554, 38.06844
555.8375, 35.28728
556.3196, 30.84501
556.8018, 26.66321
557.2839, 24.13930
557.7660, 22.80705
558.2481, 21.36740
558.7302, 19.19411
559.2123, 16.92950
559.6945, 15.29163
560.1766, 14.15974
560.6587, 13.00392
561.1408, 11.64955
561.6229, 10.26782
562.1050, 9.104637
562.5872, 8.225922
563.0693, 7.070610
563.5514, 5.163063
564.0335, 3.455643
564.5156, 2.520958
564.9977, 2.121490
565.4799, 1.846542
565.9620, 1.527603
566.4441, 1.121353
566.9262, 0.5329130
567.4083, 0.3063810
567.8904, 1.050171
568.3726, 1.579498
568.8547, 2.135483
569.3368, 2.942276
569.8189, 3.795944
570.3010, 4.335068
570.7831, 4.405357
571.2653, 4.275215
571.7474, 4.273941
572.2295, 4.372093
572.7116, 4.306992
573.1937, 3.979454
573.6758, 3.623795
574.1580, 3.398407
574.6401, 3.303284
575.1222, 3.346069
575.6043, 3.871643
576.0864, 4.144669
576.5685, 3.547722
577.0507, 2.529510
577.5328, 1.906815
578.0149, 1.862259
578.4970, 1.865700
578.9791, 1.320869
579.4612, 0.1972730
579.9434, 0.7175450
580.4255, 1.113708
580.9076, 1.665901
581.3897, 2.557449
581.8718, 3.642265
582.3539, 4.765862
582.8361, 5.892769
583.3182, 7.052925
583.8003, 8.242722
584.2824, 9.483521
584.7645, 10.93406
585.2466, 12.65248
585.7288, 14.42503
586.2108, 15.96978
586.6929, 17.60384
587.1750, 19.85249
587.6572, 22.92096
588.1393, 25.86232
588.6214, 28.00279
589.1035, 29.89354
589.5856, 32.14440
590.0677, 34.84914
590.5499, 38.08904
591.0320, 42.00883
591.5141, 46.39338
591.9962, 50.39169
592.4783, 53.50087
592.9604, 56.89729
593.4426, 60.83215
593.9247, 64.85554
594.4068, 68.56154
594.8889, 72.04875
595.3710, 75.84241
595.8531, 80.38445
596.3353, 85.17403
596.8174, 89.00363
597.2995, 91.69701
597.7816, 94.43115
598.2637, 97.78287
598.7458, 100.8812
599.2280, 102.8070
599.7101, 103.7763
600.1922, 104.9960
600.6743, 107.0886
601.1564, 109.3655
601.6385, 111.1092
602.1207, 112.5574
602.6028, 114.4532
603.0849, 117.0429
603.5670, 120.0429
604.0491, 123.0831
604.5313, 126.1199
605.0134, 129.4784
605.4955, 133.9688
605.9776, 137.8197
606.4597, 140.3050
606.9418, 141.9100
607.4240, 143.3552
607.9061, 144.8106
608.3882, 145.6724
608.8703, 145.2169
609.3524, 143.4975
609.8345, 141.2403
610.3167, 138.7079
610.7988, 135.0107
611.2809, 129.2706
611.7630, 122.2669
612.2451, 114.7736
612.7272, 106.6351
613.2094, 99.09723
613.6915, 93.09711
614.1736, 87.79078
614.6557, 82.00278
615.1378, 75.74963
615.6199, 70.04317
616.1021, 65.52850
616.5842, 61.93945
617.0663, 58.57350
617.5484, 54.99681
618.0305, 52.38877
618.5126, 51.32996
618.9948, 50.60492
619.4769, 49.58260
619.9590, 48.32994
620.4411, 47.07181
620.9232, 45.81493
621.4053, 44.99117
621.8875, 45.57394
622.3696, 47.53165
622.8517, 49.01405
623.3338, 49.61333
623.8159, 49.86516
624.2980, 50.02824
624.7802, 50.18223
625.2623, 50.58222
625.7444, 51.17722
626.2265, 52.10358
626.7086, 53.81036
627.1907, 55.70293
627.6729, 56.94953
628.1550, 57.42725
628.6371, 57.50955
629.1192, 57.48231
629.6013, 57.35120
630.0834, 57.24039
630.5656, 57.40810
631.0477, 57.19028
631.5298, 56.41258
632.0119, 55.32504
632.4940, 54.06577
632.9761, 52.65575
633.4583, 51.05049
633.9404, 49.03828
634.4225, 47.07990
634.9046, 46.16020
635.3867, 46.13258
635.8688, 45.29041
636.3510, 42.90181
636.8331, 40.03975
637.3152, 37.95174
637.7973, 36.68269
638.2794, 35.38219
638.7615, 33.95853
639.2437, 32.58723
639.7258, 31.48815
640.2079, 30.41702
640.6900, 28.97231
641.1721, 27.08163
641.6542, 25.13569
642.1364, 23.64046
642.6185, 22.52036
643.1006, 20.73477
643.5827, 17.90819
644.0648, 15.25784
644.5469, 13.35970
645.0291, 11.74395
645.5112, 9.793686
645.9933, 7.488945
646.4754, 5.932053
646.9575, 6.428406
647.4396, 7.346077
647.9218, 6.695007
648.4039, 4.800011
648.8860, 3.298729
649.3681, 2.872650
649.8502, 2.904953
650.3323, 2.428543
650.8145, 1.248260
651.2966, 0.4610670
651.7787, 0.3045650
652.2608, 0.4128490
652.7429, 0.7062990
653.2250, 0.7933810
653.7072, 0.4501110
654.1893, 0.3187100
654.6714, 0.9501270
655.1535, 0.8144380
655.6356, 0.1478960
656.1177, 0.2263490
656.5999, 0.2040100
657.0820, 0.4390640
657.5641, 1.419861
658.0462, 2.764938
658.5283, 3.666733
659.0104, 4.009026
659.4926, 4.296143
659.9747, 4.559784
660.4568, 4.916168
660.9389, 5.490646
661.4210, 6.115715
661.9031, 6.469666
662.3853, 6.462349
662.8674, 6.529968
663.3495, 7.461174
663.8316, 9.370407
664.3137, 10.45123
664.7958, 10.09707
665.2780, 10.02438
665.7601, 11.22167
666.2422, 12.94260
666.7243, 14.45156
667.2064, 15.69196
667.6885, 16.70013
668.1707, 17.42660
668.6528, 17.93349
669.1349, 18.12660
669.6170, 18.12444
670.0991, 18.35814
670.5812, 19.02775
671.0634, 20.00365
671.5455, 21.11535
672.0276, 22.48494
672.5097, 23.51511
672.9918, 23.77494
673.4739, 24.14925
673.9561, 24.83490
674.4382, 25.81784
674.9203, 27.09016
675.4024, 28.64448
675.8845, 30.38516
676.3666, 32.15254
676.8488, 34.06308
677.3309, 36.57643
677.8130, 39.68764
678.2951, 42.35423
678.7772, 43.85651
679.2593, 45.10764
679.7415, 47.93217
680.2236, 53.20276
680.7057, 57.34043
681.1878, 59.43006
681.6699, 61.41397
682.1520, 64.06584
682.6342, 67.23840
683.1163, 70.66998
683.5984, 74.28639
684.0805, 77.92481
684.5626, 81.49142
685.0447, 84.96281
685.5269, 88.34489
686.0090, 91.74473
686.4911, 94.54074
686.9732, 96.55076
687.4553, 97.71407
687.9374, 97.78671
688.4196, 96.72275
688.9017, 95.41581
689.3838, 94.13788
689.8659, 92.51999
690.3480, 90.50169
690.8301, 87.94781
691.3123, 84.45347
691.7944, 79.96021
692.2765, 75.20975
692.7586, 71.12666
693.2407, 67.61407
693.7228, 63.35759
694.2050, 58.00671
694.6871, 52.74337
695.1692, 47.69656
695.6513, 43.13560
696.1334, 39.44137
696.6155, 36.59853
697.0977, 33.74431
697.5798, 30.40340
698.0619, 27.14803
698.5440, 24.34431
699.0261, 21.94562
699.5082, 19.98423
699.9904, 18.42558
700.4725, 16.82116
700.9546, 14.55811
701.4367, 11.74415
701.9188, 10.08720
702.4009, 10.33284
702.8831, 10.25996
703.3652, 8.951927
703.8473, 7.391151
704.3294, 6.312500
704.8115, 5.679199
705.2936, 4.994522
705.7758, 3.841293
706.2579, 2.784767
706.7400, 2.373711
707.2221, 2.394249
707.7042, 2.530029
708.1863, 2.665733
708.6685, 2.242744
709.1506, 0.5441890
709.6327, 2.085846
710.1148, 2.892578
710.5969, 0.3935930
711.0790, 1.216476
711.5612, 0.8263090
712.0433, 6.6703998E-02
712.5254, 0.7062150
713.0075, 1.040070
713.4896, 1.152237
713.9717, 0.9363860
714.4539, 0.8178630
714.9360, 1.442635
715.4181, 2.398163
715.9002, 2.626396
716.3823, 1.994957
716.8644, 1.320114
717.3466, 1.222610
717.8287, 1.500725
718.3108, 1.385597
718.7929, 0.5331120
719.2750, 5.9218999E-02
719.7571, 0.3173520
720.2393, 0.3714680
720.7214, 0.2142330
721.2035, 8.6379997E-02
721.6856, 0.4692150
722.1677, 0.9579930
722.6498, 1.281418
723.1320, 1.053566
723.6141, 0.5469210
724.0962, 0.4338150
724.5783, 0.7175600
725.0604, 0.6729280
725.5425, 0.1603240
726.0247, 1.345726
726.5068, 1.973579
726.9889, 1.798134
727.4710, 1.813316
727.9531, 2.406097
728.4352, 2.745148
728.9174, 2.135323
729.3995, 1.311928
729.8816, 1.306152
730.3637, 2.318825
730.8458, 3.477783
731.3279, 4.236473
731.8101, 4.726547
732.2922, 5.080902
732.7743, 5.336548
733.2564, 5.700073
733.7385, 6.259087
734.2206, 6.846222
734.7028, 7.177094
735.1849, 7.191536
735.6670, 7.864662
736.1491, 9.819145
736.6312, 11.64922
737.1133, 13.36678
737.5955, 14.71368
738.0776, 15.15626
738.5597, 14.90942
739.0418, 15.10364
739.5239, 16.60052
740.0060, 18.47481
740.4882, 19.60200
740.9703, 20.22635
741.4524, 21.15472
741.9345, 22.55129
742.4166, 23.83022
742.8987, 24.41721
743.3809, 24.54352
743.8630, 25.40187
744.3451, 27.60637
744.8272, 29.42326
745.3093, 30.29305
745.7914, 31.22627
746.2736, 32.91402
746.7557, 35.03387
747.2378, 36.86868
747.7199, 38.12205
748.2020, 39.35472
748.6841, 40.94247
749.1663, 42.82685
749.6484, 45.12429
750.1305, 47.71545
750.6126, 49.85855
751.0947, 51.16899
751.5768, 51.82775
752.0590, 52.10406
752.5411, 51.88938
753.0232, 51.83190
753.5053, 52.45006
753.9874, 52.51274
754.4695, 51.49451
754.9517, 49.86801
755.4338, 47.99155
755.9159, 45.93852
756.3980, 44.06971
756.8801, 42.75819
757.3622, 41.51986
757.8444, 39.61275
758.3265, 37.44781
758.8086, 36.12352
759.2907, 35.89201
759.7728, 35.94314
760.2549, 35.44717
760.7371, 34.58991
761.2192, 34.58779
761.7013, 35.74024
762.1834, 36.95564
762.6655, 38.25872
763.1476, 39.34877
763.6298, 39.76905
764.1119, 39.83539
764.5940, 40.45639
765.0761, 42.02258
765.5582, 43.74467
766.0403, 45.25093
766.5225, 46.70202
767.0046, 48.13112
767.4867, 49.52365
767.9688, 51.30834
768.4509, 53.86838
768.9330, 56.93031
769.4152, 60.27235
769.8973, 63.91286
770.3794, 67.05903
770.8615, 69.60175
771.3436, 71.92490
771.8257, 73.82574
772.3079, 75.87563
772.7900, 79.19991
773.2721, 83.95438
773.7542, 87.57629
774.2363, 88.76817
774.7184, 89.85470
775.2006, 92.00909
775.6827, 94.67197
776.1648, 97.24966
776.6469, 99.58799
777.1290, 101.5526
777.6111, 102.9219
778.0933, 103.9414
778.5754, 105.2363
779.0575, 106.7802
779.5396, 108.0159
780.0217, 108.8286
780.5038, 109.3513
780.9860, 109.7584
781.4681, 110.0018
781.9502, 109.7672
782.4323, 108.9956
782.9144, 107.8318
783.3965, 106.9041
783.8787, 105.0057
784.3608, 101.0227
784.8429, 95.68424
785.3250, 90.23297
785.8071, 85.07543
786.2892, 80.03430
786.7714, 74.92215
787.2535, 69.86005
787.7356, 64.89756
788.2177, 60.10867
788.6998, 55.78873
789.1819, 52.05744
789.6641, 48.69411
790.1462, 45.48421
790.6283, 42.43855
791.1104, 39.17333
791.5925, 35.10488
792.0746, 31.84637
792.5568, 30.29414
793.0389, 29.07423
793.5210, 27.07259
794.0031, 24.57159
794.4852, 22.71761
794.9673, 22.05341
795.4495, 21.67488
795.9316, 21.11500
796.4137, 20.49626
796.8958, 19.93113
797.3779, 19.44151
797.8600, 19.04599
798.3422, 18.76401
798.8243, 18.46203
799.3064, 17.87617
799.7885, 16.98674
800.2706, 16.33548
800.7527, 15.92865
801.2349, 15.81660
801.7170, 16.24024
802.1991, 16.79669
802.6812, 16.87733
803.1633, 16.48247
803.6454, 16.22423
804.1276, 16.10735
804.6097, 16.20405
805.0918, 16.88966
805.5739, 17.57700
806.0560, 17.50537
806.5381, 16.77547
807.0203, 16.12582
807.5024, 15.98347
807.9845, 16.10823
808.4666, 16.46266
808.9487, 16.79309
809.4308, 16.17216
809.9130, 14.49526
810.3951, 12.75660
810.8772, 11.53311
811.3593, 10.77233
811.8414, 10.38973
812.3235, 10.57486
812.8057, 10.51643
813.2878, 10.23049
813.7699, 9.736519
814.2520, 8.849403
814.7341, 7.904190
815.2162, 7.094673
815.6984, 6.500084
816.1805, 5.950981
816.6626, 5.238319
817.1447, 4.742226
817.6268, 4.898483
818.1089, 5.355766
818.5911, 5.243713
819.0732, 4.565430
819.5553, 3.967251
820.0374, 4.022583
820.5195, 4.381329
821.0016, 4.462906
821.4838, 4.305325
821.9659, 3.897682
822.4480, 3.100163
822.9301, 2.736847
823.4122, 3.601536
823.8943, 4.831036
824.3765, 4.892265
824.8586, 3.488235
825.3407, 2.756588
825.8228, 3.329361
826.3049, 3.765869
826.7870, 3.344009
827.2692, 2.640400
827.7513, 2.292858
828.2334, 2.337372
828.7155, 2.400364
829.1976, 2.207756
829.6797, 1.972809
830.1619, 2.041855
830.6440, 2.288948
831.1261, 2.400684
831.6082, 2.353428
832.0903, 2.247166
832.5724, 2.095726
833.0546, 1.815010
833.5367, 1.390297
834.0188, 0.8420520
834.5009, 0.5816150
834.9830, 0.6661030
835.4651, 0.6755330
835.9473, 0.4141540
836.4294, 0.1637730
836.9115, 0.2893600
837.3936, 0.7674030
837.8757, 1.109638
838.3578, 1.333836
838.8400, 1.294529
839.3221, 0.5809020
839.8042, 0.1627350
840.2863, 0.1829950
840.7684, 0.3777500
841.2505, 0.7682950
841.7327, 0.5712740
842.2148, 0.4783940
842.6969, 1.895500
843.1790, 3.980446
843.6611, 3.867001
844.1432, 1.594082
844.6254, 0.1903230
845.1075, 1.022736
845.5896, 2.650276
846.0717, 3.182697
846.5538, 2.614433
847.0359, 1.905884
847.5181, 0.7816580
848.0002, 7.0914999E-02
848.4823, 0.2224540
848.9644, 0.5733910
849.4465, 0.6949270
849.9286, 0.6457670
850.4108, 0.6332280
850.8929, 0.7517240
851.3750, 0.7690960
851.8571, 0.3882560
852.3392, 6.3910998E-02
852.8214, 0.3358990
853.3035, 0.9164960
853.7856, 0.5900230
854.2677, 1.268078
854.7498, 1.635895
855.2319, 1.710140
855.7141, 0.6124800
856.1962, 1.027348
856.6783, 0.8356090
857.1604, 0.6187060
857.6425, 1.245552
858.1246, 0.3166850
858.6068, 0.9295010
859.0889, 0.9264560
859.5710, 1.204872
860.0531, 0.8729590
860.5352, 0.7291910
861.0173, 1.195396
861.4995, 1.323441
861.9816, 0.9202310
862.4637, 1.214951
862.9458, 0.2619970
863.4279, 0.4033390
863.9100, 1.016670
864.3922, 0.6427570
864.8743, 0.9472660
865.3564, 0.9930650
865.8385, 0.1360210
866.3206, 0.7772250
866.8027, 0.8067860
867.2849, 7.0995003E-02
867.7670, 0.7713470
868.2491, 1.7956000E-02
868.7312, 0.1663360
869.2133, 7.7491999E-02
869.6954, 0.1258320
870.1776, 0.3748170
870.6597, 0.1966170
871.1418, 4.2468999E-02
871.6239, 1.7353000E-02
872.1060, 0.7423900
872.5881, 7.7168003E-02
873.0703, 0.3625110
873.5524, 0.1760790
874.0345, 0.1169970
874.5166, 0.4099200
874.9987, 6.9550000E-02
875.4808, 1.075306
875.9630, 0.9558750
876.4451, 0.9584850
876.9272, 0.2421340
877.4093, 1.244205
877.8914, 1.158981
878.3735, 0.6112710
878.8557, 0.7124790
879.3378, 0.5432240
879.8199, 1.176983
880.3020, 1.057713
880.7841, 1.147011
881.2662, 0.5190730
881.7484, 0.4584850
882.2305, 1.081944
882.7126, 1.703270
883.1947, 1.026375
883.6768, 1.030003
884.1589, 0.6538660
884.6411, 0.2789540
885.1232, 5.5699999E-04
885.6053, 9.3429998E-02
886.0874, 0.5784760
886.5695, 0.6939850
887.0516, 0.3073960
887.5338, 3.2120001E-02
888.0159, 9.7305000E-02
888.4980, 0.3924410
888.9801, 0.9035800
889.4622, 1.628830
889.9443, 1.824467
890.4265, 0.7705610
890.9086, 0.2305910
891.3907, 1.053093
891.8728, 1.768139
892.3549, 1.336838
892.8370, 0.1628420
893.3192, 0.9966130
893.8013, 2.035141
894.2834, 2.533150
894.7655, 1.876549
895.2476, 1.014290
895.7297, 0.6609800
896.2119, 0.6849290
896.6940, 0.8567280
897.1761, 1.093750
897.6582, 1.326286
898.1403, 1.552109
898.6224, 1.810028
899.1046, 2.113625
899.5867, 2.439163
900.0688, 2.731468
900.5509, 2.999939
901.0330, 3.192085
901.5151, 3.248993
901.9973, 3.456924
902.4794, 4.313728
902.9615, 5.854134
903.4436, 6.736366
903.9257, 6.640327
904.4078, 6.726791
904.8900, 7.384293
905.3721, 8.090508
905.8542, 8.411728
906.3363, 8.484962
906.8184, 8.602638
907.3005, 8.560074
907.7827, 9.053185
908.2648, 10.68430
908.7469, 12.29298
909.2290, 13.45724
909.7111, 14.18616
910.1932, 14.31728
910.6754, 14.00490
911.1575, 14.04196
911.6396, 14.85236
912.1217, 16.07680
912.6038, 17.70536
913.0859, 19.38437
913.5681, 20.33899
914.0502, 20.84235
914.5323, 22.07144
915.0143, 24.53061
915.4965, 27.34668
915.9786, 29.38378
916.4607, 30.94534
916.9428, 33.06321
917.4249, 35.70859
917.9070, 38.45145
918.3892, 41.19680
918.8713, 43.91232
919.3534, 46.51304
919.8355, 49.13051
920.3176, 52.14838
920.7997, 55.69671
921.2819, 59.20994
921.7640, 62.53040
922.2461, 66.10536
922.7282, 70.18140
923.2103, 74.52690
923.6924, 78.67055
924.1746, 82.70496
924.6567, 87.46931
925.1388, 93.08097
925.6209, 99.29365
926.1030, 106.4862
926.5851, 113.7673
927.0673, 120.4410
927.5494, 126.7608
928.0315, 133.3551
928.5136, 140.2948
928.9957, 147.4039
929.4778, 155.0452
929.9600, 162.3316
930.4421, 168.9307
930.9242, 174.6997
931.4063, 179.6169
931.8884, 183.6971
932.3705, 186.8475
932.8527, 189.0995
933.3348, 190.5349
933.8169, 191.2130
934.2990, 191.3696
934.7811, 191.8121
935.2632, 192.3704
935.7454, 192.2999
936.2275, 191.3594
936.7096, 190.3997
937.1917, 190.3640
937.6738, 190.9032
938.1559, 190.7536
938.6381, 189.7136
939.1202, 189.6564
939.6023, 190.9694
940.0844, 192.4130
940.5665, 193.4913
941.0486, 194.2885
941.5308, 194.6923
942.0129, 194.6692
942.4950, 194.9191
942.9771, 195.7353
943.4592, 196.3423
943.9413, 196.7217
944.4235, 196.7614
944.9056, 196.1869
945.3877, 195.2819
945.8698, 194.6986
946.3519, 194.6125
946.8340, 194.3544
947.3162, 193.5209
947.7983, 192.7486
948.2804, 192.1992
948.7625, 192.0779
949.2446, 192.9067
949.7267, 194.3896
950.2089, 195.3727
950.6910, 195.2880
951.1731, 194.7719
951.6552, 194.7056
952.1373, 194.2667
952.6194, 192.0833
953.1016, 188.7121
953.5837, 185.7747
954.0658, 183.6205
954.5479, 181.0312
955.0300, 176.9734
955.5121, 171.9108
955.9943, 166.5381
956.4764, 160.8924
956.9585, 155.1476
957.4406, 149.2838
957.9227, 143.1406
958.4048, 136.5914
958.8870, 130.0819
959.3691, 124.2610
959.8512, 119.0204
960.3333, 113.3730
960.8154, 107.2126
961.2975, 101.6047
961.7797, 96.84010
962.2618, 92.43446
962.7439, 88.23533
963.2260, 84.07080
963.7081, 79.56324
964.1902, 74.56322
964.6724, 70.09341
965.1545, 66.05859
965.6366, 62.59711
966.1187, 60.15565
966.6008, 57.99278
967.0829, 55.32505
967.5651, 52.44417
968.0472, 50.28769
968.5293, 49.03875
969.0114, 48.16547
969.4935, 47.59302
969.9756, 47.35793
970.4578, 47.72948
970.9399, 48.27953
971.4220, 48.29205
971.9041, 47.99454
972.3862, 48.65558
972.8683, 51.14473
973.3505, 53.56906
973.8326, 54.53263
974.3147, 55.40338
974.7968, 57.32335
975.2789, 60.10682
975.7610, 63.19226
976.2432, 66.49064
976.7253, 70.51411
977.2074, 76.01700
977.6895, 81.57854
978.1716, 85.33066
978.6537, 88.30914
979.1359, 92.32882
979.6180, 97.35851
980.1001, 102.5218
980.5822, 107.5120
981.0643, 112.7041
981.5464, 118.4606
982.0286, 124.6658
982.5107, 131.0848
982.9928, 137.6187
983.4749, 143.7968
983.9570, 149.5532
984.4391, 155.3692
984.9213, 161.4856
985.4034, 167.6920
985.8855, 173.8521
986.3676, 179.8489
986.8497, 184.3463
987.3318, 187.2452
987.8140, 189.9015
988.2961, 192.7240
988.7782, 194.5778
989.2603, 194.5934
989.7424, 193.4066
990.2245, 192.4263
990.7067, 191.8456
991.1888, 189.8034
991.6709, 185.8571
992.1530, 181.4970
992.6351, 177.1698
993.1172, 172.3465
993.5994, 166.6120
994.0815, 160.0306
994.5636, 152.7839
995.0457, 144.5582
995.5278, 136.5639
996.0099, 129.1526
996.4921, 121.4504
996.9742, 112.6971
997.4563, 104.0140
997.9384, 96.44914
998.4205, 89.74926
998.9026, 82.99760
999.3848, 75.90939
999.8669, 69.29875
1000.349, 63.39580
1000.831, 57.92402
1001.313, 52.83538
1001.795, 48.05550
1002.277, 43.35320
1002.760, 38.85661
1003.242, 35.04329
1003.724, 32.28738
1004.206, 29.74780
1004.688, 26.90052
1005.170, 24.24445
1005.652, 22.38332
1006.134, 20.83935
1006.617, 18.77251
1007.099, 16.17596
1007.581, 13.80738
1008.063, 12.00464
1008.545, 10.61025
1009.027, 9.713272
1009.509, 8.985390
1009.991, 7.808533
1010.473, 6.536644
1010.956, 6.195648
1011.438, 6.859497
1011.920, 7.347527
1012.402, 6.833031
1012.884, 5.833725
1013.366, 4.813629
1013.848, 3.845856
1014.330, 3.079315
1014.813, 2.492203
1015.295, 1.986801
1015.777, 1.528702
1016.259, 1.131493
1016.741, 0.7683030
1017.223, 0.5574800
1017.705, 0.9459990
1018.187, 1.659210
1018.669, 1.601837
1019.152, 0.7978740
1019.634, 0.2166140
1020.116, 0.2098240
1020.598, 7.8491002E-02
1021.080, 1.034454
1021.562, 2.545704
1022.044, 2.531605
1022.526, 1.183430
1023.008, 0.5815050
1023.491, 0.9296460
1023.973, 1.277309
1024.455, 1.223637
1024.937, 1.049427
1025.419, 1.085842
1025.901, 1.266617
1026.383, 1.273731
1026.865, 1.095070
1027.348, 0.8730130
1027.830, 0.5633930
1028.312, 0.6341930
1028.794, 1.410194
1029.276, 2.293137
1029.758, 2.541191
1030.240, 2.208591
1030.722, 1.619267
1031.204, 0.6191750
1031.687, 0.1126100
1032.169, 0.3575170
1032.651, 0.5885620
1033.133, 0.4261780
1033.615, 0.1338650
1034.097, 0.1417120
1034.579, 0.3896560
1035.061, 0.1398200
1035.544, 1.942299
1036.026, 3.214741
1036.508, 3.630051
1036.990, 3.815495
1037.472, 3.814602
1037.954, 3.997105
1038.436, 5.001175
1038.918, 6.780098
1039.401, 7.976845
1039.883, 8.204834
1040.365, 8.570137
1040.847, 9.546211
1041.329, 10.12021
1041.811, 9.546078
1042.293, 8.534191
1042.775, 8.064556
1043.257, 8.116150
1043.740, 7.791229
1044.222, 6.503819
1044.704, 5.748966
1045.186, 6.123875
1045.668, 6.427982
1046.150, 6.107105
1046.632, 5.450203
1047.114, 4.638954
1047.596, 3.733829
1048.079, 3.362083
1048.561, 4.026440
1049.043, 4.542675
1049.525, 4.542446
1050.007, 4.629078
1050.489, 5.153259
1050.971, 5.897015
1051.453, 6.636597
1051.936, 7.326927
1052.418, 7.860153
1052.900, 7.940735
1053.382, 8.452473
1053.864, 9.866173
1054.346, 11.48946
1054.828, 12.75599
1055.310, 14.01815
1055.792, 15.80624
1056.275, 18.09027
1056.757, 20.14343
1057.239, 21.71833
1057.721, 23.30537
1058.203, 24.76614
1058.685, 26.48925
1059.167, 29.03160
1059.649, 31.71163
1060.131, 33.70469
1060.614, 35.09258
1061.096, 36.62985
1061.578, 38.61418
1062.060, 40.35394
1062.542, 41.95208
1063.024, 42.93481
1063.506, 42.77331
1063.988, 42.01837
1064.471, 41.15142
1064.953, 40.28796
1065.435, 39.55080
1065.917, 39.01368
1066.399, 38.42980
1066.881, 37.21332
1067.363, 36.48532
1067.845, 37.10447
1068.328, 38.40360
1068.810, 39.94852
1069.292, 41.45614
1069.774, 42.30619
1070.256, 42.15515
1070.738, 42.34844
1071.220, 43.71433
1071.702, 45.29311
1072.184, 46.50010
1072.667, 47.65485
1073.149, 49.01564
1073.631, 50.63825
1074.113, 52.59959
1074.595, 54.94566
1075.077, 57.23585
1075.559, 58.88368
1076.041, 60.86953
1076.523, 63.84840
1077.006, 67.33189
1077.488, 70.94769
1077.970, 74.64935
1078.452, 78.52531
1078.934, 82.55016
1079.416, 86.37080
1079.898, 90.48746
1080.380, 93.83385
1080.862, 95.93246
1081.345, 96.79980
1081.827, 96.57151
1082.309, 95.14729
1082.791, 92.14542
1083.273, 87.54304
1083.755, 82.25291
1084.237, 76.05457
1084.719, 70.10522
1085.202, 65.34104
1085.684, 60.69510
1086.166, 54.99715
1086.648, 48.92293
1087.130, 43.55651
1087.612, 39.11116
1088.094, 35.29437
1088.576, 32.20523
1089.058, 29.39523
1089.541, 26.78114
1090.023, 24.13856
1090.505, 21.12346
1090.987, 18.14967
1091.469, 15.65447
1091.951, 13.68221
1092.433, 12.19672
1092.915, 11.41554
1093.397, 10.60387
1093.880, 9.344433
1094.362, 8.134075
1094.844, 7.304676
1095.326, 6.659042
1095.808, 5.865726
1096.290, 5.057652
1096.772, 4.793743
1097.254, 5.398384
1097.737, 5.630379
1098.219, 4.739540
1098.701, 3.735550
1099.183, 2.873169
1099.665, 2.326565
1100.147, 2.581604
1100.629, 3.153683
1101.111, 2.844658
1101.594, 1.350197
1102.076, 0.4132080
1102.558, 1.036716
1103.040, 1.540337
1103.522, 1.222797
1104.004, 0.7565540
1104.486, 0.5943570
1104.968, 0.6420750
1105.450, 0.6506690
1105.932, 0.5580830
1106.415, 0.5621760
1106.897, 0.9872360
1107.379, 1.132725
1107.861, 0.6088870
1108.343, 7.2642997E-02
1108.825, 0.3248520
1109.307, 0.4250370
1109.789, 0.2871630
1110.272, 1.587246
1110.754, 1.881401
1111.236, 0.2202300
1111.718, 0.8587230
1112.200, 0.9910620
1112.682, 0.7202380
1113.164, 0.2973250
1113.646, 1.196629
1114.129, 0.9660800
1114.611, 4.8219999E-03
1115.093, 0.3582730
1115.575, 0.1976360
1116.057, 0.5102730
1116.539, 0.5919840
1117.021, 0.4028430
1117.503, 0.4273800
1117.985, 1.102581
1118.468, 1.105659
1118.950, 0.5985980
1119.432, 0.1895070
1119.914, 1.314415
1120.396, 2.210239
1120.878, 2.889225
1121.360, 3.214874
1121.842, 3.055313
1122.324, 2.734760
1122.807, 2.195446
1123.289, 1.882744
1123.771, 2.526375
1124.253, 3.951202
1124.735, 4.527580
1125.217, 3.773163
1125.699, 3.910740
1126.181, 5.439217
1126.664, 6.595863
1127.146, 6.650837
1127.628, 6.474277
1128.110, 6.877621
1128.592, 7.632339
1129.074, 7.963432
1129.556, 7.759834
1130.038, 8.375832
1130.521, 9.976711
1131.003, 11.18379
1131.485, 11.64510
1131.967, 11.95406
1132.449, 12.46976
1132.931, 13.13924
1133.413, 13.90601
1133.895, 14.74803
1134.377, 15.50508
1134.859, 16.22849
1135.342, 17.13535
1135.824, 18.21747
1136.306, 18.64789
1136.788, 18.03008
1137.270, 17.22754
1137.752, 17.16742
1138.234, 17.46312
1138.716, 17.10456
1139.199, 16.25977
1139.681, 15.75464
1140.163, 15.51442
1140.645, 14.70652
1141.127, 13.17150
1141.609, 11.68391
1142.091, 10.79022
1142.573, 10.11112
1143.056, 8.963051
1143.538, 7.743645
1144.020, 7.469429
1144.502, 7.753391
1144.984, 7.538006
1145.466, 6.742477
1145.948, 5.804054
1146.430, 4.914993
1146.912, 4.207253
1147.395, 3.840572
1147.877, 3.664497
1148.359, 3.633434
1148.841, 3.603226
1149.323, 3.320972
1149.805, 2.856899
1150.287, 2.361267
1150.769, 1.896297
1151.251, 1.555382
1151.734, 1.405357
1152.216, 1.350914
1152.698, 1.410149
1153.180, 1.458328
1153.662, 1.454006
1154.144, 1.333733
1154.626, 0.7841910
1155.108, 6.3683003E-02
1155.591, 0.1362380
1156.073, 1.459732
1156.555, 2.274937
1157.037, 1.492493
1157.519, 0.7221110
1158.001, 0.5359340
1158.483, 0.6754800
1158.965, 1.162292
1159.448, 1.713963
1159.930, 1.864594
1160.412, 1.585426
1160.894, 1.252651
1161.376, 0.8903080
1161.858, 0.5049320
1162.340, 0.1602480
1162.822, 0.5127910
1163.304, 0.1758960
1163.786, 0.4086270
1164.269, 0.9128990
1164.751, 1.318768
1165.233, 1.549522
1165.715, 1.567471
1166.197, 1.550484
1166.679, 1.481945
1167.161, 1.428219
1167.643, 1.510414
1168.126, 1.413422
1168.608, 0.8724980
1169.090, 0.2729300
1169.572, 0.1016200
1170.054, 0.3414800
1170.536, 0.7736280
1171.018, 1.470459
1171.500, 1.787430
1171.983, 1.649853
1172.465, 1.546696
1172.947, 1.660271
1173.429, 1.853077
1173.911, 1.950783
1174.393, 1.946823
1174.875, 1.840302
1175.357, 1.586239
1175.839, 1.109795
1176.322, 0.5052110
1176.804, 7.2673999E-02
1177.286, 0.5102160
1177.768, 0.4924810
1178.250, 0.1215360
1178.732, 0.8721240
1179.214, 1.436337
1179.696, 1.749996
1180.178, 1.672260
1180.661, 1.328316
1181.143, 0.6935960
1181.625, 3.0205000E-02
1182.107, 5.7094999E-02
1182.589, 0.4553530
1183.071, 0.9938510
1183.553, 1.292271
1184.035, 1.547951
1184.518, 2.112030
1185.000, 2.414074
1185.482, 1.762699
1185.964, 0.8775440
1186.446, 0.4388080
1186.928, 0.4340320
1187.410, 0.7550160
1187.892, 1.391815
1188.375, 1.775837
1188.857, 1.637794
1189.339, 1.437405
1189.821, 1.243805
1190.303, 1.040600
1190.785, 0.8887600
1191.267, 0.6591220
1191.749, 7.7235997E-02
1192.231, 0.9893680
1192.714, 0.6442110
1193.196, 1.647518
1193.678, 2.419941
1194.160, 0.9313740
1194.642, 1.2905000E-02
1195.124, 0.3000640
1195.606, 0.7417030
1196.088, 0.6481170
1196.570, 0.4019170
1197.053, 0.5513880
1197.535, 1.004124
1198.017, 1.349224
1198.499, 1.582306
1198.981, 1.419785
1199.463, 0.8781930
1199.945, 0.9006730
1200.427, 1.721428
1200.910, 2.143333
1201.392, 1.277847
1201.874, 0.1707760
1202.356, 0.5571020
1202.838, 1.640327
1203.320, 1.576881
1203.802, 0.8963580
1204.284, 0.9683070
1204.766, 1.621414
1205.249, 1.611420
1205.731, 0.6621550
1206.213, 1.0674000E-02
1206.695, 0.5430410
1207.177, 1.316856
1207.659, 1.799358
1208.141, 2.013489
1208.623, 1.757042
1209.105, 1.400932
1209.588, 1.475548
1210.070, 1.856544
1210.552, 2.034828
1211.034, 1.893547
1211.516, 1.662914
1211.998, 1.117592
1212.480, 0.8904610
1212.962, 1.666126
1213.445, 2.172501
1213.927, 1.356968
1214.409, 0.2424810
1214.891, 3.6400001E-02
1215.373, 0.3445130
1215.855, 0.6360400
1216.337, 0.8326990
1216.819, 0.9876250
1217.302, 1.087833
1217.784, 1.192757
1218.266, 1.332359
1218.748, 1.363419
1219.230, 1.181938
1219.712, 0.9614980
1220.194, 0.8869250
1220.676, 0.9692460
1221.158, 1.475475
1221.641, 2.244446
1222.123, 1.928165
1222.605, 0.7378350
1223.087, 0.2308200
1223.569, 0.6865730
1224.051, 1.257278
1224.533, 1.560909
1225.015, 1.532288
1225.497, 0.8076020
1225.980, 3.8493998E-02
1226.462, 0.4675140
1226.944, 0.5141910
1227.426, 0.1060180
1227.908, 0.5227970
1228.390, 1.217659
1228.872, 1.937664
1229.354, 2.413551
1229.837, 2.565456
1230.319, 2.408974
1230.801, 1.706886
1231.283, 1.164246
1231.765, 1.234600
1232.247, 1.415295
1232.729, 1.394302
1233.211, 1.192894
1233.693, 0.7327960
1234.176, 2.2647999E-02
1234.658, 0.3112560
1235.140, 0.1872900
1235.622, 0.1383290
1236.104, 0.1590690
1236.586, 0.5018270
1237.068, 0.9948540
1237.550, 1.186466
1238.032, 0.6689800
1238.515, 7.3409997E-02
1238.997, 0.5769920
1239.479, 1.800491
1239.961, 2.159515
1240.443, 1.788109
1240.925, 1.298462
1241.407, 0.8102260
1241.889, 0.7352070
1242.372, 1.089684
1242.854, 1.468063
1243.336, 1.617939
1243.818, 1.503727
1244.300, 0.7145390
1244.782, 6.4067997E-02
1245.264, 0.7131580
1245.746, 1.664577
1246.229, 1.633904
1246.711, 0.9320980
1247.193, 0.3991740
1247.675, 0.1986660
1248.157, 0.4588850
1248.639, 1.631516
1249.121, 2.407242
1249.603, 2.425995
1250.085, 2.201370
1250.568, 1.652653
1251.050, 1.195293
1251.532, 1.173553
1252.014, 1.376865
1252.496, 1.425270
1252.978, 1.375847
1253.460, 1.101879
1253.942, 0.4213030
1254.424, 0.5907630
1254.907, 1.734798
1255.389, 2.075256
1255.871, 1.138199
1256.353, 0.1785550
1256.835, 5.4466002E-02
1257.317, 0.1287040
1257.799, 7.0281997E-02
1258.281, 4.9830999E-02
1258.764, 0.9002530
1259.246, 2.001522
1259.728, 2.155067
1260.210, 1.612823
1260.692, 0.9593240
1261.174, 0.4754600
1261.656, 0.7837980
1262.138, 2.392437
1262.620, 3.390121
1263.103, 2.317696
1263.585, 1.212852
1264.067, 0.9326930
1264.549, 0.9932670
1265.031, 1.193840
1265.513, 1.417843
1265.995, 1.547829
1266.477, 1.575981
1266.959, 1.473427
1267.442, 1.162918
1267.924, 1.032196
1268.406, 1.078934
1268.888, 1.448502
1269.370, 2.277515
1269.852, 2.476917
1270.334, 1.438705
1270.816, 0.2165260
1271.299, 7.9216003E-02
1271.781, 0.2350040
1272.263, 0.6940960
1272.745, 1.174408
1273.227, 1.338268
1273.709, 1.281578
1274.191, 1.303017
1274.673, 1.376064
1275.156, 1.144150
1275.638, 0.5560420
1276.120, 0.2000540
1276.602, 0.6659620
1277.084, 1.003326
1277.566, 0.3745880
1278.048, 0.0000000E+00
##END=



