##NAMES=Probertite
##RRUFFID=R050284
##IDEAL CHEMISTRY=NaCaB_5_O_7_(OH)_4_&#183;3H_2_O
##LOCALITY=Borax Open Pit, Boron, Kern County, California, USA
##OWNER=RRUFF
##SOURCE=Marcus Origlieri
##DESCRIPTION=Spray of colorless acicular single crystals
##STATUS=The identification of this mineral has been confirmed by X-ray diffraction and chemical analysis
##URL=rruff.info/R050284
##MEASURED CHEMISTRY=Na_1.00_Ca_1.00_B_5.00_O_7_(OH)_4_Â·3H_2_O
181.2329, 0.0000000E+00
181.7150, 0.1769100
182.1971, 0.4466250
182.6792, 0.7698360
183.1614, 1.059357
183.6435, 1.264801
184.1256, 1.386963
184.6077, 1.425720
185.0898, 1.400726
185.5719, 1.280945
186.0540, 1.411011
186.5362, 1.725952
187.0183, 2.127350
187.5004, 2.779785
187.9825, 3.776550
188.4646, 4.700165
188.9467, 4.000885
189.4289, 2.292084
189.9110, 1.151794
190.3931, 1.095734
190.8752, 1.098297
191.3573, 1.074127
191.8394, 0.8769230
192.3216, 0.9889530
192.8037, 2.446930
193.2858, 4.623901
193.7679, 5.822693
194.2500, 4.470398
194.7321, 1.495026
195.2143, 0.1645200
195.6964, 0.1975710
196.1785, 0.9547730
196.6606, 1.462677
197.1427, 1.672852
197.6248, 1.549103
198.1070, 0.9187320
198.5891, 0.1690670
199.0712, 0.6835020
199.5533, 6.7351997E-02
200.0354, 0.7832640
200.5175, 1.463440
200.9997, 1.620575
201.4818, 1.610046
201.9639, 1.665497
202.4460, 1.807159
202.9281, 1.926147
203.4102, 2.124512
203.8924, 2.183350
204.3745, 1.869385
204.8566, 1.329285
205.3387, 0.9271240
205.8208, 1.003052
206.3029, 1.620209
206.7851, 2.142334
207.2672, 2.592377
207.7493, 2.944214
208.2314, 3.092438
208.7135, 3.105164
209.1956, 3.227875
209.6778, 3.768738
210.1599, 4.896912
210.6420, 4.956024
211.1241, 3.021973
211.6062, 1.042847
212.0883, 3.3599999E-02
212.5705, 2.0081000E-02
213.0526, 0.2539370
213.5347, 0.3057560
214.0168, 9.4971001E-02
214.4989, 0.1203310
214.9810, 0.5963440
215.4632, 1.119537
215.9453, 1.492737
216.4274, 1.685028
216.9095, 1.648254
217.3916, 1.276794
217.8737, 0.5610660
218.3559, 5.7979999E-03
218.8380, 0.4814150
219.3201, 0.7501530
219.8022, 0.6657410
220.2843, 0.2055660
220.7664, 0.3568730
221.2486, 0.8744200
221.7307, 1.345917
222.2128, 1.738098
222.6949, 2.039948
223.1770, 2.401489
223.6591, 2.948120
224.1413, 3.366882
224.6234, 3.579346
225.1055, 3.865540
225.5876, 4.226624
226.0697, 4.606506
226.5518, 4.917755
227.0340, 5.286224
227.5161, 6.033783
227.9982, 7.348206
228.4803, 8.383362
228.9624, 8.306885
229.4445, 7.725311
229.9267, 7.444855
230.4088, 7.933380
230.8909, 8.740051
231.3730, 8.865814
231.8551, 7.891205
232.3372, 7.317413
232.8194, 8.122803
233.3015, 9.528992
233.7836, 10.63989
234.2657, 11.04150
234.7478, 11.01477
235.2299, 11.21375
235.7121, 11.82306
236.1942, 12.28445
236.6763, 12.13562
237.1584, 11.89307
237.6405, 12.23486
238.1227, 13.54166
238.6048, 15.26248
239.0869, 15.89828
239.5690, 14.28549
240.0511, 13.52618
240.5332, 15.03821
241.0154, 17.18872
241.4975, 18.25891
241.9796, 17.50497
242.4617, 15.65277
242.9438, 14.53653
243.4259, 14.73080
243.9081, 14.79388
244.3902, 14.64017
244.8723, 14.26346
245.3544, 13.58594
245.8365, 12.58398
246.3186, 11.44061
246.8007, 10.56100
247.2829, 10.05640
247.7650, 9.700226
248.2471, 9.543427
248.7292, 9.481964
249.2113, 9.500793
249.6934, 9.574432
250.1756, 9.549805
250.6577, 9.114685
251.1398, 7.878448
251.6219, 6.758881
252.1040, 5.675415
252.5861, 4.749176
253.0683, 4.121796
253.5504, 3.871704
254.0325, 3.814087
254.5146, 3.666290
254.9967, 3.435852
255.4788, 3.069092
255.9610, 2.418396
256.4431, 1.700165
256.9252, 1.111725
257.4073, 0.7713620
257.8894, 0.5635680
258.3716, 0.3479610
258.8537, 8.4747002E-02
259.3358, 4.9254999E-02
259.8179, 2.5208000E-02
260.3000, 0.1827390
260.7821, 0.3035280
261.2643, 0.3699340
261.7464, 0.4734500
262.2285, 0.7603760
262.7106, 1.315857
263.1927, 1.525055
263.6748, 1.231781
264.1570, 0.6884160
264.6391, 4.8889000E-02
265.1212, 0.9406130
265.6033, 1.653503
266.0854, 1.870605
266.5675, 1.539429
267.0497, 0.9694820
267.5318, 0.2978210
268.0139, 1.478210
268.4960, 1.799866
268.9781, 1.260223
269.4602, 0.6409910
269.9424, 0.5198360
270.4245, 0.8676150
270.9066, 1.159210
271.3887, 1.317810
271.8708, 1.447479
272.3529, 1.668365
272.8351, 1.977936
273.3172, 2.222168
273.7993, 2.275116
274.2814, 2.194397
274.7635, 2.180847
275.2456, 2.183167
275.7278, 2.309998
276.2099, 2.750427
276.6920, 3.436615
277.1741, 3.941437
277.6562, 3.955688
278.1383, 3.784332
278.6204, 4.058594
279.1025, 5.036896
279.5847, 5.850769
280.0668, 5.542816
280.5489, 4.375427
281.0310, 4.025513
281.5131, 5.528442
281.9952, 7.677887
282.4774, 8.657135
282.9595, 8.281342
283.4416, 7.854980
283.9237, 8.164795
284.4058, 9.076416
284.8879, 10.05212
285.3701, 11.00870
285.8522, 11.92517
286.3343, 12.84097
286.8164, 13.75263
287.2985, 14.47867
287.7806, 14.69049
288.2628, 14.61169
288.7449, 15.01416
289.2270, 16.17050
289.7091, 17.53214
290.1912, 18.80493
290.6733, 19.94540
291.1555, 20.76505
291.6376, 20.73978
292.1197, 20.36447
292.6018, 20.95816
293.0839, 22.94925
293.5660, 25.03107
294.0482, 26.38998
294.5303, 27.22916
295.0124, 27.86374
295.4945, 28.29111
295.9766, 28.64206
296.4587, 29.22998
296.9409, 30.18762
297.4230, 30.92542
297.9051, 30.76306
298.3872, 30.31973
298.8693, 30.40198
299.3514, 31.45761
299.8336, 32.74490
300.3157, 33.11432
300.7978, 32.35373
301.2799, 31.97397
301.7620, 33.09518
302.2441, 34.58716
302.7263, 35.51175
303.2084, 35.69400
303.6905, 35.34277
304.1726, 34.49646
304.6547, 33.12991
305.1368, 31.91870
305.6190, 31.12982
306.1011, 30.47070
306.5832, 29.73178
307.0653, 28.89920
307.5474, 28.04532
308.0295, 27.25070
308.5117, 26.50687
308.9938, 25.67477
309.4759, 24.70300
309.9580, 23.67682
310.4401, 22.59521
310.9222, 21.50009
311.4044, 20.53278
311.8865, 20.00311
312.3686, 19.73831
312.8507, 18.83047
313.3328, 16.67496
313.8149, 14.99457
314.2971, 14.93811
314.7792, 15.81723
315.2613, 16.41666
315.7434, 16.12863
316.2255, 15.35962
316.7076, 14.94235
317.1898, 15.11334
317.6719, 14.95413
318.1540, 13.52075
318.6361, 11.76154
319.1182, 10.74832
319.6003, 10.94269
320.0825, 11.60083
320.5646, 11.68286
321.0467, 11.08780
321.5288, 10.54120
322.0109, 10.29291
322.4930, 10.14130
322.9752, 9.888947
323.4573, 9.523560
323.9394, 9.255157
324.4215, 9.368958
324.9036, 9.869507
325.3857, 10.37161
325.8679, 10.81824
326.3500, 10.96713
326.8321, 10.45288
327.3142, 9.409119
327.7963, 8.622681
328.2784, 8.852386
328.7606, 9.844025
329.2427, 10.32022
329.7248, 9.991425
330.2069, 9.688934
330.6890, 9.952057
331.1711, 10.45673
331.6533, 10.75101
332.1354, 10.42026
332.6175, 9.892090
333.0996, 10.19028
333.5817, 11.63934
334.0638, 12.86609
334.5460, 12.94534
335.0281, 12.49304
335.5102, 12.08890
335.9923, 11.78241
336.4744, 11.78473
336.9565, 12.56180
337.4387, 14.17685
337.9208, 15.42963
338.4029, 15.72449
338.8850, 15.60586
339.3671, 15.59470
339.8492, 15.73697
340.3314, 15.88547
340.8135, 15.72021
341.2956, 15.36786
341.7777, 15.74872
342.2598, 17.49353
342.7419, 19.33743
343.2241, 20.12350
343.7062, 20.02744
344.1883, 19.87668
344.6704, 19.97922
345.1525, 20.31296
345.6346, 20.98135
346.1168, 22.19086
346.5989, 23.08148
347.0810, 22.48975
347.5631, 21.18155
348.0452, 20.52725
348.5273, 21.22321
349.0095, 22.40497
349.4916, 23.19791
349.9737, 23.59802
350.4558, 23.66870
350.9379, 23.10312
351.4200, 22.42642
351.9022, 22.51291
352.3843, 23.63379
352.8664, 24.87540
353.3485, 25.78006
353.8306, 26.33807
354.3127, 26.52014
354.7949, 26.33844
355.2770, 25.72253
355.7591, 24.38895
356.2412, 22.35541
356.7233, 20.56042
357.2054, 19.59619
357.6876, 18.99698
358.1697, 18.02121
358.6518, 16.55246
359.1339, 14.85281
359.6160, 12.97183
360.0981, 11.00192
360.5803, 9.505035
361.0624, 8.796021
361.5445, 8.406342
362.0266, 8.115906
362.5087, 7.877197
362.9908, 7.394653
363.4730, 6.439575
363.9551, 5.156250
364.4372, 3.978821
364.9193, 2.822693
365.4014, 1.897705
365.8835, 1.403229
366.3657, 1.194397
366.8478, 0.9548340
367.3299, 0.5638730
367.8120, 0.1857910
368.2941, 0.1229250
368.7762, 0.4627990
369.2584, 0.7012630
369.7405, 0.9041140
370.2226, 0.8975520
370.7047, 0.2676390
371.1868, 0.9658510
371.6689, 1.972992
372.1511, 1.982605
372.6332, 0.9297790
373.1153, 0.1198730
373.5974, 1.697998
374.0795, 2.774445
374.5616, 2.532776
375.0438, 1.372803
375.5259, 0.3093870
376.0080, 0.1004030
376.4901, 1.8097000E-02
376.9722, 8.5399998E-04
377.4543, 0.1149600
377.9365, 0.2029720
378.4186, 0.2949520
378.9007, 0.3315430
379.3828, 0.2194520
379.8649, 5.8655001E-02
380.3470, 0.4126890
380.8292, 0.7500310
381.3113, 1.201447
381.7934, 1.186340
382.2755, 0.1972050
382.7576, 0.7560120
383.2397, 1.102020
383.7219, 0.8773500
384.2040, 0.3540650
384.6861, 0.3147580
385.1682, 1.093414
385.6503, 1.357178
386.1324, 0.6927190
386.6146, 5.7921998E-02
387.0967, 1.234589
387.5788, 2.251740
388.0609, 2.181274
388.5430, 0.6369630
389.0251, 1.529419
389.5073, 2.560394
389.9894, 1.860352
390.4715, 1.223206
390.9536, 0.6095890
391.4357, 0.1813660
391.9178, 8.7462999E-02
392.4000, 0.3094180
392.8821, 0.6818540
393.3642, 1.106018
393.8463, 1.589539
394.3284, 1.810181
394.8105, 1.411896
395.2927, 1.159210
395.7748, 1.438812
396.2569, 2.010284
396.7390, 2.471527
397.2211, 2.619385
397.7032, 2.550873
398.1854, 2.408630
398.6675, 2.062225
399.1496, 2.044983
399.6317, 3.044403
400.1138, 4.103577
400.5959, 4.384094
401.0780, 3.757843
401.5602, 2.975647
402.0423, 2.796326
402.5244, 3.151123
403.0065, 3.229095
403.4886, 2.738586
403.9707, 2.250305
404.4529, 2.193481
404.9350, 2.455627
405.4171, 2.729980
405.8992, 2.939301
406.3813, 3.057434
406.8634, 2.895996
407.3456, 2.383545
407.8277, 2.286743
408.3098, 3.418640
408.7919, 4.992706
409.2740, 5.625671
409.7561, 4.932159
410.2383, 4.116211
410.7204, 3.860535
411.2025, 4.053772
411.6846, 4.354736
412.1667, 4.665009
412.6488, 5.108459
413.1310, 5.982849
413.6131, 7.281921
414.0952, 8.255951
414.5773, 8.755066
415.0594, 8.890350
415.5415, 8.585846
416.0237, 7.913788
416.5058, 7.373413
416.9879, 7.342224
417.4700, 7.697205
417.9521, 7.759491
418.4342, 6.937866
418.9164, 6.572998
419.3985, 7.519623
419.8806, 8.998962
420.3627, 9.741028
420.8448, 9.348022
421.3269, 8.604645
421.8091, 8.724182
422.2912, 10.22525
422.7733, 11.09546
423.2554, 10.70584
423.7375, 10.28101
424.2196, 10.84073
424.7018, 12.07837
425.1839, 12.75696
425.6660, 11.86075
426.1481, 9.757019
426.6302, 8.982941
427.1123, 11.31747
427.5945, 12.83371
428.0766, 12.49515
428.5587, 11.41412
429.0408, 10.52353
429.5229, 10.17343
430.0050, 10.34341
430.4872, 11.12277
430.9693, 12.71948
431.4514, 13.97260
431.9335, 14.64984
432.4156, 15.14267
432.8977, 15.52805
433.3799, 15.84988
433.8620, 16.19925
434.3441, 16.77780
434.8262, 17.35013
435.3083, 17.07446
435.7904, 15.52667
436.2726, 14.31763
436.7547, 14.28821
437.2368, 14.72946
437.7189, 15.09821
438.2010, 15.28345
438.6831, 15.34317
439.1653, 15.32297
439.6474, 15.22095
440.1295, 15.05176
440.6116, 14.83536
441.0937, 14.38995
441.5758, 13.29752
442.0580, 11.83536
442.5401, 10.84933
443.0222, 10.82703
443.5043, 11.19424
443.9864, 11.36002
444.4685, 11.36078
444.9507, 11.46753
445.4328, 11.89224
445.9149, 12.53137
446.3970, 13.09732
446.8791, 13.52112
447.3612, 13.69958
447.8434, 13.50348
448.3255, 13.19714
448.8076, 13.10425
449.2897, 13.22992
449.7718, 13.43820
450.2539, 13.59070
450.7361, 13.68723
451.2182, 13.69525
451.7003, 13.54160
452.1824, 13.39560
452.6645, 13.22910
453.1466, 13.12988
453.6288, 13.30325
454.1109, 13.84024
454.5930, 14.50018
455.0751, 14.76630
455.5572, 14.21295
456.0393, 14.10645
456.5215, 14.88983
457.0036, 15.66586
457.4857, 15.80481
457.9678, 15.41803
458.4499, 15.07468
458.9320, 15.24530
459.4142, 15.81235
459.8963, 16.06885
460.3784, 15.84045
460.8605, 15.60287
461.3426, 15.44739
461.8247, 15.36139
462.3069, 15.35904
462.7890, 15.44370
463.2711, 15.52228
463.7532, 15.48035
464.2353, 15.32782
464.7174, 15.20761
465.1996, 15.10818
465.6817, 15.09195
466.1638, 15.34445
466.6459, 15.71631
467.1280, 15.79202
467.6101, 15.06876
468.0923, 14.31992
468.5744, 14.58624
469.0565, 15.75378
469.5386, 16.61060
470.0207, 16.51883
470.5028, 16.07901
470.9850, 16.52634
471.4671, 18.10739
471.9492, 19.06158
472.4313, 18.49661
472.9134, 17.35086
473.3955, 16.49808
473.8777, 16.06189
474.3598, 16.01788
474.8419, 16.45026
475.3240, 17.27078
475.8061, 17.57693
476.2882, 17.15427
476.7704, 16.56564
477.2525, 15.66403
477.7346, 14.77170
478.2167, 14.13550
478.6988, 13.86758
479.1809, 14.19754
479.6631, 15.53976
480.1452, 18.15945
480.6273, 20.39337
481.1094, 23.08136
481.5915, 24.48380
482.0736, 23.32877
482.5558, 20.59326
483.0379, 17.77026
483.5200, 15.47009
484.0021, 13.91196
484.4842, 13.79535
484.9663, 15.55261
485.4485, 16.74969
485.9306, 16.62805
486.4127, 16.02628
486.8948, 15.33054
487.3769, 14.60980
487.8590, 14.05042
488.3412, 13.85828
488.8233, 13.86960
489.3054, 13.86414
489.7875, 13.87540
490.2696, 13.51819
490.7517, 12.42072
491.2339, 10.91391
491.7160, 9.622620
492.1981, 8.485840
492.6802, 7.761749
493.1623, 8.046112
493.6444, 8.641174
494.1266, 8.478149
494.6087, 7.379913
495.0908, 5.804794
495.5729, 3.995575
496.0550, 1.975586
496.5371, 0.7367400
497.0193, 0.8097380
497.5014, 0.9194790
497.9835, 0.6252440
498.4656, 0.1483150
498.9477, 0.1591490
499.4298, 0.1888580
499.9120, 0.1327670
500.3941, 0.2635800
500.8762, 0.6178590
501.3583, 1.027359
501.8404, 1.647980
502.3225, 2.165146
502.8047, 2.622131
503.2868, 2.865540
503.7689, 2.517761
504.2510, 1.294876
504.7331, 0.1794740
505.2152, 0.5749360
505.6974, 0.3708800
506.1795, 0.7301030
506.6616, 0.4655610
507.1437, 1.823883
507.6258, 2.222595
508.1079, 1.805817
508.5901, 1.467819
509.0722, 1.654144
509.5543, 2.164291
510.0364, 2.836563
510.5185, 3.660538
511.0006, 4.181763
511.4828, 4.036636
511.9649, 3.593033
512.4470, 3.630417
512.9291, 4.205658
513.4112, 4.938629
513.8933, 6.041962
514.3754, 7.067764
514.8575, 7.371033
515.3397, 7.005188
515.8218, 6.700089
516.3039, 6.994461
516.7860, 7.824356
517.2681, 8.724274
517.7502, 9.855484
518.2324, 10.84999
518.7145, 11.53853
519.1966, 12.16344
519.6787, 12.98393
520.1608, 14.02457
520.6429, 15.10959
521.1251, 16.15662
521.6072, 17.15303
522.0893, 17.47565
522.5714, 16.63774
523.0535, 15.89046
523.5356, 15.75235
524.0178, 15.88371
524.4999, 15.98306
524.9820, 16.00043
525.4641, 15.69585
525.9462, 14.46638
526.4283, 12.63609
526.9105, 11.79469
527.3926, 12.45383
527.8747, 13.25378
528.3568, 13.18771
528.8389, 12.39380
529.3210, 11.33688
529.8032, 9.535507
530.2853, 8.082306
530.7674, 7.898911
531.2495, 8.434753
531.7316, 8.554367
532.2137, 7.920639
532.6959, 7.112564
533.1780, 6.879364
533.6601, 7.369736
534.1422, 7.496048
534.6243, 6.839890
535.1064, 6.332397
535.5886, 6.265686
536.0707, 6.594025
536.5528, 7.341568
537.0349, 8.462585
537.5170, 9.648468
537.9991, 10.28448
538.4813, 10.19585
538.9634, 10.47156
539.4455, 11.58049
539.9276, 12.59299
540.4097, 12.82106
540.8918, 12.67622
541.3740, 13.04201
541.8561, 14.40678
542.3382, 16.07951
542.8203, 17.34087
543.3024, 18.20651
543.7845, 18.73515
544.2667, 18.62759
544.7488, 18.60234
545.2309, 19.74846
545.7130, 21.90422
546.1951, 23.54277
546.6772, 23.96449
547.1594, 24.28957
547.6415, 25.20795
548.1236, 26.49030
548.6057, 27.67599
549.0878, 28.56665
549.5699, 29.48117
550.0521, 30.98198
550.5342, 33.33939
551.0163, 35.45087
551.4984, 37.45891
551.9805, 39.10881
552.4626, 40.06166
552.9448, 40.62320
553.4269, 41.41762
553.9090, 42.76414
554.3911, 44.22589
554.8732, 45.02757
555.3553, 45.10242
555.8375, 45.00607
556.3196, 45.07381
556.8017, 44.63028
557.2838, 43.05502
557.7659, 40.70255
558.2480, 38.52522
558.7302, 36.88110
559.2123, 35.43622
559.6944, 33.88449
560.1765, 32.29698
560.6586, 30.94379
561.1407, 29.99307
561.6229, 29.11345
562.1050, 27.80763
562.5871, 25.94568
563.0692, 24.42480
563.5513, 23.34776
564.0334, 22.51347
564.5156, 22.02899
564.9977, 21.75230
565.4798, 21.43842
565.9619, 20.93283
566.4440, 20.19545
566.9261, 18.95088
567.4083, 16.85680
567.8904, 15.64714
568.3725, 16.13719
568.8546, 16.71596
569.3367, 16.91295
569.8188, 16.84984
570.3010, 16.73102
570.7831, 16.59863
571.2652, 16.42697
571.7473, 16.17650
572.2294, 15.85756
572.7115, 15.42230
573.1937, 14.67032
573.6758, 14.29799
574.1579, 15.27563
574.6400, 17.18906
575.1221, 18.39986
575.6042, 18.01256
576.0864, 17.73732
576.5685, 18.75304
577.0506, 20.33803
577.5327, 21.25397
578.0148, 21.20685
578.4969, 20.75926
578.9791, 20.45093
579.4612, 20.27185
579.9433, 20.46283
580.4254, 22.07574
580.9075, 22.80511
581.3896, 21.63873
581.8718, 19.68248
582.3539, 18.19737
582.8360, 17.43489
583.3181, 16.67513
583.8002, 14.92560
584.2823, 12.40669
584.7645, 10.90663
585.2466, 10.77409
585.7287, 10.66608
586.2108, 9.973694
586.6929, 8.878738
587.1750, 7.576874
587.6572, 5.987656
588.1393, 4.597229
588.6214, 3.710022
589.1035, 3.103836
589.5856, 2.515671
590.0677, 1.915802
590.5499, 1.337936
591.0320, 0.7722930
591.5141, 0.2837370
591.9962, 0.1290890
592.4783, 0.8257290
592.9604, 1.129272
593.4426, 0.4788820
593.9247, 0.1106570
594.4068, 0.2518160
594.8889, 1.353989
595.3710, 2.310867
595.8531, 2.539093
596.3353, 2.287582
596.8174, 2.175705
597.2995, 2.279633
597.7816, 2.059631
598.2637, 1.038040
598.7458, 4.6813998E-02
599.2280, 6.0424998E-02
599.7101, 0.5392000
600.1922, 0.8729860
600.6743, 0.2007450
601.1564, 0.4839320
601.6385, 0.1146090
602.1207, 0.9391780
602.6028, 1.556381
603.0849, 1.352219
603.5670, 0.7100520
604.0491, 4.6448000E-02
604.5313, 0.7231290
605.0134, 0.9292140
605.4955, 5.5312999E-02
605.9776, 0.7058410
606.4597, 0.8209840
606.9418, 0.6757660
607.4240, 0.8201140
607.9061, 1.395462
608.3882, 2.056122
608.8703, 2.485245
609.3524, 2.680313
609.8345, 2.506653
610.3167, 1.790833
610.7988, 1.135483
611.2809, 0.8471980
611.7630, 0.7975460
612.2451, 0.8723600
612.7272, 1.125473
613.2094, 1.216827
613.6915, 0.9007870
614.1736, 0.3739780
614.6557, 0.1913300
615.1378, 0.7266540
615.6199, 0.9644010
616.1021, 0.7006990
616.5842, 0.1382140
617.0663, 0.1479190
617.5484, 1.6845999E-02
618.0305, 0.1702580
618.5126, 0.4568180
618.9948, 0.6075440
619.4769, 0.3384700
619.9590, 0.1905520
620.4411, 0.6168520
620.9232, 0.7704930
621.4053, 0.6844790
621.8875, 0.2141270
622.3696, 0.6244810
622.8517, 0.7735600
623.3338, 0.2405700
623.8159, 1.412659
624.2980, 2.000504
624.7802, 2.081711
625.2623, 1.849640
625.7444, 1.099396
626.2265, 0.3282930
626.7086, 0.4546660
627.1907, 1.030502
627.6729, 0.9320530
628.1550, 0.1519470
628.6371, 0.6749420
629.1192, 0.9750820
629.6013, 0.8276370
630.0834, 0.9064180
630.5656, 1.400360
631.0477, 1.814377
631.5298, 2.039154
632.0119, 2.198029
632.4940, 2.357132
632.9761, 2.528519
633.4583, 2.749924
633.9404, 3.228943
634.4225, 3.621658
634.9046, 3.144775
635.3867, 1.887894
635.8688, 1.066315
636.3510, 1.102219
636.8331, 1.609375
637.3152, 2.226547
637.7973, 2.981476
638.2794, 3.478088
638.7615, 3.537750
639.2437, 3.535202
639.7258, 3.545883
640.2079, 3.622070
640.6900, 3.913986
641.1721, 4.415619
641.6542, 4.809662
642.1364, 4.706512
642.6185, 4.153381
643.1006, 3.743896
643.5827, 3.403793
644.0648, 3.377319
644.5469, 4.230347
645.0291, 5.136871
645.5112, 5.293549
645.9933, 4.648544
646.4754, 3.879440
646.9575, 3.064880
647.4396, 2.440765
647.9218, 2.394119
648.4039, 2.802231
648.8860, 3.125656
649.3681, 3.142029
649.8502, 3.032959
650.3323, 3.099091
650.8145, 3.438324
651.2966, 3.494324
651.7787, 3.072342
652.2608, 2.602951
652.7429, 1.968353
653.2250, 1.442703
653.7072, 1.447159
654.1893, 2.061218
654.6714, 2.785995
655.1535, 3.263016
655.6356, 3.475357
656.1177, 3.259460
656.5999, 2.541351
657.0820, 1.930313
657.5641, 1.746964
658.0462, 1.823364
658.5283, 1.888062
659.0104, 1.898392
659.4926, 1.952530
659.9747, 2.307114
660.4568, 2.443314
660.9389, 1.767960
661.4210, 0.6786350
661.9031, 1.6876001E-02
662.3853, 6.6574000E-02
662.8674, 0.4280550
663.3495, 0.5501860
663.8316, 0.3666840
664.3137, 0.3123630
664.7958, 0.3591310
665.2780, 0.5859220
665.7601, 1.236511
666.2422, 1.986160
666.7243, 2.475677
667.2064, 2.661438
667.6885, 2.627899
668.1707, 2.312378
668.6528, 1.867279
669.1349, 1.434738
669.6170, 1.031189
670.0991, 0.6185760
670.5812, 0.1640170
671.0634, 0.1448060
671.5455, 8.3053999E-02
672.0276, 1.089874
672.5097, 1.674057
672.9918, 1.493393
673.4739, 1.254532
673.9561, 1.264252
674.4382, 1.350235
674.9203, 1.129196
675.4024, 0.4910130
675.8845, 2.0919999E-02
676.3666, 0.4414670
676.8488, 1.298859
677.3309, 1.450333
677.8130, 0.8749690
678.2951, 0.7247470
678.7772, 1.739243
679.2593, 3.110779
679.7415, 3.278458
680.2236, 1.563629
680.7057, 0.5997310
681.1878, 1.026184
681.6699, 1.583725
682.1520, 1.681717
682.6342, 1.558487
683.1163, 1.629196
683.5984, 2.014557
684.0805, 2.500168
684.5626, 3.051331
685.0447, 3.533035
685.5269, 3.019501
686.0090, 1.291672
686.4911, 2.0660000E-02
686.9732, 9.5519997E-02
687.4553, 0.4914090
687.9374, 0.9129790
688.4196, 1.199432
688.9017, 1.193771
689.3838, 0.4714050
689.8659, 0.1486210
690.3480, 0.1158750
690.8301, 0.3463290
691.3123, 0.9143070
691.7944, 1.449432
692.2765, 1.769745
692.7586, 1.546707
693.2407, 0.8476560
693.7228, 0.7092590
694.2050, 1.401062
694.6871, 1.919983
695.1692, 1.732086
695.6513, 1.337448
696.1334, 1.268585
696.6155, 1.530762
697.0977, 1.841232
697.5798, 2.319275
698.0619, 2.624969
698.5440, 2.218048
699.0261, 1.511902
699.5082, 1.456909
699.9904, 2.285095
700.4725, 3.258240
700.9546, 3.511658
701.4367, 3.125946
701.9188, 3.437592
702.4009, 5.100830
702.8831, 6.155624
703.3652, 5.450790
703.8473, 4.458099
704.3294, 4.314713
704.8115, 4.947708
705.2936, 5.504974
705.7758, 5.587448
706.2579, 5.514297
706.7400, 5.475494
707.2221, 5.493881
707.7042, 5.630432
708.1863, 5.895096
708.6685, 6.208740
709.1505, 6.475815
709.6326, 6.740067
710.1147, 7.358994
710.5969, 8.746368
711.0790, 9.722122
711.5611, 9.961349
712.0432, 9.931305
712.5253, 9.584274
713.0074, 9.178375
713.4896, 9.442657
713.9717, 10.98232
714.4538, 12.67818
714.9359, 13.44872
715.4180, 13.66348
715.9001, 14.10399
716.3823, 14.87953
716.8644, 15.63344
717.3465, 16.12315
717.8286, 16.43747
718.3107, 16.89851
718.7928, 17.48654
719.2750, 18.25662
719.7571, 19.64114
720.2392, 20.76595
720.7213, 20.84300
721.2034, 20.41115
721.6855, 20.67401
722.1677, 22.14696
722.6498, 23.57072
723.1319, 23.52112
723.6140, 22.73645
724.0961, 22.99821
724.5782, 24.39609
725.0604, 25.39320
725.5425, 25.04933
726.0246, 24.05855
726.5067, 24.01422
726.9888, 25.34267
727.4709, 26.33951
727.9531, 27.07115
728.4352, 27.40811
728.9173, 27.21529
729.3994, 26.65118
729.8815, 25.88072
730.3636, 24.89778
730.8458, 23.59503
731.3279, 21.61183
731.8100, 19.40338
732.2921, 17.75452
732.7742, 16.60609
733.2563, 15.48177
733.7385, 14.20526
734.2206, 12.92694
734.7027, 11.81587
735.1848, 10.87085
735.6669, 10.06487
736.1490, 9.446335
736.6312, 8.911957
737.1133, 8.407867
737.5954, 8.001633
738.0775, 7.755341
738.5596, 7.662674
739.0417, 7.700867
739.5239, 8.020065
740.0060, 8.255219
740.4881, 7.761871
740.9702, 6.835999
741.4523, 6.455719
741.9344, 6.821304
742.4166, 7.349457
742.8987, 7.542694
743.3808, 7.511353
743.8629, 7.820770
744.3450, 8.781616
744.8271, 9.500626
745.3093, 9.929764
745.7914, 10.13202
746.2735, 9.944077
746.7556, 9.581787
747.2377, 9.489914
747.7198, 9.852219
748.2020, 10.31119
748.6841, 10.70218
749.1662, 10.95393
749.6483, 10.82504
750.1304, 10.37878
750.6125, 10.16836
751.0947, 10.52240
751.5768, 10.98151
752.0589, 10.66548
752.5410, 9.348801
753.0231, 8.318268
753.5052, 7.763763
753.9874, 7.250076
754.4695, 6.561035
754.9516, 5.893234
755.4337, 5.569672
755.9158, 5.597137
756.3979, 5.389618
756.8801, 4.357941
757.3622, 3.227219
757.8443, 2.678802
758.3264, 2.589218
758.8085, 2.773697
759.2906, 3.141006
759.7728, 3.303604
760.2549, 2.846970
760.7370, 1.882767
761.2191, 1.095886
761.7012, 0.4637450
762.1833, 6.8741001E-02
762.6655, 4.4249999E-03
763.1476, 0.1113280
763.6297, 0.3821110
764.1118, 0.7297670
764.5939, 0.8910520
765.0760, 0.6577150
765.5582, 0.5509030
766.0403, 0.9996030
766.5224, 1.589691
767.0045, 1.929245
767.4866, 1.966858
767.9688, 1.665466
768.4509, 0.9940800
768.9330, 0.2551730
769.4151, 5.0170999E-02
769.8972, 8.4380999E-02
770.3793, 0.4692540
770.8615, 1.328537
771.3436, 1.796738
771.8257, 1.241791
772.3078, 0.2695620
772.7899, 0.2600100
773.2720, 0.3322910
773.7542, 0.2043300
774.2363, 0.3336180
774.7184, 0.7874450
775.2005, 0.8208770
775.6826, 0.6651150
776.1647, 0.6607510
776.6469, 0.8421020
777.1290, 0.9823760
777.6111, 0.9240260
778.0932, 0.6808320
778.5753, 0.1957700
779.0574, 0.5169980
779.5396, 1.043701
780.0217, 1.336044
780.5038, 1.296890
780.9859, 0.6906430
781.4680, 0.2754970
781.9501, 0.6825410
782.4323, 0.1195220
782.9144, 0.3908540
783.3965, 0.5905150
783.8786, 1.476486
784.3607, 1.366898
784.8428, 0.6582490
785.3250, 0.1062320
785.8071, 5.4443002E-02
786.2892, 7.4951001E-02
786.7713, 0.2484440
787.2534, 0.3910220
787.7355, 7.0190001E-03
788.2177, 0.8451840
788.6998, 1.296249
789.1819, 1.030228
789.6640, 0.5883790
790.1461, 0.5875850
790.6282, 1.046631
791.1104, 1.279846
791.5925, 1.223572
792.0746, 1.064194
792.5567, 0.6670840
793.0388, 0.3594820
793.5209, 0.5054630
794.0031, 0.9465640
794.4852, 1.115479
794.9673, 0.6949010
795.4494, 0.2638400
795.9315, 0.1767880
796.4136, 0.2939150
796.8958, 0.5056460
797.3779, 0.7514950
797.8600, 0.8770600
798.3421, 0.8000790
798.8242, 0.6608730
799.3063, 0.7483670
799.7885, 1.075180
800.2706, 1.192429
800.7527, 1.004089
801.2348, 0.9062960
801.7169, 1.177704
802.1990, 1.508469
802.6812, 1.348007
803.1633, 0.6891020
803.6454, 0.4425960
804.1275, 1.243301
804.6096, 1.799545
805.0917, 1.297653
805.5739, 0.5483250
806.0560, 0.3855440
806.5381, 0.8426820
807.0202, 1.556961
807.5023, 2.426880
807.9844, 3.122971
808.4666, 3.014709
808.9487, 2.323792
809.4308, 1.907623
809.9129, 1.867828
810.3950, 2.011383
810.8771, 2.249481
811.3593, 2.556244
811.8414, 2.925186
812.3235, 3.508850
812.8056, 3.569168
813.2877, 2.414078
813.7698, 1.597946
814.2520, 1.709167
814.7341, 2.233246
815.2162, 2.701904
815.6983, 3.063721
816.1804, 3.401306
816.6625, 3.908966
817.1447, 4.240387
817.6268, 4.130585
818.1089, 3.680725
818.5910, 2.780777
819.0731, 1.611923
819.5552, 1.051758
820.0374, 1.734375
820.5195, 3.026062
821.0016, 3.637817
821.4837, 3.551880
821.9658, 3.295013
822.4479, 2.786469
822.9301, 2.497025
823.4122, 2.763855
823.8943, 3.309097
824.3764, 3.766083
824.8585, 4.154007
825.3406, 4.364807
825.8228, 4.281845
826.3049, 4.157181
826.7870, 4.061295
827.2691, 3.974182
827.7512, 3.816025
828.2333, 3.635391
828.7155, 3.732040
829.1976, 4.527466
829.6797, 5.168747
830.1618, 4.222809
830.6439, 2.464066
831.1260, 2.017624
831.6082, 3.011551
832.0903, 3.926559
832.5724, 3.851318
833.0545, 3.225922
833.5366, 2.925705
834.0187, 3.024139
834.5009, 2.904160
834.9830, 2.396774
835.4651, 2.012466
835.9472, 2.038162
836.4293, 2.196457
836.9114, 2.158997
837.3936, 1.937164
837.8757, 1.637680
838.3578, 1.080200
838.8399, 0.7740330
839.3220, 1.137939
839.8041, 1.635620
840.2863, 1.809525
840.7684, 1.637817
841.2505, 1.264191
841.7326, 0.6632080
842.2147, 0.1111450
842.6968, 4.0222000E-02
843.1790, 0.1142430
843.6611, 0.3300020
844.1432, 0.5961910
844.6253, 0.9554140
845.1074, 1.479736
845.5895, 1.817764
846.0717, 1.325974
846.5538, 9.4600003E-03
847.0359, 0.5291290
847.5180, 0.3757630
848.0001, 0.8998260
848.4822, 0.1503300
848.9644, 0.5779420
849.4465, 0.1723480
849.9286, 0.9683990
850.4107, 1.610703
850.8928, 1.403015
851.3749, 1.041428
851.8571, 0.4978790
852.3392, 0.1382290
852.8213, 0.5110930
853.3034, 1.238480
853.7855, 1.508911
854.2676, 1.088516
854.7498, 0.4893040
855.2319, 4.6707001E-02
855.7140, 0.1508180
856.1961, 0.2755740
856.6782, 1.210342
857.1603, 1.848587
857.6425, 1.988297
858.1246, 1.826889
858.6067, 1.460815
859.0888, 1.003174
859.5709, 0.8971710
860.0530, 1.288284
860.5352, 1.651825
861.0173, 2.019241
861.4994, 2.285721
861.9815, 2.213577
862.4636, 2.117416
862.9457, 2.521439
863.4279, 3.499741
863.9100, 4.195053
864.3921, 4.227036
864.8742, 4.118591
865.3563, 4.095200
865.8384, 4.111740
866.3206, 4.208359
866.8027, 4.295898
867.2848, 4.028107
867.7669, 3.116302
868.2490, 2.135895
868.7311, 1.902267
869.2133, 2.193665
869.6954, 2.394547
870.1775, 2.459152
870.6596, 2.564774
871.1417, 2.812256
871.6238, 2.962952
872.1060, 2.645935
872.5881, 1.866241
873.0702, 1.218307
873.5523, 0.6603240
874.0344, 0.3535610
874.5165, 0.4606170
874.9987, 0.6843720
875.4808, 0.8520050
875.9629, 0.9466550
876.4450, 0.8867950
876.9271, 0.5229190
877.4092, 0.3155210
877.8914, 0.4539490
878.3735, 0.6746220
878.8556, 0.9942630
879.3377, 1.210434
879.8198, 0.8789370
880.3019, 1.1719000E-02
880.7841, 0.6494450
881.2662, 0.2094730
881.7483, 0.5126800
882.2304, 0.4383240
882.7125, 0.1081090
883.1946, 0.3962400
883.6768, 0.2999420
884.1589, 8.9492999E-02
884.6410, 0.7519530
885.1231, 1.422302
885.6052, 1.479370
886.0873, 0.9024660
886.5695, 0.6222840
887.0516, 0.7208710
887.5337, 0.8942870
888.0158, 1.084244
888.4979, 1.204529
888.9800, 1.107742
889.4622, 0.7947690
889.9443, 0.6569520
890.4264, 0.7649990
890.9085, 0.9452210
891.3906, 1.253433
891.8727, 1.562531
892.3549, 1.891281
892.8370, 2.136353
893.3191, 2.044250
893.8012, 1.504532
894.2833, 1.105133
894.7654, 1.136292
895.2476, 1.423035
895.7297, 2.171555
896.2118, 2.926544
896.6939, 2.686996
897.1760, 1.486908
897.6581, 0.6192320
898.1403, 1.062042
898.6224, 2.064407
899.1045, 2.389099
899.5866, 2.189789
900.0687, 2.150375
900.5508, 2.334564
901.0330, 2.541656
901.5151, 2.669159
901.9972, 2.803558
902.4793, 3.110092
902.9614, 3.591888
903.4435, 3.810837
903.9257, 3.812042
904.4078, 3.359436
904.8899, 1.668488
905.3720, 0.4656980
905.8541, 1.568497
906.3362, 4.140228
906.8184, 5.476837
907.3005, 5.018036
907.7826, 4.842148
908.2647, 5.702179
908.7468, 6.322845
909.2289, 5.654602
909.7111, 4.654358
910.1932, 4.751205
910.6753, 5.959534
911.1574, 6.719025
911.6395, 5.958359
912.1216, 5.134964
912.6038, 5.536789
913.0859, 6.546524
913.5680, 7.436661
914.0501, 8.064453
914.5322, 8.454956
915.0143, 8.622696
915.4965, 8.725082
915.9786, 8.930344
916.4607, 9.227707
916.9428, 9.633575
917.4249, 10.12930
917.9070, 10.36003
918.3892, 10.19862
918.8713, 10.38104
919.3534, 11.68854
919.8355, 13.42259
920.3176, 13.40871
920.7997, 10.93246
921.2819, 9.557373
921.7640, 9.806870
922.2461, 10.23897
922.7282, 10.30307
923.2103, 10.24864
923.6924, 10.56375
924.1746, 11.20694
924.6567, 11.25812
925.1388, 9.979477
925.6209, 9.090561
926.1030, 9.370773
926.5851, 9.681503
927.0673, 9.149994
927.5494, 8.148575
928.0315, 7.370453
928.5136, 6.900223
928.9957, 6.602509
929.4778, 6.733856
929.9600, 6.765305
930.4421, 6.125870
930.9242, 5.161789
931.4063, 4.292297
931.8884, 3.653519
932.3705, 3.453094
932.8527, 3.860184
933.3348, 4.353882
933.8169, 4.183884
934.2990, 3.581528
934.7811, 3.152588
935.2632, 2.914093
935.7454, 2.796646
936.2275, 2.777527
936.7096, 2.649857
937.1917, 2.170746
937.6738, 1.489929
938.1559, 1.146225
938.6381, 1.099716
939.1202, 1.391968
939.6023, 2.134094
940.0844, 2.801483
940.5665, 3.175842
941.0486, 3.330994
941.5308, 3.197327
942.0129, 2.658554
942.4950, 2.065613
942.9771, 0.9810790
943.4592, 0.5166170
943.9413, 1.414246
944.4235, 2.378967
944.9056, 2.552689
945.3877, 2.213516
945.8698, 2.018829
946.3519, 2.110443
946.8340, 2.070572
947.3162, 1.507828
947.7983, 1.117691
948.2804, 1.521973
948.7625, 2.163315
949.2446, 2.257355
949.7267, 1.818100
950.2089, 1.490143
950.6910, 1.586777
951.1731, 1.738342
951.6552, 1.585770
952.1373, 1.330627
952.6194, 1.165039
953.1016, 1.139084
953.5837, 1.372131
954.0658, 1.865295
954.5479, 2.402863
955.0300, 2.877213
955.5121, 3.151031
955.9943, 2.829193
956.4763, 2.081329
956.9584, 1.588745
957.4406, 1.407379
957.9227, 1.193054
958.4048, 0.7668150
958.8869, 0.4892880
959.3690, 0.9226530
959.8511, 1.927582
960.3333, 2.352539
960.8154, 2.118286
961.2975, 1.933929
961.7796, 2.000305
962.2617, 1.829895
962.7438, 0.9391020
963.2260, 0.1837620
963.7081, 0.4367980
964.1902, 0.4086910
964.6723, 0.8850860
965.1544, 0.6137080
965.6365, 0.6129300
966.1187, 1.706467
966.6008, 2.584747
967.0829, 1.756882
967.5650, 6.7474000E-02
968.0471, 0.6002350
968.5292, 0.9965970
969.0114, 1.988251
969.4935, 1.653519
969.9756, 1.057404
970.4577, 0.2924190
970.9398, 0.2288970
971.4219, 0.1559750
971.9041, 1.242722
972.3862, 1.895767
972.8683, 1.575150
973.3504, 1.107056
973.8325, 0.7768550
974.3146, 0.6051480
974.7968, 0.8254240
975.2789, 1.135193
975.7610, 0.8607640
976.2431, 2.1088000E-02
976.7252, 0.6406560
977.2073, 0.3387760
977.6895, 0.3045960
978.1716, 0.8739320
978.6537, 1.239792
979.1358, 0.9512940
979.6179, 0.2321930
980.1000, 1.8158000E-02
980.5822, 0.5132600
981.0643, 1.278320
981.5464, 1.780823
982.0285, 2.062790
982.5106, 2.225113
982.9927, 2.249710
983.4749, 2.023254
983.9570, 1.538635
984.4391, 0.8143010
984.9212, 0.1857150
985.4033, 0.9089970
985.8854, 0.3727260
986.3676, 1.204407
986.8497, 1.823151
987.3318, 1.399872
987.8139, 0.9504390
988.2960, 0.6195530
988.7781, 0.5258790
989.2603, 0.7778020
989.7424, 1.270828
990.2245, 1.851501
990.7066, 2.596909
991.1887, 2.759476
991.6708, 2.080719
992.1530, 1.439301
992.6351, 0.9626620
993.1172, 0.6975250
993.5993, 0.8112640
994.0814, 1.125656
994.5635, 1.045959
995.0457, 0.2402340
995.5278, 2.2872999E-02
996.0099, 0.8186650
996.4920, 1.461349
996.9741, 1.660065
997.4562, 1.460663
997.9384, 0.4156650
998.4205, 1.013474
998.9026, 1.135437
999.3847, 0.9878230
999.8668, 2.518661
1000.349, 2.506851
1000.831, 2.256546
1001.313, 2.397141
1001.795, 2.625549
1002.277, 2.515854
1002.760, 2.119858
1003.242, 1.847076
1003.724, 1.895981
1004.206, 1.912216
1004.688, 1.838226
1005.170, 1.565140
1005.652, 0.6496580
1006.134, 0.3359530
1006.616, 0.3534550
1007.099, 0.5427250
1007.581, 1.127380
1008.063, 0.6395420
1008.545, 4.6463002E-02
1009.027, 0.1038210
1009.509, 0.4963530
1009.991, 1.026505
1010.473, 1.533981
1010.956, 1.650497
1011.438, 1.369354
1011.920, 1.238174
1012.402, 1.731262
1012.884, 2.291962
1013.366, 2.015778
1013.848, 1.419373
1014.330, 1.724777
1014.812, 2.648468
1015.295, 2.782669
1015.777, 1.774734
1016.259, 0.8472440
1016.741, 1.140732
1017.223, 1.954819
1017.705, 1.874878
1018.187, 1.218353
1018.669, 1.131989
1019.151, 1.655426
1019.634, 2.349960
1020.116, 3.042694
1020.598, 3.450577
1021.080, 3.189514
1021.562, 2.538101
1022.044, 2.384445
1022.526, 2.645126
1023.008, 2.791656
1023.491, 2.775345
1023.973, 2.674957
1024.455, 2.498886
1024.937, 2.407959
1025.419, 2.601151
1025.901, 2.966553
1026.383, 3.082092
1026.865, 2.862823
1027.348, 3.005203
1027.830, 3.654968
1028.312, 4.176193
1028.794, 4.265076
1029.276, 4.111618
1029.758, 3.852737
1030.240, 3.506836
1030.722, 3.201355
1031.204, 2.820419
1031.687, 3.139496
1032.169, 4.655975
1032.651, 5.568161
1033.133, 4.754868
1033.615, 3.420120
1034.097, 3.157837
1034.579, 3.857056
1035.061, 4.255432
1035.543, 4.309265
1036.026, 4.159973
1036.508, 3.520676
1036.990, 3.196075
1037.472, 3.773849
1037.954, 4.634460
1038.436, 5.002502
1038.918, 4.883469
1039.400, 4.715149
1039.883, 4.477005
1040.365, 4.222443
1040.847, 3.890182
1041.329, 3.630295
1041.811, 3.420395
1042.293, 3.363892
1042.775, 3.753525
1043.257, 4.541687
1043.740, 4.738831
1044.222, 3.685501
1044.704, 3.064102
1045.186, 3.130142
1045.668, 3.365280
1046.150, 3.871338
1046.632, 4.226395
1047.114, 3.641113
1047.596, 2.199142
1048.078, 1.492996
1048.561, 2.200485
1049.043, 2.899628
1049.525, 3.750198
1050.007, 4.187286
1050.489, 3.473251
1050.971, 2.500015
1051.453, 2.408234
1051.935, 3.156647
1052.418, 3.792374
1052.900, 4.268524
1053.382, 4.450928
1053.864, 4.127914
1054.346, 3.740280
1054.828, 3.388412
1055.310, 3.179352
1055.792, 3.261978
1056.275, 3.535675
1056.757, 3.875473
1057.239, 4.471008
1057.721, 4.840225
1058.203, 4.761597
1058.685, 4.539413
1059.167, 4.183365
1059.649, 3.872986
1060.131, 3.898087
1060.614, 4.171646
1061.096, 4.200089
1061.578, 3.718887
1062.060, 3.353027
1062.542, 3.306137
1063.024, 3.442184
1063.506, 4.056366
1063.988, 4.511826
1064.470, 3.884506
1064.953, 2.538254
1065.435, 1.821182
1065.917, 2.335510
1066.399, 2.740936
1066.881, 2.300140
1067.363, 1.882874
1067.845, 2.024002
1068.327, 2.419861
1068.810, 2.897079
1069.292, 3.288452
1069.774, 3.181641
1070.256, 2.356018
1070.738, 1.682785
1071.220, 1.536041
1071.702, 1.651993
1072.184, 2.275322
1072.667, 2.780968
1073.149, 2.141609
1073.631, 0.8892820
1074.113, 0.6454620
1074.595, 1.947861
1075.077, 2.950935
1075.559, 2.414047
1076.041, 1.835526
1076.523, 2.424828
1077.005, 3.069542
1077.488, 2.291641
1077.970, 0.7698290
1078.452, 0.3228450
1078.934, 1.376160
1079.416, 2.165070
1079.898, 1.654617
1080.380, 1.006081
1080.862, 0.5252230
1081.344, 0.4430690
1081.827, 1.332611
1082.309, 2.627663
1082.791, 3.208740
1083.273, 2.913788
1083.755, 2.705788
1084.237, 3.292694
1084.719, 3.628540
1085.201, 2.754196
1085.684, 1.881775
1086.166, 2.262901
1086.648, 3.173584
1087.130, 3.417801
1087.612, 2.865158
1088.094, 2.154442
1088.576, 1.310745
1089.058, 0.7716900
1089.541, 0.9979630
1090.023, 1.305984
1090.505, 1.058823
1090.987, 0.6973110
1091.469, 1.058228
1091.951, 1.959251
1092.433, 2.140656
1092.915, 0.8669360
1093.397, 0.1227260
1093.880, 2.0660000E-02
1094.362, 0.4152830
1094.844, 0.9147570
1095.326, 1.385582
1095.808, 1.807129
1096.290, 2.130035
1096.772, 2.253479
1097.254, 2.160156
1097.736, 1.818962
1098.219, 0.7332150
1098.701, 1.3084000E-02
1099.183, 0.5281520
1099.665, 1.306252
1100.147, 1.562996
1100.629, 1.357819
1101.111, 0.8637080
1101.593, 5.6701999E-02
1102.076, 0.3070680
1102.558, 0.5339810
1103.040, 1.070480
1103.522, 0.5068360
1104.004, 0.2204670
1104.486, 0.6299510
1104.968, 0.6688610
1105.450, 9.7496003E-02
1105.932, 1.055344
1106.415, 1.594292
1106.897, 0.6849980
1107.379, 5.0446000E-02
1107.861, 0.2519000
1108.343, 0.5378880
1108.825, 0.5781100
1109.307, 0.4474330
1109.789, 0.1297070
1110.271, 0.2953800
1110.754, 0.3282620
1111.236, 0.4334950
1111.718, 0.8887020
1112.200, 0.7795640
1112.682, 0.5583110
1113.164, 0.3247830
1113.646, 8.9294001E-02
1114.128, 0.1887890
1114.611, 0.4294660
1115.093, 0.3545230
1115.575, 0.1395570
1116.057, 0.6458660
1116.539, 1.390015
1117.021, 1.799232
1117.503, 1.524605
1117.985, 1.166664
1118.468, 1.140358
1118.950, 1.275497
1119.432, 1.248718
1119.914, 1.044479
1120.396, 0.8672030
1120.878, 0.7851940
1121.360, 0.5564040
1121.842, 8.5274003E-02
1122.324, 0.4386750
1122.807, 6.8062000E-02
1123.289, 0.6452870
1123.771, 1.274796
1124.253, 1.807167
1124.735, 2.156464
1125.217, 2.383049
1125.699, 2.130432
1126.181, 1.088776
1126.663, 0.5386050
1127.146, 1.088905
1127.628, 1.819504
1128.110, 1.869675
1128.592, 1.483307
1129.074, 1.430367
1129.556, 1.785103
1130.038, 1.567169
1130.520, 0.6292950
1131.003, 0.2360000
1131.485, 0.7433090
1131.967, 1.376511
1132.449, 1.673340
1132.931, 1.672554
1133.413, 1.336235
1133.895, 0.7775040
1134.377, 0.8478700
1134.859, 1.528404
1135.342, 2.367218
1135.824, 3.290062
1136.306, 3.569321
1136.788, 2.852654
1137.270, 1.914177
1137.752, 1.515228
1138.234, 1.603592
1138.716, 2.213745
1139.198, 3.169502
1139.681, 3.606407
1140.163, 3.551590
1140.645, 3.549553
1141.127, 3.727798
1141.609, 3.708725
1142.091, 3.198021
1142.573, 2.613289
1143.055, 2.633965
1143.538, 2.948601
1144.020, 2.846024
1144.502, 2.528664
1144.984, 2.699890
1145.466, 3.271896
1145.948, 3.305695
1146.430, 2.421455
1146.912, 1.680229
1147.395, 2.232552
1147.877, 3.164879
1148.359, 3.569397
1148.841, 3.613281
1149.323, 3.415970
1149.805, 3.106033
1150.287, 2.885887
1150.769, 2.801476
1151.251, 2.802429
1151.734, 3.016136
1152.216, 2.994972
1152.698, 2.020813
1153.180, 1.124901
1153.662, 1.398178
1154.144, 2.120949
1154.626, 2.335983
1155.108, 2.064926
1155.590, 1.799850
1156.073, 1.672768
1156.555, 1.535164
1157.037, 1.159500
1157.519, 1.010643
1158.001, 1.427956
1158.483, 1.994469
1158.965, 2.623619
1159.447, 3.067291
1159.930, 2.776947
1160.412, 1.773018
1160.894, 1.171661
1161.376, 1.277824
1161.858, 1.484009
1162.340, 2.072716
1162.822, 2.324226
1163.304, 1.622650
1163.786, 0.8681110
1164.269, 1.113068
1164.751, 1.946411
1165.233, 1.840912
1165.715, 0.3447570
1166.197, 3.5521999E-02
1166.679, 1.525253
1167.161, 2.444649
1167.643, 2.158516
1168.125, 1.676323
1168.608, 1.658401
1169.090, 1.718056
1169.572, 1.139061
1170.054, 6.6459998E-02
1170.536, 0.3131790
1171.018, 2.9533001E-02
1171.500, 0.3649520
1171.982, 0.6210250
1172.465, 0.8761520
1172.947, 1.181129
1173.429, 1.501038
1173.911, 1.805290
1174.393, 1.925484
1174.875, 1.289391
1175.357, 0.2311780
1175.839, 9.0888999E-02
1176.322, 0.7143940
1176.804, 1.613541
1177.286, 2.532608
1177.768, 2.488243
1178.250, 1.078598
1178.732, 8.7844998E-02
1179.214, 0.9145970
1179.696, 2.453674
1180.178, 2.186928
1180.661, 1.137016
1181.143, 0.6972430
1181.625, 0.7747570
1182.107, 0.8807830
1182.589, 0.9248200
1183.071, 1.148918
1183.553, 1.762016
1184.035, 2.183777
1184.517, 1.686432
1185.000, 1.282516
1185.482, 1.991714
1185.964, 2.921776
1186.446, 3.042519
1186.928, 2.608925
1187.410, 2.457176
1187.892, 2.744034
1188.374, 2.677696
1188.857, 1.640251
1189.339, 0.8792500
1189.821, 0.7503590
1190.303, 0.8302920
1190.785, 0.9851300
1191.267, 1.192184
1191.749, 1.597153
1192.231, 2.028442
1192.714, 1.737953
1193.196, 0.3511580
1193.678, 0.2525020
1194.160, 0.3093260
1194.642, 0.5658040
1195.124, 5.9684999E-02
1195.606, 0.2720490
1196.088, 0.1812740
1196.570, 0.9029540
1197.052, 1.187744
1197.535, 1.092850
1198.017, 0.7956620
1198.499, 0.3098070
1198.981, 0.3051450
1199.463, 0.7947240
1199.945, 1.058617
1200.427, 0.8978500
1200.909, 0.6515200
1201.392, 0.5436330
1201.874, 0.5588990
1202.356, 0.8085710
1202.838, 1.079750
1203.320, 0.6749190
1203.802, 2.0203000E-02
1204.284, 0.3063960
1204.766, 1.284653
1205.249, 1.654228
1205.731, 1.085327
1206.213, 0.5552520
1206.695, 0.6949230
1207.177, 0.9975970
1207.659, 1.231071
1208.141, 1.298271
1208.623, 0.9529570
1209.105, 0.5099110
1209.588, 0.3708880
1210.070, 0.4647750
1210.552, 0.6318440
1211.034, 0.8642350
1211.516, 0.9400410
1211.998, 0.5480650
1212.480, 0.3792570
1212.962, 0.7254870
1213.444, 1.176544
1213.927, 1.635628
1214.409, 2.008316
1214.891, 2.143456
1215.373, 2.070946
1215.855, 1.816315
1216.337, 1.265045
1216.819, 1.077957
1217.301, 1.386772
1217.784, 1.532181
1218.266, 1.348099
1218.748, 1.134819
1219.230, 1.056076
1219.712, 1.032295
1220.194, 0.9628680
1220.676, 0.8642880
1221.158, 0.7419050
1221.641, 0.6331560
1222.123, 0.8465500
1222.605, 1.291237
1223.087, 1.309296
1223.569, 0.8454670
1224.051, 0.6667860
1224.533, 1.212738
1225.015, 1.947327
1225.497, 2.413635
1225.979, 2.691116
1226.462, 2.899185
1226.944, 2.954468
1227.426, 2.651947
1227.908, 2.146301
1228.390, 1.703552
1228.872, 1.416138
1229.354, 1.280617
1229.836, 1.281754
1230.319, 1.448074
1230.801, 2.165230
1231.283, 2.556450
1231.765, 1.948975
1232.247, 1.170738
1232.729, 0.8749010
1233.211, 0.8547670
1233.693, 0.6271290
1234.176, 0.2121730
1234.658, 0.2403720
1235.140, 0.9398190
1235.622, 1.363220
1236.104, 1.360840
1236.586, 1.534439
1237.068, 2.144455
1237.550, 2.549347
1238.032, 2.248123
1238.515, 1.626053
1238.997, 1.301933
1239.479, 1.219162
1239.961, 1.232544
1240.443, 1.262619
1240.925, 0.9132310
1241.407, 0.2550660
1241.889, 3.3957999E-02
1242.371, 0.1636810
1242.854, 0.3133700
1243.336, 6.6726997E-02
1243.818, 0.2142790
1244.300, 0.3193970
1244.782, 0.1598360
1245.264, 0.6119380
1245.746, 1.489967
1246.228, 1.850922
1246.711, 1.836754
1247.193, 1.865028
1247.675, 1.980270
1248.157, 1.834770
1248.639, 1.092590
1249.121, 0.5935750
1249.603, 0.6238940
1250.085, 0.7275540
1250.568, 0.8620610
1251.050, 0.8898090
1251.532, 0.6206130
1252.014, 0.2934950
1252.496, 0.3526310
1252.978, 0.7413560
1253.460, 0.7426610
1253.942, 0.2723540
1254.424, 0.5205460
1254.906, 1.601173
1255.389, 1.934875
1255.871, 1.101509
1256.353, 0.3611220
1256.835, 0.5358200
1257.317, 0.9691620
1257.799, 0.8023300
1258.281, 0.3487780
1258.763, 0.1027830
1259.246, 2.5374999E-02
1259.728, 0.1085970
1260.210, 0.2765120
1260.692, 0.3672640
1261.174, 0.3758770
1261.656, 0.4373700
1262.138, 0.6259310
1262.620, 0.7610860
1263.103, 0.5998230
1263.585, 0.5824810
1264.067, 1.092377
1264.549, 1.604393
1265.031, 1.910675
1265.513, 1.814110
1265.995, 1.148399
1266.477, 8.6623996E-02
1266.959, 0.3267670
1267.442, 3.9016999E-02
1267.924, 0.6036070
1268.406, 1.548950
1268.888, 1.719521
1269.370, 0.7638090
1269.852, 0.1345210
1270.334, 0.5978470
1270.816, 1.167816
1271.298, 0.6754760
1271.781, 0.1199040
1272.263, 0.6567760
1272.745, 2.184769
1273.227, 2.420723
1273.709, 1.794098
1274.191, 1.318596
1274.673, 1.159225
1275.155, 1.162025
1275.638, 1.267761
1276.120, 1.319229
1276.602, 1.122475
1277.084, 0.8291320
1277.566, 1.025406
1278.048, 1.268883
1278.530, 1.501747
1279.012, 1.623871
1279.495, 1.265892
1279.977, 0.8136670
1280.459, 0.3990400
1280.941, 6.5000001E-03
1281.423, 1.6860999E-02
1281.905, 0.5015260
1282.387, 0.8532870
1282.869, 0.9654850
1283.351, 1.052010
1283.833, 1.105255
1284.316, 0.9984440
1284.798, 0.7361910
1285.280, 0.3712620
1285.762, 0.1223910
1286.244, 0.0000000E+00
##END=



