##NAMES=Prosopite
##RRUFFID=R050668
##IDEAL CHEMISTRY=CaAl_2_(F,OH)_8_
##LOCALITY=Grand Reef mine, Klondyke, Aravaipa District, Graham County, Arizona, USA
##OWNER=RRUFF
##SOURCE=University of Arizona Mineral Museum
##DESCRIPTION=Light-blue massive coating on quartz
##STATUS=The identification of this mineral has been confirmed by X-ray diffraction.
##URL=rruff.info/R050668
145.7072, 0.0000000E+00
146.1893, 1.384323
146.6714, 0.6264040
147.1535, 0.5966190
147.6356, 0.1101990
148.1178, 2.072113
148.5999, 4.716522
149.0820, 7.646896
149.5641, 10.94891
150.0462, 14.69673
150.5283, 18.83270
151.0105, 23.32602
151.4926, 26.11038
151.9747, 28.63670
152.4568, 31.78568
152.9389, 35.81348
153.4210, 40.34746
153.9032, 44.96959
154.3853, 50.42175
154.8674, 55.18590
155.3495, 58.56165
155.8316, 59.73444
156.3137, 61.47287
156.7959, 64.66277
157.2780, 68.65479
157.7601, 72.21570
158.2422, 75.70367
158.7243, 78.28885
159.2065, 79.55122
159.6886, 78.94888
160.1707, 77.89481
160.6528, 76.70187
161.1349, 75.35083
161.6170, 73.80643
162.0992, 71.47647
162.5813, 69.29596
163.0634, 67.86606
163.5455, 67.39471
164.0276, 67.54422
164.5097, 68.29950
164.9919, 69.58813
165.4740, 71.13916
165.9561, 72.42548
166.4382, 74.08301
166.9203, 76.72353
167.4024, 81.01439
167.8846, 85.81468
168.3667, 90.47963
168.8488, 95.05733
169.3309, 99.85283
169.8130, 105.7375
170.2952, 111.7779
170.7773, 116.7585
171.2594, 120.6682
171.7415, 123.1379
172.2236, 123.7832
172.7057, 122.6461
173.1879, 120.2502
173.6700, 117.2959
174.1521, 113.3069
174.6342, 107.4963
175.1163, 97.97629
175.5984, 87.18555
176.0806, 77.79260
176.5627, 69.74634
177.0448, 63.20619
177.5269, 58.46973
178.0090, 55.13278
178.4911, 52.33336
178.9733, 49.86067
179.4554, 47.63876
179.9375, 45.50529
180.4196, 43.42078
180.9017, 41.92874
181.3838, 41.87407
181.8660, 43.02135
182.3481, 44.54630
182.8302, 46.02313
183.3123, 47.61469
183.7944, 49.73103
184.2766, 52.44443
184.7587, 55.45287
185.2408, 58.56674
185.7229, 61.73328
186.2050, 64.79633
186.6871, 67.35124
187.1693, 69.68762
187.6514, 72.89630
188.1335, 77.26968
188.6156, 81.82230
189.0977, 85.44156
189.5798, 88.10382
190.0620, 89.74399
190.5441, 90.51389
191.0262, 90.30901
191.5083, 88.32477
191.9904, 84.19081
192.4725, 78.96017
192.9547, 73.99168
193.4368, 69.21686
193.9189, 65.45187
194.4010, 63.34956
194.8831, 62.83028
195.3652, 62.61325
195.8474, 62.53232
196.3295, 62.84892
196.8116, 64.30772
197.2937, 67.01456
197.7758, 69.79659
198.2579, 72.02847
198.7401, 73.70682
199.2222, 75.21625
199.7043, 76.97403
200.1864, 78.13319
200.6685, 76.64034
201.1507, 72.30653
201.6328, 66.20901
202.1149, 58.38126
202.5970, 48.55788
203.0791, 39.69116
203.5612, 31.96841
204.0434, 25.35170
204.5255, 19.30255
205.0076, 13.73694
205.4897, 9.037766
205.9718, 5.526978
206.4539, 3.349594
206.9361, 1.467224
207.4182, 0.2277530
207.9003, 1.676987
208.3824, 2.716965
208.8645, 3.293777
209.3466, 3.608276
209.8288, 3.745224
210.3109, 3.660751
210.7930, 3.599945
211.2751, 3.615723
211.7572, 3.642227
212.2393, 3.422928
212.7215, 2.961685
213.2036, 2.465881
213.6857, 2.060730
214.1678, 1.833893
214.6499, 1.366760
215.1320, 0.6149750
215.6142, 0.4945530
216.0963, 2.101196
216.5784, 4.321030
217.0605, 6.584534
217.5426, 8.510880
218.0247, 9.877899
218.5069, 11.59920
218.9890, 13.96985
219.4711, 16.84203
219.9532, 19.33324
220.4353, 21.31227
220.9175, 23.01328
221.3996, 24.51868
221.8817, 25.52214
222.3638, 27.16348
222.8459, 29.73526
223.3280, 33.05241
223.8102, 36.01637
224.2923, 38.56696
224.7744, 41.01129
225.2565, 43.55644
225.7386, 46.44029
226.2207, 48.74149
226.7029, 50.50066
227.1850, 51.63922
227.6671, 51.52852
228.1492, 49.56079
228.6313, 47.24779
229.1134, 45.46680
229.5956, 44.28564
230.0777, 43.44440
230.5598, 42.94106
231.0419, 42.76967
231.5240, 42.86612
232.0062, 43.16481
232.4883, 43.82365
232.9704, 45.00198
233.4525, 47.01057
233.9346, 48.86159
234.4167, 50.50060
234.8989, 51.92322
235.3810, 53.11647
235.8631, 54.14780
236.3452, 54.87265
236.8273, 55.22636
237.3094, 55.22290
237.7916, 54.81175
238.2737, 53.95760
238.7558, 52.68617
239.2379, 51.01976
239.7200, 48.52498
240.2021, 46.21368
240.6843, 44.65562
241.1664, 44.23656
241.6485, 43.77437
242.1306, 43.48268
242.6127, 43.10921
243.0948, 41.56790
243.5770, 37.97862
244.0591, 34.44249
244.5412, 32.15582
245.0233, 31.87489
245.5054, 31.10744
245.9876, 29.56226
246.4697, 27.51483
246.9518, 25.78419
247.4339, 24.48444
247.9160, 23.32440
248.3981, 22.13474
248.8803, 20.69284
249.3624, 19.74036
249.8445, 19.41313
250.3266, 19.54645
250.8087, 19.67781
251.2908, 19.67339
251.7730, 19.87331
252.2551, 20.42232
252.7372, 21.35078
253.2193, 22.57314
253.7014, 24.18864
254.1835, 26.04205
254.6657, 27.78256
255.1478, 29.42860
255.6299, 30.93275
256.1120, 32.21779
256.5941, 33.07825
257.0763, 34.36990
257.5584, 36.19986
258.0405, 38.41133
258.5226, 40.85727
259.0047, 44.15555
259.4868, 46.46138
259.9690, 46.93082
260.4511, 45.22426
260.9332, 43.23839
261.4153, 40.98094
261.8974, 38.41423
262.3795, 35.46275
262.8617, 31.95004
263.3438, 28.40771
263.8259, 24.90350
264.3080, 21.40425
264.7901, 18.35760
265.2722, 15.94691
265.7544, 13.73515
266.2365, 10.98170
266.7186, 7.273422
267.2007, 4.390976
267.6828, 3.227570
268.1649, 3.925323
268.6471, 3.606812
269.1292, 1.834320
269.6113, 0.2788240
270.0934, 1.273239
270.5755, 0.8827210
271.0576, 0.3704830
271.5398, 2.2171000E-02
272.0219, 0.2844850
272.5040, 2.6077000E-02
272.9861, 1.144913
273.4682, 2.307419
273.9503, 2.633316
274.4325, 1.964310
274.9146, 1.310638
275.3967, 0.8306880
275.8788, 0.5473020
276.3610, 0.7997590
276.8431, 1.751724
277.3252, 2.733978
277.8073, 3.076233
278.2894, 2.725128
278.7715, 2.338760
279.2537, 2.035110
279.7358, 1.793167
280.2179, 1.486084
280.7000, 1.075104
281.1821, 0.7599030
281.6642, 0.8196410
282.1464, 1.257721
282.6285, 1.391739
283.1106, 1.060287
283.5927, 0.3991390
284.0748, 0.2890780
284.5569, 1.020111
285.0391, 1.640472
285.5212, 1.937103
286.0033, 1.950409
286.4854, 2.173325
286.9675, 2.648666
287.4496, 3.382141
287.9318, 4.574265
288.4139, 6.244675
288.8960, 7.693695
289.3781, 8.305573
289.8602, 8.284393
290.3423, 8.732635
290.8245, 9.854767
291.3066, 11.19672
291.7887, 11.90912
292.2708, 12.07471
292.7529, 12.42796
293.2350, 13.54668
293.7172, 15.17938
294.1993, 16.50290
294.6814, 17.45862
295.1635, 18.23816
295.6456, 18.94473
296.1277, 19.62852
296.6099, 20.50638
297.0920, 21.66327
297.5741, 23.06680
298.0562, 24.71169
298.5383, 26.59743
299.0204, 28.51913
299.5026, 30.23549
299.9847, 31.80933
300.4668, 33.46986
300.9489, 35.27507
301.4311, 37.20499
301.9132, 39.25510
302.3953, 41.43642
302.8774, 43.52115
303.3595, 45.32887
303.8416, 46.93155
304.3238, 48.53084
304.8059, 50.40877
305.2880, 52.05304
305.7701, 52.69466
306.2522, 52.47961
306.7343, 52.25703
307.2165, 52.57039
307.6986, 53.20813
308.1807, 53.87610
308.6628, 54.38429
309.1449, 55.11142
309.6270, 56.43852
310.1092, 58.25822
310.5913, 60.18759
311.0734, 61.61693
311.5555, 63.27940
312.0376, 65.87473
312.5197, 69.76216
313.0019, 73.95773
313.4840, 78.05861
313.9661, 82.11679
314.4482, 86.27509
314.9303, 90.73364
315.4124, 95.21988
315.8946, 99.61307
316.3767, 103.9885
316.8588, 107.9089
317.3409, 111.8219
317.8230, 115.0578
318.3051, 116.7259
318.7873, 116.7708
319.2694, 115.0349
319.7515, 111.1654
320.2336, 105.0636
320.7157, 98.15222
321.1978, 90.01945
321.6800, 81.68066
322.1621, 74.08258
322.6442, 67.34351
323.1263, 61.42856
323.6084, 56.62059
324.0905, 52.84509
324.5727, 48.99242
325.0548, 44.25272
325.5369, 39.84677
326.0190, 36.52669
326.5012, 35.33797
326.9833, 34.05948
327.4654, 32.22009
327.9475, 30.07227
328.4296, 28.58635
328.9117, 28.49573
329.3939, 28.42670
329.8760, 27.79721
330.3581, 26.16801
330.8402, 24.62079
331.3223, 23.21722
331.8044, 21.91302
332.2866, 20.57722
332.7687, 19.20866
333.2508, 17.79686
333.7329, 16.26328
334.2150, 14.47534
334.6971, 12.95816
335.1793, 11.83018
335.6614, 10.88142
336.1435, 9.839417
336.6256, 8.651993
337.1077, 7.505829
337.5898, 6.443161
338.0720, 5.465408
338.5541, 4.696411
339.0362, 4.213898
339.5183, 3.730606
340.0004, 2.873871
340.4825, 1.554306
340.9647, 0.7025150
341.4468, 0.6335600
341.9289, 1.082855
342.4110, 1.145844
342.8931, 0.7531130
343.3752, 0.2921300
343.8574, 9.7365998E-02
344.3395, 0.3937530
344.8216, 0.1761630
345.3037, 0.7142180
345.7858, 1.876755
346.2679, 2.640762
346.7501, 3.027115
347.2322, 3.293350
347.7143, 3.469238
348.1964, 3.626770
348.6785, 3.970779
349.1607, 4.504425
349.6428, 5.293900
350.1249, 6.750580
350.6070, 8.594711
351.0891, 9.962051
351.5713, 10.18446
352.0534, 9.865829
352.5355, 9.856827
353.0176, 10.15286
353.4997, 10.58453
353.9818, 11.09729
354.4640, 11.64136
354.9461, 12.17665
355.4282, 12.84853
355.9103, 13.29726
356.3924, 13.12309
356.8745, 12.42363
357.3567, 11.59131
357.8388, 10.58315
358.3209, 9.682159
358.8030, 9.167175
359.2851, 9.200073
359.7672, 9.327118
360.2494, 9.295761
360.7315, 9.190353
361.2136, 9.165054
361.6957, 9.321472
362.1778, 9.535400
362.6599, 9.788864
363.1421, 10.09967
363.6242, 10.27069
364.1063, 9.734329
364.5884, 9.231384
365.0705, 9.522873
365.5526, 11.82010
366.0348, 13.81110
366.5169, 14.80832
366.9990, 14.86542
367.4811, 15.09221
367.9632, 15.71236
368.4453, 16.44766
368.9275, 17.13673
369.4096, 17.71333
369.8917, 18.32497
370.3738, 18.96150
370.8559, 19.63826
371.3380, 20.39366
371.8202, 21.33891
372.3023, 22.22523
372.7844, 22.95634
373.2665, 23.51746
373.7487, 23.96762
374.2308, 24.26857
374.7129, 24.49983
375.1950, 24.83202
375.6771, 25.39496
376.1592, 25.64742
376.6414, 25.42383
377.1235, 24.75426
377.6056, 23.90741
378.0877, 22.84837
378.5698, 21.71185
379.0519, 20.64305
379.5341, 19.64871
380.0162, 18.39171
380.4983, 16.69418
380.9804, 14.86832
381.4625, 13.76653
381.9446, 13.35495
382.4268, 13.01154
382.9089, 12.37296
383.3910, 11.50000
383.8731, 10.42268
384.3552, 9.049561
384.8373, 7.957672
385.3195, 8.317551
385.8016, 9.597885
386.2837, 10.23186
386.7658, 8.718536
387.2479, 6.567169
387.7300, 5.738815
388.2122, 6.205856
388.6943, 7.034653
389.1764, 8.009216
389.6585, 8.784225
390.1406, 8.792038
390.6227, 7.156952
391.1049, 5.752518
391.5870, 6.104919
392.0691, 7.749268
392.5512, 9.285721
393.0333, 10.03557
393.5154, 10.49855
393.9976, 10.96620
394.4797, 11.47189
394.9618, 12.00986
395.4439, 12.62152
395.9260, 13.25278
396.4081, 13.82903
396.8903, 14.13432
397.3724, 14.59160
397.8545, 15.46812
398.3366, 16.79488
398.8188, 17.76039
399.3009, 17.71439
399.7830, 17.68608
400.2651, 18.36877
400.7472, 20.79225
401.2293, 22.37967
401.7115, 22.76724
402.1936, 22.26070
402.6757, 21.72958
403.1578, 20.96921
403.6399, 20.55002
404.1220, 20.88197
404.6042, 22.21713
405.0863, 22.70302
405.5684, 22.05466
406.0505, 21.00430
406.5326, 20.52788
407.0147, 20.70212
407.4969, 20.94031
407.9790, 21.05728
408.4611, 21.11394
408.9432, 21.24922
409.4253, 21.42271
409.9074, 22.05022
410.3896, 23.86264
410.8717, 26.52510
411.3538, 28.46968
411.8359, 29.31386
412.3180, 29.71637
412.8001, 30.55588
413.2823, 31.74420
413.7644, 32.94852
414.2465, 33.81050
414.7286, 34.64331
415.2107, 35.96391
415.6928, 37.78130
416.1750, 39.60309
416.6571, 41.09503
417.1392, 42.35362
417.6213, 43.56534
418.1034, 44.85968
418.5855, 46.02599
419.0677, 46.92390
419.5498, 47.57162
420.0319, 48.04414
420.5140, 48.40523
420.9961, 48.57561
421.4782, 48.50412
421.9604, 48.31963
422.4425, 47.69594
422.9246, 46.54152
423.4067, 44.95615
423.8889, 42.99577
424.3710, 40.31244
424.8531, 37.61084
425.3352, 35.05064
425.8173, 32.66425
426.2994, 30.38945
426.7816, 28.25066
427.2637, 26.25381
427.7458, 24.40126
428.2279, 22.78554
428.7100, 21.12018
429.1921, 19.33531
429.6743, 17.56046
430.1564, 16.28000
430.6385, 15.60301
431.1206, 14.84100
431.6027, 13.67645
432.0848, 12.10854
432.5670, 10.79359
433.0491, 9.720291
433.5312, 8.889923
434.0133, 8.438309
434.4954, 8.294342
434.9775, 7.913406
435.4597, 6.992523
435.9418, 5.915207
436.4239, 5.572754
436.9060, 5.906723
437.3881, 6.185730
437.8702, 5.719559
438.3524, 4.989838
438.8345, 4.703110
439.3166, 4.968277
439.7987, 5.406097
440.2808, 5.800751
440.7629, 6.155350
441.2451, 6.470551
441.7272, 6.862167
442.2093, 7.109894
442.6914, 6.959137
443.1735, 6.486618
443.6556, 6.201981
444.1378, 6.538254
444.6199, 6.957001
445.1020, 7.061142
445.5841, 6.374878
446.0662, 6.196686
446.5483, 7.270065
447.0305, 8.842331
447.5126, 9.644455
447.9947, 8.779831
448.4768, 8.206757
448.9590, 8.504242
449.4411, 9.696243
449.9232, 10.42221
450.4053, 10.56670
450.8874, 10.41673
451.3695, 10.12270
451.8517, 9.617264
452.3338, 9.255844
452.8159, 9.099228
453.2980, 9.065994
453.7801, 9.091492
454.2622, 9.198547
454.7444, 8.994019
455.2265, 8.104477
455.7086, 6.732010
456.1907, 5.820923
456.6728, 5.390930
457.1549, 5.065323
457.6371, 4.447662
458.1192, 3.659439
458.6013, 2.988678
459.0834, 2.542374
459.5655, 2.180038
460.0476, 1.721954
460.5298, 1.218491
461.0119, 0.8350830
461.4940, 0.6989290
461.9761, 0.6807560
462.4582, 0.7335820
462.9403, 0.8678280
463.4225, 0.8761750
463.9046, 0.5682370
464.3867, 0.1343840
464.8688, 0.2410580
465.3509, 0.5458980
465.8330, 0.7563480
466.3152, 0.8358310
466.7973, 0.8086700
467.2794, 0.7639160
467.7615, 0.6687160
468.2436, 0.5899660
468.7257, 0.5217290
469.2079, 0.4258880
469.6900, 0.5433960
470.1721, 0.9771580
470.6542, 1.515778
471.1363, 1.985428
471.6184, 2.439651
472.1006, 2.593307
472.5827, 2.313828
473.0648, 1.752777
473.5469, 1.337967
474.0291, 1.068542
474.5112, 0.9453280
474.9933, 1.099045
475.4754, 1.425629
475.9575, 1.409927
476.4396, 0.9946900
476.9218, 0.5343930
477.4039, 0.5675510
477.8860, 0.8488460
478.3681, 0.7596890
478.8502, 0.2453000
479.3323, 1.266174
479.8145, 1.231110
480.2966, 0.3993530
480.7787, 0.2738340
481.2608, 0.3032530
481.7429, 7.6720998E-02
482.2250, 2.5899999E-04
482.7072, 6.4240001E-02
483.1893, 0.6902310
483.6714, 0.5947880
484.1535, 0.7906190
484.6356, 1.000031
485.1177, 0.8077240
485.5999, 1.360413
486.0820, 1.177902
486.5641, 1.291321
487.0462, 1.271744
487.5283, 1.545410
488.0104, 1.223663
488.4926, 1.162491
488.9747, 1.950211
489.4568, 2.391678
489.9389, 2.389359
490.4210, 2.213562
490.9031, 2.158676
491.3853, 2.231201
491.8674, 2.352127
492.3495, 2.627731
492.8316, 2.802338
493.3137, 2.048584
493.7958, 0.4657750
494.2780, 0.8050840
494.7601, 0.8116760
495.2422, 0.1189270
495.7243, 0.2528840
496.2064, 0.2578130
496.6885, 6.5200999E-02
497.1707, 0.3593600
497.6528, 0.8550260
498.1349, 1.182205
498.6170, 1.109741
499.0992, 1.096252
499.5813, 1.524689
500.0634, 2.211044
500.5455, 2.710419
501.0276, 2.611557
501.5097, 2.533463
501.9919, 2.743927
502.4740, 3.294510
502.9561, 3.881485
503.4382, 4.534180
503.9203, 5.189301
504.4024, 5.816620
504.8846, 6.434860
505.3667, 6.959915
505.8488, 7.344162
506.3309, 7.654419
506.8130, 7.987915
507.2951, 8.295135
507.7773, 8.855133
508.2594, 9.931335
508.7415, 11.36201
509.2236, 12.11322
509.7057, 12.12077
510.1878, 12.26828
510.6700, 13.52374
511.1521, 15.52153
511.6342, 17.17979
512.1163, 18.27031
512.5984, 19.15198
513.0806, 20.13181
513.5627, 21.17972
514.0448, 22.23308
514.5269, 23.27544
515.0090, 24.30212
515.4911, 25.34503
515.9733, 26.38385
516.4554, 27.27768
516.9375, 27.87321
517.4196, 28.39214
517.9017, 28.93689
518.3839, 29.45711
518.8660, 30.14453
519.3481, 31.29070
519.8302, 32.50201
520.3123, 33.30696
520.7944, 33.41388
521.2766, 33.68756
521.7587, 34.36722
522.2408, 35.27261
522.7229, 35.63948
523.2050, 35.26419
523.6871, 35.15089
524.1693, 36.16385
524.6514, 38.14030
525.1335, 39.02213
525.6156, 38.69705
526.0977, 38.06453
526.5798, 37.97562
527.0620, 38.31938
527.5441, 38.72209
528.0262, 39.01637
528.5083, 39.43199
528.9904, 40.51549
529.4725, 41.93074
529.9547, 42.86584
530.4368, 42.30763
530.9189, 41.66022
531.4010, 41.82909
531.8831, 42.83679
532.3652, 43.95586
532.8474, 45.07617
533.3295, 46.12268
533.8116, 47.07549
534.2937, 47.69141
534.7758, 48.68141
535.2579, 50.15514
535.7401, 51.90637
536.2222, 53.65448
536.7043, 55.57788
537.1864, 57.30829
537.6685, 58.60355
538.1506, 59.62643
538.6328, 61.13394
539.1149, 63.22452
539.5970, 65.61148
540.0791, 68.15912
540.5612, 70.85190
541.0433, 73.42221
541.5255, 75.89313
542.0076, 78.35742
542.4897, 80.85364
542.9718, 83.47452
543.4539, 86.43567
543.9360, 90.15143
544.4182, 93.63184
544.9003, 95.69031
545.3824, 96.88049
545.8645, 98.51102
546.3466, 101.4543
546.8287, 104.5474
547.3109, 107.4445
547.7930, 110.1201
548.2751, 112.2965
548.7572, 113.0161
549.2393, 113.9202
549.7214, 116.0129
550.2036, 120.3490
550.6857, 123.4292
551.1678, 124.9139
551.6499, 125.6318
552.1320, 126.5187
552.6141, 127.5519
553.0963, 128.8668
553.5784, 130.5461
554.0605, 132.4851
554.5426, 134.5937
555.0247, 136.8384
555.5068, 138.6240
555.9890, 139.0085
556.4711, 138.8695
556.9532, 140.0655
557.4353, 142.6560
557.9174, 144.9351
558.3995, 145.1313
558.8817, 144.5190
559.3638, 144.4068
559.8459, 144.9145
560.3281, 146.3379
560.8102, 149.7766
561.2923, 153.9816
561.7744, 156.9631
562.2565, 157.1262
562.7386, 157.3827
563.2208, 158.2729
563.7029, 159.7502
564.1850, 161.6038
564.6671, 163.9614
565.1492, 166.4337
565.6313, 168.7767
566.1135, 170.9283
566.5956, 173.6390
567.0777, 177.0536
567.5598, 180.4485
568.0419, 183.1816
568.5240, 185.2610
569.0062, 186.8442
569.4883, 187.8923
569.9704, 188.5748
570.4525, 189.0607
570.9346, 189.3408
571.4167, 189.3672
571.8989, 189.1473
572.3810, 188.6562
572.8631, 188.1438
573.3452, 187.4794
573.8273, 185.7947
574.3094, 182.2443
574.7916, 178.0038
575.2737, 173.6848
575.7558, 169.4244
576.2379, 164.8354
576.7200, 159.7159
577.2021, 154.4831
577.6843, 149.4459
578.1664, 144.6831
578.6485, 139.9059
579.1306, 134.8314
579.6127, 129.9381
580.0948, 126.3705
580.5770, 124.1440
581.0591, 121.4351
581.5412, 117.1765
582.0233, 112.1870
582.5054, 108.1277
582.9875, 105.0067
583.4697, 102.4961
583.9518, 101.1728
584.4339, 99.97247
584.9160, 97.38062
585.3981, 93.02658
585.8802, 89.36453
586.3624, 88.48813
586.8445, 88.45401
587.3266, 87.46570
587.8087, 83.91162
588.2908, 80.99139
588.7729, 79.51749
589.2551, 78.77002
589.7372, 77.53693
590.2193, 75.54236
590.7014, 73.59067
591.1835, 71.89691
591.6656, 70.40613
592.1478, 68.90558
592.6299, 67.41528
593.1120, 65.83975
593.5941, 64.18884
594.0762, 62.41153
594.5583, 60.23260
595.0405, 57.64740
595.5226, 55.02054
596.0047, 52.88553
596.4868, 50.86066
596.9689, 48.21603
597.4510, 44.40808
597.9332, 40.97571
598.4153, 39.25052
598.8974, 38.36911
599.3795, 36.97342
599.8616, 34.13330
600.3438, 31.38794
600.8259, 29.16656
601.3080, 27.35474
601.7901, 25.55746
602.2722, 23.82858
602.7543, 22.03461
603.2365, 19.99564
603.7186, 17.73758
604.2007, 15.98749
604.6828, 14.77200
605.1649, 13.98016
605.6470, 13.81210
606.1292, 14.05063
606.6113, 13.71957
607.0934, 12.66669
607.5755, 11.35425
608.0576, 10.09204
608.5398, 8.939514
609.0219, 8.050171
609.5040, 7.703064
609.9861, 7.296051
610.4683, 6.074768
610.9504, 4.582367
611.4325, 3.970093
611.9146, 6.168640
612.3967, 7.621857
612.8788, 6.673248
613.3610, 3.632416
613.8431, 2.111847
614.3252, 2.889221
614.8073, 3.905029
615.2894, 4.069702
615.7715, 3.316162
616.2537, 2.918030
616.7358, 2.896729
617.2179, 3.108704
617.7000, 3.462219
618.1821, 3.934204
618.6642, 4.446686
619.1464, 4.987091
619.6285, 5.562073
620.1106, 6.389771
620.5927, 7.219208
621.0748, 7.620880
621.5569, 6.739746
622.0391, 6.101257
622.5212, 6.617218
623.0033, 7.991669
623.4854, 9.192383
623.9675, 9.954865
624.4496, 10.47290
624.9318, 10.77429
625.4139, 10.86108
625.8960, 10.85690
626.3781, 10.70483
626.8602, 10.75455
627.3423, 11.28384
627.8245, 12.25076
628.3066, 13.05771
628.7887, 13.70081
629.2708, 14.25635
629.7529, 14.69153
630.2350, 15.02850
630.7172, 15.49216
631.1993, 16.19672
631.6814, 17.01770
632.1635, 17.95053
632.6456, 18.89127
633.1277, 19.66022
633.6099, 20.20148
634.0920, 20.47705
634.5741, 20.13715
635.0562, 19.50320
635.5383, 19.75082
636.0204, 21.84134
636.5026, 23.49323
636.9847, 23.86560
637.4668, 23.00830
637.9489, 22.17679
638.4310, 21.44519
638.9131, 20.91681
639.3953, 20.55865
639.8774, 20.36789
640.3595, 20.71063
640.8416, 21.67276
641.3237, 22.41263
641.8058, 22.05786
642.2880, 20.98383
642.7701, 19.66602
643.2522, 18.02545
643.7343, 16.63867
644.2164, 15.98315
644.6985, 15.73080
645.1807, 15.39899
645.6628, 14.85873
646.1449, 14.17102
646.6270, 13.13464
647.1091, 12.00163
647.5912, 11.52579
648.0734, 12.02715
648.5555, 12.33563
649.0376, 12.00531
649.5197, 11.17259
650.0018, 10.40070
650.4839, 9.681198
650.9661, 9.181122
651.4482, 9.266632
651.9303, 9.549896
652.4124, 9.240738
652.8945, 8.319641
653.3766, 7.456039
653.8588, 7.269104
654.3409, 7.221024
654.8230, 6.796631
655.3051, 5.698303
655.7872, 4.864410
656.2693, 4.898270
656.7515, 5.062012
657.2336, 4.578476
657.7158, 2.806610
658.1979, 1.783707
658.6800, 1.739838
659.1621, 2.414505
659.6442, 3.759476
660.1263, 5.788345
660.6085, 6.671982
661.0906, 5.365158
661.5727, 3.175415
662.0548, 2.357071
662.5369, 2.662735
663.0190, 3.149689
663.5012, 3.557098
663.9833, 3.763672
664.4654, 3.443970
664.9475, 2.715805
665.4296, 2.436020
665.9117, 3.654022
666.3939, 4.740768
666.8760, 4.712402
667.3581, 3.324554
667.8402, 2.528809
668.3223, 2.547668
668.8044, 2.797119
669.2866, 2.882629
669.7687, 2.799011
670.2508, 2.629349
670.7329, 2.362534
671.2150, 2.053680
671.6971, 1.632172
672.1793, 1.208313
672.6614, 1.157440
673.1435, 1.739914
673.6256, 2.229950
674.1077, 1.810013
674.5898, 0.9708860
675.0720, 0.4820400
675.5541, 0.9994810
676.0362, 1.423508
676.5183, 1.413467
677.0004, 1.097427
677.4825, 0.8332670
677.9647, 0.6871340
678.4468, 0.4951320
678.9289, 0.2603760
679.4110, 5.2673001E-02
679.8931, 0.8054660
680.3752, 2.035370
680.8574, 2.981552
681.3395, 3.085724
681.8216, 2.636688
682.3037, 2.086395
682.7858, 1.466064
683.2679, 1.097443
683.7501, 1.458618
684.2322, 1.991379
684.7143, 2.214035
685.1964, 2.010559
685.6785, 1.847885
686.1606, 2.052429
686.6428, 2.192795
687.1249, 1.912613
687.6070, 0.7570650
688.0891, 0.2573700
688.5712, 0.5789180
689.0533, 1.284317
689.5355, 1.977142
690.0176, 2.648468
690.4997, 2.900238
690.9818, 2.563583
691.4639, 2.056198
691.9460, 1.911819
692.4282, 2.032318
692.9103, 2.219315
693.3924, 2.672913
693.8745, 2.850769
694.3566, 2.057846
694.8387, 0.7607570
695.3209, 5.3314000E-02
695.8030, 0.9345090
696.2851, 1.591156
696.7672, 1.517456
697.2493, 0.8734590
697.7314, 0.4942320
698.2136, 0.4702150
698.6957, 0.4140930
699.1778, 0.1298980
699.6599, 0.3238220
700.1420, 0.7742770
700.6241, 1.211319
701.1063, 1.370209
701.5884, 0.7450100
702.0705, 9.1399997E-02
702.5526, 0.4157870
703.0347, 0.1760560
703.5168, 0.2131500
703.9990, 0.7750550
704.4811, 1.252136
704.9632, 1.411484
705.4453, 1.020508
705.9274, 0.9236760
706.4095, 1.255783
706.8917, 1.734528
707.3738, 2.165741
707.8560, 2.559448
708.3381, 2.747986
708.8202, 2.688400
709.3023, 2.530777
709.7844, 2.322662
710.2665, 2.167084
710.7487, 2.369110
711.2308, 3.070282
711.7129, 3.981674
712.1950, 5.271286
712.6771, 6.523438
713.1592, 7.110519
713.6414, 5.982056
714.1235, 5.154724
714.6056, 5.213333
715.0877, 5.844681
715.5698, 6.520569
716.0519, 7.379990
716.5341, 7.862045
717.0162, 7.638123
717.4983, 7.082336
717.9804, 7.426086
718.4625, 8.599762
718.9446, 9.599380
719.4268, 9.717819
719.9089, 9.532059
720.3910, 9.838058
720.8731, 10.52768
721.3552, 11.15033
721.8373, 11.32741
722.3195, 11.51042
722.8016, 12.02518
723.2837, 12.88382
723.7658, 13.46481
724.2479, 13.57874
724.7300, 13.64218
725.2122, 13.86896
725.6943, 14.26408
726.1764, 14.39594
726.6585, 14.19722
727.1406, 14.17255
727.6227, 14.79941
728.1049, 15.88260
728.5870, 17.15173
729.0691, 18.60370
729.5512, 19.53081
730.0333, 18.78745
730.5154, 17.65054
730.9976, 17.36758
731.4797, 18.40787
731.9618, 19.45930
732.4439, 20.19319
732.9260, 20.92421
733.4081, 21.97220
733.8903, 23.57387
734.3724, 24.63766
734.8545, 24.99625
735.3366, 25.06880
735.8187, 25.33771
736.3008, 25.77411
736.7830, 26.23436
737.2651, 26.66211
737.7472, 27.15250
738.2293, 27.94690
738.7114, 28.80006
739.1935, 29.37450
739.6757, 29.29608
740.1578, 29.32300
740.6399, 29.62007
741.1220, 30.15234
741.6041, 30.86836
742.0862, 31.95926
742.5684, 32.79111
743.0505, 33.28485
743.5326, 33.49170
744.0147, 33.48755
744.4968, 33.27872
744.9789, 32.91089
745.4611, 32.30469
745.9432, 31.72684
746.4253, 31.53035
746.9074, 31.61288
747.3895, 31.76907
747.8716, 32.09937
748.3538, 32.32661
748.8359, 32.50815
749.3180, 32.56659
749.8001, 32.02753
750.2822, 30.33873
750.7643, 28.97586
751.2465, 28.43605
751.7286, 28.57848
752.2107, 28.76273
752.6928, 29.02289
753.1749, 29.30391
753.6570, 29.55899
754.1392, 29.70892
754.6213, 29.62634
755.1034, 29.36578
755.5855, 29.02786
756.0676, 28.49664
756.5498, 28.01413
757.0319, 27.73158
757.5140, 27.67003
757.9962, 27.70735
758.4783, 27.89592
758.9604, 28.05283
759.4425, 27.97122
759.9246, 27.64534
760.4067, 27.97949
760.8889, 29.09810
761.3710, 30.07875
761.8531, 29.86768
762.3352, 29.15639
762.8173, 29.51950
763.2994, 30.96617
763.7816, 31.98740
764.2637, 30.99370
764.7458, 29.71428
765.2279, 29.49765
765.7100, 30.72749
766.1921, 31.75757
766.6743, 32.43839
767.1564, 32.95335
767.6385, 33.36731
768.1206, 33.65857
768.6027, 34.15326
769.0848, 34.89877
769.5670, 35.64667
770.0491, 36.00241
770.5312, 36.22942
771.0133, 36.96660
771.4954, 38.33734
771.9775, 39.61942
772.4597, 40.26768
772.9418, 40.67676
773.4239, 41.19154
773.9060, 41.93442
774.3881, 42.58859
774.8702, 43.11598
775.3524, 43.58667
775.8345, 44.08688
776.3166, 44.63551
776.7987, 44.99046
777.2808, 45.11197
777.7629, 45.16780
778.2451, 45.30067
778.7272, 45.50748
779.2093, 45.84073
779.6914, 46.37721
780.1735, 46.71931
780.6556, 46.37195
781.1378, 45.84486
781.6199, 45.64737
782.1020, 46.26697
782.5841, 46.52176
783.0662, 46.32138
783.5483, 45.84854
784.0305, 45.18050
784.5126, 44.29176
784.9947, 43.95845
785.4768, 44.41646
785.9589, 44.77679
786.4410, 43.78278
786.9232, 42.01065
787.4053, 40.50903
787.8874, 39.63850
788.3695, 38.75706
788.8516, 37.25650
789.3337, 35.69653
789.8159, 34.73611
790.2980, 35.16461
790.7801, 34.81137
791.2622, 33.27353
791.7443, 31.39607
792.2264, 30.35495
792.7086, 30.09230
793.1907, 29.94662
793.6728, 29.89890
794.1549, 29.57291
794.6370, 28.17245
795.1191, 26.30664
795.6013, 24.99031
796.0834, 24.77908
796.5655, 24.59131
797.0476, 24.20543
797.5297, 23.55048
798.0118, 22.51001
798.4940, 20.72704
798.9761, 19.40375
799.4582, 18.72304
799.9403, 18.34448
800.4224, 17.73465
800.9045, 16.97192
801.3867, 16.58972
801.8688, 16.83481
802.3509, 16.96634
802.8330, 15.94583
803.3151, 14.45966
803.7972, 13.51108
804.2794, 13.73366
804.7615, 13.85497
805.2436, 13.63690
805.7258, 13.21100
806.2079, 12.59508
806.6900, 11.62424
807.1721, 11.23041
807.6542, 11.70886
808.1364, 12.24490
808.6185, 11.59756
809.1006, 10.11118
809.5827, 8.719894
810.0648, 7.518921
810.5469, 6.839462
811.0291, 7.590591
811.5112, 8.746582
811.9933, 9.023499
812.4754, 7.328491
812.9575, 6.211578
813.4396, 5.955002
813.9218, 6.149353
814.4039, 6.490753
814.8860, 7.024231
815.3681, 6.915756
815.8502, 5.961945
816.3323, 4.874924
816.8145, 4.597656
817.2966, 4.751160
817.7787, 4.625427
818.2608, 3.948654
818.7429, 3.463608
819.2250, 3.650803
819.7072, 4.094666
820.1893, 4.426895
820.6714, 4.768341
821.1535, 4.684647
821.6356, 4.012039
822.1177, 3.205368
822.5999, 2.778259
823.0820, 2.675171
823.5641, 2.511932
824.0462, 2.226166
824.5283, 2.005753
825.0104, 2.095932
825.4926, 2.313446
825.9747, 2.492889
826.4568, 2.680023
826.9389, 2.580704
827.4210, 1.608093
827.9031, 0.7146000
828.3853, 0.6270900
828.8674, 1.573166
829.3495, 2.604797
829.8316, 3.767380
830.3137, 4.446579
830.7958, 3.759705
831.2780, 2.359314
831.7601, 1.521271
832.2422, 1.398666
832.7243, 1.642868
833.2064, 2.458878
833.6885, 3.253082
834.1707, 3.591324
834.6528, 3.372360
835.1349, 2.932220
835.6170, 2.049896
836.0991, 1.259872
836.5812, 1.011810
837.0634, 1.295959
837.5455, 1.515701
838.0276, 1.619461
838.5097, 1.724228
838.9918, 2.048965
839.4739, 2.461838
839.9561, 2.912704
840.4382, 3.389862
840.9203, 3.538376
841.4024, 2.813477
841.8845, 2.122086
842.3666, 1.960587
842.8488, 2.313400
843.3309, 2.144608
843.8130, 1.345215
844.2951, 0.6508330
844.7772, 0.5763700
845.2593, 0.8721620
845.7415, 1.167969
846.2236, 1.460342
846.7057, 1.662399
847.1878, 1.465820
847.6699, 1.455887
848.1520, 2.145020
848.6342, 3.369507
849.1163, 3.999329
849.5984, 3.854004
850.0805, 3.427856
850.5626, 2.731857
851.0447, 1.953537
851.5269, 1.888916
852.0090, 2.440811
852.4911, 2.792938
852.9732, 2.236557
853.4553, 1.545914
853.9374, 1.550873
854.4196, 1.973175
854.9017, 2.128448
855.3839, 1.422409
855.8660, 0.9206390
856.3481, 0.9797820
856.8302, 1.290222
857.3123, 1.069077
857.7944, 0.2527920
858.2766, 0.2318570
858.7587, 6.8191998E-02
859.2408, 0.3424530
859.7229, 0.5571590
860.2050, 0.5623630
860.6871, 0.2998810
861.1693, 0.6837010
861.6514, 1.299927
862.1335, 0.8673100
862.6156, 5.8212001E-02
863.0977, 0.7280580
863.5798, 1.126419
864.0620, 1.268539
864.5441, 1.082947
865.0262, 0.8134610
865.5083, 0.7555240
865.9904, 0.8643650
866.4725, 1.087662
866.9547, 1.485580
867.4368, 1.571884
867.9189, 0.4727940
868.4010, 0.7867280
868.8831, 1.199203
869.3652, 0.1472930
869.8474, 0.5231780
870.3295, 0.6961520
870.8116, 0.7093810
871.2937, 0.8200530
871.7758, 0.9926450
872.2579, 0.9971160
872.7401, 0.8337550
873.2222, 0.5225980
873.7043, 0.1872250
874.1864, 0.8473210
874.6685, 0.9621120
875.1506, 0.5222930
875.6328, 0.1965940
876.1149, 0.3194730
876.5970, 0.3852080
877.0791, 0.1785890
877.5612, 0.2668150
878.0433, 0.6317900
878.5255, 0.9162290
879.0076, 1.107117
879.4897, 1.087875
879.9718, 1.035904
880.4539, 1.355865
880.9360, 1.888382
881.4182, 2.081955
881.9003, 1.231384
882.3824, 0.5323490
882.8645, 0.6252440
883.3466, 1.132416
883.8287, 0.9909670
884.3109, 6.5460000E-03
884.7930, 0.5490880
885.2751, 0.1688390
885.7572, 0.4728240
886.2393, 1.4648000E-02
886.7214, 1.129257
887.2036, 1.596390
887.6857, 0.5658260
888.1678, 0.4994960
888.6499, 1.145386
889.1320, 1.368073
889.6141, 1.120697
890.0963, 8.7723002E-02
890.5784, 0.4906920
891.0605, 0.4388730
891.5426, 0.1653750
892.0247, 0.1774600
892.5068, 0.3549500
892.9890, 0.2712550
893.4711, 0.1745000
893.9532, 0.4768070
894.4353, 6.8649001E-02
894.9174, 0.6530610
895.3995, 0.4966740
895.8817, 0.7640230
896.3638, 1.369675
896.8459, 1.089508
897.3280, 0.6199490
897.8101, 0.3052060
898.2922, 0.1560360
898.7744, 0.3028410
899.2565, 0.7244420
899.7386, 1.211685
900.2207, 1.992386
900.7028, 2.479889
901.1849, 1.946640
901.6671, 0.5774840
902.1492, 0.1931460
902.6313, 0.1132200
903.1134, 0.4678190
903.5955, 0.6734160
904.0776, 0.7039180
904.5598, 0.3329620
905.0419, 0.3591610
905.5240, 0.7471160
906.0062, 0.4864650
906.4883, 9.1549996E-03
906.9704, 0.4422300
907.4525, 0.8508000
907.9346, 1.169922
908.4167, 1.578430
908.8989, 1.643875
909.3810, 1.051575
909.8631, 0.4426120
910.3452, 0.8750610
910.8273, 2.226700
911.3094, 2.718918
911.7916, 2.077408
912.2737, 1.357346
912.7558, 1.705826
913.2379, 2.403122
913.7200, 2.604584
914.2021, 2.049011
914.6843, 1.777451
915.1664, 2.064743
915.6485, 2.530487
916.1306, 3.156464
916.6127, 3.891800
917.0948, 3.462982
917.5770, 1.874374
918.0591, 0.6351320
918.5412, 1.184418
919.0233, 2.198471
919.5054, 2.094376
919.9875, 1.221268
920.4697, 0.9130710
920.9518, 2.147293
921.4339, 3.199402
921.9160, 3.780746
922.3981, 3.893127
922.8802, 3.292862
923.3624, 2.018860
923.8445, 1.270218
924.3266, 1.490601
924.8087, 2.121262
925.2908, 2.982285
925.7729, 3.699524
926.2551, 3.660660
926.7372, 2.159180
927.2193, 0.9955440
927.7014, 0.3032230
928.1835, 5.3040002E-02
928.6656, 0.1484530
929.1478, 1.8555000E-02
929.6299, 0.4111180
930.1120, 1.053024
930.5941, 1.480469
931.0762, 0.9757840
931.5583, 0.2385100
932.0405, 3.0075001E-02
932.5226, 0.4515530
933.0047, 0.9198150
933.4868, 1.368134
933.9689, 1.703156
934.4510, 1.916504
934.9332, 2.009918
935.4153, 1.763123
935.8974, 1.191620
936.3795, 0.9429020
936.8616, 1.578598
937.3438, 2.359467
937.8259, 2.469559
938.3080, 2.176666
938.7901, 2.013779
939.2722, 2.533630
939.7543, 2.569550
940.2365, 1.727524
940.7186, 0.6809390
941.2007, 0.4406430
941.6828, 0.9346620
942.1649, 1.285904
942.6470, 1.336823
943.1292, 1.457260
943.6113, 2.167023
944.0934, 2.902969
944.5755, 3.028275
945.0576, 2.386734
945.5397, 1.974640
946.0219, 1.947815
946.5040, 1.934174
946.9861, 1.718811
947.4682, 1.362808
947.9503, 1.270187
948.4324, 1.390488
948.9146, 1.529602
949.3967, 1.608261
949.8788, 1.611267
950.3609, 1.525772
950.8430, 1.371933
951.3251, 1.150452
951.8073, 0.5097960
952.2894, 1.096954
952.7715, 1.567444
953.2536, 1.884460
953.7357, 2.100342
954.2179, 1.704300
954.7000, 0.1450810
955.1821, 0.2962800
955.6642, 0.6076970
956.1464, 0.4299770
956.6285, 0.1647340
957.1106, 0.2189940
957.5927, 0.7442170
958.0748, 0.9345400
958.5569, 0.6694340
959.0391, 0.3821560
959.5212, 0.3874210
960.0033, 0.5455930
960.4854, 0.5561370
960.9675, 0.4518280
961.4496, 0.4402920
961.9318, 0.8335420
962.4139, 1.129654
962.8960, 1.079071
963.3781, 0.7172390
963.8602, 3.7459999E-02
964.3423, 1.170837
964.8245, 1.618286
965.3066, 0.8683470
965.7887, 0.2373660
966.2708, 0.5402070
966.7529, 0.3082580
967.2350, 3.4988001E-02
967.7172, 0.5307160
968.1993, 0.6526790
968.6814, 0.2084810
969.1635, 1.143448
969.6456, 1.501083
970.1277, 1.217957
970.6099, 1.039520
971.0920, 0.9510500
971.5741, 1.098022
972.0562, 1.822739
972.5383, 2.674911
973.0204, 3.074036
973.5026, 3.084610
973.9847, 3.036346
974.4668, 2.847137
974.9489, 2.873932
975.4310, 3.355774
975.9131, 3.951385
976.3953, 3.886368
976.8774, 3.217102
977.3595, 2.958084
977.8416, 3.406265
978.3237, 3.997025
978.8058, 4.170013
979.2880, 4.244461
979.7701, 4.638123
980.2522, 5.639496
980.7343, 6.139328
981.2164, 5.878113
981.6985, 5.551422
982.1807, 5.655106
982.6628, 6.050079
983.1449, 6.062775
983.6270, 5.753876
984.1091, 5.511169
984.5912, 5.410278
985.0734, 5.580902
985.5555, 6.351288
986.0376, 7.397812
986.5197, 7.810715
987.0018, 7.235138
987.4839, 7.361664
987.9661, 8.594833
988.4482, 10.15616
988.9303, 11.11525
989.4124, 11.58691
989.8945, 11.74997
990.3766, 11.61470
990.8588, 11.57869
991.3409, 11.88097
991.8230, 12.25574
992.3051, 12.49652
992.7872, 12.61670
993.2693, 13.19217
993.7515, 14.24336
994.2336, 15.12656
994.7157, 15.16916
995.1978, 15.13976
995.6799, 16.12442
996.1620, 17.72316
996.6442, 18.99400
997.1263, 19.49579
997.6084, 19.84779
998.0905, 19.97615
998.5726, 20.14917
999.0547, 20.80904
999.5369, 21.88411
1000.019, 22.84215
1000.501, 23.62309
1000.983, 24.06171
1001.465, 23.76653
1001.947, 23.31479
1002.430, 23.11435
1002.912, 23.20308
1003.394, 23.52521
1003.876, 24.27048
1004.358, 24.62288
1004.840, 24.00189
1005.322, 23.13466
1005.804, 23.79317
1006.287, 25.32477
1006.769, 26.11064
1007.251, 24.94025
1007.733, 23.88026
1008.215, 23.70070
1008.697, 23.81444
1009.179, 23.69275
1009.661, 23.30148
1010.143, 23.12444
1010.626, 23.19746
1011.108, 23.13991
1011.590, 22.36934
1012.072, 21.51608
1012.554, 21.27620
1013.036, 21.60556
1013.518, 21.87576
1014.000, 22.14287
1014.483, 22.03014
1014.965, 21.23833
1015.447, 20.27702
1015.929, 20.41104
1016.411, 21.29715
1016.893, 21.61067
1017.375, 20.86244
1017.857, 20.05740
1018.339, 19.84422
1018.822, 19.82388
1019.304, 19.60017
1019.786, 19.09792
1020.268, 18.98949
1020.750, 19.34859
1021.232, 19.61505
1021.714, 19.21156
1022.196, 18.57169
1022.679, 18.64772
1023.161, 19.23819
1023.643, 19.55804
1024.125, 18.98389
1024.607, 18.51186
1025.089, 18.46677
1025.571, 18.40550
1026.053, 17.48380
1026.535, 15.93341
1027.018, 15.34427
1027.500, 15.96228
1027.982, 16.56387
1028.464, 16.30350
1028.946, 15.57541
1029.428, 14.54298
1029.910, 13.22983
1030.392, 12.15930
1030.875, 11.25656
1031.357, 10.90781
1031.839, 11.52509
1032.321, 12.34036
1032.803, 11.69528
1033.285, 10.24059
1033.767, 9.387131
1034.249, 9.888351
1034.731, 10.39224
1035.214, 10.92133
1035.696, 10.99811
1036.178, 10.01521
1036.660, 7.998688
1037.142, 6.743347
1037.624, 6.258179
1038.106, 6.035492
1038.588, 6.044174
1039.071, 5.915543
1039.553, 5.192902
1040.035, 4.092834
1040.517, 3.368240
1040.999, 3.181152
1041.481, 3.022324
1041.963, 2.867752
1042.445, 2.565430
1042.927, 1.477554
1043.410, 0.2211610
1043.892, 0.2781520
1044.374, 2.018784
1044.856, 3.139786
1045.338, 2.038467
1045.820, 0.9027710
1046.302, 0.7290340
1046.784, 1.306107
1047.266, 1.510651
1047.749, 1.384552
1048.231, 1.461044
1048.713, 2.214951
1049.195, 2.775848
1049.677, 2.174515
1050.159, 1.089157
1050.641, 0.4613950
1051.123, 0.5283810
1051.606, 0.6059270
1052.088, 0.7132720
1052.570, 0.7742000
1053.052, 0.6417080
1053.534, 0.4651790
1054.016, 0.6378480
1054.498, 1.059372
1054.980, 1.233597
1055.463, 0.8020940
1055.945, 0.2789460
1056.427, 0.3322910
1056.909, 0.8461000
1057.391, 0.8839870
1057.873, 0.5031740
1058.355, 0.1309660
1058.837, 0.1751710
1059.319, 0.3834990
1059.802, 0.4983980
1060.284, 0.4788670
1060.766, 0.1294250
1061.248, 0.4972380
1061.730, 0.4521640
1062.212, 0.4375460
1062.694, 1.102783
1063.176, 1.089996
1063.658, 0.7594600
1064.141, 0.4866790
1064.623, 0.3081510
1065.105, 0.3037410
1065.587, 0.6253810
1066.069, 0.7969970
1066.551, 0.5839390
1067.033, 0.4981840
1067.515, 1.147675
1067.998, 2.287140
1068.480, 2.342697
1068.962, 1.477798
1069.444, 0.6745450
1069.926, 0.1898350
1070.408, 0.1976620
1070.890, 1.192825
1071.372, 2.558624
1071.854, 3.438858
1072.337, 3.831329
1072.819, 3.423126
1073.301, 2.032867
1073.783, 1.305344
1074.265, 3.966431
1074.747, 7.215363
1075.229, 7.904922
1075.711, 6.046295
1076.193, 5.190720
1076.676, 6.060562
1077.158, 6.712723
1077.640, 6.569199
1078.122, 6.070984
1078.604, 5.791504
1079.086, 5.783325
1079.568, 6.253082
1080.051, 7.411484
1080.533, 8.344971
1081.015, 8.510132
1081.497, 8.603012
1081.979, 8.995193
1082.461, 9.611374
1082.943, 9.887283
1083.425, 9.889175
1083.907, 10.09921
1084.390, 10.95425
1084.872, 11.79106
1085.354, 12.15849
1085.836, 12.27249
1086.318, 12.37619
1086.800, 12.34619
1087.282, 12.93817
1087.764, 14.23734
1088.246, 15.55238
1088.729, 16.35602
1089.211, 16.85767
1089.693, 17.34576
1090.175, 17.76245
1090.657, 17.81921
1091.139, 16.96214
1091.621, 16.76418
1092.103, 17.64786
1092.586, 18.80093
1093.068, 19.20152
1093.550, 19.01669
1094.032, 18.50105
1094.514, 17.69569
1094.996, 17.11610
1095.478, 17.54605
1095.960, 17.57135
1096.443, 16.41956
1096.925, 14.63538
1097.407, 13.87216
1097.889, 13.99800
1098.371, 14.08279
1098.853, 13.92766
1099.335, 13.74736
1099.817, 13.71834
1100.299, 13.51350
1100.781, 12.68097
1101.264, 11.17746
1101.746, 10.79623
1102.228, 11.68388
1102.710, 12.06059
1103.192, 10.61531
1103.674, 8.695221
1104.156, 7.695572
1104.638, 7.359924
1105.121, 7.285934
1105.603, 7.699432
1106.085, 7.724121
1106.567, 7.223297
1107.049, 6.730515
1107.531, 6.906235
1108.013, 7.291183
1108.495, 6.714630
1108.978, 5.442902
1109.460, 4.607529
1109.942, 5.042725
1110.424, 5.386826
1110.906, 5.365677
1111.388, 5.191238
1111.870, 5.179230
1112.352, 5.258759
1112.834, 5.129669
1113.317, 4.765121
1113.799, 4.290634
1114.281, 3.326447
1114.763, 2.755783
1115.245, 3.309952
1115.727, 4.482513
1116.209, 5.028763
1116.691, 4.956726
1117.173, 4.460159
1117.656, 3.512665
1118.138, 2.575775
1118.620, 1.923386
1119.102, 1.547638
1119.584, 1.550629
1120.066, 1.932022
1120.548, 2.294922
1121.030, 2.677841
1121.513, 2.634338
1121.995, 1.755905
1122.477, 0.8668670
1122.959, 1.407913
1123.441, 2.450790
1123.923, 2.564087
1124.405, 0.9709170
1124.887, 3.8086001E-02
1125.370, 0.3994750
1125.852, 0.2760160
1126.334, 0.4764560
1126.816, 1.483582
1127.298, 2.093201
1127.780, 2.312836
1128.262, 2.147522
1128.744, 1.023880
1129.226, 0.3685150
1129.709, 0.3635250
1130.191, 0.7465210
1130.673, 1.607193
1131.155, 2.655426
1131.637, 2.272919
1132.119, 0.4256440
1132.601, 0.8021850
1133.083, 1.030563
1133.566, 1.118835
1134.048, 0.6470790
1134.530, 0.8984220
1135.012, 0.8598940
1135.494, 0.8094330
1135.976, 1.162323
1136.458, 0.7718660
1136.940, 1.118271
1137.422, 1.170532
1137.905, 1.357300
1138.387, 1.252426
1138.869, 1.237595
1139.351, 1.514282
1139.833, 1.629517
1140.315, 1.490891
1140.797, 1.685806
1141.279, 1.284515
1141.761, 1.407318
1142.244, 1.909912
1142.726, 1.826523
1143.208, 1.356140
1143.690, 1.272079
1144.172, 1.662247
1144.654, 1.861099
1145.136, 1.540665
1145.618, 1.311737
1146.101, 2.286728
1146.583, 3.591934
1147.065, 4.111237
1147.547, 3.476654
1148.029, 3.017883
1148.511, 2.854446
1148.993, 2.519791
1149.475, 1.679245
1149.958, 0.7432100
1150.440, 0.2657620
1150.922, 0.2199860
1151.404, 0.6346280
1151.886, 2.012039
1152.368, 2.532944
1152.850, 1.757950
1153.332, 0.8865360
1153.814, 0.6629330
1154.297, 0.8820950
1154.779, 1.329163
1155.261, 1.779602
1155.743, 1.587112
1156.225, 0.4187770
1156.707, 1.681335
1157.189, 1.748993
1157.671, 1.301727
1158.153, 0.7192080
1158.636, 0.1100010
1159.118, 8.1192002E-02
1159.600, 0.5014040
1160.082, 0.6765290
1160.564, 2.0767000E-02
1161.046, 0.6035920
1161.528, 0.9712220
1162.010, 1.191772
1162.493, 1.379227
1162.975, 1.528915
1163.457, 1.647598
1163.939, 1.725037
1164.421, 1.631836
1164.903, 1.070282
1165.385, 0.5695500
1165.867, 0.3200530
1166.349, 0.3007050
1166.832, 0.4959720
1167.314, 0.9098360
1167.796, 1.745850
1168.278, 3.040024
1168.760, 3.985413
1169.242, 3.766693
1169.724, 3.257202
1170.206, 2.876526
1170.688, 2.641342
1171.171, 2.672867
1171.653, 2.958237
1172.135, 2.895218
1172.617, 2.340836
1173.099, 1.764984
1173.581, 1.598785
1174.063, 1.531830
1174.545, 1.233826
1175.028, 0.8055570
1175.510, 0.9145970
1175.992, 1.601028
1176.474, 1.802505
1176.956, 1.139328
1177.438, 0.3740390
1177.920, 0.2348330
1178.402, 0.3175510
1178.885, 0.1576540
1179.367, 0.2353670
1179.849, 4.3731999E-02
1180.331, 1.099655
1180.813, 1.688538
1181.295, 1.206512
1181.777, 0.5419920
1182.259, 0.6255490
1182.741, 1.032852
1183.224, 1.279617
1183.706, 1.328247
1184.188, 1.544327
1184.670, 1.963333
1185.152, 2.147873
1185.634, 1.706635
1186.116, 1.281113
1186.598, 1.759827
1187.081, 2.635071
1187.563, 3.267975
1188.045, 3.645737
1188.527, 3.284622
1189.009, 1.992264
1189.491, 1.141464
1189.973, 1.871521
1190.455, 2.980576
1190.938, 2.830582
1191.420, 2.071991
1191.902, 1.821869
1192.384, 2.601395
1192.866, 2.827850
1193.348, 2.403748
1193.830, 1.909866
1194.312, 1.712112
1194.794, 1.669907
1195.276, 1.617813
1195.759, 1.579285
1196.241, 1.605927
1196.723, 1.735718
1197.205, 1.876236
1197.687, 2.052063
1198.169, 2.119614
1198.651, 1.719772
1199.133, 1.323471
1199.616, 1.828751
1200.098, 2.822983
1200.580, 3.228699
1201.062, 2.452744
1201.544, 1.994110
1202.026, 1.950836
1202.508, 2.199982
1202.990, 2.689438
1203.473, 3.200668
1203.955, 3.527924
1204.437, 3.654053
1204.919, 3.535919
1205.401, 3.038635
1205.883, 2.649826
1206.365, 2.416000
1206.847, 2.234009
1207.329, 1.983597
1207.812, 1.782028
1208.294, 1.783066
1208.776, 1.966141
1209.258, 2.238708
1209.740, 2.706528
1210.222, 2.901184
1210.704, 2.726273
1211.186, 2.468430
1211.668, 2.348022
1212.151, 2.363068
1212.633, 2.606354
1213.115, 3.014481
1213.597, 3.216766
1214.079, 3.100983
1214.561, 2.791794
1215.043, 2.347610
1215.525, 1.980423
1216.008, 2.013458
1216.490, 2.154968
1216.972, 1.910583
1217.454, 1.317154
1217.936, 1.065536
1218.418, 1.337326
1218.900, 1.656784
1219.382, 1.952072
1219.865, 2.141052
1220.347, 2.025925
1220.829, 1.835602
1221.311, 1.945663
1221.793, 2.293396
1222.275, 2.077255
1222.757, 0.9690550
1223.239, 0.7039640
1223.721, 1.803604
1224.203, 2.929932
1224.686, 2.404404
1225.168, 1.308228
1225.650, 0.6211550
1226.132, 0.4548030
1226.614, 0.7753750
1227.096, 1.777985
1227.578, 2.090759
1228.061, 1.297195
1228.543, 0.3866580
1229.025, 0.3860630
1229.507, 0.8161770
1229.989, 1.324554
1230.471, 1.850342
1230.953, 2.169678
1231.435, 2.259659
1231.917, 2.353363
1232.400, 2.514999
1232.882, 2.629913
1233.364, 2.379364
1233.846, 2.215073
1234.328, 2.883926
1234.810, 4.110565
1235.292, 3.907471
1235.774, 2.206665
1236.256, 0.9673000
1236.739, 0.6763920
1237.221, 0.8011930
1237.703, 1.020035
1238.185, 0.4279790
1238.667, 0.8184200
1239.149, 1.045654
1239.631, 1.107346
1240.113, 0.5561070
1240.596, 0.8066250
1241.078, 0.7409520
1241.560, 0.6627350
1242.042, 1.027496
1242.524, 0.5761410
1243.006, 0.9343720
1243.488, 0.9698790
1243.970, 1.153625
1244.453, 1.019043
1244.935, 0.9857790
1245.417, 1.272537
1245.899, 1.985291
1246.381, 1.406555
1246.863, 0.6587830
1247.345, 0.2082060
1247.827, 1.4130000E-02
1248.309, 1.1887000E-02
1248.792, 0.1202240
1249.274, 0.2861630
1249.756, 1.573044
1250.238, 1.998962
1250.720, 2.275330
1251.202, 2.412399
1251.684, 1.988983
1252.166, 2.288330
1252.648, 2.296707
1253.131, 2.292953
1253.613, 2.692200
1254.095, 2.347580
1254.577, 2.739548
1255.059, 2.836945
1255.541, 1.770477
1256.023, 2.189056
1256.505, 2.375504
1256.988, 1.513840
1257.470, 0.1848450
1257.952, 0.2051850
1258.434, 0.7835540
1258.916, 1.067261
1259.398, 0.1563720
1259.880, 0.9070890
1260.362, 0.3611300
1260.844, 0.6670380
1261.327, 0.9338680
1261.809, 0.7338710
1262.291, 0.4626160
1262.773, 0.1637270
1263.255, 2.3193000E-02
1263.737, 0.1478730
1264.219, 3.7246998E-02
1264.701, 0.7679750
1265.183, 1.475647
1265.666, 1.188568
1266.148, 0.6419680
1266.630, 0.7163850
1267.112, 1.515015
1267.594, 1.983444
1268.076, 2.102188
1268.558, 1.975632
1269.040, 1.519745
1269.523, 1.272049
1270.005, 2.164856
1270.487, 3.198730
1270.969, 3.308167
1271.451, 2.666931
1271.933, 2.304840
1272.415, 2.221954
1272.897, 2.334595
1273.380, 2.705399
1273.862, 2.773163
1274.344, 1.504135
1274.826, 0.4308010
1275.308, 0.6984560
1275.790, 1.858307
1276.272, 2.140488
1276.754, 1.701828
1277.236, 1.553482
1277.719, 1.957779
1278.201, 2.142212
1278.683, 1.207535
1279.165, 0.5965120
1279.647, 1.020859
1280.129, 1.885910
1280.611, 2.223145
1281.093, 1.892166
1281.576, 1.586456
1282.058, 1.305389
1282.540, 0.9695280
1283.022, 0.3009340
1283.504, 6.6832997E-02
1283.986, 0.5547030
1284.468, 1.151581
1284.950, 0.6339420
1285.432, 0.2743380
1285.915, 0.2072140
1286.397, 0.9408720
1286.879, 1.394882
1287.361, 0.7706910
1287.843, 0.2560880
1288.325, 9.5473997E-02
1288.807, 0.1992800
1289.289, 0.7078090
1289.771, 1.241074
1290.254, 1.300858
1290.736, 0.9547580
1291.218, 0.9590610
1291.700, 1.385590
1292.182, 1.428055
1292.664, 0.8964080
1293.146, 0.4604800
1293.628, 0.9098510
1294.111, 1.318726
1294.593, 1.260239
1295.075, 0.8808900
1295.557, 0.6527860
1296.039, 0.5765690
1296.521, 0.7523040
1297.003, 1.199570
1297.485, 1.459518
1297.968, 0.8328090
1298.450, 0.4727020
1298.932, 0.9107360
1299.414, 1.622589
1299.896, 1.879623
1300.378, 1.750198
1300.860, 1.096786
1301.342, 8.5464001E-02
1301.824, 0.0000000E+00
##END=



