##NAMES=Pseudomalachite
##RRUFFID=R050597
##IDEAL CHEMISTRY=Cu_5_(PO_4_)_2_(OH)_4_
##LOCALITY=Cerro Negro mine, Carrizalillo, Chile
##OWNER=RRUFF
##SOURCE=William W. Pinch
##DESCRIPTION=Dark-green tabular crystals associated with chalcosiderite, R060007
##STATUS=The identification of this mineral has been confirmed by single-crystal X-ray diffraction.
##URL=rruff.info/R050597
112.3284, 0.0000000E+00
112.8105, 8.283577
113.2926, 14.11157
113.7747, 13.60561
114.2569, 12.85313
114.7390, 10.22887
115.2211, 4.241844
115.7032, 0.6459730
116.1853, 4.196877
116.6674, 5.424652
117.1496, 4.288635
117.6317, 0.5386200
118.1138, 5.872696
118.5959, 14.09888
119.0780, 25.73804
119.5602, 42.91327
120.0423, 65.53546
120.5244, 88.00023
121.0065, 107.6324
121.4886, 125.1319
121.9707, 141.5374
122.4529, 157.2133
122.9350, 171.6857
123.4171, 183.4943
123.8992, 192.2899
124.3813, 201.9550
124.8634, 217.3972
125.3456, 236.2604
125.8277, 253.3066
126.3098, 260.9904
126.7919, 266.4779
127.2740, 280.2677
127.7561, 303.6234
128.2383, 333.5121
128.7204, 367.1258
129.2025, 404.4240
129.6846, 445.2070
130.1667, 490.8213
130.6488, 539.5274
131.1310, 589.6972
131.6131, 641.9517
132.0952, 693.9965
132.5773, 743.5457
133.0594, 790.8637
133.5415, 831.1135
134.0237, 860.1799
134.5058, 878.6074
134.9879, 893.1353
135.4700, 904.9885
135.9521, 913.6913
136.4343, 917.3762
136.9164, 915.2296
137.3985, 911.4375
137.8806, 908.4520
138.3627, 905.8582
138.8448, 907.4886
139.3270, 915.1169
139.8091, 928.0942
140.2912, 939.0428
140.7733, 946.4030
141.2554, 954.6952
141.7375, 968.5347
142.2197, 989.3795
142.7018, 1012.598
143.1839, 1038.324
143.6660, 1066.861
144.1481, 1091.859
144.6302, 1113.124
145.1124, 1130.791
145.5945, 1145.043
146.0766, 1158.720
146.5587, 1164.757
147.0408, 1159.683
147.5230, 1139.856
148.0051, 1122.631
148.4872, 1104.164
148.9693, 1078.331
149.4514, 1048.753
149.9335, 1009.961
150.4157, 973.2336
150.8978, 942.5174
151.3799, 919.9740
151.8620, 897.6332
152.3441, 872.7475
152.8262, 848.1569
153.3084, 829.7725
153.7905, 820.8971
154.2726, 815.4662
154.7547, 811.2513
155.2368, 807.7054
155.7189, 805.9507
156.2011, 805.3419
156.6832, 806.4489
157.1653, 810.7746
157.6474, 818.4103
158.1295, 829.2993
158.6116, 843.6110
159.0938, 863.9303
159.5759, 883.9750
160.0580, 903.1643
160.5401, 921.0962
161.0222, 936.3387
161.5044, 949.2051
161.9865, 958.8381
162.4686, 964.7601
162.9507, 968.5488
163.4328, 966.8247
163.9149, 957.2775
164.3971, 940.7064
164.8792, 921.1649
165.3613, 897.1395
165.8434, 872.4989
166.3255, 850.6698
166.8076, 832.3851
167.2898, 817.7154
167.7719, 806.2347
168.2540, 798.0245
168.7361, 794.0945
169.2182, 795.1603
169.7003, 800.7418
170.1825, 808.7322
170.6646, 821.0400
171.1467, 836.7911
171.6288, 855.8289
172.1109, 877.9300
172.5931, 902.4409
173.0752, 931.1578
173.5573, 961.5264
174.0394, 989.6255
174.5215, 1016.607
175.0036, 1039.061
175.4858, 1052.997
175.9679, 1058.458
176.4500, 1055.952
176.9321, 1045.646
177.4142, 1027.845
177.8963, 1003.483
178.3785, 970.4127
178.8606, 931.2309
179.3427, 889.4355
179.8248, 844.3309
180.3069, 800.2632
180.7890, 761.8667
181.2712, 728.5186
181.7533, 698.6153
182.2354, 671.1155
182.7175, 646.5445
183.1996, 627.1111
183.6818, 612.9816
184.1639, 602.7756
184.6460, 595.3450
185.1281, 590.4425
185.6102, 586.5244
186.0923, 584.1158
186.5745, 582.2513
187.0566, 577.9882
187.5387, 571.1670
188.0208, 562.0422
188.5029, 550.2480
188.9850, 535.9624
189.4672, 520.7487
189.9493, 504.8910
190.4314, 488.6506
190.9135, 472.1696
191.3956, 455.0258
191.8777, 438.9648
192.3599, 427.0671
192.8420, 419.3995
193.3241, 411.6904
193.8062, 401.9800
194.2883, 390.2543
194.7704, 377.1105
195.2526, 362.2889
195.7347, 346.5455
196.2168, 330.6349
196.6989, 314.3852
197.1810, 299.7799
197.6632, 288.7239
198.1453, 281.1080
198.6274, 271.8736
199.1095, 259.8601
199.5916, 247.3163
200.0737, 239.1183
200.5559, 235.5345
201.0380, 234.2258
201.5201, 233.8333
202.0022, 234.2722
202.4843, 237.5300
202.9664, 244.7461
203.4486, 253.8192
203.9307, 259.2135
204.4128, 259.7728
204.8949, 261.1644
205.3770, 266.7812
205.8591, 277.1740
206.3413, 287.9758
206.8234, 299.4186
207.3055, 310.7764
207.7876, 319.9705
208.2697, 326.3780
208.7519, 332.2136
209.2340, 339.0385
209.7161, 347.4160
210.1982, 353.7816
210.6803, 357.6548
211.1624, 359.5655
211.6446, 360.9513
212.1267, 361.8832
212.6088, 362.1149
213.0909, 361.8086
213.5730, 361.4473
214.0551, 358.5425
214.5373, 351.9937
215.0194, 343.2856
215.5015, 337.0778
215.9836, 335.3452
216.4657, 332.0325
216.9478, 323.6334
217.4300, 308.6789
217.9121, 293.2416
218.3942, 277.7384
218.8763, 261.9255
219.3584, 244.9814
219.8405, 226.1017
220.3227, 207.7082
220.8048, 191.3430
221.2869, 177.9743
221.7690, 163.3682
222.2511, 146.8857
222.7333, 129.2608
223.2154, 113.1517
223.6975, 98.66595
224.1796, 85.24994
224.6617, 72.74573
225.1438, 61.59161
225.6260, 50.23151
226.1081, 38.22693
226.5902, 26.15564
227.0723, 16.04987
227.5544, 8.250427
228.0365, 1.725525
228.5187, 3.899963
229.0008, 8.261047
229.4829, 12.67896
229.9650, 17.58801
230.4471, 22.50208
230.9292, 26.14575
231.4114, 28.28876
231.8935, 29.62897
232.3756, 30.43353
232.8577, 30.66132
233.3398, 30.44257
233.8220, 29.21869
234.3041, 27.73962
234.7862, 28.15454
235.2683, 32.25104
235.7504, 35.46967
236.2325, 35.87836
236.7147, 32.66046
237.1968, 28.52777
237.6789, 22.74860
238.1610, 16.30524
238.6431, 11.55719
239.1252, 9.682129
239.6074, 7.562073
240.0895, 4.093933
240.5716, 7.277419
241.0537, 6.991699
241.5358, 15.69708
242.0179, 25.61530
242.5001, 34.39264
242.9822, 41.19452
243.4643, 48.18164
243.9464, 56.19458
244.4285, 65.67932
244.9106, 74.68298
245.3928, 82.93005
245.8749, 90.87872
246.3570, 99.52130
246.8391, 109.8621
247.3212, 119.1285
247.8034, 126.3109
248.2855, 131.0409
248.7676, 135.1595
249.2497, 138.0943
249.7318, 140.8786
250.2139, 145.0450
250.6961, 150.7834
251.1782, 157.6190
251.6603, 165.4971
252.1424, 174.4966
252.6245, 184.4828
253.1066, 196.2106
253.5888, 208.3407
254.0709, 219.3110
254.5530, 228.9080
255.0351, 237.7828
255.5172, 245.7295
255.9993, 252.6046
256.4815, 260.5048
256.9636, 269.7694
257.4457, 279.5848
257.9278, 289.3500
258.4099, 299.7440
258.8921, 308.6810
259.3742, 315.8095
259.8563, 321.0844
260.3384, 324.7847
260.8205, 326.4743
261.3026, 327.0500
261.7848, 327.4834
262.2669, 328.0759
262.7490, 327.9586
263.2311, 327.2998
263.7132, 325.9451
264.1953, 321.3268
264.6775, 312.9183
265.1596, 302.5212
265.6417, 291.4950
266.1238, 279.7922
266.6059, 267.4594
267.0880, 254.4802
267.5702, 240.7722
268.0523, 226.5608
268.5344, 211.4194
269.0165, 196.5736
269.4986, 182.5761
269.9807, 169.1556
270.4629, 157.0408
270.9450, 146.8021
271.4271, 137.8469
271.9092, 128.3417
272.3913, 117.8330
272.8734, 107.5399
273.3556, 98.19025
273.8377, 89.80835
274.3198, 82.59045
274.8019, 76.62701
275.2840, 71.78491
275.7661, 67.80402
276.2483, 64.83331
276.7304, 61.94659
277.2125, 57.88965
277.6946, 52.45874
278.1768, 50.51385
278.6589, 53.34003
279.1410, 58.63184
279.6231, 61.96863
280.1052, 63.26862
280.5873, 63.34467
281.0695, 61.55487
281.5516, 57.97540
282.0337, 57.97449
282.5158, 62.41919
282.9979, 68.89490
283.4800, 73.19696
283.9622, 75.16809
284.4443, 78.23785
284.9264, 85.29999
285.4085, 95.51691
285.8906, 100.9739
286.3727, 100.5080
286.8549, 98.97705
287.3370, 103.4090
287.8191, 113.4634
288.3012, 122.7947
288.7833, 128.6556
289.2654, 132.0206
289.7476, 136.5433
290.2297, 142.3816
290.7118, 148.3994
291.1939, 152.9567
291.6760, 156.4216
292.1581, 161.0368
292.6403, 167.5383
293.1224, 175.3110
293.6045, 183.8802
294.0866, 193.2978
294.5687, 202.8152
295.0508, 211.8035
295.5330, 220.3973
296.0151, 228.6965
296.4972, 236.8909
296.9793, 244.4854
297.4614, 250.2048
297.9435, 254.3287
298.4257, 258.4427
298.9078, 264.1805
299.3899, 270.5381
299.8720, 275.3425
300.3541, 278.2245
300.8362, 279.5098
301.3184, 279.7025
301.8005, 278.7028
302.2826, 276.1254
302.7647, 271.5502
303.2469, 265.3093
303.7290, 257.4484
304.2111, 247.7626
304.6932, 237.6047
305.1753, 228.8763
305.6574, 220.8514
306.1396, 212.1796
306.6217, 201.7908
307.1038, 190.4922
307.5859, 179.0407
308.0680, 167.3721
308.5501, 155.6266
309.0323, 142.9037
309.5144, 130.2935
309.9965, 119.5743
310.4786, 113.5783
310.9607, 108.1161
311.4428, 99.29865
311.9250, 87.25867
312.4071, 76.18756
312.8892, 69.81177
313.3713, 65.48547
313.8534, 60.37555
314.3355, 52.14020
314.8177, 44.24725
315.2998, 38.68823
315.7819, 35.14758
316.2640, 31.78107
316.7461, 27.41278
317.2282, 23.14862
317.7104, 19.85992
318.1925, 18.61609
318.6746, 17.05646
319.1567, 13.68671
319.6388, 9.289795
320.1209, 6.065979
320.6031, 6.243042
321.0852, 6.612061
321.5673, 5.360168
322.0494, 5.385423
322.5315, 5.857555
323.0136, 4.697144
323.4958, 6.294922
323.9779, 7.031494
324.4600, 5.529724
324.9421, 4.414490
325.4242, 4.796570
325.9064, 7.197876
326.3885, 8.944092
326.8706, 9.246338
327.3527, 9.021973
327.8348, 9.246155
328.3170, 11.52008
328.7991, 12.55200
329.2812, 11.35986
329.7633, 7.871887
330.2454, 5.097107
330.7275, 3.180603
331.2097, 1.908691
331.6918, 1.198059
332.1739, 1.557373
332.6560, 1.744568
333.1381, 2.170288
333.6202, 2.450195
334.1024, 5.421077
334.5845, 5.283997
335.0666, 11.24982
335.5487, 15.46838
336.0308, 16.72760
336.5129, 19.72137
336.9951, 25.07452
337.4772, 31.87036
337.9593, 38.53485
338.4414, 45.14630
338.9235, 52.04144
339.4056, 59.51971
339.8878, 67.42163
340.3699, 74.04602
340.8520, 78.57660
341.3341, 83.64270
341.8162, 93.00659
342.2983, 106.8382
342.7805, 121.7546
343.2626, 136.5095
343.7447, 151.4136
344.2268, 167.7231
344.7089, 185.6707
345.1910, 204.1440
345.6732, 220.9359
346.1553, 236.6731
346.6374, 255.5117
347.1195, 279.4048
347.6016, 305.9094
348.0837, 329.3787
348.5659, 350.2437
349.0480, 372.7289
349.5301, 400.2491
350.0122, 431.7676
350.4944, 463.1824
350.9765, 493.4976
351.4586, 525.0975
351.9407, 561.6158
352.4228, 601.7827
352.9049, 641.3495
353.3871, 676.2084
353.8692, 710.0714
354.3513, 747.7264
354.8334, 789.4615
355.3155, 833.5662
355.7976, 880.3046
356.2798, 928.5873
356.7619, 977.1865
357.2440, 1023.832
357.7261, 1071.359
358.2082, 1121.889
358.6903, 1175.153
359.1725, 1229.440
359.6546, 1284.517
360.1367, 1339.918
360.6188, 1394.753
361.1009, 1447.786
361.5830, 1500.836
362.0652, 1556.575
362.5473, 1612.982
363.0294, 1665.078
363.5115, 1711.967
363.9936, 1753.737
364.4757, 1790.078
364.9579, 1821.510
365.4400, 1847.098
365.9221, 1868.976
366.4042, 1884.527
366.8863, 1890.423
367.3684, 1887.974
367.8506, 1874.176
368.3327, 1846.702
368.8148, 1804.903
369.2969, 1758.029
369.7790, 1705.653
370.2611, 1648.448
370.7433, 1586.375
371.2254, 1517.292
371.7075, 1447.620
372.1896, 1376.880
372.6717, 1305.506
373.1538, 1236.631
373.6360, 1169.914
374.1181, 1106.237
374.6002, 1047.083
375.0823, 993.0563
375.5645, 939.5476
376.0466, 885.7957
376.5287, 834.1703
377.0108, 789.2677
377.4929, 752.8344
377.9750, 718.1173
378.4572, 683.1441
378.9393, 648.1392
379.4214, 616.3862
379.9035, 588.1623
380.3856, 562.3564
380.8677, 539.0095
381.3499, 517.9904
381.8320, 496.8674
382.3141, 474.6202
382.7962, 452.5641
383.2783, 433.7487
383.7604, 417.8840
384.2426, 401.4021
384.7247, 380.6280
385.2068, 357.7206
385.6889, 337.0803
386.1710, 319.6393
386.6531, 302.5834
387.1353, 282.2312
387.6174, 259.9117
388.0995, 238.5447
388.5816, 220.1056
389.0637, 202.6655
389.5458, 183.9811
390.0280, 163.8387
390.5101, 143.4933
390.9922, 122.5226
391.4743, 102.3017
391.9564, 84.33374
392.4385, 70.40607
392.9207, 57.60785
393.4028, 43.85193
393.8849, 29.86957
394.3670, 18.11859
394.8491, 11.54767
395.3312, 6.162598
395.8134, 0.6414790
396.2955, 10.44373
396.7776, 18.29779
397.2597, 21.89929
397.7418, 23.30963
398.2239, 25.23047
398.7061, 28.91211
399.1882, 32.18237
399.6703, 34.57446
400.1524, 36.07458
400.6346, 37.01587
401.1167, 37.45447
401.5988, 37.28650
402.0809, 36.44611
402.5630, 34.94202
403.0451, 32.71307
403.5273, 29.61157
404.0094, 25.85791
404.4915, 22.21558
404.9736, 18.98926
405.4557, 15.12329
405.9378, 10.05267
406.4200, 3.705505
406.9021, 3.099121
407.3842, 10.41150
407.8663, 17.88550
408.3484, 24.93579
408.8305, 31.59052
409.3127, 38.61432
409.7948, 46.35071
410.2769, 54.54236
410.7590, 62.06262
411.2411, 68.95502
411.7232, 76.50592
412.2054, 85.81934
412.6875, 96.73346
413.1696, 108.7114
413.6517, 122.2651
414.1338, 135.5364
414.6159, 145.2051
415.0981, 152.5829
415.5802, 161.1745
416.0623, 173.8804
416.5444, 187.9672
417.0265, 200.0922
417.5086, 210.2733
417.9908, 220.6451
418.4729, 232.0411
418.9550, 244.4646
419.4371, 257.7197
419.9192, 272.1097
420.4013, 287.1160
420.8835, 301.9177
421.3656, 317.0135
421.8477, 334.2560
422.3298, 354.2711
422.8119, 376.2637
423.2940, 400.3881
423.7762, 427.0554
424.2583, 453.9717
424.7404, 479.1808
425.2225, 504.8683
425.7047, 534.3129
426.1868, 570.3889
426.6689, 605.9341
427.1510, 639.2361
427.6331, 670.6354
428.1152, 705.5568
428.5974, 745.4336
429.0795, 787.3994
429.5616, 830.6371
430.0437, 875.4760
430.5258, 919.6458
431.0079, 962.9641
431.4901, 1005.200
431.9722, 1045.440
432.4543, 1083.257
432.9364, 1122.060
433.4185, 1164.126
433.9006, 1207.858
434.3828, 1245.779
434.8649, 1277.938
435.3470, 1303.761
435.8291, 1321.924
436.3112, 1333.299
436.7933, 1340.370
437.2755, 1343.785
437.7576, 1343.103
438.2397, 1338.371
438.7218, 1329.204
439.2039, 1314.233
439.6860, 1289.595
440.1682, 1260.306
440.6503, 1231.907
441.1324, 1204.528
441.6145, 1176.796
442.0966, 1145.933
442.5787, 1114.993
443.0609, 1087.261
443.5430, 1063.994
444.0251, 1043.739
444.5072, 1026.378
444.9893, 1011.721
445.4714, 998.8557
445.9536, 986.9066
446.4357, 977.1417
446.9178, 970.4781
447.3999, 968.2178
447.8820, 965.7643
448.3641, 963.1927
448.8463, 960.3456
449.3284, 957.3959
449.8105, 957.0919
450.2926, 951.6554
450.7747, 938.3022
451.2569, 918.3608
451.7390, 901.3451
452.2211, 889.3235
452.7032, 874.4617
453.1853, 850.2506
453.6674, 815.5982
454.1496, 786.1165
454.6317, 763.3179
455.1138, 742.9232
455.5959, 717.9835
456.0780, 688.8682
456.5602, 662.4838
457.0423, 642.4332
457.5244, 626.0674
458.0065, 606.4583
458.4886, 584.3479
458.9707, 565.6666
459.4529, 557.2723
459.9350, 554.5648
460.4171, 550.4510
460.8992, 543.0007
461.3813, 537.0942
461.8634, 536.2741
462.3456, 539.5428
462.8277, 545.2001
463.3098, 551.6783
463.7919, 561.2556
464.2740, 575.1800
464.7561, 593.3055
465.2383, 614.3656
465.7204, 637.5143
466.2025, 663.8005
466.6846, 693.7797
467.1667, 728.9462
467.6488, 765.2926
468.1310, 801.8503
468.6131, 839.7799
469.0952, 881.8931
469.5773, 928.8480
470.0594, 978.7823
470.5415, 1032.408
471.0237, 1089.385
471.5058, 1145.557
471.9879, 1199.654
472.4700, 1256.052
472.9521, 1318.256
473.4342, 1386.849
473.9164, 1454.435
474.3985, 1520.822
474.8806, 1586.458
475.3627, 1653.670
475.8448, 1722.026
476.3270, 1787.304
476.8091, 1847.378
477.2912, 1902.721
477.7733, 1954.725
478.2554, 2003.167
478.7375, 2044.621
479.2197, 2078.469
479.7018, 2103.155
480.1839, 2116.423
480.6660, 2118.042
481.1481, 2107.840
481.6302, 2084.836
482.1124, 2050.038
482.5945, 2005.154
483.0766, 1947.779
483.5587, 1882.977
484.0408, 1811.864
484.5229, 1735.001
485.0051, 1656.126
485.4872, 1574.799
485.9693, 1492.199
486.4514, 1409.532
486.9335, 1323.505
487.4156, 1242.284
487.8978, 1165.788
488.3799, 1094.475
488.8620, 1026.850
489.3441, 963.4039
489.8262, 902.0280
490.3083, 840.8832
490.7905, 780.3913
491.2726, 726.9745
491.7547, 680.9632
492.2368, 638.4749
492.7189, 598.2439
493.2010, 559.8878
493.6832, 523.3092
494.1653, 487.8735
494.6474, 453.9385
495.1295, 420.7302
495.6116, 389.3481
496.0938, 362.1324
496.5759, 341.2565
497.0580, 323.6002
497.5401, 306.6559
498.0222, 290.2986
498.5044, 275.0944
498.9865, 260.8373
499.4686, 248.1127
499.9507, 237.4493
500.4328, 229.1656
500.9149, 221.3157
501.3971, 212.6653
501.8792, 204.4534
502.3613, 198.0079
502.8434, 194.1049
503.3255, 191.1862
503.8076, 189.6479
504.2898, 189.0643
504.7719, 187.2230
505.2540, 182.4378
505.7361, 178.8878
506.2182, 178.5989
506.7003, 182.1403
507.1825, 184.6849
507.6646, 186.0535
508.1467, 186.9685
508.6288, 187.7823
509.1109, 188.5334
509.5930, 191.1334
510.0752, 196.7600
510.5573, 203.2953
511.0394, 206.4634
511.5215, 206.6804
512.0037, 206.5247
512.4858, 207.7902
512.9679, 209.3910
513.4500, 209.2745
513.9321, 207.4123
514.4142, 206.2904
514.8964, 209.8586
515.3785, 214.0798
515.8606, 214.2634
516.3427, 206.5680
516.8248, 199.5437
517.3069, 198.2021
517.7891, 199.5759
518.2712, 198.1536
518.7533, 191.0129
519.2354, 182.7102
519.7175, 173.8723
520.1996, 164.5063
520.6818, 157.0859
521.1639, 153.3813
521.6460, 149.4100
522.1281, 142.5300
522.6102, 131.4364
523.0923, 122.4557
523.5745, 116.1360
524.0566, 111.2009
524.5387, 105.6549
525.0208, 99.46503
525.5029, 94.21033
525.9850, 90.59271
526.4672, 87.98273
526.9493, 84.61743
527.4314, 80.62183
527.9135, 77.53040
528.3956, 76.68042
528.8777, 77.01404
529.3599, 76.89734
529.8420, 76.08997
530.3241, 76.18933
530.8062, 79.36108
531.2883, 83.55688
531.7704, 86.42401
532.2526, 86.10413
532.7347, 86.02032
533.2168, 87.12360
533.6989, 89.21735
534.1810, 91.81335
534.6631, 95.71313
535.1453, 99.23279
535.6274, 102.1185
536.1095, 104.4042
536.5916, 105.4050
537.0737, 105.3582
537.5558, 103.6320
538.0380, 99.63916
538.5201, 93.10840
539.0022, 85.50443
539.4843, 76.73651
539.9664, 67.58829
540.4485, 59.42160
540.9307, 52.19943
541.4128, 45.21606
541.8949, 38.17023
542.3770, 31.44193
542.8591, 25.33618
543.3412, 19.99347
543.8234, 15.58411
544.3055, 13.39380
544.7876, 11.49072
545.2697, 7.653900
545.7518, 7.674459
546.2339, 4.023590
546.7161, 7.521118
547.1982, 9.609924
547.6803, 10.93497
548.1624, 10.85904
548.6445, 10.92670
549.1266, 10.83850
549.6088, 11.08994
550.0909, 12.86569
550.5730, 18.09824
551.0551, 21.65067
551.5372, 21.40393
552.0193, 17.92380
552.5015, 17.15527
552.9836, 19.77689
553.4657, 22.71143
553.9478, 23.95779
554.4299, 23.63727
554.9120, 22.78528
555.3942, 21.35080
555.8763, 19.96542
556.3584, 19.87427
556.8405, 20.41373
557.3226, 19.75452
557.8047, 16.64899
558.2869, 13.19992
558.7690, 11.38474
559.2511, 10.77097
559.7332, 10.27301
560.2154, 9.425598
560.6975, 8.535461
561.1796, 7.799316
561.6617, 7.226501
562.1439, 6.545410
562.6260, 6.133240
563.1081, 5.245880
563.5902, 3.468445
564.0723, 0.4183350
564.5544, 2.723419
565.0366, 5.894440
565.5187, 9.237030
566.0008, 13.03070
566.4829, 17.42709
566.9650, 21.48706
567.4471, 24.90714
567.9293, 27.95737
568.4114, 31.18033
568.8935, 34.58282
569.3756, 38.23792
569.8577, 42.28372
570.3398, 46.57166
570.8220, 50.52429
571.3041, 54.20187
571.7862, 58.50824
572.2683, 63.79529
572.7504, 70.19513
573.2325, 78.23038
573.7147, 88.83936
574.1968, 98.72467
574.6789, 105.7328
575.1610, 111.6192
575.6431, 118.7286
576.1252, 128.6214
576.6074, 138.2613
577.0895, 147.2661
577.5716, 155.7513
578.0537, 164.2319
578.5358, 172.6569
579.0179, 181.1941
579.5001, 189.8020
579.9822, 198.5624
580.4643, 208.2132
580.9464, 218.9788
581.4285, 229.0469
581.9106, 236.0170
582.3928, 241.0215
582.8749, 247.9170
583.3570, 257.4447
583.8391, 267.8569
584.3212, 277.3670
584.8033, 286.6638
585.2855, 297.0357
585.7676, 311.4196
586.2497, 324.3169
586.7318, 332.0914
587.2139, 336.2108
587.6960, 340.8774
588.1782, 347.5651
588.6603, 354.5380
589.1424, 361.3430
589.6245, 368.0265
590.1066, 374.0438
590.5887, 378.5412
591.0709, 383.5232
591.5530, 390.0065
592.0351, 397.8866
592.5172, 408.3331
592.9993, 421.8519
593.4814, 436.5623
593.9636, 449.5395
594.4457, 461.3239
594.9278, 475.3190
595.4099, 492.4426
595.8920, 512.1194
596.3741, 533.8373
596.8563, 557.4157
597.3384, 582.2620
597.8205, 606.8131
598.3026, 633.4337
598.7847, 663.9938
599.2668, 698.2554
599.7490, 732.8538
600.2311, 765.8062
600.7132, 799.6406
601.1953, 836.3558
601.6774, 877.5573
602.1595, 916.7072
602.6417, 952.9194
603.1238, 988.8895
603.6059, 1027.542
604.0880, 1070.119
604.5701, 1108.346
605.0522, 1140.936
605.5344, 1169.126
606.0165, 1193.702
606.4986, 1214.962
606.9807, 1233.595
607.4628, 1251.532
607.9449, 1265.080
608.4271, 1268.610
608.9092, 1263.034
609.3913, 1251.451
609.8735, 1236.240
610.3556, 1215.173
610.8377, 1185.523
611.3198, 1147.114
611.8019, 1105.928
612.2841, 1062.247
612.7662, 1016.971
613.2483, 969.5182
613.7304, 918.3791
614.2125, 870.6243
614.6946, 826.9880
615.1768, 785.5291
615.6589, 743.1981
616.1410, 698.7363
616.6231, 657.7770
617.1052, 621.8146
617.5873, 589.3047
618.0695, 558.5865
618.5516, 529.3622
619.0337, 501.6093
619.5158, 475.7094
619.9979, 451.0792
620.4800, 427.1961
620.9622, 404.2377
621.4443, 383.1944
621.9264, 364.9011
622.4085, 348.1853
622.8906, 331.9391
623.3727, 315.9228
623.8549, 301.4764
624.3370, 289.4671
624.8191, 278.6020
625.3012, 268.1577
625.7833, 258.1257
626.2654, 248.7294
626.7476, 240.0005
627.2297, 231.3434
627.7118, 222.1731
628.1939, 212.5049
628.6760, 202.0903
629.1581, 190.2173
629.6403, 178.8733
630.1224, 171.7241
630.6045, 167.7986
631.0866, 163.9771
631.5687, 158.6829
632.0508, 152.7938
632.5330, 147.2589
633.0151, 141.9578
633.4972, 136.0564
633.9793, 128.5173
634.4614, 120.9327
634.9435, 113.7642
635.4257, 106.8872
635.9078, 101.6974
636.3899, 99.47154
636.8720, 97.63879
637.3541, 94.27402
637.8362, 88.68509
638.3184, 84.71243
638.8005, 82.89352
639.2826, 81.82173
639.7647, 79.69772
640.2468, 76.65454
640.7289, 73.62849
641.2111, 70.71721
641.6932, 68.25226
642.1753, 66.56085
642.6574, 65.47980
643.1395, 64.71262
643.6216, 64.81522
644.1038, 64.53806
644.5859, 62.72447
645.0680, 59.77792
645.5501, 57.54742
646.0322, 57.48271
646.5143, 57.20776
646.9965, 55.68103
647.4786, 52.76471
647.9607, 50.83250
648.4428, 50.21985
648.9249, 49.89700
649.4070, 49.28624
649.8892, 48.38246
650.3713, 46.78677
650.8534, 44.38208
651.3355, 41.85831
651.8176, 39.89352
652.2997, 38.34702
652.7819, 36.95825
653.2640, 35.73413
653.7461, 34.48842
654.2282, 33.15686
654.7103, 31.71870
655.1924, 30.14857
655.6746, 27.76543
656.1567, 25.96071
656.6388, 26.10359
657.1209, 27.10292
657.6030, 25.75529
658.0851, 20.03178
658.5673, 15.66277
659.0494, 14.82657
659.5316, 16.78198
660.0137, 16.95805
660.4958, 15.24574
660.9779, 13.01355
661.4600, 10.52191
661.9421, 8.200302
662.4243, 7.507187
662.9064, 8.432602
663.3885, 9.194031
663.8706, 8.329239
664.3527, 6.694778
664.8348, 5.053040
665.3170, 3.468796
665.7991, 2.131958
666.2812, 0.9168240
666.7633, 8.0475003E-02
667.2454, 6.8512000E-02
667.7275, 1.247055
668.2097, 1.812607
668.6918, 1.144058
669.1739, 0.1048430
669.6560, 0.1283260
670.1381, 1.318512
670.6202, 2.604187
671.1024, 4.080902
671.5845, 4.966599
672.0666, 5.182777
672.5487, 4.780958
673.0308, 4.387589
673.5129, 3.417862
673.9951, 1.665344
674.4772, 2.325790
674.9593, 4.798843
675.4414, 6.392624
675.9235, 5.270264
676.4056, 3.760651
676.8878, 2.711456
677.3699, 2.150879
677.8520, 2.429733
678.3341, 4.161057
678.8162, 5.809967
679.2983, 6.549088
679.7805, 6.357452
680.2626, 5.562088
680.7447, 4.150452
681.2268, 2.227219
681.7089, 1.281494
682.1910, 0.8884342
682.6732, 5.529083
683.1553, 1.196930
683.6374, 3.298782
684.1195, 4.326767
684.6016, 3.415268
685.0837, 2.454926
685.5659, 1.690018
686.0480, 1.324341
686.5301, 2.236511
687.0122, 3.331528
687.4943, 2.625183
687.9764, 1.492310
688.4586, 4.070099
688.9407, 3.895874
689.4228, 1.940140
689.9049, 0.7511290
690.3870, 0.3312530
690.8691, 0.1224820
691.3513, 1.228958
691.8334, 2.355301
692.3155, 2.285385
692.7976, 1.177994
693.2797, 0.2016910
693.7618, 2.019852
694.2440, 3.465866
694.7261, 3.501495
695.2082, 2.183777
695.6903, 1.915451
696.1724, 4.663757
696.6545, 7.336792
697.1367, 8.686172
697.6188, 8.714447
698.1009, 6.995102
698.5830, 2.436783
699.0651, 1.330246
699.5472, 0.5211490
700.0294, 4.198776
700.5115, 7.036880
700.9936, 7.466721
701.4757, 6.890915
701.9578, 6.146057
702.4399, 5.502502
702.9221, 5.328156
703.4042, 5.638840
703.8863, 6.613678
704.3684, 9.308990
704.8505, 12.31937
705.3326, 13.97505
705.8148, 12.22935
706.2969, 11.52924
706.7790, 12.92990
707.2611, 15.01027
707.7432, 14.86781
708.2253, 12.03046
708.7075, 10.18930
709.1896, 10.46544
709.6718, 11.99667
710.1539, 13.38264
710.6360, 14.54697
711.1181, 15.18343
711.6002, 14.74594
712.0823, 14.03217
712.5645, 13.54170
713.0466, 13.31111
713.5287, 13.47124
714.0108, 14.58507
714.4929, 15.61112
714.9750, 15.78027
715.4572, 15.22275
715.9393, 15.88358
716.4214, 18.31068
716.9035, 20.85840
717.3856, 22.98599
717.8677, 24.62570
718.3499, 24.53125
718.8320, 22.64029
719.3141, 20.78925
719.7962, 20.05293
720.2783, 20.40291
720.7604, 22.26859
721.2426, 25.73492
721.7247, 28.63905
722.2068, 28.99210
722.6889, 28.78432
723.1710, 29.73219
723.6531, 33.01659
724.1353, 34.70171
724.6174, 33.34795
725.0995, 31.69321
725.5816, 32.30853
726.0637, 35.53981
726.5458, 38.14677
727.0280, 39.80789
727.5101, 41.13832
727.9922, 42.98228
728.4743, 45.09581
728.9564, 46.73544
729.4385, 47.34644
729.9207, 48.36256
730.4028, 51.37144
730.8849, 55.18390
731.3670, 58.36183
731.8491, 60.39008
732.3312, 61.72527
732.8134, 61.57956
733.2955, 61.01880
733.7776, 61.82225
734.2597, 64.18420
734.7418, 67.50404
735.2239, 72.02567
735.7061, 76.87350
736.1882, 79.69360
736.6703, 80.80325
737.1524, 82.49341
737.6345, 86.02194
738.1166, 90.41235
738.5988, 95.09409
739.0809, 99.83020
739.5630, 103.9011
740.0451, 106.0186
740.5272, 108.0790
741.0093, 110.9800
741.4915, 114.3527
741.9736, 116.8834
742.4557, 117.9450
742.9378, 119.8124
743.4199, 123.9114
743.9020, 129.5028
744.3842, 131.6494
744.8663, 130.3517
745.3484, 129.3858
745.8305, 132.1496
746.3126, 136.1304
746.7947, 137.3657
747.2769, 136.0770
747.7590, 134.8908
748.2411, 135.9904
748.7232, 137.0005
749.2053, 136.4396
749.6874, 134.0143
750.1696, 131.2697
750.6517, 127.9073
751.1338, 124.8077
751.6159, 122.9027
752.0980, 122.3003
752.5801, 118.9014
753.0623, 112.3037
753.5444, 106.1099
754.0265, 104.2024
754.5086, 104.5781
754.9907, 103.4689
755.4728, 100.4525
755.9550, 96.63531
756.4371, 91.71982
756.9192, 86.91295
757.4013, 83.45555
757.8835, 82.40045
758.3656, 80.25624
758.8477, 75.97620
759.3298, 71.47939
759.8120, 68.24258
760.2941, 66.40936
760.7762, 65.23874
761.2583, 64.91971
761.7404, 64.26501
762.2225, 61.63324
762.7047, 57.69862
763.1868, 53.93179
763.6689, 50.51984
764.1510, 47.64238
764.6331, 45.35526
765.1152, 43.71149
765.5974, 42.80392
766.0795, 43.62268
766.5616, 43.54419
767.0437, 41.77663
767.5258, 39.63107
768.0079, 38.76511
768.4901, 39.37492
768.9722, 39.49196
769.4543, 38.72659
769.9364, 37.75641
770.4185, 37.64003
770.9006, 38.05836
771.3828, 38.19882
771.8649, 37.80106
772.3470, 37.15062
772.8291, 35.56381
773.3112, 34.12581
773.7933, 34.34482
774.2755, 38.93669
774.7576, 42.00688
775.2397, 42.45734
775.7218, 41.61426
776.2039, 41.62466
776.6860, 42.61504
777.1682, 43.27068
777.6503, 43.14691
778.1324, 42.97980
778.6145, 44.10602
779.0966, 46.13145
779.5787, 48.00015
780.0609, 49.23245
780.5430, 50.37825
781.0251, 51.77989
781.5072, 53.45312
781.9893, 54.95642
782.4714, 55.75731
782.9536, 57.31386
783.4357, 60.15286
783.9178, 63.58379
784.3999, 66.03365
784.8820, 67.41788
785.3641, 69.26143
785.8463, 72.01306
786.3284, 75.50572
786.8105, 79.34534
787.2926, 83.61491
787.7747, 88.49747
788.2568, 94.79279
788.7390, 100.7699
789.2211, 105.2325
789.7032, 108.6891
790.1853, 112.5291
790.6674, 117.2209
791.1495, 121.8738
791.6317, 126.2585
792.1138, 130.6626
792.5959, 135.6943
793.0780, 141.3384
793.5601, 147.8144
794.0422, 156.1571
794.5244, 164.3212
795.0065, 168.8922
795.4886, 171.0607
795.9707, 173.4937
796.4528, 177.0244
796.9349, 181.4829
797.4171, 187.9752
797.8992, 195.3953
798.3813, 200.3114
798.8634, 201.6903
799.3455, 203.2759
799.8276, 206.0509
800.3098, 209.3359
800.7919, 211.5420
801.2740, 212.7274
801.7561, 213.2993
802.2382, 213.3281
802.7203, 212.9128
803.2025, 212.2258
803.6846, 211.1874
804.1667, 209.6100
804.6488, 207.5644
805.1309, 204.8152
805.6130, 201.5066
806.0952, 197.4342
806.5773, 191.4751
807.0594, 182.6472
807.5416, 175.4859
808.0237, 171.5924
808.5058, 169.4024
808.9879, 165.6027
809.4700, 160.5008
809.9521, 155.5602
810.4343, 151.8749
810.9164, 147.8840
811.3985, 142.2973
811.8806, 135.5290
812.3627, 128.4508
812.8448, 119.2238
813.3270, 112.3991
813.8091, 109.8646
814.2912, 109.5879
814.7733, 107.0273
815.2554, 101.9064
815.7375, 97.51985
816.2197, 95.20117
816.7018, 93.20238
817.1839, 88.11336
817.6660, 81.15665
818.1481, 75.32391
818.6302, 72.84042
819.1124, 70.43019
819.5945, 66.02786
820.0766, 60.74663
820.5587, 56.77080
821.0408, 54.74400
821.5229, 53.05801
822.0051, 51.61148
822.4872, 50.27078
822.9693, 49.29028
823.4514, 48.46664
823.9335, 45.31036
824.4156, 37.87074
824.8978, 30.79601
825.3799, 29.55011
825.8620, 31.80537
826.3441, 33.78493
826.8262, 34.92047
827.3083, 34.84886
827.7905, 32.92574
828.2726, 30.01097
828.7547, 26.86052
829.2368, 23.22850
829.7189, 20.67174
830.2010, 19.51721
830.6832, 19.23590
831.1653, 19.64299
831.6474, 20.30888
832.1295, 20.04102
832.6116, 18.46458
833.0938, 16.15338
833.5759, 12.61000
834.0580, 8.928421
834.5401, 6.332306
835.0222, 5.660645
835.5043, 5.124725
835.9865, 4.650421
836.4686, 4.409637
836.9507, 5.164139
837.4328, 6.799408
837.9149, 5.487228
838.3970, 0.2207640
838.8792, 4.258011
839.3613, 1.298782
839.8434, 4.697632
840.3255, 7.324081
840.8076, 4.445679
841.2897, 2.176758
841.7719, 3.892899
842.2540, 5.922394
842.7361, 5.376801
843.2182, 1.342194
843.7003, 1.512253
844.1824, 3.048279
844.6646, 4.040588
845.1467, 5.294876
845.6288, 6.380753
846.1109, 6.034409
846.5930, 4.181076
847.0751, 2.457687
847.5573, 1.473541
848.0394, 1.363800
848.5215, 2.618439
849.0036, 5.664948
849.4857, 7.073395
849.9678, 6.387817
850.4500, 4.791733
850.9321, 2.391068
851.4142, 0.7398680
851.8963, 0.3520921
852.3784, 1.380051
852.8605, 0.5997620
853.3427, 1.616913
853.8248, 2.897827
854.3069, 1.925186
854.7890, 1.075470
855.2711, 2.267776
855.7532, 1.689163
856.2354, 5.663300
856.7175, 7.734558
857.1996, 8.283340
857.6818, 9.450745
858.1639, 11.15961
858.6460, 12.79144
859.1281, 13.95605
859.6102, 15.16856
860.0923, 17.82088
860.5745, 21.41167
861.0566, 24.00786
861.5387, 23.52061
862.0208, 22.82289
862.5029, 23.47095
862.9850, 25.03148
863.4672, 25.66739
863.9493, 24.61140
864.4314, 24.83771
864.9135, 27.32843
865.3956, 31.06830
865.8777, 34.73062
866.3599, 37.97795
866.8420, 38.92760
867.3241, 35.57028
867.8062, 32.24046
868.2883, 32.50854
868.7704, 34.78075
869.2526, 36.69513
869.7347, 37.11470
870.2168, 38.14355
870.6989, 40.20837
871.1810, 42.47108
871.6631, 43.50258
872.1453, 43.42314
872.6274, 44.99275
873.1095, 49.00076
873.5916, 52.49339
874.0737, 51.29422
874.5558, 48.28036
875.0380, 47.36421
875.5201, 50.39957
876.0022, 51.90508
876.4843, 48.81364
876.9664, 45.27338
877.4485, 44.11354
877.9307, 45.80707
878.4128, 46.45934
878.8949, 46.00478
879.3770, 45.10374
879.8591, 44.04048
880.3412, 43.00737
880.8234, 42.28793
881.3055, 41.90123
881.7876, 41.80423
882.2697, 42.62126
882.7518, 43.11598
883.2339, 42.49266
883.7161, 40.82391
884.1982, 39.28845
884.6803, 37.83249
885.1624, 36.73698
885.6445, 36.32251
886.1266, 36.26343
886.6088, 35.69733
887.0909, 34.75908
887.5730, 34.00562
888.0551, 33.56277
888.5372, 33.53526
889.0193, 34.35019
889.5015, 35.64168
889.9836, 36.32532
890.4657, 36.55478
890.9478, 35.63596
891.4299, 32.92879
891.9120, 29.72530
892.3942, 28.80762
892.8763, 29.60884
893.3584, 29.67329
893.8405, 27.77534
894.3226, 26.12273
894.8047, 27.01897
895.2869, 28.81013
895.7690, 29.45020
896.2511, 28.14545
896.7332, 26.05544
897.2153, 22.94022
897.6974, 20.01057
898.1796, 19.06627
898.6617, 19.71301
899.1438, 19.04330
899.6259, 16.73567
900.1080, 14.17786
900.5901, 11.82964
901.0723, 10.23573
901.5544, 10.42339
902.0365, 12.94763
902.5186, 13.40575
903.0007, 9.963715
903.4828, 6.444046
903.9650, 4.802002
904.4471, 4.943756
904.9292, 5.309967
905.4113, 5.828369
905.8935, 5.762772
906.3756, 4.042374
906.8577, 1.765106
907.3398, 0.4409480
907.8220, 0.1016080
908.3041, 1.056015
908.7862, 3.694427
909.2683, 5.461761
909.7504, 5.635132
910.2325, 4.954529
910.7147, 5.430374
911.1968, 6.988525
911.6789, 7.627670
912.1610, 6.546997
912.6431, 5.162674
913.1252, 4.551819
913.6074, 4.338379
914.0895, 4.600662
914.5716, 6.395218
915.0537, 6.994827
915.5358, 5.135223
916.0179, 2.749969
916.5001, 1.585297
916.9822, 1.697021
917.4643, 2.288940
917.9464, 3.418427
918.4285, 3.991837
918.9106, 2.647034
919.3928, 0.3468780
919.8749, 1.875122
920.3570, 3.908951
920.8391, 5.780975
921.3212, 7.158340
921.8033, 8.766205
922.2855, 11.16760
922.7676, 14.19897
923.2497, 15.92264
923.7318, 16.31799
924.2139, 16.12592
924.6960, 14.80338
925.1782, 13.86691
925.6603, 16.13470
926.1424, 20.41492
926.6245, 23.52124
927.1066, 22.06787
927.5887, 22.14520
928.0709, 25.71695
928.5530, 31.01752
929.0351, 34.83691
929.5172, 37.14490
929.9993, 39.22141
930.4814, 41.28363
930.9636, 43.20401
931.4457, 44.69275
931.9278, 46.00827
932.4099, 47.38391
932.8920, 48.58878
933.3741, 50.73981
933.8563, 55.30963
934.3384, 59.74112
934.8205, 62.13498
935.3026, 62.41837
935.7847, 63.20612
936.2668, 64.50485
936.7490, 66.43954
937.2311, 69.93695
937.7132, 73.58679
938.1953, 75.53409
938.6774, 75.95416
939.1595, 76.09439
939.6417, 75.46548
940.1238, 75.65106
940.6059, 77.06747
941.0880, 79.54474
941.5701, 83.24323
942.0522, 88.09601
942.5344, 91.14261
943.0165, 90.67273
943.4986, 89.93698
943.9807, 92.37982
944.4628, 96.92123
944.9449, 101.9616
945.4271, 107.3181
945.9092, 112.9875
946.3913, 119.2859
946.8734, 125.5393
947.3555, 131.0739
947.8376, 135.9057
948.3198, 140.6304
948.8019, 145.2505
949.2840, 149.9602
949.7661, 153.5414
950.2482, 158.2106
950.7303, 166.9134
951.2125, 179.7338
951.6946, 190.5534
952.1767, 197.0500
952.6588, 204.2729
953.1409, 214.2251
953.6230, 225.9721
954.1052, 236.3554
954.5873, 245.7474
955.0695, 256.5440
955.5516, 270.5420
956.0337, 285.2097
956.5158, 297.7847
956.9979, 309.8281
957.4800, 324.1590
957.9622, 342.9197
958.4443, 360.3461
958.9264, 375.9788
959.4085, 390.7229
959.8906, 404.6385
960.3727, 418.6797
960.8549, 436.7003
961.3370, 459.2841
961.8191, 482.2612
962.3012, 503.7935
962.7833, 524.4530
963.2654, 544.2113
963.7476, 563.1760
964.2297, 582.0994
964.7118, 600.6105
965.1939, 619.0944
965.6760, 637.9880
966.1581, 656.6486
966.6403, 674.4548
967.1224, 691.1448
967.6045, 706.4555
968.0866, 720.1898
968.5687, 732.4500
969.0508, 742.9955
969.5330, 752.2144
970.0151, 761.4055
970.4972, 771.3798
970.9793, 776.5051
971.4614, 775.7429
971.9435, 772.1085
972.4257, 768.9370
972.9078, 765.0416
973.3899, 758.2991
973.8720, 748.3543
974.3541, 736.9796
974.8362, 724.4194
975.3184, 710.4022
975.8005, 694.4441
976.2826, 676.9983
976.7647, 662.3525
977.2468, 650.3538
977.7289, 637.7531
978.2111, 621.9277
978.6932, 606.2792
979.1753, 595.6514
979.6574, 587.6317
980.1395, 577.7651
980.6216, 561.4884
981.1038, 548.3231
981.5859, 539.4615
982.0680, 533.0809
982.5501, 527.6189
983.0322, 522.9553
983.5143, 518.0792
983.9965, 512.8351
984.4786, 508.8468
984.9607, 507.7643
985.4428, 508.0727
985.9249, 508.8137
986.4070, 509.9124
986.8892, 510.9273
987.3713, 511.2698
987.8534, 513.0833
988.3355, 517.4147
988.8176, 523.4697
989.2997, 530.2095
989.7819, 537.1907
990.2640, 543.0580
990.7461, 545.8594
991.2282, 549.4728
991.7103, 555.4302
992.1924, 563.1529
992.6746, 571.9671
993.1567, 582.2092
993.6388, 592.4683
994.1209, 603.0143
994.6030, 611.7820
995.0851, 615.9547
995.5673, 617.8026
996.0494, 620.1797
996.5315, 623.2477
997.0136, 626.0427
997.4957, 629.5967
997.9778, 631.2340
998.4600, 630.3017
998.9421, 626.8513
999.4242, 620.6732
999.9063, 611.9225
1000.388, 601.6707
1000.871, 590.0242
1001.353, 577.4005
1001.835, 565.1002
1002.317, 551.5952
1002.799, 534.6941
1003.281, 512.3160
1003.763, 490.6169
1004.245, 469.6847
1004.728, 448.8535
1005.210, 427.1399
1005.692, 404.9703
1006.174, 383.3900
1006.656, 362.3755
1007.138, 341.6328
1007.620, 320.7297
1008.102, 300.1391
1008.584, 278.8586
1009.067, 258.0584
1009.549, 241.3719
1010.031, 229.1991
1010.513, 215.9005
1010.995, 200.0267
1011.477, 183.8592
1011.959, 170.4026
1012.441, 158.5288
1012.924, 146.5367
1013.406, 133.7803
1013.888, 122.5978
1014.370, 114.2431
1014.852, 106.2162
1015.334, 97.02356
1015.816, 87.00027
1016.298, 77.75735
1016.780, 69.38190
1017.263, 61.93774
1017.745, 56.67380
1018.227, 51.14218
1018.709, 42.65674
1019.191, 33.17664
1019.673, 26.48779
1020.155, 23.11450
1020.637, 21.60004
1021.120, 22.36337
1021.602, 23.06827
1022.084, 20.50644
1022.566, 16.28519
1023.048, 13.76642
1023.530, 13.25650
1024.012, 11.55035
1024.494, 5.727783
1024.976, 0.2217710
1025.458, 3.290100
1025.941, 5.096344
1026.423, 6.213379
1026.905, 6.659210
1027.387, 6.569794
1027.869, 5.818054
1028.351, 4.931427
1028.833, 3.837433
1029.316, 3.166138
1029.798, 3.881622
1030.280, 7.437683
1030.762, 9.220093
1031.244, 8.847321
1031.726, 7.634064
1032.208, 5.878326
1032.690, 4.191040
1033.172, 5.385193
1033.655, 3.708137
1034.137, 3.938201
1034.619, 2.565460
1035.101, 3.167511
1035.583, 2.762146
1036.065, 0.6659240
1036.547, 1.685394
1037.029, 0.2219850
1037.511, 1.596741
1037.994, 3.324951
1038.476, 5.891296
1038.958, 11.70987
1039.440, 17.85934
1039.922, 20.60678
1040.404, 18.97699
1040.886, 19.59140
1041.368, 23.65967
1041.851, 28.03195
1042.333, 31.52466
1042.815, 34.35257
1043.297, 36.50299
1043.779, 38.44556
1044.261, 41.58228
1044.743, 47.26636
1045.225, 52.93716
1045.708, 57.14935
1046.190, 61.17395
1046.672, 66.46283
1047.154, 73.26401
1047.636, 78.19211
1048.118, 81.10089
1048.600, 84.41013
1049.082, 90.65564
1049.564, 97.69943
1050.047, 103.3240
1050.529, 107.8288
1051.011, 112.7420
1051.493, 118.8673
1051.975, 123.9634
1052.457, 127.3587
1052.939, 130.1159
1053.421, 134.3456
1053.903, 139.1224
1054.386, 142.1559
1054.868, 142.8019
1055.350, 143.5606
1055.832, 146.8931
1056.314, 149.2854
1056.796, 148.7981
1057.278, 145.7139
1057.760, 141.9902
1058.243, 137.6624
1058.725, 134.0940
1059.207, 132.4930
1059.689, 130.8956
1060.171, 127.2757
1060.653, 122.6086
1061.135, 118.2211
1061.617, 113.9112
1062.099, 111.1588
1062.582, 110.6532
1063.064, 109.4848
1063.546, 104.5043
1064.028, 97.47388
1064.510, 91.46912
1064.992, 86.63184
1065.474, 82.95773
1065.956, 81.35086
1066.438, 79.77927
1066.921, 78.04797
1067.403, 75.80179
1067.885, 71.88000
1068.367, 66.53546
1068.849, 62.26154
1069.331, 59.29535
1069.813, 58.09158
1070.295, 60.03156
1070.778, 62.97867
1071.260, 65.48111
1071.742, 67.47729
1072.224, 68.68433
1072.706, 68.70496
1073.188, 70.39899
1073.670, 75.14999
1074.152, 81.41589
1074.635, 86.33118
1075.117, 91.57626
1075.599, 100.2828
1076.081, 115.3404
1076.563, 128.4754
1077.045, 138.2559
1077.527, 147.3857
1078.009, 157.0671
1078.491, 167.5298
1078.974, 180.7962
1079.456, 196.2288
1079.938, 210.4676
1080.420, 220.1907
1080.902, 230.7015
1081.384, 245.5498
1081.866, 261.4740
1082.348, 274.7928
1082.831, 285.4123
1083.313, 294.1602
1083.795, 301.0306
1084.277, 306.3620
1084.759, 311.2948
1085.241, 314.0241
1085.723, 312.7074
1086.205, 307.4101
1086.688, 300.8409
1087.170, 293.5533
1087.652, 283.2591
1088.134, 268.6637
1088.616, 252.6850
1089.098, 239.5551
1089.580, 227.8172
1090.062, 214.8822
1090.544, 199.8485
1091.026, 186.4325
1091.509, 176.3654
1091.991, 165.6895
1092.473, 152.3897
1092.955, 137.8285
1093.437, 126.9945
1093.919, 119.0588
1094.401, 111.1797
1094.883, 100.9933
1095.366, 92.36459
1095.848, 88.78104
1096.330, 86.54709
1096.812, 81.89661
1097.294, 74.39264
1097.776, 68.42905
1098.258, 63.97693
1098.740, 60.14001
1099.223, 55.75159
1099.705, 52.03534
1100.187, 51.12161
1100.669, 47.93092
1101.151, 45.62691
1101.633, 45.01059
1102.115, 42.09073
1102.597, 42.26659
1103.079, 43.37144
1103.562, 43.72391
1104.044, 43.00230
1104.526, 40.36002
1105.008, 35.99167
1105.490, 32.33022
1105.972, 29.64633
1106.454, 28.47173
1106.936, 29.69368
1107.418, 31.42920
1107.901, 28.84897
1108.383, 23.91377
1108.865, 22.79471
1109.347, 27.48732
1109.829, 31.28790
1110.311, 29.44255
1110.793, 27.78497
1111.275, 30.02933
1111.758, 35.06061
1112.240, 35.87274
1112.722, 32.87706
1113.204, 30.05692
1113.686, 28.89560
1114.168, 28.31900
1114.650, 28.07730
1115.132, 27.75719
1115.615, 26.59732
1116.097, 24.14653
1116.579, 24.39882
1117.061, 27.60674
1117.543, 30.36465
1118.025, 29.97253
1118.507, 28.39845
1118.989, 27.44939
1119.471, 26.93811
1119.953, 26.43932
1120.436, 25.48439
1120.918, 25.64078
1121.400, 27.30757
1121.882, 29.00804
1122.364, 29.47160
1122.846, 28.96947
1123.328, 27.19600
1123.810, 24.59541
1124.293, 23.71588
1124.775, 28.15938
1125.257, 30.26767
1125.739, 27.96730
1126.221, 24.06467
1126.703, 23.00616
1127.185, 23.85880
1127.667, 23.86523
1128.150, 22.64769
1128.632, 21.21176
1129.114, 18.98367
1129.596, 17.94675
1130.078, 19.40619
1130.560, 22.29449
1131.042, 23.62581
1131.524, 23.42668
1132.006, 21.28662
1132.489, 16.33255
1132.971, 12.78464
1133.453, 15.22374
1133.935, 18.84583
1134.417, 19.87326
1134.899, 18.40099
1135.381, 17.47531
1135.863, 17.07675
1136.346, 16.93919
1136.828, 17.18817
1137.310, 17.24829
1137.792, 16.39189
1138.274, 15.13164
1138.756, 14.22429
1139.238, 12.96722
1139.720, 12.74380
1140.203, 10.45926
1140.685, 8.336151
1141.167, 7.038193
1141.649, 6.415802
1142.131, 6.582153
1142.613, 7.203003
1143.095, 7.545303
1143.577, 7.817062
1144.059, 7.025986
1144.542, 4.925797
1145.024, 2.453003
1145.506, 7.0235997E-02
1145.988, 1.864563
1146.470, 2.500366
1146.952, 2.108643
1147.434, 1.980042
1147.916, 3.826050
1148.398, 3.765396
1148.881, 0.2918240
1149.363, 3.373947
1149.845, 2.293320
1150.327, 1.706985
1150.809, 4.348022
1151.291, 5.242874
1151.773, 5.136490
1152.255, 2.727997
1152.738, 1.454651
1153.220, 2.639420
1153.702, 5.127716
1154.184, 7.116150
1154.666, 8.499985
1155.148, 8.802902
1155.630, 7.921356
1156.112, 6.310181
1156.594, 3.195694
1157.077, 0.4904940
1157.559, 0.9784550
1158.041, 1.338333
1158.523, 0.7683870
1159.005, 0.6037900
1159.487, 1.951950
1159.969, 3.297562
1160.451, 3.596802
1160.933, 3.731871
1161.416, 2.166321
1161.898, 2.932816
1162.380, 1.752167
1162.862, 1.315887
1163.344, 1.627914
1163.826, 2.906906
1164.308, 5.853210
1164.790, 8.496902
1165.273, 9.045670
1165.755, 8.601425
1166.237, 8.013626
1166.719, 7.083328
1167.201, 9.095703
1167.683, 14.29659
1168.165, 18.24155
1168.647, 18.01459
1169.130, 16.24232
1169.612, 14.19745
1170.094, 12.69742
1170.576, 13.28139
1171.058, 16.80243
1171.540, 19.29322
1172.022, 20.66783
1172.504, 21.58303
1172.986, 22.71568
1173.469, 23.46218
1173.951, 22.56269
1174.433, 20.83814
1174.915, 20.40289
1175.397, 22.10870
1175.879, 23.05156
1176.361, 22.96142
1176.843, 22.73706
1177.326, 23.20955
1177.808, 23.96797
1178.290, 23.99157
1178.772, 23.76289
1179.254, 25.47165
1179.736, 31.17645
1180.218, 34.19174
1180.700, 33.37281
1181.182, 31.32896
1181.665, 30.35447
1182.147, 30.25025
1182.629, 31.18909
1183.111, 32.92458
1183.593, 33.82962
1184.075, 33.01191
1184.557, 32.66277
1185.039, 33.12907
1185.521, 34.24170
1186.004, 36.79974
1186.486, 39.36049
1186.968, 38.80489
1187.450, 35.02692
1187.932, 33.05730
1188.414, 34.59456
1188.896, 36.80243
1189.378, 39.48163
1189.861, 41.61375
1190.343, 41.06764
1190.825, 38.95390
1191.307, 36.95581
1191.789, 35.25964
1192.271, 35.06036
1192.753, 37.83917
1193.235, 39.77666
1193.718, 39.43789
1194.200, 37.98935
1194.682, 37.29142
1195.164, 37.23761
1195.646, 37.81835
1196.128, 39.25198
1196.610, 39.88212
1197.092, 38.75777
1197.574, 37.80807
1198.057, 37.69791
1198.539, 38.31982
1199.021, 40.16074
1199.503, 42.39761
1199.985, 42.85765
1200.467, 40.11888
1200.949, 38.90435
1201.431, 40.79678
1201.913, 43.07876
1202.396, 44.63737
1202.878, 45.46307
1203.360, 45.44167
1203.842, 44.76022
1204.324, 43.97857
1204.806, 43.04565
1205.288, 42.75862
1205.770, 43.51638
1206.253, 44.23843
1206.735, 44.55546
1207.217, 44.43918
1207.699, 43.33307
1208.181, 41.50624
1208.663, 40.19057
1209.145, 40.42777
1209.627, 40.35135
1210.109, 39.64056
1210.592, 38.99786
1211.074, 39.27724
1211.556, 39.61353
1212.038, 36.44632
1212.520, 31.32234
1213.002, 28.71458
1213.484, 32.49848
1213.966, 35.65040
1214.448, 37.89223
1214.931, 38.63052
1215.413, 36.21667
1215.895, 32.10910
1216.377, 30.23331
1216.859, 30.31259
1217.341, 31.53410
1217.823, 35.84682
1218.305, 37.78450
1218.788, 36.39586
1219.270, 34.08759
1219.752, 32.25801
1220.234, 31.03046
1220.716, 31.38113
1221.198, 32.91673
1221.680, 34.16621
1222.162, 34.67503
1222.645, 34.72067
1223.127, 34.11373
1223.609, 33.37610
1224.091, 33.63732
1224.573, 33.87531
1225.055, 30.74031
1225.537, 25.62454
1226.019, 23.18698
1226.501, 28.97815
1226.984, 31.60422
1227.466, 29.33099
1227.948, 25.86504
1228.430, 24.92004
1228.912, 25.46281
1229.394, 25.66871
1229.876, 25.53384
1230.358, 25.46642
1230.841, 25.49157
1231.323, 25.79497
1231.805, 26.53617
1232.287, 27.09324
1232.769, 26.69814
1233.251, 25.82301
1233.733, 25.04697
1234.215, 24.42446
1234.698, 24.15644
1235.180, 24.77340
1235.662, 24.31501
1236.144, 22.20951
1236.626, 20.39523
1237.108, 21.64048
1237.590, 23.89742
1238.072, 24.79921
1238.554, 24.33902
1239.036, 23.05948
1239.519, 20.28896
1240.001, 19.41380
1240.483, 21.19497
1240.965, 23.14087
1241.447, 21.96851
1241.929, 20.20962
1242.411, 21.31650
1242.893, 24.48841
1243.376, 24.97192
1243.858, 21.89378
1244.340, 19.65132
1244.822, 18.92274
1245.304, 18.72534
1245.786, 18.42568
1246.268, 18.02133
1246.750, 17.62068
1247.233, 17.12511
1247.715, 16.10361
1248.197, 14.43488
1248.679, 13.27060
1249.161, 12.75957
1249.643, 12.91720
1250.125, 14.37285
1250.607, 15.94583
1251.089, 16.85072
1251.572, 17.12000
1252.054, 16.81750
1252.536, 15.94229
1253.018, 14.63434
1253.500, 12.83496
1253.982, 12.06557
1254.464, 14.75750
1254.946, 17.50752
1255.428, 18.66392
1255.911, 18.21326
1256.393, 15.19892
1256.875, 10.02976
1257.357, 6.469154
1257.839, 5.040710
1258.321, 4.900864
1258.803, 6.669624
1259.285, 8.300728
1259.768, 9.093262
1260.250, 9.125610
1260.732, 8.096718
1261.214, 6.402962
1261.696, 5.578407
1262.178, 5.826080
1262.660, 7.014824
1263.142, 11.32616
1263.625, 13.40216
1264.107, 11.01902
1264.589, 6.790207
1265.071, 4.298187
1265.553, 3.477524
1266.035, 4.977554
1266.517, 8.660629
1266.999, 10.73504
1267.481, 9.134933
1267.964, 7.146629
1268.446, 5.152802
1268.928, 3.604477
1269.410, 3.256195
1269.892, 3.748871
1270.374, 4.538261
1270.856, 5.576439
1271.338, 7.259537
1271.820, 10.63759
1272.303, 11.67329
1272.785, 9.285675
1273.267, 5.687927
1273.749, 2.714867
1274.231, 0.6063230
1274.713, 0.1481550
1275.195, 1.066521
1275.677, 1.041595
1276.160, 0.3519670
1276.642, 0.6112980
1277.124, 0.7597430
1277.606, 2.693123
1278.088, 4.945114
1278.570, 6.645470
1279.052, 6.753258
1279.534, 5.727333
1280.016, 5.030975
1280.499, 4.637283
1280.981, 4.298759
1281.463, 4.022224
1281.945, 3.130630
1282.427, 0.7968140
1282.909, 3.329376
1283.391, 0.8358610
1283.873, 3.910271
1284.356, 5.928528
1284.838, 5.700012
1285.320, 5.399261
1285.802, 5.265633
1286.284, 5.347374
1286.766, 6.500786
1287.248, 6.936157
1287.730, 5.807861
1288.213, 4.155106
1288.695, 2.913223
1289.177, 2.365295
1289.659, 3.692551
1290.141, 6.657646
1290.623, 8.808388
1291.105, 8.397346
1291.587, 7.732834
1292.069, 6.885117
1292.552, 6.535919
1293.034, 7.104469
1293.516, 9.144318
1293.998, 8.934494
1294.480, 6.580132
1294.962, 4.809166
1295.444, 3.907494
1295.926, 3.445808
1296.408, 3.446739
1296.891, 3.618874
1297.373, 3.306732
1297.855, 3.163017
1298.337, 4.521973
1298.819, 6.489731
1299.301, 6.935966
1299.783, 5.770058
1300.265, 3.835457
1300.748, 1.208725
1301.230, 0.1260300
1301.712, 2.939819
1302.194, 2.596931
1302.676, 0.0000000E+00
##END=



