##NAMES=Pseudobrookite
##RRUFFID=R050563
##IDEAL CHEMISTRY=(Fe^3+^_2_Ti)O_5_
##LOCALITY=Thomas Range, Juab County, Utah, USA
##OWNER=RRUFF
##SOURCE=Dave Bunk Minerals
##DESCRIPTION=Black elongated prismatic crystals
##STATUS=The identification of this mineral is confirmed by single-crystal X-ray diffraction and chemical analysis.
##URL=rruff.info/R050563
##MEASURED CHEMISTRY=(Fe^3+^_1.85_Mn^3+^_0.12_Al_0.03_)_Î£=2_Ti_1.00_O_5_
105.0826, 0.0000000E+00
105.5647, 4.996002
106.0468, 10.35373
106.5289, 14.23096
107.0110, 18.06308
107.4931, 22.31433
107.9753, 27.11734
108.4574, 33.27304
108.9395, 35.51990
109.4216, 31.97717
109.9037, 26.23541
110.3858, 16.75256
110.8680, 6.938721
111.3501, 0.3304440
111.8322, 0.1299440
112.3143, 3.452728
112.7964, 4.313660
113.2785, 5.457550
113.7607, 6.337311
114.2428, 7.080383
114.7249, 7.617645
115.2070, 7.617126
115.6891, 6.792633
116.1712, 5.141937
116.6534, 3.594543
117.1355, 2.032990
117.6176, 0.6733090
118.0997, 0.6842350
118.5818, 2.130920
119.0639, 2.548920
119.5461, 4.157094
120.0282, 6.301128
120.5103, 7.872284
120.9924, 11.05756
121.4745, 13.59952
121.9566, 15.63425
122.4388, 17.01346
122.9209, 18.39185
123.4030, 20.10760
123.8851, 22.75372
124.3672, 25.31717
124.8493, 27.62811
125.3315, 30.09863
125.8136, 32.66031
126.2957, 36.75403
126.7778, 40.33365
127.2599, 41.32672
127.7420, 40.44852
128.2242, 38.56027
128.7063, 36.57379
129.1884, 33.78281
129.6705, 31.30887
130.1526, 28.51489
130.6347, 25.34198
131.1169, 22.44418
131.5990, 19.97409
132.0811, 17.93021
132.5632, 16.39487
133.0453, 15.14301
133.5274, 14.88919
134.0096, 16.68842
134.4917, 19.28522
134.9738, 20.91702
135.4559, 20.69687
135.9380, 19.11890
136.4201, 17.85477
136.9023, 16.81577
137.3844, 16.10284
137.8665, 16.20081
138.3486, 16.85745
138.8307, 16.85043
139.3128, 15.22430
139.7950, 12.53580
140.2771, 10.28055
140.7592, 8.865479
141.2413, 7.553009
141.7234, 5.131012
142.2055, 1.174622
142.6877, 1.614838
143.1698, 0.6228330
143.6519, 2.106873
144.1340, 4.410126
144.6161, 5.478149
145.0982, 5.578918
145.5803, 5.421082
146.0625, 5.095551
146.5446, 4.286896
147.0267, 2.049194
147.5088, 0.5737920
147.9909, 1.849792
148.4730, 0.2455750
148.9552, 4.013489
149.4373, 6.337402
149.9194, 4.768127
150.4015, 2.904694
150.8836, 1.260315
151.3657, 2.4323000E-02
151.8479, 0.6568300
152.3300, 0.5406490
152.8121, 0.6204830
153.2942, 0.9711000
153.7763, 0.3702390
154.2584, 1.585785
154.7406, 1.626648
155.2227, 0.5032350
155.7048, 0.9718930
156.1869, 1.939819
156.6690, 2.236755
157.1511, 2.456879
157.6333, 2.356812
158.1154, 2.312042
158.5975, 2.766510
159.0796, 3.826813
159.5617, 5.016876
160.0438, 5.629456
160.5260, 5.630096
161.0081, 5.820496
161.4902, 6.318909
161.9723, 7.133179
162.4544, 8.393311
162.9365, 10.64520
163.4187, 12.93732
163.9008, 14.35373
164.3829, 14.93085
164.8650, 15.76950
165.3471, 17.78293
165.8292, 20.75763
166.3113, 23.24327
166.7935, 24.84343
167.2756, 25.90913
167.7577, 26.66782
168.2398, 27.14642
168.7219, 27.49736
169.2040, 27.54042
169.6862, 27.07368
170.1683, 27.72025
170.6504, 30.49892
171.1325, 33.97305
171.6146, 37.67780
172.0967, 41.43404
172.5789, 44.97908
173.0610, 47.80302
173.5431, 49.32727
174.0252, 51.45093
174.5073, 54.74057
174.9894, 58.29893
175.4716, 61.43747
175.9537, 63.89417
176.4358, 65.98753
176.9179, 68.39912
177.4000, 70.56409
177.8821, 74.39613
178.3643, 81.37373
178.8464, 89.24684
179.3285, 95.74358
179.8106, 99.95142
180.2927, 102.5055
180.7748, 105.0667
181.2570, 107.2910
181.7391, 109.9480
182.2212, 113.0647
182.7033, 116.6786
183.1854, 120.9020
183.6675, 125.8387
184.1497, 131.2861
184.6318, 136.6667
185.1139, 142.1284
185.5960, 147.3523
186.0781, 152.3980
186.5602, 157.1317
187.0423, 161.1266
187.5245, 164.0072
188.0066, 166.0867
188.4887, 168.2654
188.9708, 170.6205
189.4529, 172.9303
189.9350, 174.9135
190.4172, 176.6244
190.8993, 178.9650
191.3814, 183.0773
191.8635, 187.5473
192.3456, 190.3055
192.8277, 190.7261
193.3099, 190.4222
193.7920, 191.1100
194.2741, 192.9958
194.7562, 194.4455
195.2383, 194.4196
195.7204, 193.7901
196.2026, 193.1689
196.6847, 192.6364
197.1668, 192.0483
197.6489, 191.3491
198.1310, 190.5751
198.6131, 189.9052
199.0953, 189.8240
199.5774, 189.6295
200.0595, 188.5638
200.5416, 186.2072
201.0237, 183.2108
201.5058, 180.6835
201.9880, 178.6677
202.4701, 177.0731
202.9522, 175.9747
203.4343, 175.1634
203.9164, 174.3900
204.3985, 173.5323
204.8807, 172.7632
205.3628, 172.5265
205.8449, 173.4713
206.3270, 174.0986
206.8091, 173.8687
207.2912, 173.3976
207.7733, 173.5089
208.2555, 174.6380
208.7376, 176.4424
209.2197, 177.6578
209.7018, 177.4965
210.1839, 177.6255
210.6660, 178.3490
211.1482, 179.4386
211.6303, 180.6004
212.1124, 181.6946
212.5945, 182.7845
213.0766, 183.9330
213.5587, 185.5035
214.0409, 186.6523
214.5230, 186.8917
215.0051, 186.6150
215.4872, 186.5056
215.9693, 186.9056
216.4514, 187.7259
216.9336, 188.6612
217.4157, 190.6357
217.8978, 191.5828
218.3799, 190.2997
218.8620, 187.4248
219.3441, 184.5918
219.8263, 182.7064
220.3084, 181.2120
220.7905, 178.6101
221.2726, 174.4913
221.7547, 170.1275
222.2368, 166.7058
222.7190, 163.7540
223.2011, 159.1075
223.6832, 150.9897
224.1653, 141.3332
224.6474, 133.9953
225.1295, 129.7772
225.6117, 125.8957
226.0938, 120.6804
226.5759, 114.2113
227.0580, 107.1026
227.5401, 98.76404
228.0222, 90.55756
228.5043, 84.26506
228.9865, 80.42363
229.4686, 76.82669
229.9507, 71.26999
230.4328, 63.78654
230.9149, 57.37370
231.3970, 54.02023
231.8792, 51.40080
232.3613, 47.25388
232.8434, 41.22290
233.3255, 35.19897
233.8076, 31.32236
234.2897, 29.81581
234.7719, 27.84602
235.2540, 23.85858
235.7361, 19.81711
236.2182, 17.00789
236.7003, 15.59334
237.1824, 14.78615
237.6646, 13.82889
238.1467, 12.71240
238.6288, 11.45404
239.1109, 9.902115
239.5930, 8.303970
240.0751, 6.566605
240.5573, 4.768707
241.0394, 3.364410
241.5215, 3.132385
242.0036, 4.538116
242.4857, 5.197357
242.9678, 4.198776
243.4500, 3.054214
243.9321, 2.469681
244.4142, 2.525269
244.8963, 2.909805
245.3784, 3.468735
245.8605, 4.560608
246.3427, 4.456070
246.8248, 1.905106
247.3069, 0.7047120
247.7890, 2.391891
248.2711, 3.017395
248.7532, 2.839951
249.2354, 2.009567
249.7175, 2.392944
250.1996, 0.9824680
250.6817, 1.975296
251.1638, 2.315353
251.6459, 1.480682
252.1281, 2.710336
252.6102, 2.335129
253.0923, 3.938629
253.5744, 5.188934
254.0565, 5.525696
254.5386, 4.083191
255.0208, 2.699631
255.5029, 2.306854
255.9850, 2.776291
256.4671, 3.394501
256.9492, 3.567490
257.4313, 3.270203
257.9135, 2.778320
258.3956, 1.676895
258.8777, 0.8172450
259.3598, 0.6699220
259.8419, 1.103622
260.3240, 1.667221
260.8062, 2.036423
261.2883, 2.211380
261.7704, 2.334366
262.2525, 2.880936
262.7346, 2.927887
263.2167, 1.684738
263.6989, 0.4261320
264.1810, 2.285294
264.6631, 3.193817
265.1452, 3.219360
265.6273, 2.968262
266.1094, 1.881714
266.5916, 1.166779
267.0737, 1.416138
267.5558, 2.379272
268.0379, 3.544586
268.5200, 4.739914
269.0021, 5.814560
269.4843, 6.096451
269.9664, 4.614960
270.4485, 3.681259
270.9306, 4.602005
271.4127, 6.588348
271.8948, 7.792679
272.3770, 7.184189
272.8591, 5.720291
273.3412, 6.130249
273.8233, 9.443481
274.3054, 12.05995
274.7875, 11.97266
275.2697, 10.53075
275.7518, 10.46390
276.2339, 12.95586
276.7160, 16.59282
277.1981, 18.71240
277.6802, 19.30806
278.1623, 19.36812
278.6444, 18.56836
279.1266, 17.53761
279.6087, 17.55562
280.0908, 19.14650
280.5729, 21.09082
281.0550, 21.22545
281.5371, 19.46727
282.0193, 19.07993
282.5014, 21.97362
282.9835, 26.36134
283.4656, 29.79672
283.9477, 31.87083
284.4298, 32.99429
284.9120, 33.15977
285.3941, 32.51605
285.8762, 32.14659
286.3583, 32.26328
286.8404, 32.77309
287.3225, 33.64938
287.8047, 34.92105
288.2868, 36.28511
288.7689, 37.55319
289.2510, 38.72108
289.7331, 39.80153
290.2152, 40.55342
290.6974, 41.35724
291.1795, 42.84947
291.6616, 45.07309
292.1437, 46.83911
292.6258, 47.02005
293.1079, 46.29149
293.5901, 46.28604
294.0722, 47.40955
294.5543, 49.02304
295.0364, 50.64008
295.5185, 52.27383
296.0006, 54.07002
296.4828, 56.24823
296.9649, 58.53685
297.4470, 60.42719
297.9291, 61.72826
298.4112, 63.03265
298.8933, 64.74335
299.3755, 66.82330
299.8576, 69.16321
300.3397, 72.07877
300.8218, 74.80939
301.3039, 76.10861
301.7860, 75.70175
302.2682, 75.88942
302.7503, 78.51898
303.2324, 82.87787
303.7145, 86.51428
304.1966, 88.86295
304.6787, 90.39670
305.1609, 91.26744
305.6430, 91.57269
306.1251, 92.20166
306.6072, 93.54913
307.0893, 95.56413
307.5714, 98.18076
308.0536, 101.4357
308.5357, 104.9230
309.0178, 108.7632
309.4999, 112.6591
309.9820, 115.5495
310.4641, 115.7480
310.9463, 115.2422
311.4284, 117.5008
311.9105, 123.2055
312.3926, 128.6831
312.8747, 131.2413
313.3568, 131.8166
313.8390, 131.8244
314.3211, 130.3750
314.8032, 129.6864
315.2853, 132.8757
315.7674, 140.0342
316.2495, 146.6465
316.7317, 150.6147
317.2138, 152.7081
317.6959, 154.0367
318.1780, 154.2066
318.6601, 154.8184
319.1422, 157.3336
319.6243, 161.5228
320.1064, 165.7552
320.5886, 169.8688
321.0707, 173.5621
321.5528, 176.5060
322.0349, 178.6037
322.5170, 180.2073
322.9991, 181.0889
323.4813, 181.5955
323.9634, 182.8508
324.4455, 185.3148
324.9276, 187.9879
325.4097, 189.5683
325.8918, 190.3258
326.3740, 191.6695
326.8561, 195.1128
327.3382, 199.1135
327.8203, 200.8502
328.3024, 199.7129
328.7845, 198.4413
329.2667, 199.5622
329.7488, 202.1337
330.2309, 203.8104
330.7130, 203.2077
331.1951, 202.1997
331.6772, 202.9002
332.1594, 205.2775
332.6415, 207.4295
333.1236, 208.3637
333.6057, 208.3763
334.0878, 208.2890
334.5699, 208.1861
335.0521, 207.8671
335.5342, 204.1824
336.0163, 206.6237
336.4984, 207.7408
336.9805, 207.6048
337.4626, 202.4565
337.9448, 203.7844
338.4269, 202.5192
338.9090, 201.1493
339.3911, 203.3937
339.8732, 198.9830
340.3553, 201.1733
340.8375, 199.6654
341.3196, 198.1010
341.8017, 196.7415
342.2838, 195.5428
342.7659, 193.6000
343.2480, 189.9548
343.7302, 185.9220
344.2123, 182.8536
344.6944, 180.8642
345.1765, 179.6029
345.6586, 179.3171
346.1407, 179.6086
346.6229, 178.3415
347.1050, 173.8026
347.5871, 169.2571
348.0692, 167.1388
348.5513, 166.7907
349.0334, 165.7052
349.5156, 162.5733
349.9977, 158.0335
350.4798, 153.7530
350.9619, 149.4804
351.4440, 145.8250
351.9261, 143.6247
352.4083, 142.0678
352.8904, 139.6837
353.3725, 135.9596
353.8546, 131.6864
354.3367, 127.9037
354.8188, 124.5960
355.3010, 121.9387
355.7831, 120.7541
356.2652, 119.8088
356.7473, 117.6467
357.2294, 114.1307
357.7115, 110.5306
358.1937, 108.0172
358.6758, 106.6534
359.1579, 104.6936
359.6400, 101.1693
360.1221, 98.04933
360.6042, 96.93182
361.0863, 97.05197
361.5685, 96.32803
362.0506, 93.52429
362.5327, 89.13690
363.0148, 85.12524
363.4969, 81.29446
363.9790, 78.08514
364.4612, 75.91560
364.9433, 74.23682
365.4254, 72.33939
365.9075, 69.99814
366.3896, 67.68045
366.8717, 66.21921
367.3539, 66.46301
367.8360, 65.60606
368.3181, 62.73393
368.8002, 59.57974
369.2823, 56.94594
369.7644, 55.08159
370.2466, 54.34534
370.7287, 55.43454
371.2108, 58.62015
371.6929, 58.59874
372.1750, 51.85651
372.6571, 45.92943
373.1393, 43.49377
373.6214, 43.39899
374.1035, 43.23557
374.5856, 41.69867
375.0677, 39.27287
375.5498, 37.29259
376.0320, 36.07910
376.5141, 35.06873
376.9962, 34.32344
377.4783, 33.53127
377.9604, 32.44969
378.4425, 31.01418
378.9247, 29.36891
379.4068, 27.58636
379.8889, 25.55656
380.3710, 23.78252
380.8531, 22.09276
381.3352, 20.81279
381.8174, 20.46732
382.2995, 20.75389
382.7816, 20.74966
383.2637, 19.59169
383.7458, 17.51968
384.2279, 15.82521
384.7101, 14.31116
385.1922, 13.62003
385.6743, 14.23451
386.1564, 15.51575
386.6385, 16.86423
387.1206, 18.14589
387.6028, 18.91895
388.0849, 18.23538
388.5670, 15.69868
389.0491, 13.38669
389.5312, 12.13367
390.0133, 10.98293
390.4955, 8.970612
390.9776, 6.149612
391.4597, 3.993561
391.9418, 3.945389
392.4239, 5.675705
392.9060, 7.472137
393.3882, 9.912155
393.8703, 11.27670
394.3524, 9.531189
394.8345, 6.072815
395.3166, 3.581055
395.7987, 3.840912
396.2809, 5.128860
396.7630, 4.968506
397.2451, 3.165878
397.7272, 1.622650
398.2093, 1.184113
398.6914, 1.494659
399.1736, 2.127213
399.6557, 3.102600
400.1378, 3.864548
400.6199, 3.816055
401.1020, 3.270691
401.5841, 3.187500
402.0662, 3.938095
402.5483, 4.735199
403.0305, 4.616119
403.5126, 3.646774
403.9947, 2.429077
404.4768, 2.323138
404.9589, 1.367691
405.4410, 1.674408
405.9232, 0.5912780
406.4053, 0.4108280
406.8874, 0.2981870
407.3695, 0.6679380
407.8516, 0.9844820
408.3337, 0.1158600
408.8159, 0.8862760
409.2980, 0.4108280
409.7801, 0.6518250
410.2622, 1.231552
410.7443, 0.9609990
411.2264, 0.2071840
411.7086, 0.5174710
412.1907, 1.520477
412.6728, 1.588181
413.1549, 0.4898380
413.6370, 2.520172
414.1191, 2.678604
414.6013, 1.193085
415.0834, 0.3753050
415.5655, 0.7810670
416.0476, 9.3689002E-02
416.5297, 0.4466400
417.0118, 0.9561920
417.4940, 1.240570
417.9761, 1.223083
418.4582, 0.9558260
418.9403, 0.4539490
419.4224, 0.2689670
419.9045, 0.1068212
420.3867, 0.9393770
420.8688, 4.8705999E-02
421.3509, 0.7508700
421.8330, 1.006363
422.3151, 1.067169
422.7972, 0.9650120
423.2794, 0.7543030
423.7615, 0.5347900
424.2436, 0.4072720
424.7257, 0.3535000
425.2078, 0.4903260
425.6899, 0.9921880
426.1721, 1.329773
426.6542, 1.219666
427.1363, 0.9029850
427.6184, 0.6257020
428.1005, 0.5569460
428.5826, 0.4797210
429.0648, 2.0293999E-02
429.5469, 0.9588620
430.0290, 1.207626
430.5111, 0.2550960
430.9932, 1.715332
431.4753, 1.146317
431.9575, 1.148895
432.4396, 2.642975
432.9217, 1.302612
433.4038, 1.328781
433.8859, 2.650543
434.3680, 2.555161
434.8502, 1.856308
435.3323, 0.7917330
435.8144, 0.4261470
436.2965, 0.4282392
436.7786, 1.239609
437.2607, 1.284851
437.7429, 2.098312
438.2250, 3.233627
438.7071, 3.338287
439.1892, 1.921432
439.6713, 0.1188960
440.1534, 0.3404240
440.6356, 0.9853670
441.1177, 1.664108
441.5998, 0.6564330
442.0819, 0.4622500
442.5640, 0.4278560
443.0461, 0.5836490
443.5282, 1.471527
444.0103, 1.480225
444.4925, 0.7626190
444.9746, 0.1419070
445.4567, 0.7630460
445.9388, 1.078949
446.4209, 0.5296630
446.9030, 0.5018310
447.3852, 1.897949
447.8673, 3.506607
448.3494, 4.862228
448.8315, 5.420624
449.3136, 5.051697
449.7957, 4.091141
450.2779, 1.150253
450.7600, 1.014191
451.2421, 1.051025
451.7242, 0.4105380
452.2063, 0.2032620
452.6884, 2.910431
453.1706, 4.676331
453.6527, 5.190628
454.1348, 0.6975400
454.6169, 2.676041
455.0990, 2.108704
455.5811, 1.384384
456.0633, 4.284317
456.5454, 0.5152740
457.0275, 3.333313
457.5096, 3.533340
457.9917, 4.946472
458.4738, 3.761276
458.9560, 3.415558
459.4381, 5.721207
459.9202, 6.550568
460.4023, 5.072189
460.8844, 6.570526
461.3665, 2.745926
461.8487, 3.634003
462.3308, 6.533966
462.8129, 5.152664
463.2950, 6.652390
463.7771, 7.076187
464.2592, 2.489838
464.7414, 6.637085
465.2235, 6.974991
465.7056, 3.410553
466.1877, 7.217911
466.6698, 4.191650
467.1519, 3.601288
467.6341, 4.836502
468.1162, 4.148743
468.5983, 6.491592
469.0804, 5.958466
469.5625, 5.181992
470.0446, 5.548645
470.5268, 4.833077
471.0089, 5.808807
471.4910, 4.759232
471.9731, 5.723297
472.4552, 7.207779
472.9373, 5.206451
473.4195, 6.895859
473.9016, 2.806992
474.3837, 3.527359
474.8658, 3.747345
475.3479, 7.083801
475.8300, 3.065506
476.3122, 3.693497
476.7943, 6.300415
477.2764, 6.127426
477.7585, 7.103592
478.2406, 4.643188
478.7227, 5.407089
479.2049, 5.249115
479.6870, 8.136307
480.1691, 8.588394
480.6512, 6.133453
481.1333, 3.742828
481.6154, 6.946365
482.0976, 4.855164
482.5797, 5.584976
483.0618, 3.363129
483.5439, 3.645477
484.0260, 3.848984
484.5081, 5.338791
484.9902, 5.015694
485.4724, 5.569962
485.9545, 5.300247
486.4366, 5.911057
486.9187, 6.452332
487.4008, 3.040054
487.8829, 2.875198
488.3651, 7.330093
488.8472, 4.608582
489.3293, 3.335709
489.8114, 3.139374
490.2935, 7.744064
490.7756, 7.882797
491.2578, 2.601425
491.7399, 6.835419
492.2220, 5.171906
492.7041, 5.295914
493.1862, 4.832016
493.6683, 4.610275
494.1505, 4.762451
494.6326, 2.530853
495.1147, 5.656067
495.5968, 4.380493
496.0789, 6.092575
496.5610, 2.354980
497.0432, 1.849075
497.5253, 2.172485
498.0074, 2.782532
498.4895, 0.9387660
498.9716, 6.014511
499.4537, 6.085068
499.9359, 7.308929
500.4180, 5.922653
500.9001, 5.389297
501.3822, 7.484131
501.8643, 8.133148
502.3464, 6.496094
502.8286, 7.821503
503.3107, 3.758179
503.7928, 4.360886
504.2749, 7.013702
504.7570, 5.495148
505.2391, 6.908936
505.7213, 7.216293
506.2034, 2.496780
506.6855, 6.519791
507.1676, 6.762009
507.6497, 3.126411
508.1318, 6.837990
508.6140, 3.610474
509.0961, 2.815788
509.5782, 3.937775
510.0603, 3.116119
510.5424, 5.390228
511.0245, 4.755806
511.5067, 3.862030
511.9888, 4.062180
512.4709, 3.264605
512.9530, 4.072342
513.4351, 2.970116
513.9172, 3.907631
514.3994, 5.248512
514.8815, 3.352501
515.3636, 2.718185
515.8457, 1.952148
516.3278, 0.5878520
516.8099, 0.2726210
517.2921, 0.2625120
517.7742, 1.420006
518.2563, 1.916946
518.7384, 1.161934
519.2205, 0.2186280
519.7026, 0.4429700
520.1848, 1.651733
520.6669, 2.345428
521.1490, 1.994202
521.6311, 1.496178
522.1132, 1.854202
522.5953, 2.925697
523.0775, 3.870743
523.5596, 4.692314
524.0417, 5.212013
524.5238, 5.251022
525.0059, 4.881973
525.4880, 4.223488
525.9702, 3.293587
526.4523, 2.292824
526.9344, 1.527428
527.4165, 1.004326
527.8986, 0.7746050
528.3807, 1.138199
528.8629, 1.636131
529.3450, 1.757637
529.8271, 1.733246
530.3092, 2.274132
530.7913, 3.793823
531.2734, 5.459648
531.7556, 5.329521
532.2377, 2.534508
532.7198, 0.6215210
533.2019, 0.6276780
533.6840, 1.208885
534.1661, 1.935081
534.6483, 2.685982
535.1304, 3.229942
535.6125, 3.265251
536.0946, 3.123222
536.5767, 3.716141
537.0588, 5.114136
537.5410, 5.572899
538.0231, 3.831146
538.5052, 1.338066
538.9873, 0.4240570
539.4694, 1.266159
539.9515, 2.210411
540.4337, 2.585884
540.9158, 2.976845
541.3979, 4.471375
541.8800, 6.791649
542.3621, 8.297722
542.8442, 7.838264
543.3264, 6.018944
543.8085, 4.653709
544.2906, 3.791222
544.7726, 3.481972
545.2548, 3.667809
545.7369, 4.182838
546.2190, 5.227516
546.7011, 6.662300
547.1832, 8.243423
547.6653, 9.889046
548.1475, 11.48874
548.6296, 12.28507
549.1117, 11.76415
549.5938, 11.55148
550.0759, 12.30717
550.5580, 13.36300
551.0402, 14.48810
551.5223, 15.59142
552.0044, 16.00861
552.4865, 14.90362
552.9686, 13.01758
553.4507, 11.71671
553.9329, 11.09217
554.4150, 10.71747
554.8971, 10.51331
555.3792, 10.38468
555.8613, 9.992401
556.3434, 9.058929
556.8256, 8.519936
557.3077, 8.878029
557.7898, 9.327301
558.2719, 8.910553
558.7540, 7.765045
559.2361, 6.910538
559.7183, 7.099602
560.2004, 7.997902
560.6825, 8.210670
561.1646, 7.107170
561.6467, 6.336327
562.1288, 6.087715
562.6110, 6.142616
563.0931, 6.644646
563.5752, 7.402702
564.0573, 7.667221
564.5394, 6.564201
565.0215, 4.905861
565.5037, 5.352379
565.9858, 8.473343
566.4679, 10.25050
566.9500, 8.189529
567.4321, 4.971199
567.9142, 4.290482
568.3964, 6.360176
568.8785, 8.217613
569.3606, 8.937111
569.8427, 8.944603
570.3248, 8.439293
570.8069, 7.626259
571.2891, 6.719696
571.7712, 5.879318
572.2533, 5.123810
572.7354, 4.455116
573.2175, 3.493225
573.6996, 3.372604
574.1818, 4.782501
574.6639, 6.321602
575.1460, 7.455879
575.6281, 8.066994
576.1102, 7.995186
576.5923, 7.037567
577.0745, 5.644081
577.5566, 4.924324
578.0387, 5.041214
578.5208, 5.072845
579.0029, 4.681969
579.4850, 4.292130
579.9672, 4.436028
580.4493, 4.940628
580.9314, 5.003952
581.4135, 3.864120
581.8956, 2.540184
582.3777, 1.935303
582.8599, 1.975121
583.3420, 2.612190
583.8241, 3.999229
584.3062, 5.132454
584.7883, 4.529182
585.2704, 1.687332
585.7526, 0.4596560
586.2347, 1.781853
586.7168, 2.585495
587.1989, 3.248238
587.6810, 3.425438
588.1631, 2.165611
588.6453, 0.8029630
589.1274, 3.987259
589.6095, 5.001587
590.0916, 3.514801
590.5737, 2.598572
591.0558, 2.676285
591.5380, 2.908569
592.0201, 2.833618
592.5022, 2.659058
592.9843, 2.723038
593.4664, 3.149857
593.9485, 3.615906
594.4307, 4.033325
594.9128, 4.300674
595.3949, 4.051910
595.8770, 3.191269
596.3591, 2.196152
596.8412, 1.389328
597.3234, 0.8503720
597.8055, 0.7869570
598.2876, 1.490387
598.7697, 2.174072
599.2518, 2.921356
599.7339, 3.476761
600.2161, 3.631622
600.6982, 3.338791
601.1803, 2.519363
601.6624, 0.9100340
602.1445, 1.104370
602.6266, 1.576279
603.1088, 0.1198270
603.5909, 1.762558
604.0730, 3.289429
604.5551, 4.161575
605.0372, 3.459137
605.5193, 1.383469
606.0015, 0.1478420
606.4836, 4.7318000E-02
606.9657, 1.096436
607.4478, 2.375229
607.9299, 3.686462
608.4120, 3.764297
608.8942, 1.856506
609.3763, 0.6884310
609.8584, 1.819580
610.3405, 1.150146
610.8226, 0.3124390
611.3047, 0.8944550
611.7869, 2.056137
612.2690, 3.214188
612.7511, 4.132187
613.2332, 4.381302
613.7153, 3.813904
614.1974, 2.868439
614.6796, 1.877853
615.1617, 0.7830200
615.6438, 0.9431300
616.1259, 3.073517
616.6080, 5.294189
617.0901, 7.346756
617.5723, 8.665390
618.0544, 7.927231
618.5365, 4.198563
619.0186, 1.096512
619.5007, 1.117264
619.9828, 2.933121
620.4650, 4.654144
620.9471, 6.014420
621.4292, 7.014771
621.9113, 7.554398
622.3934, 7.858597
622.8755, 8.798187
623.3577, 11.70226
623.8398, 13.31197
624.3219, 12.79176
624.8040, 11.66722
625.2861, 10.57126
625.7682, 9.755081
626.2504, 9.537384
626.7325, 10.17859
627.2145, 11.28943
627.6967, 12.01274
628.1788, 12.30650
628.6609, 13.40594
629.1430, 16.02890
629.6251, 18.77376
630.1072, 20.63916
630.5894, 21.64783
631.0715, 21.61400
631.5536, 18.78319
632.0357, 16.80905
632.5178, 18.18150
632.9999, 21.37933
633.4821, 24.28279
633.9642, 26.31523
634.4463, 27.46027
634.9284, 27.53297
635.4105, 26.65802
635.8926, 26.66629
636.3748, 27.85648
636.8569, 29.50061
637.3390, 32.20332
637.8211, 34.72632
638.3032, 35.55812
638.7853, 34.93520
639.2675, 35.09349
639.7496, 38.35803
640.2317, 42.65302
640.7138, 44.50346
641.1959, 44.06340
641.6780, 43.21979
642.1602, 42.29288
642.6423, 42.07996
643.1244, 44.03262
643.6065, 48.69382
644.0886, 51.32269
644.5707, 50.07784
645.0529, 48.92915
645.5350, 49.54742
646.0171, 51.38785
646.4992, 53.90700
646.9813, 56.60782
647.4634, 58.79553
647.9456, 59.39107
648.4277, 58.61438
648.9098, 59.14862
649.3919, 61.61671
649.8740, 63.76990
650.3561, 64.49762
650.8383, 64.60825
651.3204, 65.04697
651.8025, 62.41661
652.2846, 66.03984
652.7667, 68.23871
653.2488, 69.08421
653.7310, 64.81776
654.2131, 66.92799
654.6952, 66.34541
655.1773, 65.55200
655.6594, 68.27245
656.1415, 64.24596
656.6237, 66.72099
657.1058, 66.46356
657.5879, 67.31631
658.0700, 65.61353
658.5521, 64.63577
659.0342, 66.01695
659.5164, 64.18303
659.9985, 62.04770
660.4806, 59.81160
660.9627, 58.71355
661.4448, 58.31679
661.9269, 57.85510
662.4091, 57.29269
662.8912, 56.45419
663.3733, 55.29227
663.8554, 53.70148
664.3375, 51.45326
664.8196, 48.00597
665.3018, 45.52252
665.7839, 44.55640
666.2660, 44.04474
666.7481, 43.57620
667.2302, 43.06845
667.7123, 42.84695
668.1945, 43.06099
668.6766, 42.68539
669.1587, 39.62981
669.6408, 34.19110
670.1229, 31.42599
670.6050, 32.31021
671.0872, 33.38094
671.5693, 32.85736
672.0514, 31.52057
672.5335, 30.68074
673.0156, 30.39113
673.4977, 30.40707
673.9799, 31.60233
674.4620, 32.30594
674.9441, 30.49290
675.4262, 26.97273
675.9083, 24.14471
676.3904, 23.06520
676.8726, 22.83873
677.3547, 21.95847
677.8368, 20.23097
678.3189, 19.16559
678.8010, 19.22064
679.2831, 19.36674
679.7653, 19.22124
680.2474, 18.80185
680.7295, 18.06941
681.2116, 17.01900
681.6937, 16.10429
682.1758, 15.38130
682.6580, 15.05125
683.1401, 15.89175
683.6222, 17.54451
684.1043, 18.07120
684.5864, 16.47635
685.0685, 13.93153
685.5507, 12.48978
686.0328, 12.50717
686.5149, 12.20714
686.9970, 11.18518
687.4791, 10.29810
687.9612, 9.798981
688.4434, 9.572357
688.9255, 9.622635
689.4076, 9.928238
689.8897, 9.880844
690.3718, 8.549637
690.8539, 6.707825
691.3361, 6.042435
691.8182, 6.536331
692.3003, 6.936142
692.7824, 6.706375
693.2645, 6.102997
693.7466, 5.476974
694.2288, 4.739548
694.7109, 4.380859
695.1930, 4.333496
695.6751, 4.708267
696.1572, 6.390579
696.6393, 8.111252
697.1215, 7.941849
697.6036, 5.616425
698.0857, 3.170166
698.5678, 2.648621
699.0499, 3.354919
699.5320, 3.050491
700.0142, 1.669739
700.4963, 0.8605650
700.9784, 1.418579
701.4605, 2.479385
701.9426, 2.970596
702.4247, 2.858261
702.9069, 2.215790
703.3890, 2.557672
703.8711, 1.296616
704.3532, 2.123779
704.8353, 2.163422
705.3174, 1.011902
705.7996, 1.139420
706.2817, 1.141710
706.7638, 1.266097
707.2459, 2.149765
707.7280, 2.428650
708.2101, 4.134048
708.6923, 5.147675
709.1743, 4.663727
709.6564, 3.600922
710.1385, 2.890152
710.6207, 2.499512
711.1028, 2.049805
711.5849, 1.219040
712.0670, 0.6727450
712.5491, 0.7865600
713.0313, 1.246155
713.5134, 2.122162
713.9955, 3.108688
714.4776, 2.863876
714.9597, 7.1381003E-02
715.4418, 4.100632
715.9240, 4.465012
716.4061, 0.6571960
716.8882, 2.421677
717.3703, 3.904037
717.8524, 4.327454
718.3345, 3.556152
718.8167, 2.023987
719.2988, 1.258713
719.7809, 1.907181
720.2630, 2.538651
720.7451, 2.833374
721.2272, 2.772369
721.7094, 2.049469
722.1915, 0.9052890
722.6736, 0.2172700
723.1557, 0.5621030
723.6378, 1.316147
724.1199, 1.082870
724.6021, 1.364617
725.0842, 1.094757
725.5663, 1.302368
726.0484, 0.9080960
726.5305, 0.7409060
727.0126, 2.788681
727.4948, 3.299957
727.9769, 1.489914
728.4590, 0.2942810
728.9411, 1.233826
729.4232, 2.583649
729.9053, 2.634995
730.3875, 1.891724
730.8696, 2.052139
731.3517, 3.816055
731.8338, 5.856064
732.3159, 6.074875
732.7980, 4.477112
733.2802, 3.834579
733.7623, 4.588898
734.2444, 5.057663
734.7265, 4.565002
735.2086, 3.374161
735.6907, 3.451353
736.1729, 2.903117
736.6550, 2.396927
737.1371, 2.138885
737.6192, 1.207733
738.1013, 1.757436
738.5834, 1.542847
739.0656, 2.719360
739.5477, 3.548904
740.0298, 4.039139
740.5119, 4.133163
740.9940, 3.933578
741.4761, 3.967392
741.9583, 4.355530
742.4404, 4.169449
742.9225, 2.595047
743.4046, 1.164383
743.8867, 1.831100
744.3688, 4.150131
744.8510, 5.560043
745.3331, 5.133942
745.8152, 4.677856
746.2973, 4.691772
746.7794, 5.020966
747.2615, 5.841949
747.7437, 6.870697
748.2258, 7.145081
748.7079, 5.966263
749.1900, 4.248642
749.6721, 3.760590
750.1542, 4.479752
750.6364, 4.957382
751.1185, 4.934723
751.6006, 4.971237
752.0827, 5.442917
752.5648, 6.214798
753.0469, 6.979752
753.5291, 7.958984
754.0112, 8.360779
754.4933, 7.328766
754.9754, 6.426804
755.4575, 6.833359
755.9396, 8.000534
756.4218, 8.786880
756.9039, 8.845291
757.3860, 8.946671
757.8681, 10.26030
758.3502, 12.27422
758.8323, 12.95599
759.3145, 12.23810
759.7966, 11.76143
760.2787, 12.34192
760.7608, 12.90201
761.2429, 11.77365
761.7250, 8.622742
762.2072, 7.283401
762.6893, 9.339432
763.1714, 11.14098
763.6535, 11.72829
764.1356, 11.70909
764.6177, 11.48627
765.0999, 11.22879
765.5820, 11.13994
766.0641, 11.19847
766.5462, 11.73247
767.0283, 13.87088
767.5104, 16.92598
767.9926, 17.98586
768.4747, 16.53253
768.9568, 14.65277
769.4389, 13.74452
769.9210, 13.61586
770.4031, 13.67789
770.8853, 13.98830
771.3674, 14.38043
771.8495, 14.93253
772.3316, 15.48038
772.8137, 15.93529
773.2958, 16.19391
773.7780, 16.47867
774.2601, 16.98346
774.7422, 17.48886
775.2243, 18.24411
775.7064, 18.74091
776.1885, 17.96172
776.6707, 16.30038
777.1528, 15.21098
777.6349, 15.19920
778.1170, 15.74529
778.5991, 16.32930
779.0812, 16.92317
779.5634, 16.87085
780.0455, 15.84909
780.5276, 14.88710
781.0097, 13.82884
781.4918, 13.28320
781.9739, 14.45456
782.4561, 16.68158
782.9382, 17.11255
783.4203, 13.32349
783.9024, 10.36008
784.3845, 11.43340
784.8666, 14.09285
785.3488, 15.92622
785.8309, 16.59099
786.3130, 16.21141
786.7951, 14.79329
787.2772, 13.13626
787.7593, 12.68318
788.2415, 13.40831
788.7236, 14.22104
789.2057, 15.25743
789.6878, 15.59904
790.1699, 14.33987
790.6520, 12.58817
791.1342, 12.33551
791.6162, 13.92989
792.0983, 15.11038
792.5804, 15.58664
793.0626, 15.82600
793.5447, 16.24324
794.0268, 16.36449
794.5089, 15.24750
794.9910, 13.13461
795.4731, 11.60014
795.9553, 11.83604
796.4374, 12.93814
796.9195, 13.97832
797.4016, 14.78813
797.8837, 14.17711
798.3658, 11.86522
798.8480, 10.22217
799.3301, 11.19542
799.8122, 13.84651
800.2943, 15.00021
800.7764, 13.81723
801.2585, 12.94795
801.7407, 12.51019
802.2228, 12.29095
802.7049, 12.35724
803.1870, 12.54005
803.6691, 12.54160
804.1512, 12.29442
804.6334, 12.29822
805.1155, 13.26343
805.5976, 14.22179
806.0797, 14.23109
806.5618, 13.54757
807.0439, 12.48703
807.5261, 11.23736
808.0082, 10.44427
808.4903, 10.99757
808.9724, 12.22664
809.4545, 12.11498
809.9366, 10.40183
810.4188, 9.440155
810.9009, 9.760368
811.3830, 10.72247
811.8651, 12.37072
812.3472, 14.24074
812.8293, 14.64167
813.3115, 12.63737
813.7936, 11.23740
814.2757, 11.37319
814.7578, 11.71684
815.2399, 11.70707
815.7220, 11.23625
816.2042, 9.948822
816.6863, 7.814339
817.1684, 6.345123
817.6505, 7.339233
818.1326, 9.572197
818.6147, 10.96358
819.0969, 11.45396
819.5790, 11.66438
820.0611, 11.75463
820.5432, 11.45750
821.0253, 10.31912
821.5074, 8.683372
821.9896, 8.862457
822.4717, 12.39576
822.9538, 14.33822
823.4359, 12.71358
823.9180, 10.76333
824.4001, 10.44698
824.8823, 11.06107
825.3644, 11.09928
825.8465, 10.15713
826.3286, 9.370323
826.8107, 9.447884
827.2928, 9.599541
827.7750, 8.950905
828.2571, 7.958069
828.7392, 7.666031
829.2213, 8.284470
829.7034, 9.004761
830.1855, 9.009575
830.6677, 8.564827
831.1498, 8.513481
831.6319, 8.783791
832.1140, 8.983376
832.5961, 9.110313
833.0782, 9.068748
833.5604, 8.731720
834.0425, 8.177162
834.5246, 7.679916
835.0067, 6.776436
835.4888, 6.690002
835.9709, 8.689240
836.4531, 10.08560
836.9352, 9.216202
837.4173, 7.239326
837.8994, 5.764458
838.3815, 5.047859
838.8636, 4.807709
839.3458, 5.418259
839.8279, 6.012100
840.3100, 5.457672
840.7921, 4.389175
841.2742, 4.151138
841.7563, 4.958710
842.2385, 6.058266
842.7206, 6.941795
843.2027, 7.476257
843.6848, 7.152855
844.1669, 5.969391
844.6490, 5.681671
845.1312, 6.835892
845.6133, 7.329498
846.0954, 5.665634
846.5775, 2.806023
847.0596, 0.7182390
847.5417, 0.6409910
848.0239, 1.036064
848.5060, 0.1082760
848.9881, 1.443153
849.4702, 2.983665
849.9523, 4.226982
850.4344, 4.427147
850.9166, 3.691040
851.3987, 3.133934
851.8808, 3.280617
852.3629, 3.786652
852.8450, 4.725548
853.3271, 5.681023
853.8093, 5.760864
854.2914, 5.029152
854.7735, 4.523300
855.2556, 4.848465
855.7377, 5.401375
856.2198, 5.191467
856.7020, 4.313942
857.1841, 3.192802
857.6662, 1.493889
858.1483, 0.7277600
858.6304, 1.880913
859.1125, 3.550064
859.5947, 4.052719
860.0768, 3.380997
860.5589, 2.837715
861.0410, 2.755722
861.5231, 2.351158
862.0052, 0.8969190
862.4874, 0.3128130
862.9695, 0.3605350
863.4516, 0.4643630
863.9337, 1.707489
864.4158, 3.497803
864.8979, 4.263435
865.3801, 1.411995
865.8622, 1.676666
866.3443, 0.3890910
866.8264, 3.575630
867.3085, 5.572342
867.7906, 4.372047
868.2728, 2.402809
868.7549, 1.917877
869.2370, 2.342888
869.7191, 1.895531
870.2012, 0.5904850
870.6833, 0.1979680
871.1655, 0.1858900
871.6476, 5.7022002E-02
872.1297, 0.1511990
872.6118, 0.2203670
873.0939, 0.6731950
873.5760, 0.2469940
874.0581, 2.206627
874.5402, 0.5055390
875.0223, 2.537849
875.5045, 3.153305
875.9866, 2.485100
876.4687, 0.2929920
876.9508, 4.661980
877.4329, 6.893089
877.9150, 4.168564
878.3972, 1.082878
878.8793, 0.1048430
879.3614, 4.0367000E-02
879.8435, 0.5700910
880.3256, 1.560677
880.8077, 1.865173
881.2899, 0.9846040
881.7720, 0.3571620
882.2541, 1.592850
882.7362, 2.580307
883.2183, 2.596413
883.7004, 1.745964
884.1826, 1.207993
884.6647, 1.367302
885.1468, 1.661797
885.6289, 1.458504
886.1110, 0.9787060
886.5931, 1.659279
887.0753, 4.492592
887.5574, 5.380669
888.0395, 2.488449
888.5216, 0.2170720
889.0037, 0.3117140
889.4858, 1.040329
889.9680, 2.024208
890.4501, 2.623444
890.9322, 2.713440
891.4143, 1.699020
891.8964, 0.8909300
892.3785, 1.055351
892.8607, 1.545822
893.3428, 1.734428
893.8249, 1.565979
894.3070, 1.172760
894.7891, 0.4561230
895.2712, 3.4446999E-02
895.7534, 0.6831740
896.2355, 1.840393
896.7176, 2.557320
897.1997, 2.940628
897.6818, 3.948814
898.1639, 5.882217
898.6461, 7.241478
899.1282, 5.977638
899.6103, 2.885147
900.0924, 1.580193
900.5745, 2.168472
901.0566, 2.201248
901.5388, 0.9720760
902.0209, 0.1118390
902.5030, 1.046761
902.9851, 2.966270
903.4672, 3.519707
903.9493, 2.053024
904.4315, 1.073135
904.9136, 0.6829070
905.3957, 0.6263730
905.8778, 1.144836
906.3599, 1.805405
906.8420, 1.920647
907.3242, 1.582443
907.8063, 1.713356
908.2884, 2.871155
908.7705, 4.073578
909.2526, 5.601852
909.7347, 6.439644
910.2169, 4.894928
910.6990, 2.120491
911.1811, 0.8016280
911.6632, 1.828690
912.1453, 3.277847
912.6274, 3.932358
913.1096, 3.776329
913.5917, 2.050690
914.0738, 0.4412160
914.5559, 1.275444
915.0380, 5.3986002E-02
915.5201, 1.806648
916.0023, 3.379639
916.4844, 4.580070
916.9665, 5.303909
917.4486, 5.548447
917.9307, 5.002533
918.4128, 3.504639
918.8950, 2.054893
919.3771, 0.9501040
919.8592, 0.2808690
920.3413, 0.2295680
920.8234, 0.8119350
921.3055, 1.254303
921.7877, 1.154037
922.2698, 1.541847
922.7519, 3.481529
923.2340, 4.944046
923.7161, 3.966255
924.1982, 2.138962
924.6804, 2.166420
925.1625, 4.637245
925.6446, 6.475052
926.1267, 6.791298
926.6088, 6.458366
927.0909, 5.451057
927.5731, 4.334190
928.0552, 3.647133
928.5373, 3.404350
929.0194, 3.468941
929.5015, 3.821182
929.9836, 4.300423
930.4658, 5.020767
930.9479, 5.689186
931.4300, 5.685226
931.9121, 5.069786
932.3942, 4.233589
932.8763, 3.304932
933.3585, 2.841896
933.8406, 3.532867
934.3227, 4.946159
934.8048, 5.670479
935.2869, 5.693054
935.7690, 4.835381
936.2512, 3.020050
936.7333, 1.491478
937.2154, 0.9010390
937.6975, 1.257370
938.1796, 2.972961
938.6617, 2.323215
939.1439, 6.733528
939.6260, 2.823959
940.1081, 0.4628680
940.5902, 1.405037
941.0723, 3.598106
941.5544, 6.068069
942.0366, 8.450882
942.5187, 9.498947
943.0008, 8.982262
943.4829, 7.755424
943.9650, 4.631142
944.4471, 2.278641
944.9293, 2.163612
945.4114, 2.962273
945.8935, 3.452942
946.3756, 3.434586
946.8577, 3.066978
947.3398, 1.820435
947.8220, 1.376556
948.3041, 3.456421
948.7862, 5.891426
949.2683, 6.809364
949.7504, 6.501770
950.2325, 5.870979
950.7147, 5.178452
951.1968, 4.202858
951.6789, 2.380234
952.1610, 0.6107600
952.6431, 6.0008999E-02
953.1252, 0.1893810
953.6074, 1.332600
954.0895, 3.122978
954.5716, 4.731167
955.0537, 5.754211
955.5358, 6.036903
956.0179, 4.926342
956.5000, 2.905361
956.9821, 2.469219
957.4642, 3.528191
957.9464, 3.907772
958.4285, 3.082039
958.9106, 1.982578
959.3927, 1.257904
959.8748, 0.8383670
960.3569, 0.6999130
960.8391, 0.9182850
961.3212, 0.9035760
961.8033, 0.4884640
962.2854, 0.2297330
962.7675, 0.2311970
963.2496, 0.6606790
963.7318, 2.073517
964.2139, 4.180283
964.6960, 4.772884
965.1781, 2.436565
965.6602, 0.8898960
966.1423, 0.1374510
966.6245, 0.2198910
967.1066, 1.998489
967.5887, 4.110394
968.0708, 4.637245
968.5529, 3.556919
969.0350, 3.001122
969.5172, 3.946877
969.9993, 4.813179
970.4814, 5.344349
970.9635, 5.360149
971.4456, 4.410927
971.9277, 2.864029
972.4099, 1.428619
972.8920, 0.4167060
973.3741, 4.1641001E-02
973.8562, 0.3540460
974.3383, 1.015633
974.8204, 1.844559
975.3026, 2.433250
975.7847, 1.781719
976.2668, 0.3317870
976.7489, 0.2191050
977.2310, 0.8974230
977.7131, 2.432377
978.1953, 3.425339
978.6774, 3.879704
979.1595, 3.393143
979.6416, 2.357002
980.1237, 2.040562
980.6058, 2.645817
981.0880, 3.564480
981.5701, 4.464279
982.0522, 4.961742
982.5343, 4.088638
983.0164, 2.208904
983.4985, 1.143124
983.9807, 0.9371800
984.4628, 1.613262
984.9449, 3.240841
985.4270, 4.991119
985.9091, 6.262951
986.3912, 6.891083
986.8734, 6.207565
987.3555, 4.036736
987.8376, 1.756310
988.3197, 1.070999
988.8018, 1.789993
989.2839, 1.481148
989.7661, 2.179690
990.2482, 2.088742
990.7303, 1.982053
991.2124, 2.111416
991.6945, 2.005711
992.1766, 2.201668
992.6588, 3.001087
993.1409, 3.555786
993.6230, 3.427284
994.1051, 2.906097
994.5872, 2.239815
995.0693, 1.440212
995.5515, 1.009148
996.0336, 1.155788
996.5157, 1.382420
996.9978, 1.559464
997.4799, 1.866074
997.9620, 2.807671
998.4442, 3.749859
998.9263, 3.448418
999.4084, 1.784496
999.8905, 0.7841070
1000.373, 1.272961
1000.855, 2.070099
1001.337, 3.292557
1001.819, 4.177612
1002.301, 3.759853
1002.783, 2.659920
1003.265, 2.191456
1003.747, 2.651669
1004.230, 2.901154
1004.712, 1.989338
1005.194, 1.132954
1005.676, 1.119404
1006.158, 1.623642
1006.640, 2.498413
1007.122, 3.466915
1007.604, 3.933102
1008.086, 3.693310
1008.569, 3.397564
1009.051, 3.656387
1009.533, 4.009201
1010.015, 3.817154
1010.497, 3.425117
1010.979, 3.591732
1011.461, 4.214890
1011.943, 4.493393
1012.426, 4.046398
1012.908, 3.469692
1013.390, 3.584663
1013.872, 3.895267
1014.354, 3.131325
1014.836, 1.826096
1015.318, 1.891884
1015.800, 3.246933
1016.282, 4.267338
1016.765, 4.054024
1017.247, 3.191757
1017.729, 2.194744
1018.211, 1.269913
1018.693, 1.347664
1019.175, 2.269741
1019.657, 3.060799
1020.139, 3.502567
1020.622, 3.565510
1021.104, 3.198719
1021.586, 2.660126
1022.068, 2.485683
1022.550, 2.602261
1023.032, 2.071156
1023.514, 0.8696370
1023.996, 0.3546750
1024.478, 0.9393390
1024.961, 1.417046
1025.443, 0.8481060
1025.925, 0.2487950
1026.407, 0.7208440
1026.889, 0.5414920
1027.371, 0.2733350
1027.853, 4.4296000E-02
1028.335, 0.7111850
1028.818, 1.828976
1029.300, 3.329159
1029.782, 5.419384
1030.264, 7.469666
1030.746, 7.771305
1031.228, 5.800148
1031.710, 3.876369
1032.192, 1.670475
1032.674, 0.5584450
1033.156, 1.220081
1033.639, 2.496449
1034.121, 3.706955
1034.603, 4.665009
1035.085, 4.749626
1035.567, 3.529873
1036.049, 3.089123
1036.531, 3.985077
1037.013, 4.567944
1037.496, 4.174419
1037.978, 3.628178
1038.460, 3.614151
1038.942, 3.981926
1039.424, 4.198372
1039.906, 4.062592
1040.388, 4.053215
1040.870, 4.480007
1041.353, 4.576557
1041.835, 3.579388
1042.317, 2.780472
1042.799, 3.357510
1043.281, 4.814579
1043.763, 5.533409
1044.245, 5.223164
1044.727, 5.000202
1045.209, 5.059734
1045.692, 5.012089
1046.174, 4.713634
1046.656, 4.232864
1047.138, 3.423290
1047.620, 2.551910
1048.102, 2.658073
1048.584, 4.204754
1049.066, 5.264553
1049.548, 5.259373
1050.031, 5.160477
1050.513, 5.523094
1050.995, 5.697247
1051.477, 4.852005
1051.959, 3.444481
1052.441, 2.698601
1052.923, 2.921982
1053.405, 3.091309
1053.888, 2.898399
1054.370, 2.743221
1054.852, 2.424999
1055.334, 2.514240
1055.816, 4.227261
1056.298, 6.550030
1056.780, 6.796791
1057.262, 4.097874
1057.745, 2.512985
1058.227, 4.419914
1058.709, 6.097889
1059.191, 6.013531
1059.673, 4.999908
1060.155, 3.157547
1060.637, 1.154770
1061.119, 0.2848210
1061.601, 0.8633380
1062.083, 1.592808
1062.566, 2.200645
1063.048, 2.648457
1063.530, 2.967743
1064.012, 3.082699
1064.494, 2.615288
1064.976, 2.008144
1065.458, 2.238853
1065.940, 3.514549
1066.423, 4.408707
1066.905, 4.466480
1067.387, 3.905247
1067.869, 1.820999
1068.351, 7.5080998E-02
1068.833, 0.8837430
1069.315, 2.953018
1069.797, 3.592907
1070.280, 2.395073
1070.762, 1.651291
1071.244, 3.467472
1071.726, 4.415131
1072.208, 1.369015
1072.690, 1.701180
1073.172, 0.7774930
1073.654, 2.215321
1074.136, 3.805099
1074.619, 3.561123
1075.101, 2.847317
1075.583, 1.628178
1076.065, 1.154720
1076.547, 2.851727
1077.029, 4.671101
1077.511, 5.036175
1077.993, 4.455368
1078.475, 3.598919
1078.958, 2.712219
1079.440, 2.299698
1079.922, 2.771904
1080.404, 3.234192
1080.886, 3.493427
1081.368, 3.352264
1081.850, 2.331329
1082.332, 1.052834
1082.814, 0.2211760
1083.297, 6.3858002E-02
1083.779, 9.6061997E-02
1084.261, 0.7813840
1084.743, 1.530624
1085.225, 2.032242
1085.707, 2.627659
1086.189, 4.401711
1086.671, 5.764713
1087.154, 4.007572
1087.636, 0.1838650
1088.118, 1.661388
1088.600, 2.0904999E-02
1089.082, 1.579937
1089.564, 1.502575
1090.046, 1.207741
1090.528, 1.522114
1091.010, 2.009460
1091.493, 2.221058
1091.975, 2.203480
1092.457, 2.025005
1092.939, 1.638245
1093.421, 2.006767
1093.903, 4.523258
1094.385, 6.528694
1094.867, 7.058533
1095.349, 6.345406
1095.832, 3.293446
1096.314, 0.3150710
1096.796, 0.9225650
1097.278, 1.993343
1097.760, 4.279079
1098.242, 4.322723
1098.724, 3.466305
1099.206, 1.014126
1099.689, 0.6415140
1100.171, 1.149483
1100.653, 4.205887
1101.135, 5.124237
1101.617, 3.787209
1102.099, 2.922646
1102.581, 3.884144
1103.063, 4.138485
1103.546, 1.986038
1104.028, 0.2497940
1104.510, 0.9507330
1104.992, 2.476551
1105.474, 2.811237
1105.956, 2.188026
1106.438, 2.445450
1106.920, 4.409420
1107.402, 5.881256
1107.885, 6.766365
1108.367, 6.796104
1108.849, 4.872070
1109.331, 2.924942
1109.813, 2.926582
1110.295, 4.200748
1110.777, 4.709244
1111.259, 4.063744
1111.741, 3.741959
1112.224, 4.156006
1112.706, 4.469482
1113.188, 4.718170
1113.670, 4.604237
1114.152, 3.726597
1114.634, 2.450302
1115.116, 1.262985
1115.598, 0.1054760
1116.081, 0.1690980
1116.563, 1.323181
1117.045, 2.132710
1117.527, 1.284981
1118.009, 0.8213730
1118.491, 1.993351
1118.973, 3.748550
1119.455, 4.905758
1119.938, 5.467064
1120.420, 5.466972
1120.902, 4.828411
1121.384, 3.685108
1121.866, 1.176422
1122.348, 0.1502340
1122.830, 2.518528
1123.312, 4.960693
1123.794, 4.021191
1124.276, 1.076458
1124.759, 0.6771810
1125.241, 3.507259
1125.723, 4.871338
1126.205, 4.366909
1126.687, 3.994602
1127.169, 4.348305
1127.651, 4.395615
1128.133, 3.364853
1128.616, 1.785908
1129.098, 0.4423220
1129.580, 0.6010250
1130.062, 0.2344090
1130.544, 0.3726311
1131.026, 0.5460135
1131.508, 0.8098830
1131.990, 1.285599
1132.473, 0.5504260
1132.955, 1.335102
1133.437, 2.422626
1133.919, 3.033104
1134.401, 4.591736
1134.883, 6.910755
1135.365, 7.552887
1135.847, 6.425014
1136.329, 4.648037
1136.812, 2.605850
1137.294, 1.361050
1137.776, 1.867123
1138.258, 0.9013980
1138.740, 2.727287
1139.222, 1.576637
1139.704, 2.117310
1140.186, 4.018101
1140.668, 6.014874
1141.151, 7.672462
1141.633, 7.955582
1142.115, 6.320374
1142.597, 4.452545
1143.079, 4.612293
1143.561, 5.386719
1144.043, 3.716713
1144.525, 4.577579
1145.008, 1.627293
1145.490, 4.247169
1145.972, 5.161133
1146.454, 3.630150
1146.936, 2.518345
1147.418, 4.130375
1147.900, 6.238575
1148.382, 7.213024
1148.865, 7.075626
1149.347, 5.021351
1149.829, 2.284958
1150.311, 0.9653740
1150.793, 1.151337
1151.275, 1.641506
1151.757, 2.044315
1152.239, 2.250031
1152.721, 2.003700
1153.203, 1.768429
1153.686, 2.322781
1154.168, 2.620049
1154.650, 0.7221720
1155.132, 1.941406
1155.614, 2.060192
1156.096, 1.012203
1156.578, 3.352818
1157.060, 3.237885
1157.543, 3.064140
1158.025, 4.051544
1158.507, 4.714001
1158.989, 3.911499
1159.471, 2.508732
1159.953, 1.355366
1160.435, 0.6061900
1160.917, 0.8263400
1161.400, 3.381672
1161.882, 4.227005
1162.364, 1.848427
1162.846, 7.0744000E-02
1163.328, 9.4760999E-02
1163.810, 0.6984790
1164.292, 1.114952
1164.774, 1.431709
1165.256, 1.900951
1165.739, 2.567394
1166.221, 2.420208
1166.703, 0.9896130
1167.185, 0.6423450
1167.667, 2.026142
1168.149, 3.122879
1168.631, 2.856186
1169.113, 2.532593
1169.595, 3.790844
1170.078, 5.906223
1170.560, 6.112869
1171.042, 4.478512
1171.524, 3.661133
1172.006, 3.731514
1172.488, 3.186577
1172.970, 1.662296
1173.452, 0.5534100
1173.934, 0.7880440
1174.417, 1.649372
1174.899, 2.199509
1175.381, 2.397568
1175.863, 1.691902
1176.345, 0.6611290
1176.827, 1.591343
1177.309, 4.003113
1177.791, 4.522560
1178.274, 2.235008
1178.756, 0.2767750
1179.238, 1.198498
1179.720, 2.949654
1180.202, 3.627861
1180.684, 3.614902
1181.166, 2.829990
1181.648, 1.943890
1182.130, 2.372269
1182.613, 3.809528
1183.095, 4.567596
1183.577, 4.046162
1184.059, 3.569969
1184.541, 4.194115
1185.023, 4.578247
1185.505, 3.196236
1185.987, 2.039021
1186.469, 3.462856
1186.952, 5.958393
1187.434, 6.911915
1187.916, 6.010334
1188.398, 4.823738
1188.880, 2.911301
1189.362, 1.837223
1189.844, 1.860638
1190.326, 2.572144
1190.809, 4.607914
1191.291, 6.299671
1191.773, 6.122444
1192.255, 4.754372
1192.737, 3.724987
1193.219, 3.008900
1193.701, 2.929199
1194.183, 3.635303
1194.666, 4.546135
1195.148, 5.817532
1195.630, 6.134312
1196.112, 4.670799
1196.594, 2.975414
1197.076, 2.783279
1197.558, 2.050491
1198.040, 3.354630
1198.522, 2.478184
1199.005, 3.047955
1199.487, 4.805779
1199.969, 4.701832
1200.451, 2.348530
1200.933, 0.7018430
1201.415, 1.395660
1201.897, 3.021591
1202.379, 4.668800
1202.861, 5.578911
1203.344, 3.518593
1203.826, 0.4832570
1204.308, 0.1155240
1204.790, 1.805813
1205.272, 3.632645
1205.754, 4.947662
1206.236, 5.325207
1206.718, 4.357231
1207.201, 3.169323
1207.683, 1.771740
1208.165, 1.184433
1208.647, 3.166595
1209.129, 5.393375
1209.611, 5.180725
1210.093, 3.428238
1210.575, 2.436565
1211.057, 2.534752
1211.540, 2.640186
1212.022, 2.551449
1212.504, 2.522827
1212.986, 2.733463
1213.468, 2.605591
1213.950, 1.740944
1214.432, 0.8308180
1214.914, 0.5408520
1215.396, 0.8050000
1215.879, 1.664600
1216.361, 3.288773
1216.843, 2.857929
1217.325, 0.2172780
1217.807, 0.9256170
1218.289, 1.799347
1218.771, 3.719452
1219.253, 2.862041
1219.736, 1.196049
1220.218, 0.6888240
1220.700, 0.9663960
1221.182, 1.512218
1221.664, 2.160038
1222.146, 2.163242
1222.628, 1.736015
1223.110, 1.593983
1223.593, 1.896133
1224.075, 2.792862
1224.557, 4.327526
1225.039, 5.436455
1225.521, 5.107830
1226.003, 4.185963
1226.485, 3.020565
1226.967, 2.028404
1227.449, 1.851582
1227.932, 2.033520
1228.414, 1.644081
1228.896, 0.8126950
1229.378, 0.8276900
1229.860, 2.367943
1230.342, 3.217896
1230.824, 2.021503
1231.306, 1.303501
1231.788, 2.673687
1232.271, 3.700901
1232.753, 2.425842
1233.235, 0.5093650
1233.717, 6.9362998E-02
1234.199, 0.9488260
1234.681, 2.321987
1235.163, 4.617474
1235.645, 5.123371
1236.128, 3.427563
1236.610, 2.293224
1237.092, 2.406181
1237.574, 2.936352
1238.056, 3.468372
1238.538, 3.406487
1239.020, 1.563942
1239.502, 0.9096680
1239.984, 0.9112320
1240.467, 0.7978170
1240.949, 2.253574
1241.431, 3.311470
1241.913, 4.237854
1242.395, 5.008312
1242.877, 5.217239
1243.359, 4.665562
1243.841, 3.504333
1244.323, 0.3199460
1244.806, 1.581768
1245.288, 1.753803
1245.770, 6.081345
1246.252, 7.619625
1246.734, 7.208225
1247.216, 6.375473
1247.698, 5.401939
1248.180, 4.679264
1248.662, 4.596210
1249.145, 3.896202
1249.627, 0.9392510
1250.109, 0.1485520
1250.591, 4.146805
1251.073, 7.233517
1251.555, 5.605564
1252.037, 2.311470
1252.519, 1.572598
1253.002, 2.957657
1253.484, 3.120777
1253.966, 2.144764
1254.448, 4.292942
1254.930, 9.317268
1255.412, 10.84575
1255.894, 7.777039
1256.376, 4.320511
1256.859, 2.728794
1257.341, 2.459740
1257.823, 3.578163
1258.305, 4.836620
1258.787, 4.350342
1259.269, 3.161495
1259.751, 2.587399
1260.233, 2.414295
1260.715, 1.900921
1261.198, 1.213478
1261.680, 1.562885
1262.162, 3.505459
1262.644, 4.989655
1263.126, 5.276577
1263.608, 4.926895
1264.090, 3.792175
1264.572, 2.565567
1265.054, 1.561462
1265.537, 0.8166010
1266.019, 3.9303001E-02
1266.501, 0.1049000
1266.983, 0.4204480
1267.465, 1.719799
1267.947, 2.487408
1268.429, 2.672806
1268.911, 2.805496
1269.394, 2.954639
1269.876, 3.296089
1270.358, 3.898552
1270.840, 3.790936
1271.322, 1.874237
1271.804, 0.2958950
1272.286, 0.2436100
1272.768, 1.083073
1273.250, 2.555614
1273.733, 3.801189
1274.215, 4.237480
1274.697, 3.951820
1275.179, 2.997406
1275.661, 1.559959
1276.143, 1.533428
1276.625, 5.118370
1277.107, 7.337460
1277.589, 5.395973
1278.072, 3.218765
1278.554, 2.333115
1279.036, 2.107384
1279.518, 1.794579
1280.000, 2.007591
1280.482, 3.446976
1280.964, 2.925777
1281.446, 5.959274
1281.929, 3.228630
1282.411, 2.139709
1282.893, 2.992790
1283.375, 3.924706
1283.857, 4.431793
1284.339, 3.895348
1284.821, 1.931461
1285.303, 0.1208380
1285.786, 1.6257999E-02
1286.268, 0.0000000E+00
##END=



