##NAMES=Pucherite
##RRUFFID=R060824
##IDEAL CHEMISTRY=BiVO_4_
##LOCALITY=Pucher Shaft, Wolfgang Maa√üen mine field, Schneeberg District, Saxony, Germany
##OWNER=RRUFF
##SOURCE=Michael Scott
##DESCRIPTION=Brown tabular crystals associated with green namibite. Pale yellow crust is also pucherite.
##STATUS=The identification of this mineral has been confirmed only by single crystal X-ray diffraction.
##URL=rruff.info/R060824
137.438, 0.000
137.920, 56.180
138.402, 223.933
138.884, 489.526
139.366, 848.697
139.848, 1293.386
140.330, 1816.826
140.812, 2403.781
141.294, 3101.935
141.777, 3904.953
142.259, 4795.857
142.741, 5769.152
143.223, 6819.066
143.705, 7936.430
144.187, 9113.539
144.669, 10385.581
145.151, 11664.092
145.633, 12976.648
146.116, 14271.914
146.598, 15529.680
147.080, 16737.781
147.562, 17859.791
148.044, 18777.688
148.526, 19499.145
149.008, 19964.564
149.490, 20162.266
149.973, 20110.027
150.455, 19800.172
150.937, 19223.652
151.419, 18429.922
151.901, 17627.354
152.383, 16773.182
152.865, 15957.507
153.347, 15178.482
153.829, 14445.597
154.312, 13763.977
154.794, 13126.834
155.276, 12546.783
155.758, 12088.826
156.240, 11785.454
156.722, 11555.932
157.204, 11383.119
157.686, 11272.199
158.169, 11230.872
158.651, 11262.400
159.133, 11368.492
159.615, 11568.630
160.097, 11890.646
160.579, 12257.457
161.061, 12643.620
161.543, 13058.370
162.025, 13518.993
162.508, 14034.917
162.990, 14610.176
163.472, 15249.168
163.954, 15966.761
164.436, 16716.818
164.918, 17474.730
165.400, 18248.188
165.883, 19079.402
166.365, 19988.932
166.847, 20969.330
167.329, 21983.475
167.811, 23022.025
168.293, 24092.023
168.775, 25198.869
169.257, 26338.020
169.739, 27492.629
170.221, 28649.625
170.704, 29815.301
171.186, 31027.672
171.668, 32237.783
172.150, 33529.305
172.632, 34960.398
173.114, 36516.148
173.596, 38129.246
174.078, 39756.535
174.561, 41421.543
175.043, 43190.434
175.525, 45040.844
176.007, 46997.441
176.489, 49087.480
176.971, 51306.875
177.453, 53602.141
177.935, 55970.930
178.417, 58404.930
178.900, 60863.316
179.382, 63431.922
179.864, 65961.344
180.346, 68382.906
180.828, 70695.383
181.310, 72898.172
181.792, 75036.133
182.274, 77028.156
182.757, 78762.492
183.239, 80306.062
183.721, 81511.305
184.203, 82285.859
184.685, 82633.875
185.167, 82577.984
185.649, 82147.570
186.131, 81233.859
186.613, 79808.297
187.096, 77761.977
187.578, 75356.109
188.060, 72735.516
188.542, 69898.602
189.024, 66917.102
189.506, 63737.305
189.988, 60468.891
190.470, 57261.203
190.952, 54102.039
191.435, 51069.152
191.917, 48218.672
192.399, 45542.711
192.881, 43020.406
193.363, 40669.387
193.845, 38483.238
194.327, 36406.984
194.809, 34443.750
195.292, 32579.723
195.774, 30843.883
196.256, 29229.330
196.738, 27679.254
197.220, 26166.645
197.702, 24724.871
198.184, 23379.219
198.666, 22135.430
199.148, 20968.088
199.631, 19871.762
200.113, 18842.648
200.595, 17870.867
201.077, 16950.396
201.559, 16096.405
202.041, 15316.048
202.523, 14616.196
203.005, 13962.256
203.488, 13344.387
203.970, 12760.279
204.452, 12178.052
204.934, 11569.908
205.416, 10988.866
205.898, 10497.220
206.380, 10099.593
206.862, 9721.503
207.344, 9305.756
207.827, 8868.119
208.309, 8477.721
208.791, 8159.160
209.273, 7884.884
209.755, 7626.869
210.237, 7386.055
210.719, 7147.500
211.201, 6901.054
211.684, 6651.392
212.166, 6405.105
212.648, 6156.072
213.130, 5925.893
213.612, 5730.984
214.094, 5569.657
214.576, 5434.240
215.058, 5337.042
215.540, 5263.410
216.023, 5175.918
216.505, 5068.149
216.987, 4948.248
217.469, 4814.603
217.951, 4671.650
218.433, 4541.932
218.915, 4436.637
219.397, 4350.204
219.880, 4273.182
220.362, 4205.821
220.844, 4144.422
221.326, 4085.634
221.808, 4029.923
222.290, 3980.580
222.772, 3946.626
223.254, 3916.843
223.736, 3869.744
224.219, 3799.864
224.701, 3733.890
225.183, 3701.186
225.665, 3688.389
226.147, 3663.051
226.629, 3597.691
227.111, 3526.360
227.593, 3493.329
228.076, 3501.794
228.558, 3516.630
229.040, 3518.813
229.522, 3510.127
230.004, 3495.678
230.486, 3475.239
230.968, 3449.756
231.450, 3422.634
231.932, 3393.610
232.415, 3351.712
232.897, 3282.214
233.379, 3198.442
233.861, 3133.388
234.343, 3098.832
234.825, 3069.594
235.307, 3028.363
235.789, 2976.860
236.271, 2925.586
236.754, 2881.856
237.236, 2839.096
237.718, 2782.842
238.200, 2704.443
238.682, 2631.142
239.164, 2583.617
239.646, 2553.658
240.128, 2512.687
240.611, 2445.461
241.093, 2371.082
241.575, 2328.958
242.057, 2330.411
242.539, 2318.119
243.021, 2256.563
243.503, 2169.623
243.985, 2103.808
244.467, 2073.938
244.950, 2060.635
245.432, 2035.285
245.914, 1995.722
246.396, 1962.973
246.878, 1946.799
247.360, 1937.720
247.842, 1921.126
248.324, 1893.676
248.807, 1868.971
249.289, 1865.811
249.771, 1888.335
250.253, 1895.983
250.735, 1878.455
251.217, 1849.262
251.699, 1812.733
252.181, 1771.197
252.663, 1741.387
253.146, 1741.301
253.628, 1773.108
254.110, 1791.717
254.592, 1786.466
255.074, 1777.802
255.556, 1772.555
256.038, 1773.185
256.520, 1787.260
257.003, 1822.779
257.485, 1876.784
257.967, 1915.262
258.449, 1940.572
258.931, 1951.627
259.413, 1936.053
259.895, 1906.441
260.377, 1886.442
260.859, 1888.074
261.342, 1909.107
261.824, 1941.391
262.306, 1999.507
262.788, 2051.132
263.270, 2091.188
263.752, 2123.185
264.234, 2150.331
264.716, 2173.887
265.198, 2195.424
265.681, 2217.980
266.163, 2249.396
266.645, 2269.543
267.127, 2265.688
267.609, 2258.783
268.091, 2272.488
268.573, 2308.893
269.056, 2344.816
269.538, 2347.370
270.020, 2301.652
270.502, 2265.524
270.984, 2230.627
271.466, 2209.775
271.948, 2226.025
272.430, 2268.646
272.912, 2297.226
273.395, 2269.624
273.877, 2179.442
274.359, 2111.880
274.841, 2087.157
275.323, 2065.556
275.805, 2036.650
276.287, 2001.876
276.769, 1964.981
277.251, 1926.666
277.734, 1889.551
278.216, 1870.125
278.698, 1887.020
279.180, 1895.582
279.662, 1873.615
280.144, 1842.438
280.626, 1831.981
281.108, 1857.475
281.591, 1895.929
282.073, 1894.582
282.555, 1829.185
283.037, 1786.919
283.519, 1799.893
284.001, 1833.087
284.483, 1866.491
284.965, 1895.096
285.447, 1912.521
285.930, 1903.486
286.412, 1864.231
286.894, 1845.038
287.376, 1867.346
287.858, 1900.814
288.340, 1929.062
288.822, 1951.071
289.304, 1968.791
289.786, 1980.812
290.269, 1989.104
290.751, 2001.347
291.233, 2016.039
291.715, 2039.423
292.197, 2075.519
292.679, 2122.944
293.161, 2179.043
293.643, 2254.401
294.125, 2333.530
294.608, 2384.912
295.090, 2402.683
295.572, 2429.807
296.054, 2496.970
296.536, 2590.227
297.018, 2681.675
297.500, 2767.543
297.983, 2850.534
298.465, 2934.065
298.947, 3016.410
299.429, 3086.475
299.911, 3130.550
300.393, 3168.389
300.875, 3241.810
301.357, 3357.570
301.839, 3482.675
302.322, 3614.511
302.804, 3745.747
303.286, 3865.928
303.768, 3973.528
304.250, 4063.701
304.732, 4122.848
305.214, 4137.025
305.696, 4182.653
306.178, 4281.215
306.661, 4402.319
307.143, 4525.176
307.625, 4646.634
308.107, 4767.006
308.589, 4886.489
309.071, 5004.794
309.553, 5130.143
310.035, 5252.092
310.517, 5389.345
311.000, 5553.071
311.482, 5737.139
311.964, 5931.029
312.446, 6128.294
312.928, 6329.518
313.410, 6536.176
313.892, 6732.485
314.374, 6957.977
314.857, 7212.890
315.339, 7498.745
315.821, 7821.014
316.303, 8180.352
316.785, 8565.473
317.267, 8955.627
317.749, 9337.681
318.231, 9762.617
318.714, 10231.423
319.196, 10741.133
319.678, 11297.434
320.160, 11897.828
320.642, 12526.321
321.124, 13171.247
321.606, 13829.636
322.088, 14526.424
322.570, 15246.172
323.052, 16023.713
323.535, 16882.314
324.017, 17799.020
324.499, 18746.055
324.981, 19715.527
325.463, 20692.684
325.945, 21658.352
326.427, 22609.523
326.909, 23548.570
327.392, 24491.152
327.874, 25417.023
328.356, 26320.926
328.838, 27212.570
329.320, 28020.891
329.802, 28692.367
330.284, 29233.980
330.766, 29667.564
331.249, 29998.059
331.731, 30216.625
332.213, 30303.531
332.695, 30270.215
333.177, 30149.441
333.659, 29944.270
334.141, 29661.512
334.623, 29281.469
335.105, 28804.895
335.588, 28319.141
336.070, 27885.795
336.552, 27509.309
337.034, 27166.283
337.516, 26857.676
337.998, 26580.398
338.480, 26330.240
338.962, 26111.330
339.444, 25931.678
339.927, 25794.258
340.409, 25701.582
340.891, 25661.336
341.373, 25701.949
341.855, 25761.641
342.337, 25841.881
342.819, 25937.729
343.301, 26052.062
343.784, 26181.605
344.266, 26310.562
344.748, 26417.250
345.230, 26495.477
345.712, 26576.949
346.194, 26672.078
346.676, 26760.320
347.158, 26850.955
347.641, 26928.182
348.123, 26956.969
348.605, 26908.449
349.087, 26798.305
349.569, 26694.479
350.051, 26603.848
350.533, 26506.932
351.015, 26381.609
351.497, 26255.535
351.979, 26159.785
352.462, 26105.068
352.944, 26067.055
353.426, 26006.537
353.908, 25922.832
354.390, 25886.805
354.872, 25920.367
355.354, 26001.963
355.836, 26097.727
356.319, 26210.855
356.801, 26375.652
357.283, 26631.051
357.765, 26941.514
358.247, 27237.268
358.729, 27509.930
359.211, 27807.039
359.693, 28168.346
360.176, 28584.605
360.658, 28997.551
361.140, 29374.152
361.622, 29780.191
362.104, 30283.201
362.586, 30844.340
363.068, 31365.334
363.550, 31806.277
364.032, 32187.090
364.515, 32550.678
364.997, 32878.996
365.479, 33223.488
365.961, 33645.203
366.443, 34044.570
366.925, 34334.770
367.407, 34509.578
367.889, 34632.590
368.371, 34767.117
368.854, 34917.367
369.336, 34995.848
369.818, 35009.281
370.300, 34940.457
370.782, 34770.184
371.264, 34515.930
371.746, 34202.973
372.228, 33843.297
372.711, 33435.156
373.193, 32982.848
373.675, 32495.816
374.157, 31934.922
374.639, 31248.195
375.121, 30513.773
375.603, 29785.805
376.085, 29067.957
376.568, 28320.773
377.050, 27495.270
377.532, 26614.129
378.014, 25746.496
378.496, 24893.641
378.978, 24067.178
379.460, 23283.898
379.942, 22532.467
380.424, 21773.664
380.906, 20978.340
381.389, 20198.777
381.871, 19489.486
382.353, 18843.074
382.835, 18213.156
383.317, 17575.611
383.799, 16951.133
384.281, 16385.084
384.763, 15882.288
385.246, 15410.679
385.728, 14951.412
386.210, 14526.731
386.692, 14168.994
387.174, 13877.121
387.656, 13608.471
388.138, 13315.894
388.620, 12994.138
389.103, 12749.863
389.585, 12594.119
390.067, 12495.922
390.549, 12471.906
391.031, 12493.959
391.513, 12526.628
391.995, 12554.274
392.477, 12577.369
392.959, 12591.708
393.442, 12583.325
393.924, 12607.046
394.406, 12660.844
394.888, 12756.417
395.370, 12896.943
395.852, 13085.873
396.334, 13333.097
396.816, 13661.042
397.298, 14054.797
397.781, 14452.033
398.263, 14836.938
398.745, 15265.323
399.227, 15775.156
399.709, 16349.057
400.191, 16957.953
400.673, 17582.398
401.155, 18265.920
401.638, 19019.699
402.120, 19856.148
402.602, 20811.207
403.084, 21906.857
403.566, 23096.852
404.048, 24337.051
404.530, 25620.387
405.012, 26976.418
405.495, 28420.438
405.977, 29931.125
406.459, 31517.035
406.941, 33162.539
407.423, 34850.113
407.905, 36563.422
408.387, 38300.137
408.869, 40044.070
409.351, 41840.023
409.833, 43594.660
410.316, 45380.234
410.798, 47074.012
411.280, 48592.832
411.762, 49915.992
412.244, 51030.496
412.726, 51957.477
413.208, 52698.238
413.690, 53090.625
414.173, 53128.328
414.655, 52776.992
415.137, 52011.602
415.619, 50898.445
416.101, 49575.145
416.583, 48065.699
417.065, 46388.715
417.547, 44541.324
418.030, 42536.113
418.512, 40461.906
418.994, 38331.602
419.476, 36188.945
419.958, 34067.988
420.440, 31953.316
420.922, 29951.143
421.404, 28115.086
421.886, 26389.082
422.369, 24701.031
422.851, 23051.469
423.333, 21493.443
423.815, 20056.066
424.297, 18736.703
424.779, 17543.354
425.261, 16522.664
425.743, 15556.177
426.225, 14624.344
426.708, 13743.378
427.190, 12934.933
427.672, 12203.195
428.154, 11537.337
428.636, 10923.582
429.118, 10363.359
429.600, 9853.322
430.082, 9418.722
430.565, 9007.835
431.047, 8590.098
431.529, 8177.196
432.011, 7795.693
432.493, 7457.902
432.975, 7151.177
433.457, 6857.533
433.939, 6577.331
434.422, 6322.705
434.904, 6104.639
435.386, 5906.181
435.868, 5698.868
436.350, 5478.473
436.832, 5279.233
437.314, 5132.218
437.796, 4994.760
438.278, 4815.338
438.760, 4598.644
439.243, 4391.479
439.725, 4227.178
440.207, 4100.990
440.689, 3981.056
441.171, 3885.278
441.653, 3774.222
442.135, 3628.673
442.617, 3475.254
443.100, 3337.445
443.582, 3220.461
444.064, 3113.839
444.546, 3005.209
445.028, 2894.152
445.510, 2796.733
445.992, 2718.908
446.474, 2645.359
446.957, 2579.219
447.439, 2510.135
447.921, 2418.305
448.403, 2288.246
448.885, 2156.786
449.367, 2067.730
449.849, 2012.281
450.331, 1945.536
450.813, 1853.330
451.296, 1754.023
451.778, 1673.602
452.260, 1613.101
452.742, 1535.301
453.224, 1414.515
453.706, 1295.227
454.188, 1208.962
454.670, 1149.208
455.152, 1094.407
455.635, 1033.577
456.117, 971.630
456.599, 921.454
457.081, 899.896
457.563, 859.306
458.045, 786.021
458.527, 706.434
459.009, 625.339
459.492, 550.224
459.974, 499.112
460.456, 491.771
460.938, 513.683
461.420, 519.610
461.902, 507.188
462.384, 486.245
462.866, 452.899
463.349, 417.786
463.831, 396.819
464.313, 394.671
464.795, 382.761
465.277, 330.764
465.759, 266.503
466.241, 241.667
466.723, 260.777
467.205, 273.030
467.688, 233.646
468.170, 151.535
468.652, 115.197
469.134, 171.184
469.616, 208.066
470.098, 189.327
470.580, 147.781
471.062, 118.771
471.544, 110.320
472.027, 110.620
472.509, 107.008
472.991, 99.543
473.473, 93.221
473.955, 94.429
474.437, 87.166
474.919, 56.403
475.401, 17.450
475.884, 6.222
476.366, 4.786
476.848, 2.249
477.330, 0.349
477.812, 10.422
478.294, 31.023
478.776, 62.979
479.258, 100.138
479.741, 140.264
480.223, 182.887
480.705, 213.938
481.187, 229.719
481.669, 237.263
482.151, 233.443
482.633, 225.286
483.115, 223.265
483.597, 231.516
484.079, 250.206
484.562, 283.877
485.044, 343.693
485.526, 379.411
486.008, 362.280
486.490, 348.554
486.972, 365.980
487.454, 401.179
487.936, 425.636
488.419, 424.311
488.901, 412.580
489.383, 411.769
489.865, 421.139
490.347, 426.713
490.829, 422.294
491.311, 417.673
491.793, 426.486
492.276, 447.661
492.758, 464.740
493.240, 475.426
493.722, 480.765
494.204, 475.415
494.686, 465.276
495.168, 466.024
495.650, 485.060
496.132, 512.239
496.615, 528.142
497.097, 526.037
497.579, 528.512
498.061, 538.104
498.543, 549.572
499.025, 563.640
499.507, 577.509
499.989, 584.843
500.471, 580.473
500.954, 572.349
501.436, 578.386
501.918, 598.740
502.400, 600.391
502.882, 565.473
503.364, 521.914
503.846, 505.682
504.328, 514.558
504.810, 515.079
505.293, 489.016
505.775, 462.879
506.257, 457.811
506.739, 468.508
507.221, 479.233
507.703, 483.102
508.185, 483.060
508.668, 485.779
509.150, 497.392
509.632, 496.137
510.114, 471.119
510.596, 444.494
511.078, 426.156
511.560, 414.006
512.042, 401.497
512.524, 384.799
513.006, 367.892
513.489, 356.049
513.971, 349.294
514.453, 348.491
514.935, 357.613
515.417, 366.307
515.899, 361.185
516.381, 343.410
516.864, 329.493
517.346, 323.844
517.828, 320.479
518.310, 321.810
518.792, 321.828
519.274, 303.933
519.756, 261.869
520.238, 217.653
520.720, 210.420
521.203, 256.602
521.685, 277.335
522.167, 252.235
522.649, 221.347
523.131, 194.058
523.613, 171.252
524.095, 153.035
524.577, 139.273
525.059, 130.936
525.542, 135.442
526.024, 148.166
526.506, 142.521
526.988, 108.145
527.470, 74.324
527.952, 73.709
528.434, 104.419
528.916, 106.577
529.398, 50.499
529.881, 0.046
530.363, 14.728
530.845, 12.704
531.327, 20.920
531.809, 46.090
532.291, 75.016
532.773, 93.152
533.255, 100.294
533.737, 100.630
534.220, 87.792
534.702, 78.554
535.184, 73.342
535.666, 77.125
536.148, 101.605
536.630, 153.367
537.112, 197.636
537.594, 205.273
538.077, 190.886
538.559, 178.494
539.041, 171.297
539.523, 173.006
540.005, 188.652
540.487, 214.415
540.969, 231.478
541.451, 226.462
541.933, 230.621
542.416, 254.166
542.898, 281.787
543.380, 304.409
543.862, 319.771
544.344, 326.122
544.826, 320.282
545.308, 305.907
545.791, 293.263
546.273, 282.628
546.755, 273.393
547.237, 264.449
547.719, 257.790
548.201, 254.507
548.683, 254.467
549.165, 261.146
549.647, 282.073
550.130, 304.520
550.612, 319.014
551.094, 326.192
551.576, 329.915
552.058, 331.924
552.540, 329.979
553.022, 318.666
553.504, 293.418
553.987, 272.915
554.469, 251.194
554.951, 240.506
555.433, 242.935
555.915, 260.375
556.397, 302.863
556.879, 385.019
557.361, 455.600
557.843, 454.696
558.326, 398.893
558.808, 341.729
559.290, 291.153
559.772, 251.567
560.254, 227.248
560.736, 217.993
561.218, 220.288
561.700, 247.081
562.182, 267.098
562.665, 274.079
563.147, 271.295
563.629, 261.175
564.111, 244.530
564.593, 221.239
565.075, 187.483
565.557, 148.056
566.039, 125.417
566.521, 124.008
567.004, 121.052
567.486, 107.294
567.968, 89.736
568.450, 75.543
568.932, 64.484
569.414, 60.002
569.896, 71.896
570.378, 83.567
570.860, 81.354
571.343, 67.268
571.825, 45.807
572.307, 18.572
572.789, 5.128
573.271, 5.108
573.753, 29.389
574.235, 47.493
574.718, 44.002
575.200, 29.007
575.682, 9.088
576.164, 51.434
576.646, 61.817
577.128, 20.492
577.610, 19.192
578.092, 4.694
578.574, 41.392
579.057, 65.679
579.539, 60.531
580.021, 53.898
580.503, 67.476
580.985, 96.767
581.467, 116.731
581.949, 120.289
582.431, 123.491
582.914, 126.407
583.396, 129.744
583.878, 131.988
584.360, 134.643
584.842, 143.534
585.324, 165.461
585.806, 191.888
586.288, 204.778
586.770, 204.426
587.253, 206.625
587.735, 215.715
588.217, 229.170
588.699, 246.052
589.181, 266.712
589.663, 279.986
590.145, 277.639
590.627, 276.917
591.109, 288.559
591.592, 304.348
592.074, 310.944
592.556, 306.142
593.038, 301.712
593.520, 311.975
594.002, 334.589
594.484, 350.565
594.966, 360.024
595.448, 361.669
595.931, 346.955
596.413, 329.275
596.895, 328.130
597.377, 345.951
597.859, 363.056
598.341, 370.612
598.823, 377.771
599.305, 394.834
599.787, 417.848
600.270, 436.711
600.752, 447.063
601.234, 448.091
601.716, 433.462
602.198, 395.983
602.680, 382.599
603.162, 409.070
603.644, 438.289
604.127, 457.750
604.609, 467.552
605.091, 466.034
605.573, 449.606
606.055, 432.986
606.537, 422.692
607.019, 418.198
607.501, 422.397
607.984, 433.155
608.466, 438.015
608.948, 428.302
609.430, 410.034
609.912, 399.818
610.394, 398.537
610.876, 403.742
611.358, 435.566
611.841, 454.771
612.323, 430.505
612.805, 379.719
613.287, 343.092
613.769, 338.898
614.251, 344.665
614.733, 347.034
615.215, 343.377
615.697, 323.902
616.180, 287.476
616.662, 253.271
617.144, 238.025
617.626, 236.597
618.108, 217.922
618.590, 154.477
619.072, 116.820
619.554, 133.532
620.036, 156.283
620.519, 151.358
621.001, 122.359
621.483, 93.779
621.965, 82.707
622.447, 70.050
622.929, 24.463
623.411, 44.027
623.893, 92.097
624.375, 108.101
624.858, 119.041
625.340, 150.275
625.822, 200.979
626.304, 249.104
626.786, 296.701
627.268, 339.000
627.750, 366.880
628.232, 395.794
628.714, 438.934
629.197, 496.352
629.679, 558.993
630.161, 625.512
630.643, 690.641
631.125, 743.191
631.607, 785.581
632.089, 830.963
632.571, 882.353
633.054, 940.811
633.536, 1007.361
634.018, 1081.670
634.500, 1166.943
634.982, 1279.615
635.464, 1382.156
635.946, 1450.842
636.428, 1517.251
636.911, 1616.518
637.393, 1748.570
637.875, 1882.185
638.357, 2001.064
638.839, 2105.060
639.321, 2187.292
639.803, 2251.433
640.285, 2332.130
640.768, 2443.538
641.250, 2561.435
641.732, 2658.033
642.214, 2732.747
642.696, 2797.062
643.178, 2851.473
643.660, 2895.598
644.142, 2930.217
644.624, 2953.977
645.107, 2966.061
645.589, 2965.993
646.071, 2952.174
646.553, 2922.754
647.035, 2879.557
647.517, 2827.138
647.999, 2764.843
648.481, 2681.900
648.963, 2571.114
649.446, 2456.734
649.928, 2372.307
650.410, 2323.318
650.892, 2236.097
651.374, 2071.511
651.856, 1917.857
652.338, 1798.631
652.820, 1695.885
653.302, 1593.476
653.785, 1488.518
654.267, 1381.209
654.749, 1268.898
655.231, 1155.796
655.713, 1046.953
656.195, 942.507
656.677, 847.150
657.159, 763.071
657.641, 681.753
658.124, 593.215
658.606, 496.680
659.088, 404.666
659.570, 299.635
660.052, 223.897
660.534, 213.333
661.016, 213.944
661.498, 174.719
661.981, 95.433
662.463, 15.677
662.945, 47.192
663.427, 95.179
663.909, 121.598
664.391, 133.857
664.873, 159.098
665.355, 205.034
665.838, 252.515
666.320, 282.436
666.802, 295.187
667.284, 302.603
667.766, 306.353
668.248, 301.813
668.730, 276.556
669.212, 252.494
669.695, 253.190
670.177, 273.113
670.659, 278.867
671.141, 243.025
671.623, 202.943
672.105, 198.861
672.587, 211.118
673.069, 194.591
673.551, 142.328
674.034, 88.925
674.516, 68.137
674.998, 70.089
675.480, 39.907
675.962, 35.849
676.444, 107.806
676.926, 157.741
677.408, 210.498
677.890, 287.712
678.373, 383.082
678.855, 472.588
679.337, 535.544
679.819, 611.779
680.301, 733.987
680.783, 874.400
681.265, 1001.611
681.747, 1111.056
682.229, 1208.506
682.712, 1295.504
683.194, 1382.944
683.676, 1502.114
684.158, 1658.952
684.640, 1800.447
685.122, 1911.511
685.604, 2021.440
686.086, 2154.499
686.568, 2302.751
687.051, 2436.196
687.533, 2553.540
688.015, 2658.651
688.497, 2746.145
688.979, 2827.052
689.461, 2915.023
689.943, 3003.831
690.425, 3075.601
690.908, 3122.482
691.390, 3148.867
691.872, 3146.869
692.354, 3125.566
692.836, 3142.399
693.318, 3205.676
693.800, 3278.749
694.282, 3338.664
694.765, 3396.934
695.247, 3481.526
695.729, 3597.158
696.211, 3729.106
696.693, 3875.274
697.175, 4038.229
697.657, 4220.208
698.139, 4418.476
698.622, 4633.200
699.104, 4863.420
699.586, 5102.459
700.068, 5339.075
700.550, 5584.250
701.032, 5865.532
701.514, 6176.415
701.996, 6479.557
702.478, 6761.040
702.961, 7020.283
703.443, 7253.027
703.925, 7459.192
704.407, 7659.020
704.889, 7866.979
705.371, 8043.713
705.853, 8173.029
706.335, 8269.640
706.817, 8349.703
707.300, 8412.492
707.782, 8434.616
708.264, 8412.035
708.746, 8342.629
709.228, 8208.239
709.710, 8032.215
710.192, 7851.038
710.674, 7672.439
711.156, 7484.778
711.639, 7277.643
712.121, 7052.557
712.603, 6810.789
713.085, 6551.758
713.567, 6288.177
714.049, 6016.326
714.531, 5750.264
715.013, 5504.703
715.495, 5276.572
715.978, 5048.362
716.460, 4806.725
716.942, 4580.600
717.424, 4386.417
717.906, 4199.116
718.388, 3992.277
718.870, 3777.241
719.352, 3590.068
719.835, 3451.914
720.317, 3327.207
720.799, 3178.566
721.281, 3012.998
721.763, 2839.008
722.245, 2659.883
722.727, 2508.258
723.209, 2407.009
723.692, 2329.616
724.174, 2218.926
724.656, 2059.060
725.138, 1924.026
725.620, 1831.342
726.102, 1740.276
726.584, 1629.166
727.066, 1515.247
727.549, 1422.513
728.031, 1354.917
728.513, 1285.672
728.995, 1200.651
729.477, 1115.177
729.959, 1037.310
730.441, 968.564
730.923, 914.528
731.405, 875.161
731.888, 836.552
732.370, 781.976
732.852, 719.231
733.334, 683.040
733.816, 676.287
734.298, 647.549
734.780, 575.024
735.262, 499.571
735.744, 460.799
736.227, 455.430
736.709, 445.442
737.191, 438.815
737.673, 416.553
738.155, 362.895
738.637, 305.229
739.119, 254.285
739.601, 216.145
740.083, 203.754
740.566, 229.481
741.048, 256.364
741.530, 248.252
742.012, 223.269
742.494, 212.890
742.976, 217.146
743.458, 218.798
743.940, 209.069
744.422, 192.763
744.905, 175.296
745.387, 155.142
745.869, 150.696
746.351, 162.790
746.833, 189.607
747.315, 242.528
747.797, 300.777
748.279, 330.694
748.762, 329.355
749.244, 343.677
749.726, 395.482
750.208, 444.210
750.690, 470.651
751.172, 487.250
751.654, 503.503
752.136, 524.040
752.619, 558.508
753.101, 620.200
753.583, 688.604
754.065, 735.542
754.547, 765.123
755.029, 787.738
755.511, 805.716
755.993, 828.525
756.476, 864.508
756.958, 907.082
757.440, 935.050
757.922, 943.401
758.404, 955.072
758.886, 981.034
759.368, 996.686
759.850, 978.909
760.332, 946.238
760.815, 927.122
761.297, 925.920
761.779, 926.139
762.261, 944.539
762.743, 942.114
763.225, 874.923
763.707, 778.365
764.189, 705.421
764.671, 669.695
765.154, 655.021
765.636, 658.562
766.118, 667.160
766.600, 653.724
767.082, 621.769
767.564, 591.335
768.046, 567.409
768.528, 539.818
769.010, 496.872
769.493, 445.223
769.975, 422.343
770.457, 444.190
770.939, 451.199
771.421, 424.174
771.903, 397.163
772.385, 390.349
772.867, 397.920
773.349, 409.890
773.832, 429.683
774.314, 441.431
774.796, 437.663
775.278, 427.669
775.760, 410.581
776.242, 394.300
776.724, 391.289
777.206, 404.951
777.689, 427.958
778.171, 462.072
778.653, 497.456
779.135, 515.476
779.617, 517.853
780.099, 508.789
780.581, 489.134
781.063, 477.504
781.545, 492.769
782.028, 530.515
782.510, 566.801
782.992, 603.407
783.474, 631.870
783.956, 644.492
784.438, 657.560
784.920, 685.931
785.403, 722.331
785.885, 747.053
786.367, 749.037
786.849, 764.354
787.331, 812.985
787.813, 862.820
788.295, 893.520
788.777, 912.664
789.259, 932.010
789.742, 955.196
790.224, 986.969
790.706, 1035.092
791.188, 1091.048
791.670, 1148.276
792.152, 1203.180
792.634, 1240.152
793.116, 1257.151
793.598, 1277.750
794.081, 1324.115
794.563, 1387.415
795.045, 1432.521
795.527, 1454.280
796.009, 1501.975
796.491, 1590.246
796.973, 1685.481
797.455, 1767.697
797.938, 1840.094
798.420, 1911.189
798.902, 1981.525
799.384, 2048.827
799.866, 2086.298
800.348, 2151.325
800.830, 2289.758
801.312, 2456.411
801.794, 2584.890
802.277, 2668.499
802.759, 2778.972
803.241, 2965.326
803.723, 3175.836
804.205, 3375.395
804.687, 3569.746
805.169, 3767.448
805.651, 3971.641
806.133, 4189.343
806.616, 4426.977
807.098, 4674.681
807.580, 4913.496
808.062, 5146.771
808.544, 5390.867
809.026, 5648.864
809.508, 5899.323
809.990, 6131.792
810.472, 6344.292
810.955, 6533.164
811.437, 6701.067
811.919, 6823.213
812.401, 6898.439
812.883, 6928.667
813.365, 6903.217
813.847, 6840.148
814.330, 6754.861
814.812, 6647.476
815.294, 6517.873
815.776, 6343.532
816.258, 6177.153
816.740, 6027.537
817.222, 5898.292
817.704, 5793.511
818.186, 5710.970
818.669, 5647.894
819.151, 5605.159
819.633, 5565.386
820.115, 5499.446
820.597, 5435.959
821.079, 5415.415
821.561, 5435.993
822.043, 5492.113
822.526, 5579.097
823.008, 5662.243
823.490, 5693.882
823.972, 5696.324
824.454, 5767.729
824.936, 5910.677
825.418, 6056.427
825.900, 6191.042
826.382, 6324.798
826.865, 6466.488
827.347, 6612.482
827.829, 6750.626
828.311, 6871.605
828.793, 7003.428
829.275, 7138.263
829.757, 7293.611
830.239, 7493.192
830.721, 7707.876
831.204, 7894.944
831.686, 8048.064
832.168, 8228.717
832.650, 8474.434
833.132, 8723.924
833.614, 8932.006
834.096, 9139.014
834.578, 9404.865
835.060, 9716.539
835.543, 9992.107
836.025, 10177.502
836.507, 10357.429
836.989, 10620.552
837.471, 10932.842
837.953, 11233.977
838.435, 11526.287
838.917, 11846.365
839.400, 12207.547
839.882, 12589.404
840.364, 12958.838
840.846, 13324.687
841.328, 13733.752
841.810, 14187.192
842.292, 14646.030
842.774, 15092.555
843.256, 15563.744
843.739, 16090.808
844.221, 16665.180
844.703, 17258.506
845.185, 17856.699
845.667, 18502.957
846.149, 19216.621
846.631, 19953.363
847.114, 20669.869
847.596, 21405.932
848.078, 22224.320
848.560, 23132.537
849.042, 24078.787
849.524, 25056.254
850.006, 26075.516
850.488, 27120.914
850.970, 28228.518
851.453, 29445.004
851.935, 30760.199
852.417, 32111.328
852.899, 33429.902
853.381, 34863.656
853.863, 36524.172
854.345, 38348.613
854.827, 40234.582
855.309, 42193.621
855.792, 44282.926
856.274, 46521.352
856.756, 48937.516
857.238, 51565.195
857.720, 54404.523
858.202, 57472.922
858.684, 60764.535
859.166, 64232.719
859.648, 67880.758
860.131, 71747.328
860.613, 75868.461
861.095, 80237.141
861.577, 84821.789
862.059, 89679.539
862.541, 94536.469
863.023, 99383.414
863.505, 104263.000
863.987, 109199.422
864.470, 114136.094
864.952, 119013.406
865.434, 123832.266
865.916, 128406.852
866.398, 132850.984
866.880, 136851.266
867.362, 140449.281
867.844, 143511.938
868.327, 145981.547
868.809, 147838.969
869.291, 149050.750
869.773, 149589.062
870.255, 149525.719
870.737, 148819.797
871.219, 147578.922
871.701, 145805.375
872.183, 143577.984
872.666, 140940.406
873.148, 137941.891
873.630, 134723.000
874.112, 131309.141
874.594, 127803.125
875.076, 124255.555
875.558, 120712.719
876.041, 117272.609
876.523, 113918.742
877.005, 110494.914
877.487, 106920.516
877.969, 103412.656
878.451, 100295.828
878.933, 97448.242
879.415, 94624.086
879.897, 91812.672
880.380, 88982.148
880.862, 86142.172
881.344, 83391.039
881.826, 80858.438
882.308, 78463.266
882.790, 75939.281
883.272, 73274.492
883.754, 70705.305
884.237, 68261.570
884.719, 65881.352
885.201, 63520.586
885.683, 61205.863
886.165, 58953.645
886.647, 56782.766
887.129, 54568.082
887.611, 52242.691
888.093, 50018.387
888.576, 47927.309
889.058, 45943.020
889.540, 44068.734
890.022, 42278.398
890.504, 40481.688
890.986, 38608.648
891.468, 36838.086
891.950, 35208.711
892.432, 33650.328
892.915, 32161.607
893.397, 30712.352
893.879, 29282.885
894.361, 27867.732
894.843, 26509.361
895.325, 25213.965
895.807, 23979.463
896.289, 22807.340
896.771, 21692.738
897.254, 20629.801
897.736, 19621.801
898.218, 18665.342
898.700, 17766.344
899.182, 16911.234
899.664, 16089.131
900.146, 15308.065
900.628, 14583.915
901.110, 13899.992
901.593, 13217.508
902.075, 12534.885
902.557, 11899.496
903.039, 11342.274
903.521, 10835.501
904.003, 10338.295
904.485, 9855.666
904.968, 9389.955
905.450, 8946.634
905.932, 8539.504
906.414, 8176.534
906.896, 7835.826
907.378, 7490.422
907.860, 7146.721
908.342, 6829.290
908.824, 6538.223
909.307, 6280.213
909.789, 6058.436
910.271, 5849.292
910.753, 5639.552
911.235, 5432.613
911.717, 5236.839
912.199, 5053.662
912.681, 4861.314
913.164, 4653.378
913.646, 4460.252
914.128, 4293.999
914.610, 4139.402
915.092, 3979.901
915.574, 3820.817
916.056, 3692.263
916.538, 3613.160
917.020, 3521.510
917.503, 3406.659
917.985, 3292.438
918.467, 3188.665
918.949, 3090.376
919.431, 2993.481
919.913, 2897.821
920.395, 2792.040
920.877, 2654.650
921.359, 2537.084
921.842, 2454.345
922.324, 2387.156
922.806, 2331.753
923.288, 2280.301
923.770, 2218.769
924.252, 2144.164
924.734, 2068.932
925.216, 1996.192
925.698, 1924.849
926.181, 1849.269
926.663, 1779.274
927.145, 1728.349
927.627, 1691.937
928.109, 1650.354
928.591, 1595.484
929.073, 1538.977
929.555, 1492.139
930.037, 1441.584
930.520, 1368.023
931.002, 1285.692
931.484, 1218.171
931.966, 1169.392
932.448, 1129.441
932.930, 1097.984
933.412, 1062.314
933.894, 1008.754
934.377, 944.884
934.859, 874.953
935.341, 806.011
935.823, 756.507
936.305, 731.555
936.787, 706.444
937.269, 655.343
937.751, 593.764
938.234, 542.449
938.716, 501.905
939.198, 477.295
939.680, 466.051
940.162, 453.073
940.644, 430.596
941.126, 400.979
941.608, 364.376
942.091, 323.710
942.573, 287.988
943.055, 256.936
943.537, 228.882
944.019, 203.413
944.501, 180.916
944.983, 161.991
945.465, 144.235
945.947, 120.697
946.430, 92.570
946.912, 74.697
947.394, 67.612
947.876, 59.816
948.358, 47.473
948.840, 34.685
949.322, 26.306
949.804, 19.488
950.286, 2.540
950.769, 25.385
951.251, 52.770
951.733, 79.931
952.215, 98.906
952.697, 104.378
953.179, 105.463
953.661, 114.761
954.143, 130.790
954.625, 135.054
955.108, 121.917
955.590, 120.269
956.072, 138.038
956.554, 156.602
957.036, 165.514
957.518, 169.862
958.000, 179.453
958.482, 195.823
958.964, 196.625
959.447, 166.454
959.929, 156.800
960.411, 188.292
960.893, 224.760
961.375, 244.118
961.857, 249.614
962.339, 248.070
962.821, 236.877
963.304, 229.430
963.786, 226.304
964.268, 225.976
964.750, 228.837
965.232, 233.551
965.714, 237.730
966.196, 243.066
966.678, 256.584
967.161, 289.742
967.643, 305.365
968.125, 289.216
968.607, 272.886
969.089, 261.805
969.571, 258.480
970.053, 269.904
970.535, 292.257
971.018, 304.645
971.500, 299.581
971.982, 295.309
972.464, 294.924
972.946, 294.150
973.428, 291.076
973.910, 286.610
974.392, 278.062
974.874, 267.089
975.357, 269.599
975.839, 311.568
976.321, 332.803
976.803, 304.282
977.285, 271.302
977.767, 257.632
978.249, 256.379
978.731, 256.743
979.213, 257.563
979.696, 261.290
980.178, 273.617
980.660, 281.572
981.142, 282.841
981.624, 277.114
982.106, 259.717
982.588, 236.965
983.070, 224.620
983.552, 225.222
984.035, 202.552
984.517, 91.749
984.999, 26.422
985.481, 101.855
985.963, 204.255
986.445, 243.691
986.927, 237.542
987.409, 231.870
987.891, 235.970
988.374, 242.754
988.856, 253.724
989.338, 261.705
989.820, 265.566
990.302, 263.040
990.784, 243.948
991.266, 218.511
991.748, 211.604
992.231, 231.177
992.713, 250.820
993.195, 262.862
993.677, 268.269
994.159, 265.487
994.641, 257.950
995.123, 247.761
995.605, 236.129
996.088, 225.592
996.570, 217.653
997.052, 205.417
997.534, 179.381
998.016, 155.474
998.498, 142.517
998.980, 137.378
999.462, 140.290
999.945, 147.455
1000.427, 148.626
1000.909, 139.282
1001.391, 131.246
1001.873, 136.018
1002.355, 137.092
1002.837, 116.046
1003.319, 91.083
1003.801, 84.187
1004.284, 93.560
1004.766, 104.914
1005.248, 115.831
1005.730, 119.833
1006.212, 109.700
1006.694, 96.219
1007.176, 81.768
1007.658, 71.104
1008.140, 71.166
1008.623, 80.187
1009.105, 89.472
1009.587, 96.571
1010.069, 102.353
1010.551, 109.344
1011.033, 112.727
1011.515, 105.708
1011.997, 95.892
1012.479, 91.267
1012.962, 92.535
1013.444, 98.927
1013.926, 113.612
1014.408, 122.716
1014.890, 119.486
1015.372, 109.890
1015.854, 90.393
1016.336, 71.680
1016.819, 65.885
1017.301, 72.400
1017.783, 83.712
1018.265, 99.744
1018.747, 115.220
1019.229, 135.416
1019.711, 145.856
1020.193, 129.444
1020.675, 104.950
1021.158, 90.945
1021.640, 89.346
1022.122, 98.909
1022.604, 126.512
1023.086, 145.279
1023.568, 142.499
1024.050, 133.863
1024.532, 119.909
1025.015, 109.947
1025.497, 120.520
1025.979, 144.269
1026.461, 148.330
1026.943, 114.783
1027.425, 92.583
1027.907, 104.595
1028.389, 117.023
1028.871, 115.515
1029.354, 106.235
1029.836, 93.705
1030.318, 79.511
1030.800, 66.729
1031.282, 53.895
1031.764, 47.366
1032.246, 50.028
1032.728, 56.521
1033.210, 71.857
1033.693, 84.739
1034.175, 80.133
1034.657, 63.561
1035.139, 57.852
1035.621, 71.794
1036.103, 78.601
1036.585, 67.331
1037.067, 60.197
1037.550, 69.624
1038.032, 80.539
1038.514, 78.542
1038.996, 67.896
1039.478, 63.159
1039.960, 66.836
1040.442, 69.063
1040.924, 75.846
1041.406, 71.725
1041.889, 37.934
1042.371, 9.514
1042.853, 20.602
1043.335, 54.666
1043.817, 65.799
1044.299, 45.975
1044.781, 37.311
1045.263, 44.132
1045.745, 53.775
1046.228, 67.471
1046.710, 76.071
1047.192, 70.430
1047.674, 57.737
1048.156, 54.311
1048.638, 61.300
1049.120, 64.901
1049.602, 63.142
1050.085, 65.644
1050.567, 75.376
1051.049, 86.759
1051.531, 97.999
1052.013, 105.047
1052.495, 99.921
1052.977, 82.995
1053.459, 67.017
1053.942, 51.069
1054.424, 44.428
1054.906, 49.559
1055.388, 58.026
1055.870, 66.269
1056.352, 71.916
1056.834, 70.681
1057.316, 64.084
1057.798, 61.967
1058.281, 64.119
1058.763, 61.374
1059.245, 52.503
1059.727, 45.351
1060.209, 43.553
1060.691, 45.046
1061.173, 48.988
1061.655, 52.127
1062.137, 41.595
1062.620, 21.987
1063.102, 13.726
1063.584, 17.728
1064.066, 29.462
1064.548, 46.451
1065.030, 53.964
1065.512, 34.216
1065.994, 6.737
1066.477, 8.955
1066.959, 27.931
1067.441, 35.029
1067.923, 31.310
1068.405, 29.293
1068.887, 31.534
1069.369, 28.894
1069.851, 13.213
1070.333, 3.499
1070.816, 9.041
1071.298, 6.556
1071.780, 2.693
1072.262, 15.609
1072.744, 27.250
1073.226, 36.454
1073.708, 44.247
1074.190, 51.812
1074.672, 55.584
1075.155, 52.959
1075.637, 45.529
1076.119, 24.790
1076.601, 6.807
1077.083, 18.677
1077.565, 52.385
1078.047, 73.029
1078.530, 68.360
1079.012, 62.061
1079.494, 62.895
1079.976, 65.446
1080.458, 68.162
1080.940, 70.668
1081.422, 73.910
1081.904, 76.276
1082.386, 72.118
1082.869, 58.745
1083.351, 55.565
1083.833, 78.168
1084.315, 93.269
1084.797, 88.640
1085.279, 79.567
1085.761, 68.836
1086.243, 62.887
1086.725, 76.979
1087.208, 111.531
1087.690, 121.479
1088.172, 91.857
1088.654, 69.459
1089.136, 55.878
1089.618, 54.459
1090.100, 72.449
1090.582, 93.665
1091.065, 98.930
1091.547, 92.042
1092.029, 95.656
1092.511, 114.824
1092.993, 104.711
1093.475, 55.982
1093.957, 31.455
1094.439, 53.860
1094.922, 84.984
1095.404, 93.634
1095.886, 89.229
1096.368, 92.252
1096.850, 101.588
1097.332, 112.058
1097.814, 121.953
1098.296, 113.263
1098.778, 84.322
1099.260, 60.529
1099.743, 56.528
1100.225, 62.426
1100.707, 65.814
1101.189, 70.230
1101.671, 89.080
1102.153, 112.142
1102.635, 114.028
1103.117, 96.352
1103.600, 72.993
1104.082, 50.326
1104.564, 41.140
1105.046, 62.999
1105.528, 91.887
1106.010, 109.820
1106.492, 119.002
1106.974, 120.479
1107.457, 115.757
1107.939, 104.691
1108.421, 88.878
1108.903, 77.431
1109.385, 75.430
1109.867, 75.243
1110.349, 72.468
1110.831, 72.030
1111.313, 79.836
1111.796, 89.490
1112.278, 94.934
1112.760, 95.798
1113.242, 92.105
1113.724, 80.987
1114.206, 74.113
1114.688, 79.211
1115.170, 77.652
1115.652, 54.512
1116.135, 39.104
1116.617, 57.755
1117.099, 90.205
1117.581, 96.745
1118.063, 76.559
1118.545, 70.631
1119.027, 84.982
1119.509, 81.662
1119.992, 49.962
1120.474, 33.184
1120.956, 53.512
1121.438, 83.233
1121.920, 89.986
1122.402, 82.449
1122.884, 89.881
1123.366, 109.036
1123.849, 117.934
1124.331, 116.029
1124.813, 107.031
1125.295, 93.164
1125.777, 85.745
1126.259, 93.207
1126.741, 105.864
1127.223, 112.198
1127.705, 114.944
1128.188, 121.523
1128.670, 126.072
1129.152, 110.985
1129.634, 82.671
1130.116, 69.247
1130.598, 80.838
1131.080, 95.835
1131.562, 100.215
1132.044, 104.419
1132.527, 118.921
1133.009, 132.355
1133.491, 128.980
1133.973, 119.907
1134.455, 127.814
1134.937, 153.347
1135.419, 168.941
1135.901, 160.169
1136.384, 156.953
1136.866, 171.922
1137.348, 180.654
1137.830, 171.144
1138.312, 155.918
1138.794, 141.984
1139.276, 132.679
1139.758, 139.041
1140.240, 164.305
1140.723, 182.225
1141.205, 193.939
1141.687, 189.732
1142.169, 164.316
1142.651, 144.943
1143.133, 146.944
1143.615, 159.926
1144.097, 172.546
1144.579, 182.263
1145.062, 175.274
1145.544, 157.676
1146.026, 160.806
1146.508, 182.343
1146.990, 196.976
1147.472, 197.582
1147.954, 193.731
1148.436, 191.037
1148.919, 191.380
1149.401, 199.131
1149.883, 208.178
1150.365, 210.254
1150.847, 209.367
1151.329, 212.008
1151.811, 218.330
1152.293, 226.797
1152.776, 237.596
1153.258, 239.886
1153.740, 220.735
1154.222, 204.905
1154.704, 197.424
1155.186, 199.813
1155.668, 221.990
1156.150, 249.503
1156.632, 258.688
1157.115, 251.889
1157.597, 253.874
1158.079, 268.926
1158.561, 282.535
1159.043, 297.116
1159.525, 300.974
1160.007, 285.642
1160.489, 277.581
1160.971, 298.452
1161.454, 332.355
1161.936, 349.729
1162.418, 352.897
1162.900, 353.042
1163.382, 351.420
1163.864, 359.504
1164.346, 376.305
1164.828, 383.611
1165.311, 375.266
1165.793, 367.112
1166.275, 373.011
1166.757, 384.539
1167.239, 391.557
1167.721, 390.378
1168.203, 400.463
1168.685, 412.400
1169.167, 406.177
1169.650, 384.854
1170.132, 371.929
1170.614, 376.875
1171.096, 376.854
1171.578, 349.525
1172.060, 335.079
1172.542, 362.605
1173.024, 391.929
1173.506, 394.606
1173.989, 382.733
1174.471, 375.037
1174.953, 370.629
1175.435, 360.795
1175.917, 341.233
1176.399, 336.308
1176.881, 351.352
1177.363, 358.065
1177.846, 347.104
1178.328, 333.168
1178.810, 325.868
1179.292, 325.187
1179.774, 336.091
1180.256, 351.933
1180.738, 343.444
1181.220, 319.685
1181.703, 304.202
1182.185, 300.701
1182.667, 312.547
1183.149, 339.088
1183.631, 364.519
1184.113, 384.554
1184.595, 387.715
1185.077, 346.263
1185.559, 303.562
1186.042, 301.456
1186.524, 315.214
1187.006, 312.167
1187.488, 295.742
1187.970, 287.209
1188.452, 291.207
1188.934, 294.005
1189.416, 300.035
1189.898, 293.483
1190.381, 263.478
1190.863, 239.971
1191.345, 236.457
1191.827, 245.433
1192.309, 261.176
1192.791, 277.257
1193.273, 269.791
1193.755, 241.205
1194.238, 230.803
1194.720, 237.665
1195.202, 244.233
1195.684, 245.147
1196.166, 232.390
1196.648, 201.544
1197.130, 173.379
1197.612, 167.341
1198.094, 173.638
1198.577, 188.577
1199.059, 202.602
1199.541, 201.047
1200.023, 188.649
1200.505, 172.195
1200.987, 155.679
1201.469, 149.356
1201.951, 158.450
1202.433, 168.598
1202.916, 185.890
1203.398, 190.259
1203.880, 162.263
1204.362, 145.771
1204.844, 175.986
1205.326, 214.735
1205.808, 206.035
1206.290, 160.054
1206.773, 141.798
1207.255, 151.688
1207.737, 172.156
1208.219, 199.334
1208.701, 197.217
1209.183, 159.357
1209.665, 128.938
1210.147, 135.952
1210.630, 146.670
1211.112, 111.247
1211.594, 68.130
1212.076, 73.137
1212.558, 93.347
1213.040, 83.303
1213.522, 55.026
1214.004, 38.405
1214.486, 37.047
1214.969, 40.231
1215.451, 56.557
1215.933, 57.816
1216.415, 31.269
1216.897, 11.919
1217.379, 1.112
1217.861, 1.292
1218.343, 27.179
1218.825, 58.735
1219.308, 59.781
1219.790, 34.682
1220.272, 28.102
1220.754, 37.280
1221.236, 27.305
1221.718, 4.249
1222.200, 3.840
1222.682, 20.248
1223.165, 28.261
1223.647, 1.365
1224.129, 12.512
1224.611, 0.000
##END=



