##NAMES=Pucherite
##RRUFFID=R080137
##IDEAL CHEMISTRY=BiVO_4_
##LOCALITY=Fazenda da Posse, Sao Jose do Brejauba, Minas Gerais, Brazil
##OWNER=RRUFF
##SOURCE=Luiz Menezes
##DESCRIPTION=Reddish brown tabular crystals associated with greenish yellow bismutite
##STATUS=The identification of this mineral has been confirmed by single-crystal X-ray diffraction.
##URL=rruff.info/R080137
133.4341, 0.0000000E+00
133.9162, 0.8336180
134.3983, 2.401245
134.8804, 4.694702
135.3625, 19.05347
135.8447, 39.31274
136.3268, 63.33276
136.8089, 89.10278
137.2910, 115.9650
137.7731, 145.7394
138.2552, 180.9537
138.7374, 222.4335
139.2195, 258.2686
139.7016, 286.5496
140.1837, 311.2463
140.6658, 340.7266
141.1479, 377.3501
141.6301, 413.3586
142.1122, 445.3752
142.5943, 472.5676
143.0764, 498.5192
143.5585, 525.6724
144.0406, 551.5837
144.5228, 568.1647
145.0049, 573.1643
145.4870, 571.7297
145.9691, 567.1255
146.4512, 563.6780
146.9333, 549.7974
147.4155, 522.5022
147.8976, 482.7372
148.3797, 441.9443
148.8618, 396.9646
149.3439, 352.6699
149.8260, 312.2142
150.3082, 274.9666
150.7903, 241.6266
151.2724, 212.0793
151.7545, 186.4973
152.2366, 162.3097
152.7188, 136.6353
153.2009, 113.4880
153.6830, 96.47949
154.1651, 87.42578
154.6472, 82.85278
155.1293, 82.35071
155.6115, 85.82104
156.0936, 93.14233
156.5757, 104.2362
157.0578, 119.1293
157.5399, 137.8048
158.0220, 161.4939
158.5042, 187.9264
158.9863, 215.8060
159.4684, 244.6494
159.9505, 276.8856
160.4326, 313.8198
160.9147, 354.3981
161.3969, 397.0580
161.8790, 440.2035
162.3611, 486.0371
162.8432, 536.2000
163.3253, 591.1606
163.8074, 648.2971
164.2896, 707.2472
164.7717, 767.4294
165.2538, 827.7107
165.7359, 884.1237
166.2180, 942.3242
166.7001, 1007.813
167.1823, 1083.926
167.6644, 1160.467
168.1465, 1229.125
168.6286, 1292.580
169.1107, 1358.416
169.5928, 1433.473
170.0750, 1511.737
170.5571, 1588.015
171.0392, 1659.530
171.5213, 1730.400
172.0034, 1803.818
172.4855, 1879.546
172.9677, 1954.883
173.4498, 2029.154
173.9319, 2102.414
174.4140, 2174.838
174.8961, 2246.062
175.3782, 2317.596
175.8604, 2393.677
176.3425, 2474.449
176.8246, 2553.778
177.3067, 2627.538
177.7888, 2697.349
178.2709, 2763.775
178.7531, 2828.883
179.2352, 2890.752
179.7173, 2948.760
180.1994, 3003.148
180.6815, 3046.246
181.1636, 3069.032
181.6458, 3074.497
182.1279, 3070.910
182.6100, 3062.414
183.0921, 3045.866
183.5742, 3012.839
184.0563, 2964.528
184.5385, 2905.035
185.0206, 2841.337
185.5027, 2770.427
185.9848, 2684.687
186.4669, 2574.251
186.9490, 2446.848
187.4312, 2322.179
187.9133, 2203.282
188.3954, 2086.146
188.8775, 1967.341
189.3596, 1848.633
189.8417, 1733.387
190.3239, 1623.950
190.8060, 1519.518
191.2881, 1419.614
191.7702, 1326.074
192.2523, 1237.821
192.7344, 1152.100
193.2166, 1069.410
193.6987, 993.3336
194.1808, 925.2103
194.6629, 864.7438
195.1450, 806.5759
195.6271, 750.5598
196.1093, 697.5310
196.5914, 649.1538
197.0735, 605.5935
197.5556, 563.8363
198.0377, 521.8601
198.5198, 479.2863
199.0020, 443.2646
199.4841, 414.8920
199.9662, 390.7855
200.4483, 364.2635
200.9304, 334.4305
201.4125, 306.8781
201.8947, 285.3716
202.3768, 270.6996
202.8589, 253.3881
203.3410, 232.4090
203.8231, 209.9631
204.3052, 190.3813
204.7874, 173.6959
205.2695, 159.0170
205.7516, 146.4736
206.2337, 136.4853
206.7158, 125.7384
207.1979, 113.8456
207.6801, 101.4753
208.1622, 90.12097
208.6443, 79.59131
209.1264, 70.37384
209.6085, 62.87946
210.0906, 57.35602
210.5728, 52.45459
211.0549, 48.61688
211.5370, 44.92279
212.0191, 39.37549
212.5012, 30.81635
212.9833, 23.10461
213.4655, 18.51141
213.9476, 18.01276
214.4297, 16.81689
214.9118, 14.66339
215.3939, 11.84448
215.8760, 8.754211
216.3581, 4.944153
216.8403, 1.958435
217.3224, 0.9437870
217.8045, 2.869019
218.2866, 3.266663
218.7687, 1.514709
219.2508, 1.576843
219.7330, 3.546204
220.2151, 3.984619
220.6972, 4.410461
221.1793, 5.622681
221.6614, 8.468079
222.1435, 9.719971
222.6257, 8.689880
223.1078, 6.242310
223.5899, 4.899963
224.0720, 5.083740
224.5541, 5.788574
225.0362, 6.594727
225.5184, 7.331238
226.0005, 8.218628
226.4826, 9.855652
226.9647, 11.81738
227.4468, 12.53534
227.9289, 11.19281
228.4111, 9.515198
228.8932, 8.247925
229.3753, 7.390991
229.8574, 6.902771
230.3395, 6.938843
230.8216, 7.288147
231.3038, 7.526062
231.7859, 8.080383
232.2680, 7.881470
232.7501, 6.216614
233.2322, 1.830139
233.7143, 1.100037
234.1965, 2.068542
234.6786, 1.708923
235.1607, 1.597351
235.6428, 1.425537
236.1249, 1.762878
236.6070, 3.237610
237.0892, 7.575867
237.5713, 9.052673
238.0534, 6.332825
238.5355, 1.086609
239.0176, 2.400269
239.4997, 3.688049
239.9819, 3.942444
240.4640, 3.440308
240.9461, 1.440674
241.4282, 0.5167850
241.9103, 1.232849
242.3924, 2.836060
242.8746, 3.409363
243.3567, 2.025452
243.8388, 1.003601
244.3209, 1.507690
244.8030, 4.595398
245.2851, 6.244995
245.7673, 5.908142
246.2494, 4.348450
246.7315, 3.083557
247.2136, 1.710327
247.6957, 1.276855
248.1778, 2.535217
248.6600, 6.569092
249.1421, 8.803223
249.6242, 8.259888
250.1063, 6.469421
250.5884, 6.687439
251.0705, 10.71851
251.5527, 13.69006
252.0348, 13.44135
252.5169, 8.733582
252.9990, 5.388062
253.4811, 3.873291
253.9632, 3.395569
254.4454, 2.466248
254.9275, 0.5010380
255.4096, 0.7879030
255.8917, 0.5955200
256.3738, 1.558472
256.8560, 3.002686
257.3381, 3.815369
257.8202, 3.871704
258.3023, 2.733765
258.7844, 0.4498290
259.2665, 2.960266
259.7487, 3.801880
260.2308, 2.696899
260.7129, 1.794739
261.1950, 1.071838
261.6771, 0.5739750
262.1592, 0.3950810
262.6414, 0.6127320
263.1235, 0.9616700
263.6056, 1.382751
264.0877, 1.882935
264.5698, 2.518127
265.0519, 3.587952
265.5341, 4.388184
266.0162, 3.883728
266.4983, 1.493958
266.9804, 0.6282960
267.4625, 2.217590
267.9446, 3.242371
268.4268, 2.237793
268.9089, 1.694702
269.3910, 6.035095
269.8731, 8.174438
270.3552, 7.704834
270.8373, 6.386353
271.3195, 4.206177
271.8016, 1.387695
272.2837, 0.1350100
272.7658, 0.9475710
273.2479, 2.134644
273.7300, 1.787903
274.2122, 0.5916750
274.6943, 1.461670
275.1764, 0.8978880
275.6585, 5.496826
276.1406, 5.740845
276.6227, 0.4179080
277.1049, 5.676270
277.5870, 8.218994
278.0691, 6.764954
278.5512, 5.697083
279.0333, 5.799194
279.5154, 6.888245
279.9976, 8.038513
280.4797, 9.145996
280.9618, 9.863220
281.4439, 9.578430
281.9260, 8.381897
282.4081, 9.046631
282.8903, 12.93024
283.3724, 17.78253
283.8545, 17.37183
284.3366, 11.25922
284.8187, 5.055725
285.3008, 2.424255
285.7830, 2.940369
286.2651, 3.908142
286.7472, 5.272766
287.2293, 6.701782
287.7114, 7.610657
288.1935, 8.036377
288.6757, 8.119202
289.1578, 7.910522
289.6399, 7.422852
290.1220, 6.493835
290.6041, 4.769775
291.0862, 3.102722
291.5684, 4.047180
292.0505, 7.298462
292.5326, 9.000427
293.0147, 5.803894
293.4968, 0.4794310
293.9789, 4.448669
294.4611, 5.753723
294.9432, 6.253052
295.4253, 7.708374
295.9074, 9.748535
296.3895, 11.26703
296.8716, 12.18317
297.3538, 12.49213
297.8359, 11.15271
298.3180, 8.096802
298.8001, 6.464783
299.2822, 10.41962
299.7643, 18.05316
300.2465, 24.45532
300.7286, 27.15344
301.2107, 28.42224
301.6928, 30.68390
302.1749, 33.84058
302.6570, 38.41711
303.1392, 46.76984
303.6213, 56.84741
304.1034, 64.51349
304.5855, 67.14966
305.0676, 68.71198
305.5497, 73.51031
306.0319, 80.91046
306.5140, 88.38788
306.9961, 93.67468
307.4782, 98.61884
307.9603, 105.5723
308.4424, 115.5117
308.9246, 125.9345
309.4067, 134.9917
309.8888, 143.2826
310.3709, 152.5010
310.8530, 163.0700
311.3351, 174.6917
311.8173, 186.8329
312.2994, 199.1504
312.7815, 213.5602
313.2636, 233.6791
313.7457, 256.1688
314.2278, 275.2184
314.7100, 284.6401
315.1921, 292.5114
315.6742, 303.5024
316.1563, 318.2840
316.6384, 335.3713
317.1205, 355.1154
317.6027, 376.0134
318.0848, 396.1255
318.5669, 414.0875
319.0490, 431.8578
319.5311, 449.7308
320.0132, 467.6943
320.4954, 487.4434
320.9775, 509.5455
321.4596, 533.4126
321.9417, 558.2078
322.4238, 584.5556
322.9059, 610.9830
323.3881, 637.6738
323.8702, 664.2746
324.3523, 689.7078
324.8344, 710.3741
325.3165, 731.9932
325.7986, 758.1633
326.2808, 796.8236
326.7629, 831.2820
327.2450, 859.2274
327.7271, 881.7683
328.2092, 903.3897
328.6913, 924.3762
329.1735, 944.1896
329.6556, 963.0824
330.1377, 982.0177
330.6198, 998.2310
331.1019, 1012.029
331.5840, 1022.916
332.0662, 1030.210
332.5483, 1033.490
333.0304, 1033.759
333.5125, 1030.664
333.9946, 1023.366
334.4767, 1016.598
334.9589, 1009.438
335.4410, 1003.588
335.9231, 1001.815
336.4052, 1005.891
336.8873, 1009.323
337.3694, 1010.341
337.8516, 1009.103
338.3336, 1007.732
338.8158, 1005.190
339.2979, 1004.853
339.7800, 1010.633
340.2621, 1023.328
340.7442, 1036.025
341.2263, 1047.337
341.7085, 1057.894
342.1906, 1067.870
342.6727, 1076.801
343.1548, 1088.282
343.6369, 1107.333
344.1190, 1133.058
344.6012, 1153.563
345.0833, 1166.704
345.5654, 1175.441
346.0475, 1184.518
346.5296, 1193.833
347.0117, 1202.707
347.4939, 1211.971
347.9760, 1220.479
348.4581, 1224.101
348.9402, 1222.120
349.4223, 1217.917
349.9044, 1215.295
350.3866, 1213.648
350.8687, 1210.863
351.3508, 1204.590
351.8329, 1197.244
352.3150, 1192.648
352.7971, 1190.747
353.2793, 1190.072
353.7614, 1189.694
354.2435, 1189.701
354.7256, 1190.114
355.2077, 1190.249
355.6898, 1191.642
356.1720, 1196.644
356.6541, 1204.482
357.1362, 1211.799
357.6183, 1215.800
358.1004, 1218.937
358.5826, 1223.402
359.0647, 1229.787
359.5468, 1237.044
360.0289, 1246.025
360.5110, 1255.397
360.9931, 1262.648
361.4753, 1263.837
361.9574, 1264.934
362.4395, 1269.742
362.9216, 1279.460
363.4037, 1287.314
363.8858, 1291.400
364.3680, 1292.601
364.8501, 1291.847
365.3322, 1288.687
365.8143, 1284.318
366.2964, 1279.156
366.7785, 1273.186
367.2607, 1265.751
367.7428, 1255.900
368.2249, 1245.153
368.7070, 1234.397
369.1891, 1225.230
369.6712, 1214.115
370.1534, 1200.882
370.6355, 1185.555
371.1176, 1168.100
371.5997, 1147.114
372.0818, 1125.677
372.5639, 1105.120
373.0461, 1086.282
373.5282, 1064.685
374.0103, 1038.891
374.4924, 1011.157
374.9745, 985.6511
375.4566, 963.3733
375.9388, 939.5496
376.4209, 912.3941
376.9030, 881.9031
377.3851, 854.2784
377.8672, 829.9006
378.3493, 806.2009
378.8315, 780.4015
379.3136, 752.2230
379.7957, 726.7612
380.2778, 705.3445
380.7599, 686.5530
381.2420, 665.7450
381.7242, 643.2853
382.2063, 621.8945
382.6884, 603.9334
383.1705, 588.6469
383.6526, 574.1388
384.1347, 560.2154
384.6169, 547.0583
385.0990, 535.6103
385.5811, 525.4189
386.0632, 515.7335
386.5453, 504.8854
387.0274, 494.9932
387.5096, 489.1089
387.9917, 487.2339
388.4738, 487.8429
388.9559, 491.3363
389.4380, 496.1822
389.9201, 500.3186
390.4023, 501.6894
390.8844, 503.9368
391.3665, 508.6659
391.8486, 516.0436
392.3307, 526.7722
392.8128, 543.1740
393.2950, 561.8443
393.7771, 580.2603
394.2592, 596.9026
394.7413, 615.7731
395.2234, 638.8991
395.7055, 664.7863
396.1877, 691.0607
396.6698, 716.6996
397.1519, 742.9430
397.6340, 770.3651
398.1161, 799.0901
398.5982, 829.0240
399.0804, 861.4749
399.5625, 894.4441
400.0446, 926.2710
400.5267, 954.3649
401.0088, 985.1210
401.4909, 1019.021
401.9731, 1055.913
402.4552, 1094.786
402.9373, 1136.257
403.4194, 1178.883
403.9015, 1222.085
404.3836, 1265.992
404.8658, 1310.001
405.3479, 1353.962
405.8300, 1397.576
406.3121, 1441.124
406.7942, 1484.786
407.2763, 1527.130
407.7585, 1568.323
408.2406, 1607.958
408.7227, 1643.740
409.2048, 1675.786
409.6869, 1701.806
410.1690, 1720.931
410.6512, 1732.484
411.1333, 1733.755
411.6154, 1723.968
412.0975, 1704.221
412.5796, 1675.069
413.0617, 1636.905
413.5439, 1591.371
414.0260, 1538.085
414.5081, 1477.902
414.9902, 1411.411
415.4723, 1337.899
415.9544, 1263.034
416.4366, 1191.736
416.9187, 1122.580
417.4008, 1053.751
417.8829, 981.6868
418.3650, 911.6272
418.8471, 844.6816
419.3293, 781.6842
419.8114, 723.4057
420.2935, 672.6577
420.7756, 625.5117
421.2577, 580.6050
421.7398, 535.9249
422.2220, 495.1382
422.7041, 460.3955
423.1862, 429.5249
423.6683, 398.4690
424.1504, 363.1567
424.6325, 330.6643
425.1147, 303.5759
425.5968, 281.9507
426.0789, 261.4740
426.5610, 242.5380
427.0431, 224.3405
427.5252, 206.1643
428.0074, 186.9551
428.4895, 170.6371
428.9716, 158.7986
429.4537, 150.0363
429.9358, 140.0817
430.4179, 128.5188
430.9001, 117.3868
431.3822, 108.1551
431.8643, 100.8442
432.3464, 92.86688
432.8285, 84.03241
433.3106, 75.10217
433.7928, 66.91455
434.2749, 59.44800
434.7570, 52.55902
435.2391, 46.15118
435.7212, 40.32764
436.2033, 35.54895
436.6855, 31.79279
437.1676, 28.07269
437.6497, 23.17529
438.1318, 18.01648
438.6139, 14.04633
439.0960, 11.62170
439.5782, 10.01715
440.0603, 9.353760
440.5424, 9.001648
441.0245, 7.835999
441.5066, 4.238525
441.9887, 0.5894780
442.4709, 1.395691
442.9530, 1.758728
443.4351, 2.657104
443.9172, 5.682861
444.3993, 9.079712
444.8814, 11.50232
445.3636, 12.44537
445.8457, 12.81000
446.3278, 12.18402
446.8099, 11.05994
447.2920, 10.72241
447.7741, 11.82123
448.2563, 12.99536
448.7384, 13.59692
449.2205, 13.45422
449.7026, 14.47528
450.1847, 17.37561
450.6668, 20.46808
451.1490, 22.10657
451.6311, 21.96222
452.1132, 21.70044
452.5953, 21.81879
453.0774, 21.83905
453.5595, 20.07532
454.0417, 16.26538
454.5238, 12.98895
455.0059, 11.80518
455.4880, 12.44937
455.9701, 13.78806
456.4522, 15.91263
456.9344, 17.67996
457.4165, 17.68121
457.8986, 16.35764
458.3807, 14.78070
458.8628, 12.96646
459.3449, 11.41849
459.8271, 11.06393
460.3092, 11.63834
460.7913, 12.01929
461.2734, 11.52792
461.7555, 10.53778
462.2376, 9.263367
462.7198, 7.602020
463.2019, 6.169434
463.6840, 5.463593
464.1661, 5.068909
464.6482, 4.482910
465.1303, 3.596283
465.6125, 2.546875
466.0946, 1.278503
466.5767, 0.1726070
467.0588, 1.538300
467.5409, 3.226837
468.0230, 4.463043
468.5052, 4.841278
468.9873, 3.949585
469.4694, 3.173767
469.9515, 2.348175
470.4336, 1.797760
470.9157, 2.090424
471.3979, 3.564636
471.8800, 4.780182
472.3621, 5.080048
472.8442, 4.837311
473.3263, 6.191376
473.8084, 9.376221
474.2906, 12.35107
474.7727, 13.53070
475.2548, 13.20340
475.7369, 12.52548
476.2190, 11.43854
476.7011, 10.62668
477.1833, 11.30957
477.6654, 12.97897
478.1475, 14.20230
478.6296, 13.58737
479.1117, 12.76175
479.5938, 13.72955
480.0760, 16.21848
480.5581, 18.41348
481.0402, 19.11758
481.5223, 19.17065
482.0044, 19.19351
482.4865, 19.26022
482.9687, 19.52954
483.4508, 19.75516
483.9329, 20.24338
484.4150, 21.49039
484.8971, 25.78571
485.3792, 28.58600
485.8614, 27.65839
486.3435, 23.37024
486.8256, 21.74054
487.3077, 24.75021
487.7898, 28.15350
488.2719, 29.55359
488.7541, 28.12152
489.2362, 27.40320
489.7183, 27.59192
490.2004, 28.26816
490.6825, 28.71872
491.1646, 28.87418
491.6468, 29.36478
492.1289, 30.45996
492.6110, 31.97940
493.0931, 33.46378
493.5752, 34.90619
494.0573, 36.03607
494.5395, 36.18027
495.0216, 35.94186
495.5037, 36.85892
495.9858, 39.38055
496.4679, 41.65012
496.9500, 41.47498
497.4322, 39.96042
497.9143, 38.98221
498.3964, 39.77591
498.8785, 40.87851
499.3606, 41.38635
499.8427, 41.44543
500.3249, 41.83435
500.8070, 43.03574
501.2891, 44.47787
501.7712, 45.95792
502.2533, 47.77310
502.7354, 48.59167
503.2176, 47.35071
503.6997, 45.66370
504.1818, 45.24274
504.6639, 46.99036
505.1460, 48.35971
505.6281, 48.84418
506.1103, 48.61850
506.5924, 48.43460
507.0745, 48.35446
507.5566, 48.16327
508.0387, 47.73077
508.5208, 47.02319
509.0030, 45.74597
509.4851, 43.84253
509.9672, 42.30887
510.4493, 43.03412
510.9314, 45.13928
511.4135, 45.43805
511.8957, 42.33081
512.3778, 38.71991
512.8599, 38.52615
513.3420, 40.56326
513.8242, 41.58212
514.3063, 38.81256
514.7884, 35.11368
515.2705, 32.86566
515.7526, 32.30954
516.2347, 31.82037
516.7169, 30.26700
517.1990, 28.78146
517.6811, 28.19168
518.1632, 29.33066
518.6453, 30.33170
519.1274, 31.40878
519.6096, 32.24585
520.0917, 32.16055
520.5738, 30.75674
521.0559, 29.07358
521.5380, 26.97980
522.0201, 24.56122
522.5023, 23.88504
522.9844, 25.46222
523.4665, 27.40158
523.9486, 28.45285
524.4307, 28.66916
524.9128, 28.43115
525.3950, 27.66571
525.8771, 26.78375
526.3592, 26.37982
526.8413, 26.28940
527.3234, 26.09753
527.8055, 25.86563
528.2877, 25.25931
528.7698, 23.35114
529.2519, 20.63611
529.7340, 18.86935
530.2161, 19.56836
530.6982, 21.08737
531.1804, 22.49789
531.6625, 23.84586
532.1446, 24.59683
532.6267, 23.94675
533.1088, 22.83286
533.5909, 22.13519
534.0731, 23.02203
534.5552, 23.03214
535.0373, 21.45468
535.5194, 19.09589
536.0015, 17.90460
536.4836, 18.30698
536.9658, 18.77637
537.4479, 18.81155
537.9300, 18.51474
538.4121, 18.90677
538.8942, 20.18457
539.3763, 21.19775
539.8585, 20.38553
540.3406, 18.27084
540.8227, 18.12231
541.3048, 20.89435
541.7869, 23.79282
542.2690, 22.43500
542.7512, 18.44662
543.2333, 15.63806
543.7154, 16.39758
544.1975, 18.03928
544.6796, 18.50485
545.1617, 18.12851
545.6439, 17.81851
546.1260, 17.97055
546.6081, 18.20517
547.0902, 18.28592
547.5723, 18.07883
548.0544, 18.27505
548.5366, 19.71466
549.0187, 21.14926
549.5008, 21.46527
549.9829, 19.92438
550.4650, 18.65665
550.9471, 17.83063
551.4293, 17.37775
551.9114, 17.27188
552.3935, 17.65204
552.8756, 17.59290
553.3577, 16.51721
553.8398, 14.76910
554.3220, 13.92758
554.8041, 13.98029
555.2862, 14.07709
555.7683, 13.47272
556.2504, 12.51022
556.7325, 11.80893
557.2147, 11.45044
557.6968, 11.25571
558.1789, 11.03741
558.6610, 10.93378
559.1431, 11.11401
559.6252, 11.92313
560.1074, 12.73688
560.5895, 13.45346
561.0716, 13.96851
561.5537, 14.00244
562.0358, 13.01050
562.5179, 12.06000
563.0001, 11.53320
563.4822, 11.46078
563.9643, 11.32874
564.4464, 10.99551
564.9285, 10.81021
565.4106, 11.11023
565.8928, 12.00049
566.3749, 12.71286
566.8570, 13.18781
567.3391, 13.47797
567.8212, 13.62372
568.3033, 13.68100
568.7855, 13.80780
569.2676, 14.00323
569.7497, 14.29126
570.2318, 15.08563
570.7139, 16.18344
571.1960, 16.66962
571.6782, 15.51318
572.1603, 13.77414
572.6424, 12.04715
573.1245, 10.33786
573.6066, 9.571503
574.0887, 10.84760
574.5709, 12.73630
575.0530, 14.15732
575.5351, 15.12943
576.0172, 15.45190
576.4993, 14.75638
576.9814, 13.58823
577.4636, 12.81290
577.9457, 12.48773
578.4278, 12.36261
578.9099, 12.37082
579.3920, 12.52411
579.8741, 13.16486
580.3563, 14.38550
580.8384, 14.97183
581.3205, 13.38330
581.8026, 10.61746
582.2847, 9.808533
582.7668, 11.06531
583.2490, 12.77164
583.7311, 13.89474
584.2132, 14.53751
584.6953, 14.84985
585.1774, 14.86905
585.6595, 14.52777
586.1416, 13.08109
586.6237, 11.41452
587.1058, 8.951508
587.5880, 11.66000
588.0701, 13.20724
588.5522, 13.66333
589.0343, 9.733459
589.5164, 11.48148
589.9985, 10.95511
590.4807, 10.32266
590.9628, 12.83871
591.4449, 9.509918
591.9270, 11.96478
592.4091, 12.10623
592.8912, 13.28549
593.3734, 12.15195
593.8555, 11.70868
594.3376, 13.55127
594.8197, 14.12589
595.3018, 12.70468
595.7839, 13.89291
596.2661, 10.40067
596.7482, 11.01691
597.2303, 13.40582
597.7124, 12.08105
598.1945, 13.27728
598.6766, 13.49713
599.1588, 9.329987
599.6409, 12.85107
600.1230, 13.07159
600.6051, 9.892029
601.0872, 13.16388
601.5693, 10.47989
602.0515, 13.65530
602.5336, 16.86136
603.0157, 18.79956
603.4978, 19.30222
603.9799, 19.14563
604.4620, 18.14966
604.9442, 17.23035
605.4263, 17.64352
605.9084, 19.21414
606.3905, 20.80728
606.8726, 22.17285
607.3547, 23.32181
607.8369, 24.06204
608.3190, 24.65826
608.8011, 25.78540
609.2832, 28.40198
609.7653, 31.19525
610.2474, 33.19363
610.7296, 34.47543
611.2117, 35.92883
611.6938, 37.69748
612.1759, 39.59296
612.6580, 41.88388
613.1401, 45.14209
613.6223, 46.94742
614.1044, 45.94128
614.5865, 44.79623
615.0686, 46.50641
615.5507, 51.75247
616.0328, 55.05054
616.5150, 55.31171
616.9971, 54.35571
617.4792, 55.10440
617.9613, 57.23618
618.4434, 59.09872
618.9255, 59.89069
619.4077, 60.41968
619.8898, 61.54056
620.3719, 63.21249
620.8540, 65.30704
621.3361, 68.46567
621.8182, 71.39798
622.3004, 73.01483
622.7825, 73.28351
623.2646, 74.31015
623.7467, 76.75439
624.2288, 79.88947
624.7109, 83.66690
625.1931, 88.97293
625.6752, 91.52325
626.1573, 90.04556
626.6394, 87.95224
627.1215, 89.01740
627.6036, 93.28552
628.0858, 97.43460
628.5679, 100.9068
629.0500, 104.2163
629.5321, 108.4189
630.0142, 113.1315
630.4963, 116.9291
630.9785, 118.1937
631.4606, 119.4341
631.9427, 123.1256
632.4248, 128.6746
632.9069, 134.1793
633.3890, 138.9305
633.8712, 143.3004
634.3533, 147.7085
634.8354, 152.2288
635.3175, 155.4148
635.7996, 156.0388
636.2817, 156.6871
636.7639, 158.8990
637.2460, 163.0475
637.7281, 166.8101
638.2102, 170.2327
638.6923, 173.2045
639.1744, 175.3986
639.6566, 176.9074
640.1387, 178.8264
640.6208, 181.6564
641.1029, 183.8631
641.5850, 183.2940
642.0671, 180.7759
642.5493, 177.9881
643.0314, 175.2054
643.5135, 172.7527
643.9956, 171.3666
644.4777, 170.5267
644.9598, 168.5943
645.4420, 164.0245
645.9241, 159.6484
646.4062, 156.8465
646.8883, 155.4446
647.3704, 151.6953
647.8525, 144.7539
648.3347, 137.2853
648.8168, 130.9233
649.2989, 125.5273
649.7810, 120.0876
650.2631, 114.4894
650.7452, 109.6533
651.2274, 107.7261
651.7095, 107.0266
652.1916, 103.7058
652.6737, 96.47003
653.1558, 88.88306
653.6379, 83.66943
654.1201, 79.59424
654.6022, 75.09393
655.0843, 69.21887
655.5664, 63.42551
656.0485, 58.13791
656.5306, 53.20322
657.0128, 48.09766
657.4949, 42.39658
657.9770, 37.54016
658.4591, 34.15863
658.9412, 31.90097
659.4233, 28.68884
659.9055, 24.42603
660.3876, 20.83737
660.8697, 19.69907
661.3518, 19.74115
661.8339, 17.56180
662.3160, 13.26608
662.7982, 8.822968
663.2803, 4.982178
663.7624, 2.077606
664.2445, 0.7286070
664.7266, 1.273499
665.2087, 1.651215
665.6909, 1.312042
666.1730, 0.4305110
666.6551, 0.9027100
667.1372, 3.299347
667.6193, 5.052887
668.1014, 6.198303
668.5836, 6.683319
669.0657, 6.028290
669.5478, 4.069458
670.0299, 3.337006
670.5120, 4.812500
670.9941, 6.928650
671.4763, 6.561127
671.9584, 4.334198
672.4405, 2.594543
672.9226, 3.146912
673.4047, 3.804565
673.8868, 2.685913
674.3690, 0.1547240
674.8511, 2.622009
675.3332, 5.040833
675.8153, 7.740967
676.2974, 11.19312
676.7795, 15.48267
677.2617, 19.50385
677.7438, 23.10162
678.2259, 26.77203
678.7080, 30.66321
679.1901, 34.76990
679.6722, 39.84644
680.1544, 46.15887
680.6365, 52.61176
681.1186, 57.94922
681.6007, 62.63257
682.0828, 68.08441
682.5649, 74.51843
683.0471, 81.23468
683.5292, 87.43805
684.0113, 93.48145
684.4934, 99.51898
684.9755, 104.7328
685.4576, 111.4667
685.9398, 121.6357
686.4219, 133.4404
686.9040, 144.0524
687.3861, 153.5533
687.8682, 161.3309
688.3503, 166.4173
688.8325, 170.4796
689.3146, 177.6772
689.7967, 187.9305
690.2788, 198.3568
690.7609, 208.3030
691.2430, 217.6835
691.7252, 226.3049
692.2073, 234.2238
692.6894, 241.6224
693.1715, 248.7758
693.6536, 255.5341
694.1357, 261.2404
694.6179, 266.0470
695.1000, 272.4087
695.5821, 283.7466
696.0642, 294.1661
696.5463, 300.1675
697.0284, 300.5007
697.5106, 305.1064
697.9927, 315.2648
698.4748, 326.7629
698.9569, 336.6019
699.4390, 344.8270
699.9211, 350.9890
700.4033, 354.9487
700.8854, 357.8586
701.3675, 360.0312
701.8496, 362.1864
702.3317, 365.7790
702.8138, 371.9668
703.2960, 377.2695
703.7781, 380.6709
704.2602, 381.8969
704.7423, 380.6057
705.2244, 373.7623
705.7065, 368.2141
706.1887, 364.9349
706.6708, 362.8776
707.1529, 360.4466
707.6350, 357.8568
708.1171, 353.3743
708.5992, 346.0642
709.0814, 337.1719
709.5635, 329.5545
710.0456, 322.7380
710.5277, 314.6049
711.0098, 302.3979
711.4919, 289.7908
711.9741, 280.5257
712.4562, 273.8438
712.9383, 266.3846
713.4204, 255.8867
713.9025, 245.3582
714.3846, 236.3105
714.8668, 228.5875
715.3489, 220.1536
715.8310, 210.3640
716.3131, 201.0392
716.7952, 193.4902
717.2773, 187.5187
717.7595, 179.0894
718.2416, 168.0263
718.7237, 158.1683
719.2058, 155.3513
719.6879, 154.6823
720.1700, 146.8128
720.6522, 130.2928
721.1343, 116.0012
721.6164, 112.1498
722.0985, 111.9913
722.5806, 110.1398
723.0627, 105.3796
723.5449, 99.72131
724.0270, 92.62305
724.5091, 85.25085
724.9912, 78.68768
725.4733, 73.07098
725.9554, 67.19720
726.4376, 60.85205
726.9197, 54.75183
727.4018, 49.96954
727.8839, 46.20013
728.3660, 42.75916
728.8481, 39.87823
729.3303, 36.39899
729.8124, 30.29700
730.2945, 23.21167
730.7766, 17.57153
731.2587, 15.01880
731.7408, 13.01746
732.2230, 11.18872
732.7051, 9.518433
733.1872, 8.139832
733.6693, 7.259827
734.1514, 5.996155
734.6335, 3.988586
735.1157, 1.622009
735.5978, 0.1120000
736.0799, 1.262390
736.5620, 2.129150
737.0441, 2.158264
737.5262, 2.534241
738.0084, 5.356934
738.4905, 9.821289
738.9726, 13.13745
739.4547, 13.39392
739.9368, 12.95691
740.4189, 12.96210
740.9011, 13.33820
741.3832, 12.68011
741.8653, 10.23907
742.3474, 7.751038
742.8295, 6.125427
743.3116, 5.396545
743.7938, 5.139954
744.2759, 5.329285
744.7580, 5.146057
745.2401, 3.402954
745.7222, 1.250610
746.2043, 1.158203
746.6865, 2.997620
747.1686, 3.222534
747.6507, 3.123962
748.1328, 9.476318
748.6149, 10.55347
749.0970, 3.943542
749.5792, 1.591187
750.0613, 5.714661
750.5434, 11.70996
751.0255, 17.19855
751.5076, 22.17822
751.9897, 25.60065
752.4719, 27.29565
752.9540, 28.54559
753.4361, 30.60974
753.9182, 33.18915
754.4003, 35.67102
754.8824, 37.86499
755.3646, 40.79041
755.8467, 45.08771
756.3288, 50.42072
756.8109, 56.44373
757.2930, 64.55499
757.7751, 70.48767
758.2573, 72.81885
758.7394, 74.19177
759.2215, 76.99261
759.7036, 81.35742
760.1857, 86.68842
760.6678, 92.90582
761.1500, 99.79987
761.6321, 107.7284
762.1142, 115.8929
762.5963, 122.2283
763.0784, 125.4899
763.5605, 128.7399
764.0427, 134.1915
764.5248, 140.8716
765.0069, 147.5616
765.4890, 155.9575
765.9711, 161.5317
766.4532, 162.5112
766.9354, 161.7091
767.4175, 163.2216
767.8996, 167.3701
768.3817, 172.3865
768.8638, 178.6260
769.3459, 184.2080
769.8281, 184.8795
770.3102, 182.2137
770.7923, 180.9009
771.2744, 183.3422
771.7565, 186.3896
772.2386, 188.5067
772.7208, 189.6576
773.2029, 189.7834
773.6850, 188.3798
774.1671, 186.4890
774.6492, 184.1183
775.1313, 181.4121
775.6135, 178.5367
776.0956, 175.3867
776.5777, 172.9373
777.0598, 171.9485
777.5419, 171.0137
778.0240, 167.2896
778.5062, 161.4495
778.9883, 155.5919
779.4704, 151.1055
779.9525, 146.4895
780.4346, 139.9202
780.9167, 132.5554
781.3989, 127.1658
781.8810, 126.7963
782.3631, 125.3905
782.8452, 121.4520
783.3273, 115.9296
783.8094, 111.7537
784.2916, 109.0956
784.7737, 105.9874
785.2558, 101.3878
785.7379, 96.30371
786.2200, 93.32178
786.7021, 91.60974
787.1843, 88.41467
787.6664, 80.69678
788.1485, 72.63770
788.6306, 66.48584
789.1127, 61.98926
789.5948, 58.03284
790.0770, 55.23962
790.5591, 51.69141
791.0412, 46.26941
791.5233, 39.98901
792.0054, 36.93164
792.4875, 37.12964
792.9697, 36.89819
793.4518, 34.48328
793.9339, 30.85547
794.4160, 27.41541
794.8981, 24.07593
795.3802, 20.38464
795.8624, 15.04456
796.3445, 10.03174
796.8266, 6.618530
797.3087, 4.718506
797.7908, 2.986328
798.2729, 2.236206
798.7551, 0.2083740
799.2372, 6.041626
799.7193, 13.54492
800.2014, 16.33044
800.6835, 14.73987
801.1656, 12.92786
801.6478, 12.97742
802.1299, 13.99866
802.6120, 15.04724
803.0941, 16.05762
803.5762, 17.03699
804.0583, 18.52307
804.5405, 19.80115
805.0226, 20.29358
805.5047, 19.91272
805.9868, 19.63293
806.4689, 19.93896
806.9510, 20.09424
807.4332, 19.55652
807.9153, 18.24170
808.3974, 16.66028
808.8795, 14.88379
809.3616, 12.98730
809.8438, 11.07947
810.3259, 9.109741
810.8080, 6.665527
811.2901, 4.078491
811.7722, 2.344971
812.2543, 4.309692
812.7365, 4.032715
813.2186, 0.6568600
813.7007, 8.540894
814.1828, 15.22961
814.6649, 20.70117
815.1470, 25.34656
815.6292, 28.90308
816.1113, 32.04553
816.5934, 35.21716
817.0755, 38.92004
817.5576, 44.74939
818.0397, 56.22888
818.5219, 67.22900
819.0040, 73.27966
819.4861, 76.23914
819.9682, 82.22034
820.4503, 93.12512
820.9324, 104.4438
821.4146, 114.9987
821.8967, 125.3385
822.3788, 136.9302
822.8609, 149.5863
823.3430, 161.6705
823.8251, 171.6040
824.3073, 182.0122
824.7894, 197.2766
825.2715, 215.3593
825.7536, 232.5535
826.2357, 245.5159
826.7178, 259.4015
827.2000, 275.7103
827.6821, 293.8529
828.1642, 312.2157
828.6463, 330.4714
829.1284, 351.0692
829.6105, 375.3395
830.0927, 401.4125
830.5748, 426.5980
831.0569, 451.0946
831.5390, 475.7335
832.0211, 500.5895
832.5032, 526.6423
832.9854, 553.6838
833.4675, 582.5292
833.9496, 613.8547
834.4317, 648.4484
834.9138, 684.8325
835.3959, 723.1301
835.8781, 762.5021
836.3602, 801.1377
836.8423, 838.6143
837.3244, 882.5718
837.8065, 935.5035
838.2886, 991.4297
838.7708, 1043.387
839.2529, 1094.036
839.7350, 1148.021
840.2171, 1206.980
840.6992, 1268.849
841.1813, 1333.278
841.6635, 1400.467
842.1456, 1471.168
842.6277, 1545.278
843.1098, 1621.606
843.5919, 1699.254
844.0740, 1781.708
844.5562, 1873.235
845.0383, 1972.306
845.5204, 2073.263
846.0025, 2175.088
846.4846, 2280.076
846.9667, 2388.944
847.4489, 2502.811
847.9310, 2621.145
848.4131, 2744.156
848.8952, 2874.589
849.3773, 3013.713
849.8594, 3159.318
850.3416, 3309.792
850.8237, 3465.156
851.3058, 3625.505
851.7879, 3791.989
852.2700, 3965.219
852.7521, 4152.575
853.2343, 4347.610
853.7164, 4543.363
854.1985, 4737.395
854.6806, 4935.193
855.1627, 5136.858
855.6448, 5345.327
856.1270, 5562.842
856.6091, 5790.488
857.0912, 6013.250
857.5733, 6227.902
858.0554, 6444.270
858.5375, 6674.276
859.0197, 6908.396
859.5018, 7125.535
859.9839, 7326.860
860.4660, 7526.781
860.9481, 7739.475
861.4302, 7946.423
861.9124, 8141.272
862.3945, 8321.479
862.8766, 8493.104
863.3587, 8657.235
863.8408, 8803.348
864.3229, 8924.950
864.8051, 9026.349
865.2872, 9119.413
865.7693, 9202.696
866.2514, 9262.948
866.7335, 9291.327
867.2156, 9296.038
867.6978, 9280.242
868.1799, 9245.409
868.6620, 9194.352
869.1441, 9124.229
869.6262, 9041.788
870.1083, 8946.775
870.5905, 8839.316
871.0726, 8719.474
871.5547, 8586.009
872.0368, 8448.104
872.5189, 8307.635
873.0010, 8164.875
873.4832, 8018.385
873.9653, 7868.142
874.4474, 7715.388
874.9295, 7559.806
875.4116, 7400.620
875.8937, 7233.916
876.3759, 7065.418
876.8580, 6901.595
877.3401, 6742.094
877.8222, 6589.803
878.3043, 6445.255
878.7864, 6304.224
879.2686, 6162.345
879.7507, 6018.703
880.2328, 5870.168
880.7149, 5715.587
881.1970, 5564.069
881.6791, 5422.620
882.1613, 5284.337
882.6434, 5141.577
883.1255, 4992.689
883.6076, 4853.559
884.0897, 4726.593
884.5718, 4601.204
885.0540, 4469.363
885.5361, 4332.611
886.0182, 4200.806
886.5003, 4072.807
886.9824, 3947.685
887.4645, 3827.104
887.9467, 3706.888
888.4288, 3583.218
888.9109, 3457.508
889.3930, 3333.371
889.8751, 3210.585
890.3572, 3092.472
890.8394, 2983.251
891.3215, 2878.862
891.8036, 2767.058
892.2857, 2650.460
892.7678, 2537.402
893.2499, 2433.787
893.7321, 2334.561
894.2142, 2235.607
894.6963, 2137.150
895.1784, 2041.336
895.6605, 1947.064
896.1426, 1856.073
896.6248, 1767.415
897.1069, 1681.863
897.5890, 1599.988
898.0711, 1521.353
898.5532, 1449.333
899.0353, 1384.588
899.5175, 1322.062
899.9996, 1253.699
900.4817, 1185.002
900.9638, 1123.353
901.4459, 1070.281
901.9280, 1020.908
902.4102, 975.3318
902.8923, 931.2552
903.3744, 886.9043
903.8565, 841.8180
904.3386, 797.8779
904.8207, 755.5543
905.3029, 717.3774
905.7850, 688.4724
906.2671, 663.7264
906.7492, 637.1886
907.2313, 608.8401
907.7134, 581.6592
908.1956, 555.2779
908.6777, 531.8948
909.1598, 513.4301
909.6419, 498.5428
910.1240, 480.0062
910.6061, 457.8262
911.0883, 436.4128
911.5704, 417.3782
912.0525, 400.8163
912.5346, 387.7965
913.0167, 376.9473
913.4988, 365.2772
913.9810, 349.6918
914.4631, 335.6879
914.9452, 325.0181
915.4273, 315.9957
915.9094, 306.2809
916.3915, 295.9421
916.8737, 285.3209
917.3558, 274.3307
917.8379, 263.7368
918.3200, 254.3926
918.8021, 245.9844
919.2842, 237.9387
919.7664, 230.1222
920.2485, 223.4634
920.7306, 219.1292
921.2127, 215.2695
921.6948, 211.1746
922.1769, 206.9044
922.6591, 200.3699
923.1412, 191.2736
923.6233, 182.6080
924.1054, 177.3739
924.5875, 173.2000
925.0696, 165.7820
925.5518, 155.7720
926.0339, 147.3021
926.5160, 145.1086
926.9981, 141.4026
927.4802, 132.8528
927.9623, 121.2507
928.4445, 111.9648
928.9266, 105.1368
929.4087, 98.53912
929.8908, 91.47241
930.3729, 84.09967
930.8550, 75.80841
931.3372, 67.47052
931.8193, 61.02545
932.3014, 58.47058
932.7835, 55.31116
933.2656, 49.79633
933.7477, 43.70288
934.2299, 38.55670
934.7120, 34.55682
935.1941, 29.72736
935.6762, 23.85931
936.1583, 18.49475
936.6404, 15.80713
937.1226, 14.17090
937.6047, 11.51416
938.0868, 7.652588
938.5689, 4.040222
939.0510, 1.595825
939.5331, 1.048065
940.0153, 4.939819
940.4974, 9.613159
940.9795, 11.61087
941.4616, 10.94339
941.9437, 10.43542
942.4258, 11.29105
942.9080, 13.02130
943.3901, 15.67969
943.8722, 18.62384
944.3543, 20.46542
944.8364, 19.70120
945.3185, 19.17007
945.8007, 19.63712
946.2828, 20.17801
946.7649, 19.22110
947.2470, 16.82892
947.7291, 15.81485
948.2112, 16.66800
948.6934, 18.01929
949.1755, 18.79648
949.6576, 19.28259
950.1397, 20.04590
950.6218, 21.36533
951.1039, 21.60464
951.5861, 19.98117
952.0682, 18.17758
952.5503, 17.28534
953.0324, 16.97614
953.5145, 14.25027
953.9966, 9.399078
954.4788, 5.926758
954.9609, 7.162079
955.4430, 9.361694
955.9251, 9.734467
956.4072, 8.707611
956.8893, 7.472626
957.3715, 6.158051
957.8536, 4.689758
958.3357, 2.884460
958.8178, 1.135437
959.2999, 0.2094120
959.7820, 6.5369003E-02
960.2642, 0.4886470
960.7463, 1.150085
961.2284, 2.124481
961.7105, 3.446136
962.1926, 5.108673
962.6747, 7.201324
963.1569, 9.894653
963.6390, 12.02350
964.1211, 13.39621
964.6032, 14.75070
965.0853, 16.68854
965.5674, 18.92151
966.0496, 20.84583
966.5317, 22.40460
967.0138, 23.25629
967.4959, 21.85178
967.9780, 21.14389
968.4601, 23.52243
968.9423, 27.50845
969.4244, 29.78619
969.9065, 30.12442
970.3886, 29.37161
970.8707, 27.08029
971.3528, 25.35962
971.8350, 27.99500
972.3171, 32.94113
972.7992, 36.28156
973.2813, 36.88757
973.7634, 37.66544
974.2455, 40.17462
974.7277, 42.73920
975.2098, 44.14468
975.6919, 44.36343
976.1740, 46.20148
976.6561, 49.76047
977.1382, 52.52203
977.6204, 51.76263
978.1025, 50.18810
978.5846, 51.13799
979.0667, 54.00241
979.5488, 56.89406
980.0309, 59.90804
980.5131, 61.95056
980.9952, 62.66692
981.4773, 62.54559
981.9594, 61.72372
982.4415, 60.50319
982.9236, 61.95587
983.4058, 67.12291
983.8879, 71.82916
984.3700, 71.49840
984.8521, 69.71999
985.3342, 70.05135
985.8163, 73.57953
986.2985, 75.83086
986.7806, 76.26967
987.2627, 76.56213
987.7448, 77.53954
988.2269, 79.03619
988.7090, 80.73875
989.1912, 82.54916
989.6733, 84.05420
990.1554, 84.71286
990.6375, 85.39355
991.1196, 86.50110
991.6017, 87.91034
992.0839, 89.57924
992.5660, 91.83409
993.0481, 92.45554
993.5302, 90.64008
994.0123, 89.37015
994.4944, 93.44308
994.9766, 99.66049
995.4587, 102.8105
995.9408, 102.0163
996.4229, 101.5179
996.9050, 103.4031
997.3871, 105.0150
997.8693, 105.0713
998.3514, 103.7496
998.8335, 102.5949
999.3156, 101.7712
999.7977, 101.3386
1000.280, 101.1697
1000.762, 101.4041
1001.244, 103.1945
1001.726, 105.1697
1002.208, 105.0461
1002.690, 100.4422
1003.173, 97.60529
1003.655, 97.14095
1004.137, 97.45352
1004.619, 97.13110
1005.101, 96.41124
1005.583, 95.77106
1006.065, 95.11157
1006.547, 94.10686
1007.029, 92.21698
1007.512, 90.34116
1007.994, 89.08981
1008.476, 88.25201
1008.958, 87.23013
1009.440, 86.16716
1009.922, 84.79468
1010.404, 82.78732
1010.886, 80.75264
1011.369, 80.01208
1011.851, 80.07484
1012.333, 79.80058
1012.815, 78.51709
1013.297, 76.76416
1013.779, 74.44748
1014.261, 72.29535
1014.743, 70.98741
1015.225, 70.44321
1015.708, 68.91377
1016.190, 66.47916
1016.672, 64.13237
1017.154, 62.02155
1017.636, 60.58754
1018.118, 60.82158
1018.600, 62.06111
1019.082, 62.04251
1019.565, 60.03107
1020.047, 58.62700
1020.529, 58.51180
1021.011, 58.49051
1021.493, 56.25475
1021.975, 52.93652
1022.457, 51.10406
1022.939, 51.33395
1023.421, 51.85732
1023.904, 51.78110
1024.386, 51.94304
1024.868, 53.18034
1025.350, 55.12445
1025.832, 54.57220
1026.314, 51.62949
1026.796, 48.51355
1027.278, 45.44962
1027.760, 43.55734
1028.243, 45.38217
1028.725, 48.69185
1029.207, 49.78206
1029.689, 46.26382
1030.171, 43.60773
1030.653, 41.93860
1031.135, 40.86940
1031.617, 40.33063
1032.100, 40.12927
1032.582, 39.37213
1033.064, 38.08459
1033.546, 37.32097
1034.028, 38.40755
1034.510, 39.43837
1034.992, 39.47751
1035.474, 38.71426
1035.957, 37.67322
1036.439, 36.34790
1036.921, 35.29338
1037.403, 34.62048
1037.885, 34.25595
1038.367, 34.29053
1038.849, 34.48810
1039.331, 34.50563
1039.813, 34.20222
1040.296, 34.11447
1040.778, 34.49316
1041.260, 34.79546
1041.742, 34.79942
1042.224, 34.41432
1042.706, 33.19221
1043.188, 31.40489
1043.670, 29.88374
1044.152, 29.04819
1044.635, 28.53523
1045.117, 28.35544
1045.599, 28.37546
1046.081, 28.57961
1046.563, 29.11629
1047.045, 28.43729
1047.527, 26.31972
1048.009, 24.38719
1048.492, 24.36430
1048.974, 25.07101
1049.456, 25.29713
1049.938, 25.01511
1050.420, 24.99585
1050.902, 25.72243
1051.384, 25.90408
1051.866, 25.16386
1052.349, 23.91110
1052.831, 22.46385
1053.313, 21.07516
1053.795, 20.44421
1054.277, 20.86230
1054.759, 21.53825
1055.241, 22.93279
1055.723, 23.64688
1056.205, 22.44467
1056.688, 19.41380
1057.170, 18.20055
1057.652, 18.80699
1058.134, 19.57146
1058.616, 19.56628
1059.098, 19.41685
1059.580, 20.22833
1060.062, 21.14827
1060.544, 20.49590
1061.027, 16.54698
1061.509, 14.29747
1061.991, 14.27979
1062.473, 15.00955
1062.955, 15.15225
1063.437, 14.94290
1063.919, 14.93265
1064.401, 15.12030
1064.884, 15.19148
1065.366, 14.65196
1065.848, 14.43578
1066.330, 15.10928
1066.812, 16.09064
1067.294, 15.86223
1067.776, 14.52898
1068.258, 13.83652
1068.740, 14.31302
1069.223, 14.66527
1069.705, 13.14474
1070.187, 11.58104
1070.669, 12.03398
1071.151, 14.69342
1071.633, 15.09352
1072.115, 12.64742
1072.597, 10.97333
1073.079, 12.30261
1073.562, 14.43419
1074.044, 13.70670
1074.526, 11.38916
1075.008, 9.853027
1075.490, 10.50700
1075.972, 10.70332
1076.454, 9.963013
1076.936, 9.146500
1077.419, 9.006760
1077.901, 9.382813
1078.383, 9.536911
1078.865, 9.465851
1079.347, 9.225311
1079.829, 8.617233
1080.311, 8.090439
1080.793, 8.071548
1081.275, 8.172806
1081.758, 7.621490
1082.240, 6.341568
1082.722, 5.802414
1083.204, 6.238541
1083.686, 6.862885
1084.168, 7.407303
1084.650, 7.502167
1085.132, 6.487396
1085.615, 4.432922
1086.097, 3.176437
1086.579, 2.712646
1087.061, 3.222961
1087.543, 5.171997
1088.025, 7.255234
1088.507, 6.904907
1088.989, 5.328232
1089.471, 4.682938
1089.953, 5.615463
1090.436, 6.606583
1090.918, 7.776306
1091.400, 8.333511
1091.882, 7.486862
1092.364, 5.652405
1092.846, 5.138168
1093.328, 5.659088
1093.810, 5.701813
1094.293, 3.656082
1094.775, 2.132980
1095.257, 3.013748
1095.739, 4.648804
1096.221, 2.677795
1096.703, 5.152664
1097.185, 6.475418
1097.667, 6.696655
1098.150, 2.524994
1098.632, 4.034256
1099.114, 3.287827
1099.596, 2.492355
1100.078, 4.921585
1100.560, 1.525833
1101.042, 3.875458
1101.524, 3.892715
1102.006, 4.973236
1102.489, 3.776337
1102.971, 3.289795
1103.453, 5.086075
1103.935, 5.596069
1104.417, 4.088837
1104.899, 5.184097
1105.381, 1.593643
1105.863, 2.106384
1106.345, 4.409576
1106.828, 3.023163
1107.310, 4.146362
1107.792, 4.288101
1108.274, 2.7634000E-02
1108.756, 3.432831
1109.238, 3.528641
1109.720, 0.2226720
1110.202, 3.366577
1110.685, 0.5246730
1111.167, 0.1835480
1111.649, 0.7159880
1112.131, 1.045609
1112.613, 1.457275
1113.095, 2.372955
1113.577, 3.348541
1114.059, 4.386673
1114.542, 5.091797
1115.024, 5.003128
1115.506, 4.034058
1115.988, 2.512299
1116.470, 0.2989500
1116.952, 1.062271
1117.434, 0.4877620
1117.916, 2.567825
1118.398, 2.287109
1118.880, 0.4889830
1119.363, 0.7055820
1119.845, 0.9425660
1120.327, 0.4853520
1120.809, 0.9081880
1121.291, 2.193237
1121.773, 1.947632
1122.255, 1.030960
1122.737, 1.327682
1123.220, 2.622650
1123.702, 2.880615
1124.184, 0.3859560
1124.666, 2.170319
1125.148, 1.136887
1125.630, 1.070908
1126.112, 2.102325
1126.594, 2.116745
1127.077, 1.244705
1127.559, 0.5580600
1128.041, 1.637161
1128.523, 0.4036870
1129.005, 0.9037630
1129.487, 1.324951
1129.969, 1.072464
1130.451, 0.7349240
1130.933, 0.3718720
1131.416, 0.1562500
1131.898, 0.1543580
1132.380, 0.1215060
1132.862, 0.2672420
1133.344, 0.6102750
1133.826, 0.6456760
1134.308, 0.3630370
1134.790, 0.5961910
1135.272, 2.275574
1135.755, 3.025146
1136.237, 1.689697
1136.719, 5.6458000E-02
1137.201, 0.6090850
1137.683, 0.4985200
1138.165, 0.3742520
1138.647, 0.2980040
1139.129, 0.1423800
1139.612, 0.1141050
1140.094, 0.3775180
1140.576, 0.7822270
1141.058, 1.012283
1141.540, 0.5079960
1142.022, 0.4581600
1142.504, 1.336578
1142.986, 2.449982
1143.469, 2.486633
1143.951, 1.067856
1144.433, 0.3807070
1144.915, 0.6058350
1145.397, 4.3060001E-02
1145.879, 0.9737550
1146.361, 2.151367
1146.843, 2.390106
1147.325, 0.2846070
1147.807, 1.471512
1148.290, 0.1420900
1148.772, 1.913437
1149.254, 2.447571
1149.736, 1.994247
1150.218, 2.095062
1150.700, 2.784851
1151.182, 3.026306
1151.664, 2.027725
1152.147, 0.9128880
1152.629, 0.1757050
1153.111, 1.019989
1153.593, 0.9865720
1154.075, 0.2921300
1154.557, 6.4621001E-02
1155.039, 7.7682003E-02
1155.521, 0.1607060
1156.004, 3.5659999E-02
1156.486, 0.4429780
1156.968, 1.598022
1157.450, 3.011932
1157.932, 3.217331
1158.414, 2.418182
1158.896, 1.904694
1159.378, 2.062515
1159.860, 2.274765
1160.343, 2.281448
1160.825, 2.057800
1161.307, 1.487030
1161.789, 0.6596070
1162.271, 0.2207490
1162.753, 0.1462250
1163.235, 0.2264860
1163.717, 0.6341550
1164.199, 0.7779850
1164.682, 0.3523710
1165.164, 1.765549
1165.646, 2.441711
1166.128, 2.317322
1166.610, 2.125793
1167.092, 1.849884
1167.574, 1.570847
1168.056, 1.354584
1168.539, 1.176910
1169.021, 1.074310
1169.503, 1.013702
1169.985, 0.8929900
1170.467, 0.6123500
1170.949, 0.7697910
1171.431, 1.408096
1171.913, 2.102966
1172.396, 2.869064
1172.878, 3.297409
1173.360, 2.631714
1173.842, 1.402817
1174.324, 0.6461490
1174.806, 0.6396640
1175.288, 0.5583500
1175.770, 0.3337100
1176.252, 0.3454900
1176.734, 1.185760
1177.217, 2.110123
1177.699, 2.116882
1178.181, 1.462891
1178.663, 0.8926090
1179.145, 0.3443760
1179.627, 0.3294980
1180.109, 0.9998170
1180.591, 1.727417
1181.074, 1.817841
1181.556, 1.642883
1182.038, 1.731140
1182.520, 2.025024
1183.002, 2.228165
1183.484, 2.221725
1183.966, 2.257080
1184.448, 2.371078
1184.931, 2.540543
1185.413, 2.917511
1185.895, 3.194077
1186.377, 2.614624
1186.859, 1.315796
1187.341, 0.9434050
1187.823, 2.296051
1188.305, 3.612045
1188.787, 4.670074
1189.270, 5.319473
1189.752, 5.266327
1190.234, 4.703735
1190.716, 3.728973
1191.198, 2.379715
1191.680, 1.569412
1192.162, 1.875031
1192.644, 1.974792
1193.126, 1.247192
1193.609, 0.6237340
1194.091, 2.276062
1194.573, 4.831741
1195.055, 5.386047
1195.537, 3.336456
1196.019, 2.284485
1196.501, 3.766479
1196.983, 4.974350
1197.466, 4.905060
1197.948, 4.222992
1198.430, 3.888412
1198.912, 3.927185
1199.394, 4.601593
1199.876, 6.115067
1200.358, 6.720703
1200.840, 5.477921
1201.323, 4.628616
1201.805, 4.881241
1202.287, 5.833786
1202.769, 6.978317
1203.251, 7.969131
1203.733, 7.926849
1204.215, 6.388947
1204.697, 5.007874
1205.179, 3.895309
1205.661, 3.473877
1206.144, 4.282578
1206.626, 5.550522
1207.108, 5.273071
1207.590, 4.122711
1208.072, 3.520065
1208.554, 3.950531
1209.036, 4.621414
1209.518, 5.776611
1210.001, 6.414734
1210.483, 5.624222
1210.965, 4.292130
1211.447, 5.178802
1211.929, 7.153259
1212.411, 7.578506
1212.893, 4.683212
1213.375, 3.061325
1213.858, 3.652588
1214.340, 4.606339
1214.822, 4.990662
1215.304, 4.879486
1215.786, 4.219498
1216.268, 3.381424
1216.750, 3.116760
1217.232, 3.805756
1217.714, 4.806854
1218.197, 6.553421
1218.679, 7.525284
1219.161, 6.393188
1219.643, 4.120102
1220.125, 1.947128
1220.607, 0.3072360
1221.089, 0.2843630
1221.571, 3.930237
1222.053, 5.802292
1222.536, 5.147293
1223.018, 4.173615
1223.500, 4.345490
1223.982, 5.214264
1224.464, 6.341568
1224.946, 7.412567
1225.428, 7.692551
1225.910, 5.908081
1226.393, 5.189102
1226.875, 5.850555
1227.357, 6.743301
1227.839, 7.198914
1228.321, 7.268661
1228.803, 6.852890
1229.285, 6.067184
1229.767, 5.056915
1230.250, 3.386139
1230.732, 2.530472
1231.214, 2.685410
1231.696, 2.953857
1232.178, 2.580856
1232.660, 1.957443
1233.142, 1.077911
1233.624, 0.4282230
1234.106, 1.382080
1234.589, 5.649292
1235.071, 7.203903
1235.553, 5.445526
1236.035, 3.453400
1236.517, 3.738663
1236.999, 4.973495
1237.481, 6.331436
1237.963, 7.362015
1238.445, 6.840958
1238.928, 3.975555
1239.410, 2.246521
1239.892, 1.835373
1240.374, 1.880035
1240.856, 1.917648
1241.338, 1.914261
1241.820, 1.697342
1242.302, 1.467728
1242.785, 1.686752
1243.267, 2.529617
1243.749, 2.917969
1244.231, 2.799561
1244.713, 2.555267
1245.195, 2.493713
1245.677, 2.463516
1246.159, 2.288666
1246.641, 2.050415
1247.124, 1.722076
1247.606, 1.250351
1248.088, 1.420197
1248.570, 2.268738
1249.052, 2.787445
1249.534, 1.577759
1250.016, 0.7373200
1250.498, 2.635010
1250.980, 5.063721
1251.463, 4.678513
1251.945, 1.545074
1252.427, 0.7496490
1252.909, 2.266754
1253.391, 3.448151
1253.873, 1.829453
1254.355, 0.5480500
1254.837, 1.498672
1255.320, 3.015518
1255.802, 3.122406
1256.284, 2.093063
1256.766, 1.822769
1257.248, 2.225037
1257.730, 2.131638
1258.212, 0.5168460
1258.694, 1.623550
1259.177, 0.6600190
1259.659, 3.617752
1260.141, 4.182541
1260.623, 3.116440
1261.105, 2.961273
1261.587, 3.646683
1262.069, 4.364639
1262.551, 5.418091
1263.033, 5.255569
1263.516, 2.835159
1263.998, 0.4407500
1264.480, 0.8470920
1264.962, 2.654510
1265.444, 2.762787
1265.926, 1.620468
1266.408, 1.181046
1266.890, 2.500977
1267.372, 3.624130
1267.855, 4.533356
1268.337, 4.945221
1268.819, 4.100632
1269.301, 3.045639
1269.783, 3.004272
1270.265, 3.560913
1270.747, 3.519409
1271.229, 2.317947
1271.712, 2.089935
1272.194, 3.020920
1272.676, 4.068237
1273.158, 4.499634
1273.640, 4.572876
1274.122, 4.029846
1274.604, 3.403900
1275.086, 3.984589
1275.568, 6.220169
1276.051, 6.193085
1276.533, 3.905151
1277.015, 1.842392
1277.497, 2.204117
1277.979, 3.110855
1278.461, 3.724594
1278.943, 4.192200
1279.425, 4.325989
1279.907, 4.393951
1280.390, 4.512878
1280.872, 4.689301
1281.354, 3.858795
1281.836, 2.672318
1282.318, 1.917740
1282.800, 1.914246
1283.282, 2.458130
1283.764, 3.954926
1284.247, 5.654877
1284.729, 4.816849
1285.211, 1.888123
1285.693, 2.2232000E-02
1286.175, 1.190460
1286.657, 2.123322
1287.139, 2.203140
1287.621, 2.393738
1288.104, 3.791733
1288.586, 5.659195
1289.068, 6.629196
1289.550, 6.711594
1290.032, 5.911377
1290.514, 3.178497
1290.996, 1.661514
1291.478, 1.625366
1291.960, 1.756012
1292.443, 1.048691
1292.925, 0.2732850
1293.407, 0.4051970
1293.889, 1.030579
1294.371, 1.374420
1294.853, 1.045090
1295.335, 1.134705
1295.817, 1.448639
1296.299, 1.840500
1296.782, 2.356705
1297.264, 2.744492
1297.746, 2.846115
1298.228, 2.663010
1298.710, 1.986664
1299.192, 1.288574
1299.674, 0.6969450
1300.156, 0.2122650
1300.639, 3.3904999E-02
1301.121, 5.9340999E-02
1301.603, 0.3568420
1302.085, 1.124435
1302.567, 1.348328
1303.049, 1.042328
1303.531, 0.0000000E+00
##END=



