##NAMES=Pucherite
##RRUFFID=R060824
##IDEAL CHEMISTRY=BiVO_4_
##LOCALITY=Pucher Shaft, Wolfgang Maaßen mine field, Schneeberg District, Saxony, Germany
##OWNER=RRUFF
##SOURCE=Michael Scott
##DESCRIPTION=Brown tabular crystals associated with green namibite. Pale yellow crust is also pucherite.
##STATUS=The identification of this mineral has been confirmed only by single crystal X-ray diffraction.
##URL=rruff.info/R060824
137.438, 0.000
137.920, 56.180
138.402, 223.933
138.884, 489.526
139.366, 848.697
139.848, 1293.386
140.330, 1816.826
140.812, 2403.781
141.294, 3101.935
141.777, 3904.953
142.259, 4795.857
142.741, 5769.152
143.223, 6819.066
143.705, 7936.430
144.187, 9113.539
144.669, 10385.581
145.151, 11664.092
145.633, 12976.648
146.116, 14271.914
146.598, 15529.680
147.080, 16737.781
147.562, 17859.791
148.044, 18777.688
148.526, 19499.145
149.008, 19964.564
149.490, 20162.266
149.973, 20110.027
150.455, 19800.172
150.937, 19223.652
151.419, 18429.922
151.901, 17627.354
152.383, 16773.182
152.865, 15957.507
153.347, 15178.482
153.829, 14445.597
154.312, 13763.977
154.794, 13126.834
155.276, 12546.783
155.758, 12088.826
156.240, 11785.454
156.722, 11555.932
157.204, 11383.119
157.686, 11272.199
158.169, 11230.872
158.651, 11262.400
159.133, 11368.492
159.615, 11568.630
160.097, 11890.646
160.579, 12257.457
161.061, 12643.620
161.543, 13058.370
162.025, 13518.993
162.508, 14034.917
162.990, 14610.176
163.472, 15249.168
163.954, 15966.761
164.436, 16716.818
164.918, 17474.730
165.400, 18248.188
165.883, 19079.402
166.365, 19988.932
166.847, 20969.330
167.329, 21983.475
167.811, 23022.025
168.293, 24092.023
168.775, 25198.869
169.257, 26338.020
169.739, 27492.629
170.221, 28649.625
170.704, 29815.301
171.186, 31027.672
171.668, 32237.783
172.150, 33529.305
172.632, 34960.398
173.114, 36516.148
173.596, 38129.246
174.078, 39756.535
174.561, 41421.543
175.043, 43190.434
175.525, 45040.844
176.007, 46997.441
176.489, 49087.480
176.971, 51306.875
177.453, 53602.141
177.935, 55970.930
178.417, 58404.930
178.900, 60863.316
179.382, 63431.922
179.864, 65961.344
180.346, 68382.906
180.828, 70695.383
181.310, 72898.172
181.792, 75036.133
182.274, 77028.156
182.757, 78762.492
183.239, 80306.062
183.721, 81511.305
184.203, 82285.859
184.685, 82633.875
185.167, 82577.984
185.649, 82147.570
186.131, 81233.859
186.613, 79808.297
187.096, 77761.977
187.578, 75356.109
188.060, 72735.516
188.542, 69898.602
189.024, 66917.102
189.506, 63737.305
189.988, 60468.891
190.470, 57261.203
190.952, 54102.039
191.435, 51069.152
191.917, 48218.672
192.399, 45542.711
192.881, 43020.406
193.363, 40669.387
193.845, 38483.238
194.327, 36406.984
194.809, 34443.750
195.292, 32579.723
195.774, 30843.883
196.256, 29229.330
196.738, 27679.254
197.220, 26166.645
197.702, 24724.871
198.184, 23379.219
198.666, 22135.430
199.148, 20968.088
199.631, 19871.762
200.113, 18842.648
200.595, 17870.867
201.077, 16950.396
201.559, 16096.405
202.041, 15316.048
202.523, 14616.196
203.005, 13962.256
203.488, 13344.387
203.970, 12760.279
204.452, 12178.052
204.934, 11569.908
205.416, 10988.866
205.898, 10497.220
206.380, 10099.593
206.862, 9721.503
207.344, 9305.756
207.827, 8868.119
208.309, 8477.721
208.791, 8159.160
209.273, 7884.884
209.755, 7626.869
210.237, 7386.055
210.719, 7147.500
211.201, 6901.054
211.684, 6651.392
212.166, 6405.105
212.648, 6156.072
213.130, 5925.893
213.612, 5730.984
214.094, 5569.657
214.576, 5434.240
215.058, 5337.042
215.540, 5263.410
216.023, 5175.918
216.505, 5068.149
216.987, 4948.248
217.469, 4814.603
217.951, 4671.650
218.433, 4541.932
218.915, 4436.637
219.397, 4350.204
219.880, 4273.182
220.362, 4205.821
220.844, 4144.422
221.326, 4085.634
221.808, 4029.923
222.290, 3980.580
222.772, 3946.626
223.254, 3916.843
223.736, 3869.744
224.219, 3799.864
224.701, 3733.890
225.183, 3701.186
225.665, 3688.389
226.147, 3663.051
226.629, 3597.691
227.111, 3526.360
227.593, 3493.329
228.076, 3501.794
228.558, 3516.630
229.040, 3518.813
229.522, 3510.127
230.004, 3495.678
230.486, 3475.239
230.968, 3449.756
231.450, 3422.634
231.932, 3393.610
232.415, 3351.712
232.897, 3282.214
233.379, 3198.442
233.861, 3133.388
234.343, 3098.832
234.825, 3069.594
235.307, 3028.363
235.789, 2976.860
236.271, 2925.586
236.754, 2881.856
237.236, 2839.096
237.718, 2782.842
238.200, 2704.443
238.682, 2631.142
239.164, 2583.617
239.646, 2553.658
240.128, 2512.687
240.611, 2445.461
241.093, 2371.082
241.575, 2328.958
242.057, 2330.411
242.539, 2318.119
243.021, 2256.563
243.503, 2169.623
243.985, 2103.808
244.467, 2073.938
244.950, 2060.635
245.432, 2035.285
245.914, 1995.722
246.396, 1962.973
246.878, 1946.799
247.360, 1937.720
247.842, 1921.126
248.324, 1893.676
248.807, 1868.971
249.289, 1865.811
249.771, 1888.335
250.253, 1895.983
250.735, 1878.455
251.217, 1849.262
251.699, 1812.733
252.181, 1771.197
252.663, 1741.387
253.146, 1741.301
253.628, 1773.108
254.110, 1791.717
254.592, 1786.466
255.074, 1777.802
255.556, 1772.555
256.038, 1773.185
256.520, 1787.260
257.003, 1822.779
257.485, 1876.784
257.967, 1915.262
258.449, 1940.572
258.931, 1951.627
259.413, 1936.053
259.895, 1906.441
260.377, 1886.442
260.859, 1888.074
261.342, 1909.107
261.824, 1941.391
262.306, 1999.507
262.788, 2051.132
263.270, 2091.188
263.752, 2123.185
264.234, 2150.331
264.716, 2173.887
265.198, 2195.424
265.681, 2217.980
266.163, 2249.396
266.645, 2269.543
267.127, 2265.688
267.609, 2258.783
268.091, 2272.488
268.573, 2308.893
269.056, 2344.816
269.538, 2347.370
270.020, 2301.652
270.502, 2265.524
270.984, 2230.627
271.466, 2209.775
271.948, 2226.025
272.430, 2268.646
272.912, 2297.226
273.395, 2269.624
273.877, 2179.442
274.359, 2111.880
274.841, 2087.157
275.323, 2065.556
275.805, 2036.650
276.287, 2001.876
276.769, 1964.981
277.251, 1926.666
277.734, 1889.551
278.216, 1870.125
278.698, 1887.020
279.180, 1895.582
279.662, 1873.615
280.144, 1842.438
280.626, 1831.981
281.108, 1857.475
281.591, 1895.929
282.073, 1894.582
282.555, 1829.185
283.037, 1786.919
283.519, 1799.893
284.001, 1833.087
284.483, 1866.491
284.965, 1895.096
285.447, 1912.521
285.930, 1903.486
286.412, 1864.231
286.894, 1845.038
287.376, 1867.346
287.858, 1900.814
288.340, 1929.062
288.822, 1951.071
289.304, 1968.791
289.786, 1980.812
290.269, 1989.104
290.751, 2001.347
291.233, 2016.039
291.715, 2039.423
292.197, 2075.519
292.679, 2122.944
293.161, 2179.043
293.643, 2254.401
294.125, 2333.530
294.608, 2384.912
295.090, 2402.683
295.572, 2429.807
296.054, 2496.970
296.536, 2590.227
297.018, 2681.675
297.500, 2767.543
297.983, 2850.534
298.465, 2934.065
298.947, 3016.410
299.429, 3086.475
299.911, 3130.550
300.393, 3168.389
300.875, 3241.810
301.357, 3357.570
301.839, 3482.675
302.322, 3614.511
302.804, 3745.747
303.286, 3865.928
303.768, 3973.528
304.250, 4063.701
304.732, 4122.848
305.214, 4137.025
305.696, 4182.653
306.178, 4281.215
306.661, 4402.319
307.143, 4525.176
307.625, 4646.634
308.107, 4767.006
308.589, 4886.489
309.071, 5004.794
309.553, 5130.143
310.035, 5252.092
310.517, 5389.345
311.000, 5553.071
311.482, 5737.139
311.964, 5931.029
312.446, 6128.294
312.928, 6329.518
313.410, 6536.176
313.892, 6732.485
314.374, 6957.977
314.857, 7212.890
315.339, 7498.745
315.821, 7821.014
316.303, 8180.352
316.785, 8565.473
317.267, 8955.627
317.749, 9337.681
318.231, 9762.617
318.714, 10231.423
319.196, 10741.133
319.678, 11297.434
320.160, 11897.828
320.642, 12526.321
321.124, 13171.247
321.606, 13829.636
322.088, 14526.424
322.570, 15246.172
323.052, 16023.713
323.535, 16882.314
324.017, 17799.020
324.499, 18746.055
324.981, 19715.527
325.463, 20692.684
325.945, 21658.352
326.427, 22609.523
326.909, 23548.570
327.392, 24491.152
327.874, 25417.023
328.356, 26320.926
328.838, 27212.570
329.320, 28020.891
329.802, 28692.367
330.284, 29233.980
330.766, 29667.564
331.249, 29998.059
331.731, 30216.625
332.213, 30303.531
332.695, 30270.215
333.177, 30149.441
333.659, 29944.270
334.141, 29661.512
334.623, 29281.469
335.105, 28804.895
335.588, 28319.141
336.070, 27885.795
336.552, 27509.309
337.034, 27166.283
337.516, 26857.676
337.998, 26580.398
338.480, 26330.240
338.962, 26111.330
339.444, 25931.678
339.927, 25794.258
340.409, 25701.582
340.891, 25661.336
341.373, 25701.949
341.855, 25761.641
342.337, 25841.881
342.819, 25937.729
343.301, 26052.062
343.784, 26181.605
344.266, 26310.562
344.748, 26417.250
345.230, 26495.477
345.712, 26576.949
346.194, 26672.078
346.676, 26760.320
347.158, 26850.955
347.641, 26928.182
348.123, 26956.969
348.605, 26908.449
349.087, 26798.305
349.569, 26694.479
350.051, 26603.848
350.533, 26506.932
351.015, 26381.609
351.497, 26255.535
351.979, 26159.785
352.462, 26105.068
352.944, 26067.055
353.426, 26006.537
353.908, 25922.832
354.390, 25886.805
354.872, 25920.367
355.354, 26001.963
355.836, 26097.727
356.319, 26210.855
356.801, 26375.652
357.283, 26631.051
357.765, 26941.514
358.247, 27237.268
358.729, 27509.930
359.211, 27807.039
359.693, 28168.346
360.176, 28584.605
360.658, 28997.551
361.140, 29374.152
361.622, 29780.191
362.104, 30283.201
362.586, 30844.340
363.068, 31365.334
363.550, 31806.277
364.032, 32187.090
364.515, 32550.678
364.997, 32878.996
365.479, 33223.488
365.961, 33645.203
366.443, 34044.570
366.925, 34334.770
367.407, 34509.578
367.889, 34632.590
368.371, 34767.117
368.854, 34917.367
369.336, 34995.848
369.818, 35009.281
370.300, 34940.457
370.782, 34770.184
371.264, 34515.930
371.746, 34202.973
372.228, 33843.297
372.711, 33435.156
373.193, 32982.848
373.675, 32495.816
374.157, 31934.922
374.639, 31248.195
375.121, 30513.773
375.603, 29785.805
376.085, 29067.957
376.568, 28320.773
377.050, 27495.270
377.532, 26614.129
378.014, 25746.496
378.496, 24893.641
378.978, 24067.178
379.460, 23283.898
379.942, 22532.467
380.424, 21773.664
380.906, 20978.340
381.389, 20198.777
381.871, 19489.486
382.353, 18843.074
382.835, 18213.156
383.317, 17575.611
383.799, 16951.133
384.281, 16385.084
384.763, 15882.288
385.246, 15410.679
385.728, 14951.412
386.210, 14526.731
386.692, 14168.994
387.174, 13877.121
387.656, 13608.471
388.138, 13315.894
388.620, 12994.138
389.103, 12749.863
389.585, 12594.119
390.067, 12495.922
390.549, 12471.906
391.031, 12493.959
391.513, 12526.628
391.995, 12554.274
392.477, 12577.369
392.959, 12591.708
393.442, 12583.325
393.924, 12607.046
394.406, 12660.844
394.888, 12756.417
395.370, 12896.943
395.852, 13085.873
396.334, 13333.097
396.816, 13661.042
397.298, 14054.797
397.781, 14452.033
398.263, 14836.938
398.745, 15265.323
399.227, 15775.156
399.709, 16349.057
400.191, 16957.953
400.673, 17582.398
401.155, 18265.920
401.638, 19019.699
402.120, 19856.148
402.602, 20811.207
403.084, 21906.857
403.566, 23096.852
404.048, 24337.051
404.530, 25620.387
405.012, 26976.418
405.495, 28420.438
405.977, 29931.125
406.459, 31517.035
406.941, 33162.539
407.423, 34850.113
407.905, 36563.422
408.387, 38300.137
408.869, 40044.070
409.351, 41840.023
409.833, 43594.660
410.316, 45380.234
410.798, 47074.012
411.280, 48592.832
411.762, 49915.992
412.244, 51030.496
412.726, 51957.477
413.208, 52698.238
413.690, 53090.625
414.173, 53128.328
414.655, 52776.992
415.137, 52011.602
415.619, 50898.445
416.101, 49575.145
416.583, 48065.699
417.065, 46388.715
417.547, 44541.324
418.030, 42536.113
418.512, 40461.906
418.994, 38331.602
419.476, 36188.945
419.958, 34067.988
420.440, 31953.316
420.922, 29951.143
421.404, 28115.086
421.886, 26389.082
422.369, 24701.031
422.851, 23051.469
423.333, 21493.443
423.815, 20056.066
424.297, 18736.703
424.779, 17543.354
425.261, 16522.664
425.743, 15556.177
426.225, 14624.344
426.708, 13743.378
427.190, 12934.933
427.672, 12203.195
428.154, 11537.337
428.636, 10923.582
429.118, 10363.359
429.600, 9853.322
430.082, 9418.722
430.565, 9007.835
431.047, 8590.098
431.529, 8177.196
432.011, 7795.693
432.493, 7457.902
432.975, 7151.177
433.457, 6857.533
433.939, 6577.331
434.422, 6322.705
434.904, 6104.639
435.386, 5906.181
435.868, 5698.868
436.350, 5478.473
436.832, 5279.233
437.314, 5132.218
437.796, 4994.760
438.278, 4815.338
438.760, 4598.644
439.243, 4391.479
439.725, 4227.178
440.207, 4100.990
440.689, 3981.056
441.171, 3885.278
441.653, 3774.222
442.135, 3628.673
442.617, 3475.254
443.100, 3337.445
443.582, 3220.461
444.064, 3113.839
444.546, 3005.209
445.028, 2894.152
445.510, 2796.733
445.992, 2718.908
446.474, 2645.359
446.957, 2579.219
447.439, 2510.135
447.921, 2418.305
448.403, 2288.246
448.885, 2156.786
449.367, 2067.730
449.849, 2012.281
450.331, 1945.536
450.813, 1853.330
451.296, 1754.023
451.778, 1673.602
452.260, 1613.101
452.742, 1535.301
453.224, 1414.515
453.706, 1295.227
454.188, 1208.962
454.670, 1149.208
455.152, 1094.407
455.635, 1033.577
456.117, 971.630
456.599, 921.454
457.081, 899.896
457.563, 859.306
458.045, 786.021
458.527, 706.434
459.009, 625.339
459.492, 550.224
459.974, 499.112
460.456, 491.771
460.938, 513.683
461.420, 519.610
461.902, 507.188
462.384, 486.245
462.866, 452.899
463.349, 417.786
463.831, 396.819
464.313, 394.671
464.795, 382.761
465.277, 330.764
465.759, 266.503
466.241, 241.667
466.723, 260.777
467.205, 273.030
467.688, 233.646
468.170, 151.535
468.652, 115.197
469.134, 171.184
469.616, 208.066
470.098, 189.327
470.580, 147.781
471.062, 118.771
471.544, 110.320
472.027, 110.620
472.509, 107.008
472.991, 99.543
473.473, 93.221
473.955, 94.429
474.437, 87.166
474.919, 56.403
475.401, 17.450
475.884, 6.222
476.366, 4.786
476.848, 2.249
477.330, 0.349
477.812, 10.422
478.294, 31.023
478.776, 62.979
479.258, 100.138
479.741, 140.264
480.223, 182.887
480.705, 213.938
481.187, 229.719
481.669, 237.263
482.151, 233.443
482.633, 225.286
483.115, 223.265
483.597, 231.516
484.079, 250.206
484.562, 283.877
485.044, 343.693
485.526, 379.411
486.008, 362.280
486.490, 348.554
486.972, 365.980
487.454, 401.179
487.936, 425.636
488.419, 424.311
488.901, 412.580
489.383, 411.769
489.865, 421.139
490.347, 426.713
490.829, 422.294
491.311, 417.673
491.793, 426.486
492.276, 447.661
492.758, 464.740
493.240, 475.426
493.722, 480.765
494.204, 475.415
494.686, 465.276
495.168, 466.024
495.650, 485.060
496.132, 512.239
496.615, 528.142
497.097, 526.037
497.579, 528.512
498.061, 538.104
498.543, 549.572
499.025, 563.640
499.507, 577.509
499.989, 584.843
500.471, 580.473
500.954, 572.349
501.436, 578.386
501.918, 598.740
502.400, 600.391
502.882, 565.473
503.364, 521.914
503.846, 505.682
504.328, 514.558
504.810, 515.079
505.293, 489.016
505.775, 462.879
506.257, 457.811
506.739, 468.508
507.221, 479.233
507.703, 483.102
508.185, 483.060
508.668, 485.779
509.150, 497.392
509.632, 496.137
510.114, 471.119
510.596, 444.494
511.078, 426.156
511.560, 414.006
512.042, 401.497
512.524, 384.799
513.006, 367.892
513.489, 356.049
513.971, 349.294
514.453, 348.491
514.935, 357.613
515.417, 366.307
515.899, 361.185
516.381, 343.410
516.864, 329.493
517.346, 323.844
517.828, 320.479
518.310, 321.810
518.792, 321.828
519.274, 303.933
519.756, 261.869
520.238, 217.653
520.720, 210.420
521.203, 256.602
521.685, 277.335
522.167, 252.235
522.649, 221.347
523.131, 194.058
523.613, 171.252
524.095, 153.035
524.577, 139.273
525.059, 130.936
525.542, 135.442
526.024, 148.166
526.506, 142.521
526.988, 108.145
527.470, 74.324
527.952, 73.709
528.434, 104.419
528.916, 106.577
529.398, 50.499
529.881, 0.046
530.363, 14.728
530.845, 12.704
531.327, 20.920
531.809, 46.090
532.291, 75.016
532.773, 93.152
533.255, 100.294
533.737, 100.630
534.220, 87.792
534.702, 78.554
535.184, 73.342
535.666, 77.125
536.148, 101.605
536.630, 153.367
537.112, 197.636
537.594, 205.273
538.077, 190.886
538.559, 178.494
539.041, 171.297
539.523, 173.006
540.005, 188.652
540.487, 214.415
540.969, 231.478
541.451, 226.462
541.933, 230.621
542.416, 254.166
542.898, 281.787
543.380, 304.409
543.862, 319.771
544.344, 326.122
544.826, 320.282
545.308, 305.907
545.791, 293.263
546.273, 282.628
546.755, 273.393
547.237, 264.449
547.719, 257.790
548.201, 254.507
548.683, 254.467
549.165, 261.146
549.647, 282.073
550.130, 304.520
550.612, 319.014
551.094, 326.192
551.576, 329.915
552.058, 331.924
552.540, 329.979
553.022, 318.666
553.504, 293.418
553.987, 272.915
554.469, 251.194
554.951, 240.506
555.433, 242.935
555.915, 260.375
556.397, 302.863
556.879, 385.019
557.361, 455.600
557.843, 454.696
558.326, 398.893
558.808, 341.729
559.290, 291.153
559.772, 251.567
560.254, 227.248
560.736, 217.993
561.218, 220.288
561.700, 247.081
562.182, 267.098
562.665, 274.079
563.147, 271.295
563.629, 261.175
564.111, 244.530
564.593, 221.239
565.075, 187.483
565.557, 148.056
566.039, 125.417
566.521, 124.008
567.004, 121.052
567.486, 107.294
567.968, 89.736
568.450, 75.543
568.932, 64.484
569.414, 60.002
569.896, 71.896
570.378, 83.567
570.860, 81.354
571.343, 67.268
571.825, 45.807
572.307, 18.572
572.789, 5.128
573.271, 5.108
573.753, 29.389
574.235, 47.493
574.718, 44.002
575.200, 29.007
575.682, 9.088
576.164, 51.434
576.646, 61.817
577.128, 20.492
577.610, 19.192
578.092, 4.694
578.574, 41.392
579.057, 65.679
579.539, 60.531
580.021, 53.898
580.503, 67.476
580.985, 96.767
581.467, 116.731
581.949, 120.289
582.431, 123.491
582.914, 126.407
583.396, 129.744
583.878, 131.988
584.360, 134.643
584.842, 143.534
585.324, 165.461
585.806, 191.888
586.288, 204.778
586.770, 204.426
587.253, 206.625
587.735, 215.715
588.217, 229.170
588.699, 246.052
589.181, 266.712
589.663, 279.986
590.145, 277.639
590.627, 276.917
591.109, 288.559
591.592, 304.348
592.074, 310.944
592.556, 306.142
593.038, 301.712
593.520, 311.975
594.002, 334.589
594.484, 350.565
594.966, 360.024
595.448, 361.669
595.931, 346.955
596.413, 329.275
596.895, 328.130
597.377, 345.951
597.859, 363.056
598.341, 370.612
598.823, 377.771
599.305, 394.834
599.787, 417.848
600.270, 436.711
600.752, 447.063
601.234, 448.091
601.716, 433.462
602.198, 395.983
602.680, 382.599
603.162, 409.070
603.644, 438.289
604.127, 457.750
604.609, 467.552
605.091, 466.034
605.573, 449.606
606.055, 432.986
606.537, 422.692
607.019, 418.198
607.501, 422.397
607.984, 433.155
608.466, 438.015
608.948, 428.302
609.430, 410.034
609.912, 399.818
610.394, 398.537
610.876, 403.742
611.358, 435.566
611.841, 454.771
612.323, 430.505
612.805, 379.719
613.287, 343.092
613.769, 338.898
614.251, 344.665
614.733, 347.034
615.215, 343.377
615.697, 323.902
616.180, 287.476
616.662, 253.271
617.144, 238.025
617.626, 236.597
618.108, 217.922
618.590, 154.477
619.072, 116.820
619.554, 133.532
620.036, 156.283
620.519, 151.358
621.001, 122.359
621.483, 93.779
621.965, 82.707
622.447, 70.050
622.929, 24.463
623.411, 44.027
623.893, 92.097
624.375, 108.101
624.858, 119.041
625.340, 150.275
625.822, 200.979
626.304, 249.104
626.786, 296.701
627.268, 339.000
627.750, 366.880
628.232, 395.794
628.714, 438.934
629.197, 496.352
629.679, 558.993
630.161, 625.512
630.643, 690.641
631.125, 743.191
631.607, 785.581
632.089, 830.963
632.571, 882.353
633.054, 940.811
633.536, 1007.361
634.018, 1081.670
634.500, 1166.943
634.982, 1279.615
635.464, 1382.156
