##NAMES=Pyrope
##RRUFFID=R060445
##IDEAL CHEMISTRY=Mg_3_Al_2_(SiO_4_)_3_
##LOCALITY=Tanzania
##OWNER=RRUFF
##SOURCE=Gemological Institute of America
##DESCRIPTION=Deep red water worn pebble, variety rhodolite
##STATUS=The identification of this mineral has been confirmed by X-ray diffraction and chemical analysis
##URL=rruff.info/R060445
##MEASURED CHEMISTRY=(Mg_1.83_Fe_1.08_Ca_0.07_Mn_0.02_)_Î£=3_Al_2.00_(Si_1.00_O_4_)_3_
116.4783, 0.0000000E+00
116.9604, 0.2498640
117.4425, 0.3365960
117.9246, 5.1320000E-03
118.4067, 0.1474410
118.8888, 7.0926003E-02
119.3710, 0.3457810
119.8531, 0.4833800
120.3352, 0.4462900
120.8173, 0.4022540
121.2994, 0.3505510
121.7815, 0.3565540
122.2637, 0.5407910
122.7458, 1.157192
123.2279, 1.872519
123.7100, 2.305418
124.1921, 2.349411
124.6742, 2.379833
125.1564, 2.716486
125.6385, 3.318964
126.1206, 4.066507
126.6027, 4.940626
127.0848, 5.894350
127.5669, 6.846165
128.0491, 7.793196
128.5312, 8.713114
129.0133, 9.609505
129.4954, 10.46436
129.9775, 11.21095
130.4596, 11.70897
130.9418, 12.02746
131.4239, 12.51593
131.9060, 13.38231
132.3881, 14.32424
132.8702, 14.46937
133.3523, 13.76403
133.8345, 13.00261
134.3166, 12.88776
134.7987, 13.41842
135.2808, 14.03257
135.7629, 14.66441
136.2450, 15.29178
136.7272, 15.71956
137.2093, 15.87046
137.6914, 16.06754
138.1735, 16.69656
138.6556, 17.83441
139.1377, 18.99157
139.6199, 20.11755
140.1020, 21.20058
140.5841, 21.97658
141.0662, 22.33921
141.5483, 22.52352
142.0304, 22.78472
142.5126, 23.05912
142.9947, 23.53706
143.4768, 24.19334
143.9589, 25.02278
144.4410, 25.55795
144.9231, 25.73260
145.4053, 25.68476
145.8874, 25.61685
146.3695, 25.50885
146.8516, 25.41394
147.3337, 25.34817
147.8158, 25.32251
148.2980, 25.30470
148.7801, 25.41597
149.2622, 25.51866
149.7443, 25.32685
150.2264, 24.48458
150.7085, 23.66908
151.1907, 23.13486
151.6728, 23.19838
152.1549, 22.99032
152.6370, 22.33585
153.1191, 21.39147
153.6012, 20.55600
154.0834, 19.89686
154.5655, 19.32130
155.0476, 18.78189
155.5297, 18.25618
156.0118, 17.79651
156.4939, 17.44839
156.9761, 17.17777
157.4582, 16.88120
157.9403, 16.59191
158.4224, 16.23517
158.9045, 15.76014
159.3866, 14.96822
159.8688, 14.28207
160.3509, 13.85714
160.8330, 13.65211
161.3151, 13.47775
161.7972, 13.26055
162.2793, 13.05103
162.7615, 12.88758
163.2436, 12.78037
163.7257, 12.72100
164.2078, 12.74229
164.6899, 12.82877
165.1720, 12.87103
165.6541, 12.86185
166.1363, 12.76518
166.6184, 12.54545
167.1005, 11.90604
167.5826, 11.36196
168.0647, 11.33836
168.5468, 11.79417
169.0290, 12.19154
169.5111, 12.07747
169.9932, 11.73453
170.4753, 11.53569
170.9574, 11.82196
171.4395, 12.18526
171.9217, 12.18550
172.4038, 11.91114
172.8859, 11.87952
173.3680, 12.85535
173.8501, 14.33345
174.3322, 15.19302
174.8144, 14.72951
175.2965, 13.82798
175.7786, 13.58922
176.2607, 14.02319
176.7428, 14.67559
177.2249, 15.14300
177.7071, 15.50635
178.1892, 15.97558
178.6713, 16.83489
179.1534, 17.80474
179.6355, 18.34798
180.1176, 18.41539
180.5998, 18.43300
181.0819, 18.97614
181.5640, 19.89325
182.0461, 20.65980
182.5282, 20.99348
183.0103, 20.97374
183.4925, 20.70649
183.9746, 20.16684
184.4567, 19.64100
184.9388, 19.51729
185.4209, 19.72260
185.9030, 19.89140
186.3852, 19.80616
186.8673, 19.56510
187.3494, 19.51756
187.8315, 19.71253
188.3136, 19.94882
188.7957, 19.94794
189.2779, 19.72315
189.7600, 19.46000
190.2421, 19.26963
190.7242, 19.12688
191.2063, 18.84167
191.6884, 18.32924
192.1706, 17.88417
192.6527, 18.06660
193.1348, 18.86699
193.6169, 19.64257
194.0990, 20.01715
194.5811, 20.02874
195.0633, 20.24739
195.5454, 20.74709
196.0275, 21.36039
196.5096, 21.70476
196.9917, 21.74995
197.4738, 21.88729
197.9560, 22.34534
198.4381, 23.12141
198.9202, 23.93764
199.4023, 24.80495
199.8844, 25.67255
200.3665, 26.35778
200.8487, 26.81122
201.3308, 27.40501
201.8129, 28.45702
202.2950, 30.03010
202.7771, 31.21522
203.2592, 31.91498
203.7414, 32.29955
204.2235, 32.65563
204.7056, 32.90249
205.1877, 33.40802
205.6698, 34.46502
206.1519, 36.19050
206.6341, 37.70473
207.1162, 38.95786
207.5983, 39.98412
208.0804, 40.93319
208.5625, 41.93526
209.0446, 42.43471
209.5268, 41.99358
210.0089, 40.34677
210.4910, 39.06858
210.9731, 38.37916
211.4552, 37.95256
211.9373, 37.05083
212.4195, 35.65891
212.9016, 33.85725
213.3837, 31.54239
213.8658, 28.43214
214.3479, 25.86277
214.8300, 24.04152
215.3121, 22.65215
215.7943, 20.83952
216.2764, 18.31511
216.7585, 16.00233
217.2406, 14.35846
217.7227, 13.64069
218.2048, 12.81668
218.6870, 11.88226
219.1691, 10.83741
219.6512, 9.618404
220.1333, 8.062706
220.6154, 6.624805
221.0975, 5.482288
221.5797, 4.715199
222.0618, 4.051430
222.5439, 3.539204
223.0260, 3.109859
223.5081, 2.568005
223.9902, 1.781002
224.4724, 1.121384
224.9545, 0.7953410
225.4366, 0.9756200
225.9187, 0.9814640
226.4008, 0.7783430
226.8829, 0.4186400
227.3651, 1.5373000E-02
227.8472, 0.6478960
228.3293, 1.154282
228.8114, 1.378811
229.2935, 1.201794
229.7757, 1.125305
230.2578, 1.240112
230.7399, 1.414978
231.2220, 1.351490
231.7041, 0.8161280
232.1862, 0.4226340
232.6684, 0.4518130
233.1505, 1.124203
233.6326, 1.499153
234.1147, 1.473083
234.5968, 1.206638
235.0789, 0.9863620
235.5611, 0.8281860
236.0432, 0.6903530
236.5253, 0.5520860
237.0074, 0.4048270
237.4895, 0.2962950
237.9716, 0.2083850
238.4538, 0.1695020
238.9359, 0.2480130
239.4180, 0.5775760
239.9001, 0.8024900
240.3822, 0.7585330
240.8643, 0.3363340
241.3465, 0.1825830
241.8286, 0.4760360
242.3107, 0.9120860
242.7928, 1.032501
243.2749, 0.6160470
243.7570, 0.2679330
244.2392, 0.1817360
244.7213, 0.4171940
245.2034, 0.5480230
245.6855, 0.5420610
246.1676, 0.4590260
246.6497, 0.3714560
247.1319, 0.2843090
247.6140, 0.1763990
248.0961, 8.6169997E-03
248.5782, 0.3080640
249.0603, 0.3066600
249.5424, 0.2132800
250.0246, 0.8250310
250.5067, 1.055557
250.9888, 0.7658620
251.4709, 0.3555910
251.9530, 0.1818430
252.4351, 0.8720470
252.9173, 1.161770
253.3994, 0.8614770
253.8815, 0.3855210
254.3636, 0.1426320
254.8457, 0.2477110
255.3278, 0.3277050
255.8100, 0.2768590
256.2921, 0.1027720
256.7742, 0.1105190
257.2563, 0.3578640
257.7384, 0.7081790
258.2205, 1.031158
258.7026, 1.274506
259.1848, 1.660595
259.6669, 2.382832
260.1490, 3.344982
260.6311, 3.565617
261.1132, 2.691032
261.5953, 1.655975
262.0775, 1.186790
262.5596, 1.483376
263.0417, 1.749454
263.5238, 1.886986
264.0059, 1.923851
264.4880, 2.007328
264.9702, 2.148773
265.4523, 2.310963
265.9344, 2.495056
266.4165, 2.747856
266.8986, 2.835560
267.3807, 2.654495
267.8629, 2.327499
268.3450, 2.308029
268.8271, 2.746456
269.3092, 3.125008
269.7913, 3.106022
270.2734, 2.570290
270.7556, 2.216080
271.2377, 2.067390
271.7198, 2.123829
272.2019, 2.474293
272.6840, 3.251762
273.1661, 3.871975
273.6483, 3.971546
274.1304, 3.463432
274.6125, 3.159863
275.0946, 3.115604
275.5767, 3.219818
276.0588, 3.256977
276.5410, 3.192783
277.0231, 3.231781
277.5052, 3.513012
277.9873, 4.042759
278.4694, 4.415413
278.9515, 4.603935
279.4337, 4.688232
279.9158, 4.780708
280.3979, 4.885582
280.8800, 4.945667
281.3621, 4.941044
281.8442, 4.873360
282.3264, 4.745403
282.8085, 4.553753
283.2906, 4.318249
283.7727, 4.002762
284.2548, 3.605648
284.7369, 3.375500
285.2191, 3.457386
285.7012, 3.725620
286.1833, 3.705643
286.6654, 3.378887
287.1475, 3.029289
287.6296, 2.986347
288.1118, 3.195282
288.5939, 3.147465
289.0760, 2.581181
289.5581, 1.841557
290.0402, 1.848637
290.5223, 2.604111
291.0045, 3.309734
291.4866, 3.237064
291.9687, 2.591953
292.4508, 2.301018
292.9329, 2.620945
293.4150, 3.209042
293.8972, 3.463394
294.3793, 3.412868
294.8614, 3.388905
295.3435, 3.710911
295.8256, 4.231113
296.3077, 4.488102
296.7899, 4.350266
297.2720, 4.120193
297.7541, 4.280289
298.2362, 4.764282
298.7183, 5.236008
299.2004, 5.260910
299.6826, 5.147118
300.1647, 5.650921
300.6468, 6.940750
301.1289, 8.265263
301.6110, 8.704636
302.0931, 8.510151
302.5753, 8.378960
303.0574, 8.809578
303.5395, 9.430187
304.0216, 9.659229
304.5037, 9.477261
304.9858, 9.366493
305.4680, 9.830750
305.9501, 10.63383
306.4322, 11.35380
306.9143, 11.65094
307.3964, 11.93032
307.8785, 12.67383
308.3607, 13.84323
308.8428, 14.94669
309.3249, 15.40568
309.8070, 15.69164
310.2891, 16.37258
310.7712, 17.87393
311.2534, 19.48809
311.7355, 20.74350
312.2176, 21.71010
312.6997, 22.60774
313.1818, 23.25830
313.6639, 24.04031
314.1461, 25.31984
314.6282, 27.35988
315.1103, 29.47312
315.5924, 31.44916
316.0745, 33.24316
316.5566, 34.79228
317.0388, 36.22023
317.5209, 37.26395
318.0030, 37.71877
318.4851, 37.45446
318.9672, 37.04782
319.4493, 36.62295
319.9315, 36.19231
320.4136, 35.76605
320.8957, 35.32032
321.3778, 34.90879
321.8599, 34.47266
322.3420, 33.98357
322.8242, 33.80384
323.3063, 34.03701
323.7884, 34.59785
324.2705, 35.41204
324.7526, 36.56109
325.2347, 37.87447
325.7169, 39.42031
326.1990, 41.17483
326.6811, 42.70111
327.1632, 43.62926
327.6453, 44.55238
328.1274, 45.79758
328.6096, 47.25296
329.0917, 49.19439
329.5738, 51.89087
330.0559, 55.08755
330.5380, 58.01535
331.0201, 60.56295
331.5023, 62.96089
331.9844, 65.23746
332.4665, 67.08463
332.9486, 69.52779
333.4307, 72.67308
333.9128, 76.35046
334.3950, 80.26331
334.8771, 84.67542
335.3592, 88.88010
335.8413, 92.50795
336.3234, 95.47453
336.8055, 98.90747
337.2877, 102.8689
337.7698, 107.1601
338.2519, 111.7869
338.7340, 116.9469
339.2161, 121.4644
339.6982, 124.7795
340.1803, 127.1974
340.6624, 130.5148
341.1446, 134.9991
341.6267, 139.6270
342.1088, 143.7793
342.5909, 147.4168
343.0730, 150.6539
343.5551, 153.2706
344.0373, 155.7317
344.5194, 158.9881
345.0015, 163.0761
345.4836, 167.7503
345.9657, 173.0050
346.4478, 178.7711
346.9300, 184.6279
347.4121, 190.5723
347.8942, 196.7084
348.3763, 203.2468
348.8584, 210.1712
349.3405, 217.5252
349.8227, 225.6057
350.3048, 234.0790
350.7869, 242.0378
351.2690, 249.4310
351.7511, 257.2301
352.2332, 266.6441
352.7154, 277.0340
353.1975, 287.1310
353.6796, 297.1129
354.1617, 306.0288
354.6438, 312.9055
355.1259, 317.7805
355.6081, 320.8812
356.0902, 322.4955
356.5723, 322.3856
357.0544, 320.2380
357.5365, 315.8659
358.0186, 309.7189
358.5008, 301.7157
358.9829, 292.1740
359.4650, 281.7775
359.9471, 270.7668
360.4292, 259.1033
360.9113, 246.3417
361.3935, 232.3209
361.8756, 218.8477
362.3577, 206.5926
362.8398, 195.3059
363.3219, 184.7350
363.8040, 174.5727
364.2862, 165.4607
364.7683, 157.7681
365.2504, 151.3547
365.7325, 145.3827
366.2146, 139.7531
366.6967, 134.4572
367.1789, 129.4809
367.6610, 124.2943
368.1431, 120.0701
368.6252, 117.1694
369.1073, 115.2724
369.5894, 113.4629
370.0716, 111.7873
370.5537, 110.1511
371.0358, 108.5452
371.5179, 107.0612
372.0000, 105.3527
372.4821, 103.2304
372.9643, 101.0131
373.4464, 99.18380
373.9285, 98.02991
374.4106, 96.64397
374.8927, 94.91781
375.3748, 92.84835
375.8570, 90.07899
376.3391, 86.45911
376.8212, 82.39408
377.3033, 77.96905
377.7854, 73.07887
378.2675, 68.66197
378.7497, 64.92475
379.2318, 61.66467
379.7139, 58.27404
380.1960, 54.78267
380.6781, 51.20363
381.1602, 47.42665
381.6424, 43.54412
382.1245, 40.17665
382.6066, 37.34057
383.0887, 34.80821
383.5708, 32.24645
384.0529, 29.71737
384.5351, 27.34758
385.0172, 25.15091
385.4993, 23.18303
385.9814, 21.53405
386.4635, 20.19680
386.9456, 18.92751
387.4278, 17.47639
387.9099, 16.00155
388.3920, 14.73423
388.8741, 13.76111
389.3562, 12.91890
389.8383, 12.08074
390.3205, 11.25301
390.8026, 10.46324
391.2847, 9.780979
391.7668, 9.099064
392.2489, 8.257427
392.7310, 7.162865
393.2132, 6.223309
393.6953, 5.761219
394.1774, 5.565262
394.6595, 5.345951
395.1416, 5.035931
395.6237, 4.652523
396.1059, 4.124741
396.5880, 3.475040
397.0701, 2.996735
397.5522, 2.809330
398.0343, 2.778465
398.5164, 2.831913
398.9986, 3.311104
399.4807, 3.420525
399.9628, 2.892345
400.4449, 1.996857
400.9270, 1.352165
401.4091, 1.067379
401.8913, 0.9055520
402.3734, 0.8234520
402.8555, 0.8486900
403.3376, 0.7794880
403.8197, 0.5181730
404.3018, 0.2776030
404.7840, 0.3097270
405.2661, 0.6913680
405.7482, 1.114742
406.2303, 1.620754
406.7124, 2.104641
407.1945, 2.050987
407.6767, 1.366184
408.1588, 0.6034930
408.6409, 8.2168996E-02
409.1230, 0.1969220
409.6051, 0.2156750
410.0872, 9.2747003E-02
410.5694, 0.4697610
411.0515, 0.4747280
411.5336, 0.1654400
412.0157, 9.9163003E-02
412.4978, 9.8011002E-02
412.9799, 3.6929999E-02
413.4621, 4.5360001E-03
413.9442, 0.1911620
414.4263, 0.3444020
414.9084, 0.2404020
415.3905, 5.7560001E-03
415.8727, 0.2309040
416.3548, 0.4702760
416.8369, 0.5451280
417.3190, 0.1430320
417.8011, 0.5611720
418.2832, 1.111713
418.7654, 1.238773
419.2475, 1.157475
419.7296, 0.9135970
420.2117, 0.4481740
420.6938, 0.2423440
421.1759, 0.8520200
421.6581, 1.670769
422.1402, 2.063160
422.6223, 1.404221
423.1044, 0.7987400
423.5865, 0.5184480
424.0686, 0.5371320
424.5508, 0.6089900
425.0329, 0.8537520
425.5150, 1.032459
425.9971, 1.024006
426.4792, 0.6927030
426.9613, 0.4500120
427.4435, 0.2827220
427.9256, 0.2121120
428.4077, 0.2951700
428.8898, 0.6258470
429.3719, 0.9096340
429.8540, 1.094242
430.3362, 1.175869
430.8183, 1.039700
431.3004, 0.5995750
431.7825, 0.1897390
432.2646, 0.1266590
432.7467, 0.4106980
433.2289, 0.6948010
433.7110, 0.9735220
434.1931, 1.151054
434.6752, 0.9604760
435.1573, 0.4364400
435.6394, 4.3175001E-02
436.1216, 0.2775340
436.6036, 0.3295140
437.0858, 0.3214340
437.5679, 0.2551800
438.0500, 0.1514850
438.5321, 7.7347003E-02
439.0142, 0.3121680
439.4963, 0.3231740
439.9785, 0.1388090
440.4606, 0.5944820
440.9427, 0.5917360
441.4248, 0.2550540
441.9069, 5.0129000E-02
442.3890, 0.2466550
442.8712, 0.2816090
443.3533, 2.6505001E-02
443.8354, 0.6319350
444.3175, 1.065639
444.7996, 0.8154950
445.2817, 0.3363490
445.7639, 0.1014480
446.2460, 0.5672570
446.7281, 0.8732640
447.2102, 0.7779810
447.6923, 0.3400800
448.1744, 6.6829999E-03
448.6566, 0.3092040
449.1387, 0.4711490
449.6208, 0.4105830
450.1029, 1.6280999E-02
450.5850, 0.2057300
451.0671, 1.4702000E-02
451.5493, 0.2688790
452.0314, 0.2013590
452.5135, 0.3019140
452.9956, 0.7975010
453.4777, 1.207008
453.9598, 1.509239
454.4420, 1.581989
454.9241, 1.408634
455.4062, 1.156311
455.8883, 0.9125980
456.3704, 0.6865270
456.8525, 0.5124050
457.3347, 0.3871770
457.8168, 0.3523710
458.2989, 0.5331920
458.7810, 0.8611680
459.2631, 1.127884
459.7452, 1.233521
460.2274, 1.240490
460.7095, 1.086483
461.1916, 0.8189350
461.6737, 0.8230060
462.1558, 1.792126
462.6379, 2.895020
463.1201, 3.297665
463.6022, 2.524143
464.0843, 1.799206
464.5664, 1.658470
465.0485, 1.875629
465.5306, 2.089809
466.0128, 2.173882
466.4949, 2.285255
466.9770, 2.463261
467.4591, 2.713863
467.9412, 3.009235
468.4233, 3.404152
468.9055, 3.787651
469.3876, 4.090389
469.8697, 4.229733
470.3518, 4.467991
470.8339, 4.867172
471.3160, 5.333176
471.7982, 5.699066
472.2803, 5.957699
472.7624, 6.141361
473.2445, 6.173527
473.7266, 6.118721
474.2087, 6.507011
474.6909, 7.385017
475.1730, 8.275131
475.6551, 8.649738
476.1372, 8.633652
476.6193, 8.754135
477.1014, 9.095070
477.5836, 9.612774
478.0657, 10.33872
478.5478, 11.19921
479.0299, 11.96282
479.5120, 12.43320
479.9941, 12.86015
480.4763, 13.52650
480.9584, 14.41923
481.4405, 15.36312
481.9226, 16.27794
482.4047, 17.17358
482.8868, 18.04657
483.3690, 18.86352
483.8511, 19.73362
484.3332, 20.81673
484.8153, 21.95854
485.2974, 22.93728
485.7795, 23.82298
486.2617, 24.39461
486.7438, 24.63714
487.2259, 24.54959
487.7080, 23.95931
488.1901, 22.57911
488.6722, 21.09423
489.1544, 19.93918
489.6365, 19.24227
490.1186, 18.33500
490.6007, 17.03964
491.0828, 15.70591
491.5649, 14.89619
492.0471, 14.63990
492.5292, 14.53922
493.0113, 14.51370
493.4934, 14.54927
493.9755, 14.54732
494.4576, 14.50534
494.9398, 14.60892
495.4219, 14.99939
495.9040, 15.62664
496.3861, 16.43055
496.8682, 17.45480
497.3503, 18.44007
497.8325, 18.99664
498.3146, 19.42926
498.7967, 20.22957
499.2788, 21.96064
499.7609, 23.73203
500.2430, 24.97059
500.7252, 25.83788
501.2073, 27.06824
501.6894, 29.15713
502.1715, 31.41029
502.6536, 33.54696
503.1357, 35.53294
503.6179, 37.36939
504.1000, 39.16365
504.5821, 40.77587
505.0642, 42.08849
505.5463, 43.14052
506.0284, 43.78593
506.5106, 44.07158
506.9927, 43.91047
507.4748, 42.88816
507.9569, 40.89413
508.4390, 38.68427
508.9211, 36.70379
509.4033, 34.86580
509.8854, 32.34974
510.3675, 29.08757
510.8496, 25.92380
511.3317, 23.85127
511.8138, 22.54048
512.2960, 21.13293
512.7781, 19.34132
513.2602, 17.52636
513.7423, 16.00320
514.2244, 14.74469
514.7065, 13.68610
515.1887, 12.91389
515.6708, 12.23779
516.1529, 11.49267
516.6350, 10.67924
517.1171, 10.07809
517.5992, 9.822407
518.0814, 9.791218
518.5635, 9.939056
519.0456, 10.61386
519.5277, 10.87284
520.0098, 10.42951
520.4919, 9.655586
520.9741, 9.068432
521.4562, 8.613789
521.9383, 8.487919
522.4204, 8.877712
522.9025, 9.656891
523.3846, 9.983047
523.8668, 9.772919
524.3489, 9.446434
524.8310, 9.196602
525.3131, 9.033371
525.7952, 9.063004
526.2773, 9.301517
526.7595, 9.662136
527.2416, 10.21468
527.7237, 10.81272
528.2058, 11.06079
528.6879, 10.69111
529.1700, 10.13695
529.6522, 9.728447
530.1343, 9.470848
530.6164, 9.366863
531.0985, 9.498337
531.5806, 9.724064
532.0627, 9.982723
532.5449, 10.27153
533.0270, 10.52565
533.5091, 10.55079
533.9912, 10.64320
534.4733, 11.01624
534.9554, 12.13599
535.4376, 12.89090
535.9197, 12.99006
536.4018, 12.86091
536.8839, 13.26838
537.3660, 14.39636
537.8481, 15.57119
538.3303, 16.59982
538.8124, 17.53489
539.2945, 18.69667
539.7766, 20.09932
540.2587, 21.60706
540.7408, 23.08121
541.2230, 24.58525
541.7051, 26.29306
542.1872, 28.22252
542.6693, 30.36466
543.1514, 32.83033
543.6335, 35.48215
544.1157, 38.13309
544.5978, 40.69308
545.0799, 43.27700
545.5620, 45.85520
546.0441, 48.48601
546.5262, 51.31834
547.0084, 54.41856
547.4905, 57.70593
547.9726, 61.25735
548.4547, 65.08167
548.9368, 68.86995
549.4189, 72.28272
549.9011, 75.92145
550.3832, 80.15142
550.8653, 85.17485
551.3474, 90.27611
551.8295, 95.30948
552.3116, 100.5028
552.7938, 106.2130
553.2759, 112.4833
553.7580, 118.8517
554.2401, 125.2511
554.7222, 131.6233
555.2043, 137.7171
555.6865, 143.5271
556.1686, 149.5717
556.6507, 156.5964
557.1328, 163.8572
557.6149, 170.6733
558.0970, 177.0140
558.5792, 181.9747
559.0613, 184.9158
559.5434, 186.1154
560.0255, 185.8453
560.5076, 184.3055
560.9897, 181.0638
561.4719, 175.5590
561.9540, 168.3184
562.4361, 160.3168
562.9182, 151.4154
563.4003, 141.9391
563.8824, 131.4802
564.3646, 120.3482
564.8467, 110.1031
565.3288, 100.8774
565.8109, 92.22946
566.2930, 83.76768
566.7751, 75.50997
567.2573, 68.03889
567.7394, 61.31094
568.2215, 55.28444
568.7036, 49.89515
569.1857, 45.13379
569.6678, 40.74483
570.1500, 36.68866
570.6321, 33.07408
571.1142, 30.33636
571.5963, 28.18256
572.0784, 25.96180
572.5605, 23.00066
573.0427, 20.19836
573.5248, 18.14830
574.0069, 16.78187
574.4890, 15.44850
574.9711, 13.84222
575.4532, 12.33918
575.9354, 11.17149
576.4175, 10.45087
576.8996, 9.710075
577.3817, 8.915253
577.8638, 8.142448
578.3459, 7.432594
578.8281, 6.776241
579.3102, 6.292778
579.7923, 6.064278
580.2744, 5.911758
580.7565, 5.386406
581.2386, 4.522289
581.7208, 3.941902
582.2029, 4.035103
582.6850, 4.446583
583.1671, 4.538685
583.6492, 4.351601
584.1313, 4.124603
584.6134, 3.972233
585.0955, 3.871025
585.5776, 3.785217
586.0598, 3.705265
586.5419, 3.710438
587.0240, 3.879532
587.5061, 4.121376
587.9882, 4.363392
588.4703, 4.706417
588.9525, 4.885651
589.4346, 4.763535
589.9167, 4.529823
590.3988, 4.533333
590.8809, 4.954353
591.3630, 5.127934
591.8452, 4.820068
592.3273, 4.178574
592.8094, 3.770035
593.2915, 3.604103
593.7736, 3.512165
594.2557, 3.478558
594.7379, 3.437210
595.2200, 3.184238
595.7021, 2.718914
596.1842, 2.179832
596.6663, 1.565300
597.1484, 0.9895550
597.6306, 0.6221580
598.1127, 0.5855670
598.5948, 0.5172120
599.0769, 0.1643410
599.5590, 0.2862780
600.0411, 0.6014820
600.5233, 0.5459670
601.0054, 0.5674510
601.4875, 0.8136940
601.9696, 1.186119
602.4517, 1.381256
602.9338, 1.336098
603.4160, 1.254589
603.8981, 1.214039
604.3802, 1.204441
604.8623, 1.094269
605.3444, 0.8655130
605.8265, 0.6770020
606.3087, 0.6729390
606.7908, 0.8022420
607.2729, 0.9745710
607.7550, 1.202778
608.2371, 1.286484
608.7192, 0.9070930
609.2014, 0.3186680
609.6835, 0.1334800
610.1656, 0.3111880
610.6477, 0.3901020
611.1298, 0.3588520
611.6119, 0.2949490
612.0941, 0.3354490
612.5762, 0.7279850
613.0583, 0.9884150
613.5404, 0.9083400
614.0225, 0.5644190
614.5046, 0.4746970
614.9868, 0.7634050
615.4689, 1.062519
615.9510, 1.195362
616.4331, 1.148239
616.9152, 1.030975
617.3973, 0.8463170
617.8795, 0.6994510
618.3616, 0.6749230
618.8437, 0.7151790
619.3258, 0.7970810
619.8079, 0.9625510
620.2900, 1.052818
620.7722, 0.6730230
621.2543, 0.1576920
621.7364, 3.6568001E-02
622.2185, 1.016994
622.7006, 1.779537
623.1827, 1.651394
623.6649, 0.9809610
624.1470, 0.6249540
624.6291, 0.8171120
625.1112, 1.163010
625.5933, 1.603958
626.0754, 2.137917
626.5576, 2.740379
627.0397, 3.428238
627.5218, 4.107227
628.0039, 4.696308
628.4860, 5.218456
628.9681, 5.864548
629.4503, 6.643173
629.9324, 7.466709
630.4145, 8.261688
630.8966, 9.048416
631.3787, 9.865120
631.8608, 10.70267
632.3430, 11.62648
632.8251, 12.72774
633.3072, 13.91778
633.7893, 15.09980
634.2714, 16.17444
634.7535, 17.31516
635.2357, 18.67097
635.7178, 20.10913
636.1999, 21.30145
636.6820, 21.98616
637.1641, 22.90236
637.6462, 24.25134
638.1284, 25.98767
638.6105, 27.92656
639.0926, 30.11385
639.5747, 31.98432
640.0568, 33.13463
640.5389, 33.71151
641.0211, 34.07549
641.5032, 34.22620
641.9853, 34.14091
642.4674, 33.73291
642.9495, 33.12107
643.4316, 32.48518
643.9138, 31.94438
644.3959, 31.00954
644.8780, 29.22367
645.3601, 27.08020
645.8422, 25.10101
646.3243, 23.42670
646.8065, 21.80076
647.2886, 20.17840
647.7707, 18.61934
648.2528, 17.23528
648.7349, 16.10078
649.2170, 14.79047
649.6992, 13.04287
650.1813, 11.15685
650.6634, 9.899532
651.1455, 9.237453
651.6276, 8.758434
652.1097, 8.334705
652.5919, 7.908531
653.0740, 7.348728
653.5561, 6.678265
654.0382, 6.071854
654.5203, 5.629219
655.0024, 5.292011
655.4846, 5.010376
655.9667, 4.768480
656.4488, 4.654564
656.9309, 4.952278
657.4130, 5.164745
657.8951, 4.915434
658.3773, 4.003313
658.8594, 3.251987
659.3415, 2.676985
659.8236, 2.258997
660.3057, 2.078741
660.7878, 2.114914
661.2700, 1.965782
661.7521, 1.447504
662.2342, 0.9050160
662.7163, 0.8776090
663.1984, 1.203405
663.6805, 1.455936
664.1627, 1.366938
664.6448, 1.200150
665.1269, 1.117319
665.6090, 1.082972
666.0911, 0.9757140
666.5732, 0.6812150
667.0554, 0.4415550
667.5375, 0.3275380
668.0196, 0.3273890
668.5017, 0.3374600
668.9838, 0.3852880
669.4659, 0.3884600
669.9481, 0.2327380
670.4302, 6.0038000E-02
670.9123, 9.6449003E-02
671.3944, 0.1517090
671.8765, 0.3939060
672.3586, 0.2633760
672.8408, 3.4006000E-02
673.3229, 9.5712997E-02
673.8050, 0.2071530
674.2871, 0.4442630
674.7692, 0.2077940
675.2513, 0.1978420
675.7335, 0.4370560
676.2156, 0.2003480
676.6977, 7.6367997E-02
677.1798, 0.2751790
677.6619, 0.5741540
678.1440, 0.6149650
678.6262, 0.2628080
679.1083, 1.5830999E-02
679.5904, 1.2850000E-02
680.0725, 0.1379070
680.5546, 0.1166670
681.0367, 4.4668000E-02
681.5189, 0.2260070
682.0010, 0.4091470
682.4831, 0.5565260
682.9652, 0.5715730
683.4473, 0.4856530
683.9294, 0.4453930
684.4116, 0.6234720
684.8937, 0.8000700
685.3758, 0.8172650
685.8579, 0.6591680
686.3400, 0.5299420
686.8221, 0.4148010
687.3043, 0.3854310
687.7864, 0.5195670
688.2685, 0.8871190
688.7506, 1.013161
689.2327, 0.8428780
689.7148, 0.5803990
690.1970, 0.3783020
690.6791, 0.2382390
691.1612, 0.1885380
691.6433, 0.2367800
692.1254, 0.3700200
692.6075, 0.6957240
693.0897, 1.067171
693.5718, 1.243425
694.0539, 1.085716
694.5360, 0.8618970
695.0181, 0.5198820
695.5002, 0.2315060
695.9824, 0.2622240
696.4645, 1.130604
696.9466, 1.655249
697.4287, 1.552509
697.9108, 1.088812
698.3929, 0.9666460
698.8751, 1.255795
699.3572, 1.454884
699.8393, 1.346428
700.3214, 1.085215
700.8035, 1.058090
701.2856, 1.231657
701.7678, 1.411913
702.2499, 1.479195
702.7320, 1.501917
703.2141, 1.576582
703.6962, 1.689030
704.1783, 1.700714
704.6605, 1.414927
705.1426, 1.138718
705.6247, 1.025206
706.1068, 1.086899
706.5889, 1.218523
707.0710, 1.439333
707.5532, 1.690626
708.0353, 1.992340
708.5174, 2.344658
708.9995, 2.436630
709.4816, 2.233963
709.9637, 1.983852
710.4459, 1.885269
710.9280, 1.920456
711.4101, 2.105635
711.8922, 2.489031
712.3743, 2.781710
712.8564, 2.771372
713.3386, 2.590429
713.8207, 2.371367
714.3028, 1.967459
714.7849, 1.786154
715.2670, 1.975117
715.7491, 2.313475
716.2313, 2.518541
716.7134, 2.555841
717.1955, 2.602259
717.6776, 2.696568
718.1597, 2.793964
718.6418, 2.732361
719.1240, 2.569855
719.6061, 2.619545
720.0882, 3.209644
720.5703, 3.804716
721.0524, 3.711348
721.5345, 3.189445
722.0167, 2.866793
722.4988, 3.200125
722.9809, 3.553896
723.4630, 3.664038
723.9451, 3.583725
724.4272, 3.652634
724.9094, 4.080772
725.3915, 4.245836
725.8736, 3.762024
726.3557, 2.817219
726.8378, 2.567520
727.3199, 3.021147
727.8021, 3.490484
728.2842, 3.417664
728.7663, 3.134039
729.2484, 3.286135
729.7305, 3.829308
730.2126, 4.161846
730.6948, 3.569321
731.1769, 2.905321
731.6590, 2.861050
732.1411, 3.637352
732.6232, 4.075068
733.1053, 3.868095
733.5875, 3.534962
734.0696, 3.396900
734.5517, 3.460766
735.0338, 3.600283
735.5159, 3.849140
735.9980, 4.053598
736.4802, 3.998756
736.9623, 3.771875
737.4444, 3.643167
737.9265, 3.653811
738.4086, 3.724150
738.8907, 3.877182
739.3729, 4.009855
739.8550, 3.998766
740.3371, 3.693230
740.8192, 3.501757
741.3013, 3.580950
741.7834, 3.738556
742.2656, 3.823133
742.7477, 3.847338
743.2298, 3.750368
743.7119, 3.467463
744.1940, 3.204357
744.6761, 3.298441
745.1583, 3.662619
745.6404, 3.978354
746.1225, 4.194872
746.6046, 4.308443
747.0867, 4.172211
747.5688, 3.939695
748.0510, 3.893772
748.5331, 4.466358
749.0152, 4.859348
749.4973, 4.715221
749.9794, 4.304741
750.4615, 4.138264
750.9437, 4.327400
751.4258, 4.404877
751.9079, 4.224630
752.3900, 3.961802
752.8721, 4.016994
753.3542, 4.331787
753.8364, 4.647795
754.3185, 4.973188
754.8006, 5.153805
755.2827, 4.842590
755.7648, 4.214336
756.2469, 3.797224
756.7291, 4.042212
757.2112, 4.315531
757.6933, 4.380159
758.1754, 4.254370
758.6575, 4.069702
759.1396, 3.696142
759.6218, 3.548227
760.1039, 3.903301
760.5860, 4.572508
761.0681, 4.625713
761.5502, 4.090141
762.0323, 3.614214
762.5145, 3.645302
762.9966, 3.885954
763.4787, 3.908745
763.9608, 3.771879
764.4429, 3.774626
764.9250, 4.391117
765.4072, 4.876186
765.8893, 4.715290
766.3714, 3.859129
766.8535, 3.369476
767.3356, 3.390356
767.8177, 3.528950
768.2999, 3.611633
768.7820, 3.654467
769.2641, 3.856316
769.7462, 4.189623
770.2283, 4.350773
770.7104, 3.937599
771.1926, 3.338135
771.6747, 3.090494
772.1568, 3.194105
772.6389, 3.326212
773.1210, 3.391602
773.6031, 3.413439
774.0853, 3.373711
774.5674, 3.256260
775.0495, 3.161285
775.5316, 3.075306
776.0137, 3.064800
776.4958, 3.216434
776.9780, 3.513737
777.4601, 3.636841
777.9422, 3.574253
778.4243, 3.485956
778.9064, 3.567347
779.3885, 3.678865
779.8707, 3.608988
780.3528, 3.322025
780.8349, 3.062319
781.3170, 3.027058
781.7991, 2.996027
782.2812, 2.771677
782.7633, 2.228947
783.2454, 1.944252
783.7275, 1.993082
784.2097, 2.155794
784.6918, 2.297812
785.1739, 2.415066
785.6560, 2.434275
786.1381, 2.346743
786.6202, 2.184452
787.1024, 1.857548
787.5845, 1.534271
788.0666, 1.478283
788.5487, 1.800488
789.0308, 2.014547
789.5129, 1.841928
789.9951, 1.574223
790.4772, 1.434580
790.9593, 1.462469
791.4414, 1.521027
791.9235, 1.650198
792.4056, 1.726301
792.8878, 1.549614
793.3699, 1.191475
793.8520, 1.067165
794.3341, 1.241684
794.8162, 1.426582
795.2983, 1.345982
795.7805, 1.157566
796.2626, 1.044033
796.7447, 1.070637
797.2268, 1.074467
797.7089, 0.9662820
798.1910, 0.8574450
798.6732, 0.8549840
799.1553, 1.036564
799.6374, 1.034435
800.1195, 0.8156620
800.6016, 0.4943160
801.0837, 8.8692002E-02
801.5659, 0.3242650
802.0480, 0.4644470
802.5301, 0.2618750
803.0122, 2.3414999E-02
803.4943, 1.3527000E-02
803.9764, 2.0435000E-02
804.4586, 8.8620000E-03
804.9407, 0.1621780
805.4228, 0.2839160
805.9049, 0.3888130
806.3870, 0.4345660
806.8691, 0.3320350
807.3513, 3.7430000E-02
807.8334, 5.8178000E-02
808.3155, 0.4905590
808.7976, 0.8758090
809.2797, 0.5740050
809.7618, 8.9409001E-02
810.2440, 0.4574700
810.7261, 0.3956830
811.2082, 0.2605900
811.6903, 0.2227780
812.1724, 0.2192380
812.6545, 0.1991880
813.1367, 0.1577800
813.6188, 9.0359002E-02
814.1009, 2.7035000E-02
814.5830, 0.1317630
815.0651, 0.1384770
815.5472, 5.8040999E-02
816.0294, 8.3965003E-02
816.5115, 0.2384830
816.9936, 0.3797610
817.4757, 0.3846930
817.9578, 0.2973790
818.4399, 0.1297990
818.9221, 0.1513750
819.4042, 0.3209270
819.8863, 0.1538660
820.3684, 3.9925002E-02
820.8505, 3.0693000E-02
821.3326, 0.2637100
821.8148, 0.4180110
822.2969, 0.4050670
822.7790, 0.3390770
823.2611, 0.2989880
823.7432, 0.2934490
824.2253, 0.3394810
824.7075, 0.4402500
825.1896, 0.6449740
825.6717, 1.219444
826.1538, 1.758751
826.6359, 1.831432
827.1180, 1.248875
827.6002, 1.002762
828.0823, 1.477982
828.5644, 1.945553
829.0465, 1.931164
829.5286, 1.418362
830.0107, 1.198284
830.4929, 1.296116
830.9750, 1.389458
831.4571, 1.124058
831.9392, 0.7367400
832.4213, 0.6278990
832.9034, 0.8133540
833.3856, 0.9833370
833.8677, 1.022438
834.3498, 0.9762230
834.8319, 0.8526990
835.3140, 0.6569980
835.7961, 0.4523770
836.2783, 0.2637790
836.7604, 5.6420001E-03
837.2425, 0.5246160
837.7246, 1.165424
838.2067, 1.313732
838.6888, 1.018906
839.1710, 0.7568970
839.6531, 0.7437400
840.1352, 0.9640580
840.6173, 1.532326
841.0994, 2.400269
841.5815, 3.047073
842.0637, 3.204090
842.5458, 3.335354
843.0279, 3.535900
843.5100, 3.820457
843.9921, 4.332474
844.4742, 5.073048
844.9564, 5.832478
845.4385, 6.526875
845.9206, 7.168140
846.4027, 7.589439
846.8848, 7.937893
847.3669, 8.720566
847.8491, 10.65657
848.3312, 12.56230
848.8133, 13.88932
849.2954, 14.82646
849.7775, 15.96989
850.2596, 17.37654
850.7418, 18.79510
851.2239, 20.06882
851.7060, 21.41904
852.1881, 23.41277
852.6702, 25.93053
853.1523, 28.41180
853.6345, 30.59572
854.1166, 32.73401
854.5987, 34.98043
855.0808, 37.29761
855.5629, 39.67097
856.0450, 42.16147
856.5272, 44.56271
857.0093, 46.72361
857.4914, 48.88840
857.9735, 51.50793
858.4556, 54.53715
858.9377, 57.62077
859.4199, 60.57387
859.9020, 63.69735
860.3841, 67.42752
860.8662, 71.48641
861.3483, 75.56522
861.8304, 79.79509
862.3126, 83.56339
862.7947, 86.41295
863.2768, 88.90445
863.7589, 91.54147
864.2410, 94.44718
864.7231, 97.03876
865.2053, 99.40916
865.6874, 100.9564
866.1695, 100.7986
866.6516, 99.40994
867.1337, 97.77502
867.6158, 96.05275
868.0980, 93.78450
868.5801, 90.47759
869.0622, 86.72890
869.5443, 82.97204
870.0264, 79.22399
870.5085, 75.33297
870.9907, 71.31024
871.4728, 67.25010
871.9549, 63.15951
872.4370, 59.12419
872.9191, 55.57712
873.4012, 52.47256
873.8834, 49.45681
874.3655, 45.97724
874.8476, 42.72803
875.3297, 40.25845
875.8118, 38.59365
876.2939, 37.07772
876.7761, 35.79682
877.2582, 34.38171
877.7403, 32.57608
878.2224, 30.54845
878.7045, 29.17346
879.1866, 28.40946
879.6688, 27.97030
880.1509, 27.90948
880.6330, 27.94662
881.1151, 27.80091
881.5972, 27.51834
882.0793, 27.23414
882.5615, 26.58107
883.0436, 26.46170
883.5257, 27.24393
884.0078, 28.52101
884.4899, 29.38996
884.9720, 29.86121
885.4542, 30.43470
885.9363, 31.25623
886.4184, 32.09019
886.9005, 32.35668
887.3826, 32.53829
887.8647, 33.47358
888.3469, 36.02464
888.8290, 38.28044
889.3111, 39.24508
889.7932, 39.90138
890.2753, 41.22648
890.7574, 43.34495
891.2396, 45.56933
891.7217, 47.89491
892.2038, 50.24417
892.6859, 52.43233
893.1680, 54.61254
893.6501, 57.07787
894.1323, 59.88815
894.6144, 62.97887
895.0965, 66.96412
895.5786, 70.73553
896.0607, 73.23650
896.5428, 74.18475
897.0250, 76.66622
897.5071, 81.09161
897.9892, 85.66431
898.4713, 88.91692
898.9534, 91.50856
899.4355, 95.69248
899.9177, 101.2310
900.3998, 106.7538
900.8819, 110.7925
901.3640, 115.0590
901.8461, 120.5456
902.3282, 127.1329
902.8104, 133.8863
903.2925, 140.7060
903.7746, 147.6536
904.2567, 154.3584
904.7388, 161.5376
905.2209, 171.0457
905.7031, 182.5642
906.1852, 194.7482
906.6673, 206.9936
907.1494, 220.1190
907.6315, 234.3062
908.1136, 249.8748
908.5958, 267.4219
909.0779, 287.5297
909.5600, 308.5806
910.0421, 330.4998
910.5242, 353.2414
911.0063, 376.7632
911.4885, 401.1869
911.9706, 427.7185
912.4527, 456.3622
912.9348, 486.6186
913.4169, 518.0771
913.8990, 550.8707
914.3812, 584.8750
914.8633, 619.7548
915.3454, 657.9239
915.8275, 700.6910
916.3096, 744.5353
916.7917, 787.5823
917.2739, 832.0604
917.7560, 875.0295
918.2381, 921.9935
918.7202, 968.5720
919.2023, 1015.305
919.6844, 1059.135
920.1666, 1099.549
920.6487, 1135.779
921.1308, 1164.114
921.6129, 1184.801
922.0950, 1197.319
922.5771, 1202.245
923.0593, 1198.240
923.5414, 1180.707
924.0235, 1150.567
924.5056, 1112.393
924.9877, 1066.936
925.4698, 1016.484
925.9520, 961.3132
926.4341, 902.9029
926.9162, 843.8246
927.3983, 781.9232
927.8804, 723.5771
928.3625, 669.5750
928.8447, 618.9506
929.3268, 570.6646
929.8089, 525.1956
930.2910, 483.2758
930.7731, 444.6981
931.2552, 409.5666
931.7374, 377.3278
932.2195, 347.9581
932.7016, 321.1525
933.1837, 297.2104
933.6658, 275.1835
934.1479, 255.0553
934.6301, 236.3855
935.1122, 218.8617
935.5943, 202.6379
936.0764, 188.8210
936.5585, 177.0863
937.0406, 165.9203
937.5228, 154.0304
938.0049, 142.6559
938.4870, 132.7658
938.9691, 124.0648
939.4512, 115.9038
939.9333, 107.9412
940.4155, 100.7711
940.8976, 94.60526
941.3797, 89.06905
941.8618, 83.81757
942.3439, 78.76012
942.8260, 73.56181
943.3082, 67.99258
943.7903, 62.72879
944.2724, 58.23558
944.7545, 54.37847
945.2366, 51.04150
945.7188, 48.37935
946.2009, 45.50964
946.6830, 42.31816
947.1651, 39.15697
947.6472, 36.21015
948.1293, 33.53962
948.6115, 31.22660
949.0936, 29.23337
949.5757, 27.41347
950.0578, 25.77132
950.5399, 24.26789
951.0220, 22.94927
951.5042, 21.75574
951.9863, 20.45367
952.4684, 19.02667
952.9505, 17.52122
953.4326, 15.83239
953.9147, 14.23058
954.3969, 13.31494
954.8790, 12.88283
955.3611, 12.30915
955.8432, 11.32034
956.3253, 10.33349
956.8074, 9.777607
957.2896, 9.278854
957.7717, 8.407822
958.2538, 6.964119
958.7359, 5.821068
959.2180, 4.982082
959.7001, 4.428242
960.1823, 4.381126
960.6644, 4.540684
961.1465, 4.221401
961.6286, 3.444996
962.1107, 2.738567
962.5928, 2.499992
963.0750, 2.237835
963.5571, 1.669254
964.0392, 0.9034880
964.5213, 0.3561550
965.0034, 3.9303001E-02
965.4855, 0.1461870
965.9677, 0.2041660
966.4498, 0.2008630
966.9319, 0.2317890
967.4140, 0.2651940
967.8961, 0.2224770
968.3782, 0.1069450
968.8604, 0.1467360
969.3425, 0.4563290
969.8246, 1.159615
970.3067, 1.548412
970.7888, 1.614399
971.2709, 1.469788
971.7531, 1.107143
972.2352, 0.7707250
972.7173, 0.6340290
973.1994, 0.6399500
973.6815, 0.8517530
974.1636, 1.224739
974.6458, 1.289555
975.1279, 0.7952080
975.6100, 0.2025340
976.0921, 0.4883460
976.5742, 1.104931
977.0563, 0.9572720
977.5385, 0.2021450
978.0206, 0.1643710
978.5027, 0.3480950
978.9848, 1.053398
979.4669, 1.521202
979.9490, 1.832626
980.4311, 2.088093
980.9132, 2.330959
981.3953, 2.406361
981.8774, 2.188801
982.3596, 2.119968
982.8417, 2.901028
983.3238, 4.115952
983.8059, 4.294693
984.2880, 3.474007
984.7701, 2.953762
985.2523, 3.792843
985.7344, 4.820667
986.2165, 5.477692
986.6986, 5.796921
987.1807, 5.911118
987.6628, 5.800999
988.1450, 5.577488
988.6271, 5.212547
989.1092, 4.874207
989.5913, 4.945576
990.0734, 5.193192
990.5555, 5.173332
991.0377, 4.638103
991.5198, 4.083649
992.0019, 3.550022
992.4840, 3.120068
992.9661, 2.882732
993.4482, 2.844025
993.9304, 2.846684
994.4125, 2.890583
994.8946, 2.839931
995.3767, 2.507904
995.8588, 2.099815
996.3409, 1.828686
996.8231, 1.672260
997.3052, 1.417377
997.7873, 0.9624290
998.2694, 0.5270160
998.7515, 0.1402090
999.2336, 0.1798520
999.7158, 0.3698460
1000.198, 0.4505650
1000.680, 0.4604230
1001.162, 0.3491520
1001.644, 0.3742370
1002.126, 0.9565430
1002.608, 1.572338
1003.091, 1.693104
1003.573, 1.211910
1004.055, 0.8164670
1004.537, 0.4748800
1005.019, 0.3597180
1005.501, 0.8346100
1005.983, 1.485401
1006.465, 1.523502
1006.948, 1.086174
1007.430, 0.7217980
1007.912, 0.7126920
1008.394, 0.7304650
1008.876, 0.6781690
1009.358, 0.6080210
1009.840, 0.6437870
1010.322, 0.7795450
1010.804, 0.7898600
1011.287, 0.6200290
1011.769, 0.4295770
1012.251, 0.5091510
1012.733, 0.5571980
1013.215, 0.1768530
1013.697, 0.8038670
1014.179, 1.366367
1014.661, 1.331173
1015.143, 1.200745
1015.626, 1.163982
1016.108, 1.240208
1016.590, 1.628326
1017.072, 2.207153
1017.554, 2.535179
1018.036, 2.032616
1018.518, 1.669006
1019.000, 2.000614
1019.483, 2.634392
1019.965, 2.975853
1020.447, 2.900043
1020.929, 3.361210
1021.411, 4.519485
1021.893, 5.594849
1022.375, 5.611187
1022.857, 5.234093
1023.339, 5.364441
1023.822, 6.050781
1024.304, 6.542999
1024.786, 6.461731
1025.268, 6.438770
1025.750, 6.671867
1026.232, 7.076752
1026.714, 7.400257
1027.196, 7.663502
1027.679, 8.006378
1028.161, 8.520092
1028.643, 9.046486
1029.125, 9.542171
1029.607, 9.975578
1030.089, 10.29316
1030.571, 10.45481
1031.053, 10.60845
1031.536, 10.72142
1032.018, 10.95576
1032.500, 11.54464
1032.982, 12.30330
1033.464, 12.88453
1033.946, 13.31089
1034.428, 13.76947
1034.910, 14.50433
1035.392, 15.03680
1035.875, 15.13142
1036.357, 15.10677
1036.839, 15.55166
1037.321, 16.41448
1037.803, 17.16989
1038.285, 17.71696
1038.767, 18.30108
1039.249, 19.26856
1039.731, 20.24593
1040.214, 20.82437
1040.696, 20.94236
1041.178, 21.50927
1041.660, 22.61691
1042.142, 23.82286
1042.624, 24.98074
1043.106, 26.08397
1043.588, 27.24220
1044.071, 28.35924
1044.553, 29.21548
1045.035, 29.38354
1045.517, 29.84164
1045.999, 30.91754
1046.481, 32.18059
1046.963, 33.17580
1047.445, 33.94405
1047.927, 35.10064
1048.410, 36.65958
1048.892, 38.18403
1049.374, 39.34050
1049.856, 40.39198
1050.338, 41.57449
1050.820, 42.81432
1051.302, 43.78091
1051.784, 44.47050
1052.266, 44.88268
1052.749, 44.94093
1053.231, 44.93549
1053.713, 45.37652
1054.195, 46.01223
1054.677, 46.45100
1055.159, 46.61712
1055.641, 46.60221
1056.123, 46.53131
1056.606, 46.12901
1057.088, 45.17065
1057.570, 43.78759
1058.052, 42.76073
1058.534, 41.97308
1059.016, 40.87524
1059.498, 39.13358
1059.980, 37.19487
1060.463, 35.22440
1060.945, 33.32066
1061.427, 31.61007
1061.909, 30.12677
1062.391, 28.81153
1062.873, 27.71880
1063.355, 26.41613
1063.837, 24.28527
1064.319, 21.90891
1064.802, 20.10907
1065.284, 18.83580
1065.766, 17.58870
1066.248, 16.09508
1066.730, 14.86260
1067.212, 14.07860
1067.694, 13.45641
1068.176, 12.43737
1068.658, 11.13599
1069.141, 9.964363
1069.623, 8.990299
1070.105, 8.205544
1070.587, 7.801941
1071.069, 7.459942
1071.551, 6.859917
1072.033, 6.028370
1072.515, 5.919483
1072.998, 6.570072
1073.480, 6.910149
1073.962, 6.273212
1074.444, 5.363106
1074.926, 4.841702
1075.408, 4.586746
1075.890, 4.433231
1076.372, 4.467747
1076.854, 4.352436
1077.337, 4.046494
1077.819, 3.736343
1078.301, 3.556076
1078.783, 3.406528
1079.265, 3.042007
1079.747, 2.549770
1080.229, 2.318840
1080.711, 2.860195
1081.193, 3.254509
1081.676, 3.248051
1082.158, 2.989368
1082.640, 2.631016
1083.122, 2.205978
1083.604, 2.101219
1084.086, 2.399963
1084.568, 2.638374
1085.050, 2.376434
1085.532, 1.990517
1086.015, 1.704765
1086.497, 1.542030
1086.979, 1.677753
1087.461, 2.195908
1087.943, 2.417965
1088.425, 2.030682
1088.907, 1.451683
1089.389, 1.168106
1089.872, 1.068874
1090.354, 0.9943200
1090.836, 0.8965300
1091.318, 0.8865890
1091.800, 1.018578
1092.282, 1.126736
1092.764, 1.066769
1093.246, 0.9191590
1093.729, 0.9646380
1094.211, 1.145699
1094.693, 1.251711
1095.175, 1.082666
1095.657, 0.9644790
1096.139, 0.9979630
1096.621, 1.113228
1097.103, 1.271360
1097.585, 1.465738
1098.068, 1.503225
1098.550, 1.379055
1099.032, 1.317005
1099.514, 1.602425
1099.996, 1.888407
1100.478, 1.961325
1100.960, 1.829849
1101.442, 1.556385
1101.924, 1.099279
1102.407, 0.7163110
1102.889, 0.4324670
1103.371, 0.3177780
1103.853, 0.6146260
1104.335, 1.024658
1104.817, 1.133549
1105.299, 0.8414310
1105.781, 0.8696590
1106.264, 1.529839
1106.746, 1.843727
1107.228, 1.267725
1107.710, 0.3538570
1108.192, 0.3326230
1108.674, 0.8424720
1109.156, 1.025181
1109.638, 0.4196360
1110.120, 9.9029997E-03
1110.603, 4.9302999E-02
1111.085, 0.2709030
1111.567, 0.5095310
1112.049, 0.7467820
1112.531, 0.8470630
1113.013, 0.8230720
1113.495, 0.7629180
1113.977, 0.8224540
1114.459, 0.7310010
1114.942, 4.7121000E-02
1115.424, 0.6828590
1115.906, 0.6423240
1116.388, 0.2799110
1116.870, 0.6912400
1117.352, 0.5045590
1117.834, 0.2333910
1118.316, 0.3242150
1118.799, 0.4648420
1119.281, 0.3236240
1119.763, 0.3847850
1120.245, 0.4075850
1120.727, 0.2423340
1121.209, 0.3724060
1121.691, 0.1680930
1122.173, 4.8285998E-02
1122.656, 0.2451020
1123.138, 0.6849480
1123.620, 0.7297520
1124.102, 0.3041460
1124.584, 2.5500001E-03
1125.066, 7.2474003E-02
1125.548, 9.0274997E-02
1126.030, 0.1050010
1126.512, 8.9588001E-02
1126.995, 7.2091997E-02
1127.477, 0.2972430
1127.959, 0.3745520
1128.441, 0.2079300
1128.923, 6.7123003E-02
1129.405, 8.0266997E-02
1129.887, 8.0444001E-02
1130.369, 6.7312002E-02
1130.851, 0.2885070
1131.334, 0.1491010
1131.816, 0.2622130
1132.298, 0.5262870
1132.780, 0.3714850
1133.262, 0.1778110
1133.744, 0.1760220
1134.226, 0.1718940
1134.708, 8.6882003E-02
1135.191, 0.6382120
1135.673, 0.7050460
1136.155, 0.3015770
1136.637, 0.1234700
1137.119, 0.2719100
1137.601, 0.3559020
1138.083, 0.5249140
1138.565, 0.7339380
1139.047, 0.8973520
1139.530, 1.037392
1140.012, 0.9987140
1140.494, 0.7546370
1140.976, 0.4718170
1141.458, 0.2041240
1141.940, 4.8183002E-02
1142.422, 0.2094120
1142.904, 0.6089570
1143.386, 0.7699300
1143.869, 0.5746630
1144.351, 0.4270460
1144.833, 0.4004120
1145.315, 0.4453070
1145.797, 0.5220550
1146.279, 0.6200900
1146.761, 0.7479440
1147.243, 0.9077870
1147.726, 0.9529860
1148.208, 0.8146270
1148.690, 0.6711460
1149.172, 0.5732920
1149.654, 0.5078700
1150.136, 0.4382550
1150.618, 0.3771880
1151.100, 0.3522890
1151.583, 0.3718700
1152.065, 0.4417710
1152.547, 0.6286960
1153.029, 0.7611890
1153.511, 0.7208900
1153.993, 0.5916650
1154.475, 0.7104360
1154.957, 0.9826070
1155.439, 1.081863
1155.922, 0.8080980
1156.404, 0.5188580
1156.886, 0.2285190
1157.368, 8.6232997E-02
1157.850, 0.2641660
1158.332, 0.7085380
1158.814, 0.9028590
1159.296, 0.8701250
1159.778, 0.7633150
1160.261, 0.5737720
1160.743, 0.4312080
1161.225, 0.3858030
1161.707, 0.4459440
1162.189, 0.6651800
1162.671, 1.046991
1163.153, 1.156683
1163.635, 0.9975070
1164.118, 0.9027940
1164.600, 1.259251
1165.082, 1.572140
1165.564, 1.370813
1166.046, 0.9696640
1166.528, 1.000711
1167.010, 1.528034
1167.492, 1.777237
1167.974, 1.667313
1168.457, 1.467911
1168.939, 1.225473
1169.421, 1.126553
1169.903, 1.489235
1170.385, 2.141672
1170.867, 2.326948
1171.349, 1.966406
1171.831, 1.567287
1172.313, 1.181749
1172.796, 0.9693320
1173.278, 1.255260
1173.760, 1.683214
1174.242, 1.908527
1174.724, 1.856045
1175.206, 1.749191
1175.688, 1.545742
1176.170, 1.523916
1176.653, 1.816986
1177.135, 2.118837
1177.617, 1.850897
1178.099, 1.481623
1178.581, 1.705606
1179.063, 2.713221
1179.545, 3.192873
1180.027, 2.964684
1180.510, 2.725433
1180.992, 2.695684
1181.474, 2.807587
1181.956, 3.154720
1182.438, 3.534946
1182.920, 3.594061
1183.402, 3.130339
1183.884, 2.861343
1184.366, 2.862404
1184.849, 2.952053
1185.331, 3.076859
1185.813, 3.188213
1186.295, 3.244640
1186.777, 3.209614
1187.259, 2.988310
1187.741, 2.301310
1188.223, 2.041441
1188.705, 2.429310
1189.188, 2.790224
1189.670, 2.576445
1190.152, 2.081408
1190.634, 1.891033
1191.116, 1.942501
1191.598, 2.099810
1192.080, 2.457201
1192.562, 2.621042
1193.045, 2.458166
1193.527, 2.309223
1194.009, 2.541365
1194.491, 2.961945
1194.973, 3.158375
1195.455, 3.148220
1195.937, 3.012707
1196.419, 2.512661
1196.901, 2.309416
1197.384, 2.563299
1197.866, 2.942133
1198.348, 3.214352
1198.830, 3.341244
1199.312, 3.088959
1199.794, 2.562895
1200.276, 2.277750
1200.758, 2.795525
1201.240, 3.012531
1201.723, 2.645712
1202.205, 2.143162
1202.687, 2.065294
1203.169, 2.271378
1203.651, 2.471382
1204.133, 2.632063
1204.615, 2.682896
1205.097, 2.407724
1205.580, 2.302977
1206.062, 2.536779
1206.544, 2.848635
1207.026, 2.789387
1207.508, 2.525246
1207.990, 2.521973
1208.472, 2.807177
1208.954, 2.960938
1209.437, 2.642494
1209.919, 2.442932
1210.401, 2.576735
1210.883, 2.767992
1211.365, 2.482487
1211.847, 1.905085
1212.329, 1.359682
1212.811, 0.8897020
1213.293, 0.8878310
1213.776, 2.171955
1214.258, 2.974277
1214.740, 2.682329
1215.222, 1.859932
1215.704, 1.536560
1216.186, 1.560320
1216.668, 1.615498
1217.150, 1.656233
1217.632, 1.602722
1218.115, 1.222164
1218.597, 1.098991
1219.079, 1.571707
1219.561, 2.212738
1220.043, 2.001696
1220.525, 1.325722
1221.007, 1.109589
1221.489, 1.657812
1221.972, 1.905891
1222.454, 1.340721
1222.936, 0.9817220
1223.418, 1.327335
1223.900, 1.973257
1224.382, 2.023010
1224.864, 1.706158
1225.346, 1.509466
1225.828, 1.598822
1226.311, 1.565243
1226.793, 1.267908
1227.275, 1.026854
1227.757, 1.020994
1228.239, 1.120171
1228.721, 1.036362
1229.203, 0.8544410
1229.685, 0.7545530
1230.167, 0.8207340
1230.650, 0.8198260
1231.132, 0.6475160
1231.614, 0.6319900
1232.096, 1.054642
1232.578, 1.609493
1233.060, 1.655758
1233.542, 1.400719
1234.024, 1.242823
1234.507, 1.359016
1234.989, 1.343859
1235.471, 1.155302
1235.953, 0.9226910
1236.435, 0.7200580
1236.917, 0.5154360
1237.399, 0.1693330
1237.881, 0.1943800
1238.364, 0.3240640
1238.846, 2.1978000E-02
1239.328, 0.1261650
1239.810, 5.5760998E-02
1240.292, 0.2151090
1240.774, 0.1679610
1241.256, 1.6138000E-02
1241.738, 0.3455030
1242.220, 0.7059060
1242.703, 0.8892250
1243.185, 0.8524630
1243.667, 0.6133880
1244.149, 0.1040190
1244.631, 0.1861760
1245.113, 0.3225190
1245.595, 0.9687980
1246.077, 0.9211520
1246.559, 1.153193
1247.042, 1.162899
1247.524, 0.8704760
1248.006, 0.8040290
1248.488, 0.1873440
1248.970, 0.3246650
1249.452, 0.2205790
1249.934, 9.5057003E-02
1250.416, 0.4031120
1250.899, 0.6329140
1251.381, 0.6645340
1251.863, 0.4495790
1252.345, 0.3173200
1252.827, 0.2701930
1253.309, 0.3132420
1253.791, 0.5746080
1254.273, 0.7941040
1254.755, 0.7666530
1255.238, 0.6006700
1255.720, 0.4536950
1256.202, 0.3263530
1256.684, 0.1370510
1257.166, 0.1022170
1257.648, 0.1816040
1258.130, 0.1892150
1258.612, 0.5670570
1259.094, 0.7016580
1259.577, 0.7369940
1260.059, 0.8356320
1260.541, 0.9844680
1261.023, 0.9824300
1261.505, 0.8412340
1261.987, 0.6892340
1262.469, 0.6066060
1262.951, 0.5057560
1263.434, 0.2641430
1263.916, 9.6554004E-02
1264.398, 0.3110350
1264.880, 0.7895910
1265.362, 1.005424
1265.844, 0.9724980
1266.326, 0.8538670
1266.808, 0.5880850
1267.291, 0.4434850
1267.773, 0.4794120
1268.255, 0.6065410
1268.737, 0.7638260
1269.219, 0.9347740
1269.701, 1.113241
1270.183, 1.275314
1270.665, 1.336676
1271.147, 1.121563
1271.630, 1.015373
1272.112, 1.005272
1272.594, 1.079493
1273.076, 1.269442
1273.558, 1.488808
1274.040, 1.653749
1274.522, 1.737759
1275.004, 1.717857
1275.486, 1.561863
1275.969, 1.297249
1276.451, 0.8557430
1276.933, 0.5742510
1277.415, 0.8706860
1277.897, 1.329670
1278.379, 1.549072
1278.861, 1.589182
1279.343, 1.661741
1279.825, 1.863554
1280.308, 1.553516
1280.790, 0.6406840
1281.272, 3.8139001E-02
1281.754, 0.2122360
1282.236, 0.7488020
1282.718, 1.268030
1283.200, 1.695269
1283.682, 1.975576
1284.165, 2.114248
1284.647, 1.797953
1285.129, 1.054668
1285.611, 0.5208760
1286.093, 0.7522510
1286.575, 1.085003
1287.057, 1.271099
1287.539, 1.357828
1288.021, 1.340157
1288.504, 1.254845
1288.986, 1.370464
1289.468, 1.651176
1289.950, 1.833544
1290.432, 1.794044
1290.914, 1.619474
1291.396, 1.268486
1291.878, 0.9182740
1292.360, 0.7533110
1292.843, 0.6980060
1293.325, 0.6195740
1293.807, 0.5210780
1294.289, 0.4697740
1294.771, 0.6224520
1295.253, 0.5459610
1295.735, 0.1113590
1296.217, 0.1831110
1296.700, 0.3545610
1297.182, 1.090326
1297.664, 1.004919
1298.146, 0.4241540
1298.628, 0.2395230
1299.110, 0.7053340
1299.592, 0.9035590
1300.074, 0.4611530
1300.557, 0.2769570
1301.039, 0.3190440
1301.521, 0.3356360
1302.003, 0.2119310
1302.485, 4.5251999E-02
1302.967, 4.6700001E-04
1303.449, 0.0000000E+00
##END=



