##NAMES=Pyrophyllite
##RRUFFID=R050051
##IDEAL CHEMISTRY=Al_2_Si_4_O_10_(OH)_2_
##LOCALITY=Cottonstone Mountain, Mecklenburg County, North Carolina, USA
##OWNER=RRUFF
##SOURCE=University of Arizona Mineral Museum
##DESCRIPTION=Radiating lamellar aggregates
##STATUS=The identification of this mineral has been confirmed by X-ray diffraction and chemical analysis
##URL=rruff.info/R050051
##MEASURED CHEMISTRY=(Al_.991_Fe_.008_Mg_.001_)_2_Si_4_O_10_(OH)_2_
119.813, 0.000
121.203, 140.895
122.592, 51.125
123.981, 7.443
125.369, 177.406
126.758, 15.801
128.146, 185.824
129.534, 12.346
130.922, 256.675
132.309, 68.416
133.696, 233.507
135.083, 21.646
136.470, 377.590
137.857, 190.139
139.243, 313.129
140.630, 209.423
142.016, 237.904
143.401, 334.467
144.787, 354.013
146.172, 381.459
147.557, 416.734
148.942, 341.776
150.327, 263.531
151.711, 282.955
153.096, 368.000
154.480, 507.635
155.863, 293.823
157.247, 423.542
158.630, 579.762
160.013, 398.463
161.396, 488.621
162.779, 488.209
164.161, 494.182
165.544, 542.518
166.926, 714.189
168.308, 525.180
169.689, 680.475
171.070, 617.059
172.452, 897.920
173.833, 754.051
175.213, 760.441
176.594, 758.086
177.974, 676.768
179.354, 700.109
180.734, 615.475
182.114, 552.068
183.493, 583.883
184.872, 586.914
186.251, 557.158
187.630, 863.611
189.008, 761.273
190.387, 1235.143
191.765, 1628.211
193.143, 1928.479
194.520, 2032.941
195.898, 1809.600
197.275, 1532.453
198.652, 1148.496
200.029, 1073.725
201.405, 895.139
202.782, 771.688
204.158, 771.240
205.534, 844.787
206.909, 941.365
208.285, 993.262
209.660, 1082.656
211.035, 1209.391
212.410, 1289.195
213.784, 1507.076
215.159, 1383.039
216.533, 1348.086
217.907, 1168.223
219.281, 914.451
220.654, 800.773
222.027, 528.191
223.400, 599.705
224.773, 548.318
226.146, 675.039
227.518, 595.869
228.891, 501.801
230.263, 358.844
231.634, 522.994
233.006, 573.254
234.377, 423.619
235.748, 420.084
237.119, 459.646
238.490, 349.309
239.860, 596.066
241.231, 278.924
242.601, 539.875
243.970, 536.924
245.340, 496.064
246.709, 573.305
248.079, 426.635
249.448, 633.061
250.816, 485.580
252.185, 694.193
253.553, 882.980
254.921, 1188.930
256.289, 1851.967
257.657, 2559.092
259.024, 3938.303
260.391, 4916.598
261.758, 4943.979
263.125, 3845.443
264.492, 2677.090
265.858, 1826.854
267.224, 1256.730
268.590, 1043.705
269.956, 681.771
271.321, 693.951
272.687, 647.260
274.052, 497.654
275.416, 396.117
276.781, 638.656
278.146, 445.268
279.510, 293.045
280.874, 586.889
282.237, 496.840
283.601, 552.859
284.964, 454.031
286.327, 286.270
287.690, 525.523
289.053, 505.168
290.416, 462.965
291.778, 589.006
293.140, 396.271
294.502, 609.588
295.863, 346.252
297.225, 515.096
298.586, 390.105
299.947, 357.273
301.308, 411.592
302.668, 265.055
304.029, 190.688
305.389, 479.447
306.749, 419.334
308.108, 262.340
309.468, 565.521
310.827, 290.812
312.186, 405.213
313.545, 354.719
314.903, 527.324
316.262, 430.029
317.620, 238.828
318.978, 367.719
320.336, 372.701
321.693, 423.773
323.051, 479.930
324.408, 444.170
325.765, 87.492
327.121, 563.893
328.478, 202.373
329.834, 194.928
331.190, 463.025
332.546, 460.730
333.902, 316.508
335.257, 472.377
336.612, 264.551
337.967, 405.240
339.322, 453.902
340.677, 375.066
342.031, 554.295
343.385, 276.592
344.739, 453.443
346.093, 356.863
347.446, 200.346
348.799, 428.891
350.153, 439.531
351.505, 559.230
352.858, 289.992
354.210, 429.809
355.563, 534.682
356.915, 202.613
358.267, 500.596
359.618, 429.635
360.969, 510.740
362.321, 549.898
363.672, 493.105
365.022, 523.363
366.373, 458.670
367.723, 415.029
369.073, 538.438
370.423, 459.896
371.773, 392.404
373.122, 194.959
374.471, 283.566
375.821, 601.221
377.169, 299.924
378.518, 607.738
379.866, 273.600
381.215, 482.508
382.563, 551.209
383.910, 413.211
385.258, 258.207
386.605, 482.299
387.952, 491.436
389.299, 215.619
390.646, 381.846
391.992, 230.115
393.339, 230.426
394.685, 469.781
396.031, 173.178
397.376, 473.613
398.722, 253.090
400.067, 362.607
401.412, 129.166
402.757, 335.762
404.101, 410.398
405.446, 249.414
406.790, 20.129
408.134, 281.877
409.478, 316.486
410.821, 265.311
412.165, 502.168
413.508, 45.062
414.851, 454.586
416.193, 381.557
417.536, 128.561
418.878, 141.096
420.220, 394.686
421.562, 331.066
422.904, 406.809
424.245, 244.492
425.586, 472.697
426.927, 336.928
428.268, 424.203
429.609, 246.502
430.949, 193.826
432.289, 554.178
433.629, 452.422
434.969, 381.902
436.309, 530.352
437.648, 210.824
438.987, 645.320
440.326, 431.465
441.665, 219.012
443.003, 252.582
444.342, 603.186
445.680, 211.809
447.018, 309.486
448.355, 388.211
449.693, 106.988
451.030, 195.812
452.367, 153.678
453.704, 472.584
455.041, 27.531
456.377, 216.555
457.713, 188.615
459.049, 90.709
460.385, 60.846
461.721, 183.018
463.056, 347.252
464.391, 331.609
465.726, 211.926
467.061, 581.275
468.395, 323.656
469.730, 315.486
471.064, 513.928
472.398, 196.402
473.731, 628.904
475.065, 38.434
476.398, 110.002
477.731, 321.594
479.064, 367.213
480.397, 204.871
481.729, 186.551
483.062, 162.670
484.394, 161.988
485.725, 164.742
487.057, 111.518
488.389, 210.357
489.720, 268.221
491.051, 69.896
492.382, 179.002
493.712, 35.920
495.043, 198.301
496.373, 17.662
497.703, 38.615
499.032, 34.553
500.362, 184.404
501.691, 180.492
503.020, 226.594
504.349, 64.289
505.678, 440.832
507.007, 169.053
508.335, 68.203
509.663, 282.090
510.991, 90.268
512.319, 247.879
513.646, 157.082
514.973, 99.586
516.300, 161.812
517.627, 226.051
518.954, 198.818
520.280, 100.730
521.607, 205.006
522.933, 169.303
524.259, 167.609
525.584, 209.982
526.910, 174.326
528.235, 202.641
529.560, 152.229
530.885, 274.576
532.209, 279.809
533.534, 258.088
534.858, 219.652
536.182, 221.023
537.506, 156.893
538.829, 164.277
540.152, 262.678
541.476, 20.916
542.799, 381.484
544.121, 279.098
545.444, 155.207
546.766, 168.510
548.088, 39.816
549.410, 38.123
550.732, 136.434
552.053, 261.746
553.375, 199.059
554.696, 268.053
556.017, 121.689
557.337, 273.004
558.658, 153.320
559.978, 150.635
561.298, 16.945
562.618, 256.266
563.938, 196.418
565.257, 171.803
566.576, 172.023
567.895, 130.758
569.214, 170.400
570.533, 340.555
571.851, 38.703
573.170, 65.305
574.488, 228.801
575.805, 122.904
577.123, 3.000
578.440, 116.152
579.758, 34.553
581.075, 349.754
582.391, 8.256
583.708, 316.719
585.024, 143.684
586.341, 27.367
587.657, 167.330
588.972, 316.268
590.288, 312.203
591.603, 2.223
592.918, 157.965
594.233, 124.844
595.548, 274.969
596.863, 210.754
598.177, 65.732
599.491, 241.990
600.805, 130.826
602.119, 275.318
603.432, 112.006
604.746, 268.465
606.059, 246.600
607.372, 178.898
608.685, 44.531
609.997, 65.172
611.309, 55.621
612.621, 137.213
613.933, 97.043
615.245, 317.600
616.557, 185.145
617.868, 258.920
619.179, 453.430
620.490, 340.311
621.801, 76.816
623.111, 546.438
624.421, 105.812
625.731, 351.162
627.041, 172.502
628.351, 445.396
629.660, 73.227
630.970, 147.666
632.279, 573.896
633.588, 144.941
634.896, 169.164
636.205, 97.488
637.513, 280.887
638.821, 222.928
640.129, 218.787
641.437, 407.783
642.744, 333.914
644.051, 221.939
645.358, 214.207
646.665, 327.105
647.972, 276.141
649.278, 191.863
650.584, 245.688
651.890, 2.311
653.196, 633.041
654.502, 354.510
655.807, 362.551
657.113, 3.387
658.418, 237.193
659.722, 511.744
661.027, 199.268
662.331, 229.266
663.636, 160.732
664.940, 515.166
666.244, 59.428
667.547, 411.262
668.851, 120.121
670.154, 401.359
671.457, 135.564
672.760, 224.738
674.062, 526.207
675.365, 134.889
676.667, 50.857
677.969, 289.969
679.271, 338.115
680.572, 372.588
681.874, 216.953
683.175, 434.881
684.476, 459.783
685.777, 180.654
687.077, 272.486
688.378, 305.287
689.678, 608.061
690.978, 572.797
692.278, 441.498
693.577, 135.135
694.877, 825.482
696.176, 461.596
697.475, 882.082
698.774, 641.793
700.072, 1216.068
701.371, 1263.797
702.669, 1479.148
703.967, 1379.465
705.265, 1987.758
706.562, 2412.758
707.860, 2116.984
709.157, 1531.174
710.454, 1746.230
711.751, 977.350
713.047, 1175.697
714.344, 589.057
715.640, 879.068
716.936, 362.047
718.232, 517.980
719.527, 823.887
720.823, 465.639
722.118, 449.473
723.413, 693.004
724.708, 364.531
726.002, 337.258
727.297, 651.943
728.591, 99.594
729.885, 335.609
731.179, 736.465
732.472, 345.984
733.766, 164.363
735.059, 181.707
736.352, 119.832
737.645, 372.949
738.937, 683.637
740.230, 510.910
741.522, 102.152
742.814, 312.324
744.106, 373.461
745.397, 437.035
746.689, 298.172
747.980, 33.961
749.271, 406.840
750.562, 238.738
751.853, 412.594
753.143, 172.926
754.433, 447.078
755.723, 290.949
757.013, 96.637
758.303, 492.262
759.592, 58.848
760.881, 214.379
762.170, 106.887
763.459, 434.344
764.748, 236.734
766.036, 224.906
767.325, 697.195
768.613, 60.566
769.901, 485.605
771.188, 536.738
772.476, 139.836
773.763, 477.883
775.050, 30.078
776.337, 250.859
777.624, 28.664
778.910, 425.516
780.196, 444.285
781.482, 409.496
782.768, 183.980
784.054, 102.539
785.339, 276.285
786.625, 321.770
787.910, 50.227
789.195, 315.637
790.479, 287.016
791.764, 37.352
793.048, 380.641
794.332, 176.895
795.616, 435.105
796.900, 310.266
798.183, 330.387
799.467, 84.520
800.750, 357.496
802.033, 312.469
803.316, 74.441
804.598, 657.320
805.880, 219.828
807.163, 558.516
808.445, 511.191
809.726, 342.832
811.008, 391.078
812.289, 795.777
813.570, 460.312
814.851, 688.812
816.132, 521.258
817.413, 393.684
818.693, 399.973
819.973, 392.316
821.253, 253.195
822.533, 206.465
823.813, 413.297
825.092, 349.500
826.371, 355.355
827.650, 270.953
828.929, 213.027
830.208, 169.012
831.486, 144.121
832.764, 70.484
834.042, 239.348
835.320, 258.223
836.598, 513.004
837.875, 509.984
839.152, 362.746
840.429, 640.230
841.706, 774.352
842.983, 410.016
844.259, 357.770
845.536, 547.367
846.812, 196.934
848.088, 318.973
849.363, 15.805
850.639, 478.211
851.914, 399.336
853.189, 8.688
854.464, 283.992
855.739, 461.449
857.013, 706.754
858.288, 669.156
859.562, 189.012
860.836, 384.215
862.110, 576.375
863.383, 169.512
864.656, 562.656
865.930, 291.730
867.203, 280.770
868.475, 517.781
869.748, 433.539
871.020, 76.473
872.292, 505.363
873.564, 301.297
874.836, 538.031
876.108, 188.953
877.379, 213.609
878.650, 469.266
879.922, 620.883
881.192, 438.246
882.463, 383.145
883.733, 281.426
885.004, 403.586
886.274, 256.699
887.544, 249.004
888.813, 627.340
890.083, 180.883
891.352, 231.781
892.621, 664.770
893.890, 346.535
895.159, 412.500
896.427, 372.117
897.695, 232.668
898.964, 325.828
900.232, 193.453
901.499, 395.816
902.767, 403.051
904.034, 435.887
905.301, 214.973
906.568, 356.621
907.835, 305.672
909.102, 461.980
910.368, 408.203
911.634, 407.496
912.900, 601.363
914.166, 361.918
915.432, 881.352
916.697, 337.555
917.962, 155.969
919.227, 664.793
920.492, 503.809
921.757, 481.348
923.021, 549.141
924.285, 453.574
925.550, 626.719
926.813, 312.719
928.077, 663.297
929.341, 458.605
930.604, 348.551
931.867, 612.668
933.130, 188.738
934.393, 213.293
935.655, 647.012
936.918, 27.363
938.180, 691.324
939.442, 416.965
940.703, 334.566
941.965, 575.684
943.226, 404.547
944.488, 294.113
945.749, 356.480
947.009, 466.363
948.270, 455.250
949.530, 504.984
950.791, 400.203
952.051, 491.387
953.311, 316.527
954.570, 88.641
955.830, 628.512
957.089, 532.508
958.348, 356.387
959.607, 390.227
960.866, 318.699
962.124, 127.578
963.383, 269.855
964.641, 414.559
965.899, 332.102
967.156, 402.414
968.414, 361.465
969.671, 312.648
970.928, 385.945
972.185, 197.211
973.442, 299.945
974.699, 260.723
975.955, 262.539
977.211, 547.773
978.468, 148.852
979.723, 517.059
980.979, 106.770
982.234, 89.852
983.490, 831.918
984.745, 75.309
986.000, 500.758
987.254, 403.844
988.509, 58.848
989.763, 543.207
991.017, 268.367
992.271, 158.484
993.525, 312.582
994.779, 229.602
996.032, 338.645
997.285, 360.707
998.538, 491.586
999.791, 131.266
1001.044, 579.023
1002.296, 97.262
1003.548, 569.453
1004.800, 359.695
1006.052, 220.930
1007.304, 333.109
1008.555, 7.625
1009.807, 473.609
1011.058, 336.898
1012.309, 336.164
1013.559, 470.418
1014.810, 239.742
1016.060, 346.121
1017.310, 376.477
1018.560, 367.750
1019.810, 99.430
1021.060, 298.055
1022.309, 510.008
1023.558, 185.188
1024.807, 544.621
1026.056, 178.797
1027.305, 289.000
1028.553, 351.371
1029.801, 650.199
1031.049, 398.574
1032.297, 80.293
1033.545, 382.734
1034.793, 607.336
1036.040, 255.828
1037.287, 188.773
1038.534, 14.621
1039.781, 12.910
1041.027, 717.352
1042.274, 108.773
1043.520, 406.879
1044.766, 435.566
1046.012, 163.910
1047.257, 227.855
1048.503, 524.188
1049.748, 594.688
1050.993, 524.484
1052.238, 414.988
1053.483, 329.523
1054.727, 329.898
1055.971, 4.609
1057.216, 360.383
1058.459, 73.203
1059.703, 0.000
##END=



