##NAMES=Pyrope
##RRUFFID=R050112
##IDEAL CHEMISTRY=Mg_3_Al_2_(SiO_4_)_3_
##LOCALITY=Cruzeiro mine, San Jose, Minas Gerais, Brazil
##OWNER=RRUFF
##SOURCE=Carlos and Paulo Vasconcelos
##DESCRIPTION=Dark red crystal fragment
##STATUS=The identification of this mineral has been confirmed by X-ray diffraction and chemical analysis
##URL=rruff.info/R050112
##MEASURED CHEMISTRY=(Mg_1.49_Fe^2+^_1.18_Ca_0.29_Mn_0.04_)_Σ=3_(Al_1.99_Fe^3+^_0.01_)_Σ=2_(Si_1.00_O_4_)_3_
119.9516, 0.0000000E+00
120.4337, 30.78442
120.9158, 40.51440
121.3980, 8.651123
121.8801, 1.305664
122.3622, 23.92407
122.8443, 48.84912
123.3264, 63.03857
123.8085, 67.58276
124.2907, 65.81689
124.7728, 56.96191
125.2549, 43.31470
125.7370, 34.65356
126.2191, 35.89233
126.7012, 39.34326
127.1834, 35.82446
127.6655, 23.36060
128.1476, 13.62622
128.6297, 17.13062
129.1118, 29.33911
129.5939, 43.36377
130.0761, 59.85767
130.5582, 76.55664
131.0403, 86.54346
131.5224, 89.70190
132.0045, 84.42383
132.4866, 64.48047
132.9688, 34.46191
133.4509, 9.994385
133.9330, 8.137451
134.4151, 32.87720
134.8972, 49.17090
135.3793, 43.78979
135.8615, 37.85010
136.3436, 41.71802
136.8257, 56.74146
137.3078, 76.81323
137.7899, 93.53296
138.2720, 108.0842
138.7542, 116.1184
139.2363, 116.2942
139.7184, 111.8079
140.2005, 104.1165
140.6826, 93.94238
141.1647, 82.71509
141.6469, 75.67139
142.1290, 66.43457
142.6111, 65.98682
143.0932, 85.58130
143.5753, 113.5950
144.0574, 131.5581
144.5396, 124.8198
145.0217, 99.70093
145.5038, 87.16284
145.9859, 98.80933
146.4680, 112.6204
146.9501, 119.8772
147.4323, 120.8950
147.9144, 119.7905
148.3965, 119.5139
148.8786, 119.8867
149.3607, 118.6394
149.8429, 114.2544
150.3250, 109.0261
150.8071, 105.0435
151.2892, 102.5088
151.7713, 100.9641
152.2534, 100.2273
152.7356, 100.1709
153.2177, 100.7222
153.6998, 104.1492
154.1819, 108.1465
154.6640, 106.8901
155.1461, 98.12109
155.6283, 86.02539
156.1104, 73.97461
156.5925, 61.91797
157.0746, 49.79980
157.5567, 35.47192
158.0388, 19.14575
158.5210, 9.395020
159.0031, 11.35083
159.4852, 18.01562
159.9673, 28.74268
160.4494, 42.65820
160.9315, 52.70386
161.4137, 47.95410
161.8958, 21.70605
162.3779, 2.566650
162.8600, 6.396729
163.3421, 7.453613
163.8242, 1.965332
164.3064, 22.29346
164.7885, 45.42285
165.2706, 54.37817
165.7527, 39.02905
166.2348, 24.11768
166.7169, 10.25806
167.1991, 1.030273
167.6812, 7.635010
168.1633, 8.412598
168.6454, 4.832275
169.1275, 3.253906
169.6096, 12.68018
170.0918, 14.24756
170.5739, 3.302979
171.0560, 29.88721
171.5381, 47.52637
172.0202, 43.31909
172.5023, 19.11548
172.9845, 13.03027
173.4666, 33.38721
173.9487, 58.93530
174.4308, 86.76978
174.9129, 114.3484
175.3951, 135.0435
175.8772, 142.2043
176.3593, 134.9871
176.8414, 135.1304
177.3235, 150.6360
177.8056, 166.4368
178.2878, 174.3733
178.7699, 173.9878
179.2520, 172.2290
179.7341, 176.6370
180.2162, 187.4773
180.6983, 192.5264
181.1805, 184.8989
181.6626, 173.0769
182.1447, 167.2554
182.6268, 169.4441
183.1089, 175.1619
183.5910, 183.9817
184.0732, 194.9768
184.5553, 196.5278
185.0374, 177.6421
185.5195, 146.5945
186.0016, 122.7471
186.4837, 110.7888
186.9659, 104.8823
187.4480, 100.1108
187.9301, 96.34351
188.4122, 91.89038
188.8943, 82.92358
189.3764, 70.76367
189.8586, 66.11011
190.3407, 75.59888
190.8228, 90.91382
191.3049, 104.8147
191.7870, 118.5371
192.2691, 130.3923
192.7513, 136.4451
193.2334, 135.9451
193.7155, 141.3909
194.1976, 170.5076
194.6797, 197.5991
195.1618, 204.0662
195.6440, 186.8711
196.1261, 164.0933
196.6082, 160.7520
197.0903, 184.5562
197.5724, 204.4966
198.0546, 210.7021
198.5367, 214.7581
199.0188, 226.1343
199.5009, 247.7236
199.9830, 272.4666
200.4651, 286.4409
200.9473, 280.6484
201.4294, 280.4951
201.9115, 289.3389
202.3936, 303.7976
202.8757, 323.0215
203.3578, 346.9543
203.8400, 371.8984
204.3221, 387.2341
204.8042, 385.6328
205.2863, 382.4963
205.7684, 376.9309
206.2505, 371.4839
206.7327, 369.3499
207.2148, 372.2830
207.6969, 378.6638
208.1790, 382.1709
208.6611, 378.8787
209.1432, 377.3909
209.6254, 381.8728
210.1075, 387.9299
210.5896, 388.4229
211.0717, 379.2385
211.5538, 362.7764
212.0359, 356.3535
212.5181, 377.7542
213.0002, 389.5601
213.4823, 375.1445
213.9644, 343.4780
214.4465, 314.6218
214.9286, 301.9375
215.4108, 303.3237
215.8929, 292.7903
216.3750, 257.5347
216.8571, 225.9980
217.3392, 208.9854
217.8213, 205.1201
218.3035, 209.8406
218.7856, 223.5127
219.2677, 243.7759
219.7498, 244.7297
220.2319, 211.9487
220.7140, 175.1870
221.1962, 146.7278
221.6783, 127.8220
222.1604, 119.8872
222.6425, 128.9819
223.1246, 152.3655
223.6067, 157.6433
224.0889, 127.2256
224.5710, 93.36548
225.0531, 80.05811
225.5352, 86.62817
226.0173, 95.72900
226.4994, 95.33228
226.9816, 87.08350
227.4637, 83.45801
227.9458, 92.06299
228.4279, 102.4534
228.9100, 104.1294
229.3921, 96.49683
229.8743, 83.63232
230.3564, 63.32910
230.8385, 39.53076
231.3206, 27.26392
231.8027, 42.42188
232.2849, 63.65576
232.7670, 62.45679
233.2491, 34.69849
233.7312, 5.148438
234.2133, 8.498047
234.6954, 8.675293
235.1776, 1.823242
235.6597, 31.38721
236.1418, 68.16162
236.6239, 96.96411
237.1060, 118.8293
237.5881, 127.6895
238.0703, 107.8745
238.5524, 71.46167
239.0345, 42.06299
239.5166, 26.93042
239.9987, 23.97729
240.4808, 33.21948
240.9630, 61.20312
241.4451, 83.99658
241.9272, 80.60815
242.4093, 61.11792
242.8914, 44.45996
243.3735, 38.35474
243.8557, 40.37207
244.3378, 46.16455
244.8199, 58.39526
245.3020, 68.50000
245.7841, 75.17114
246.2662, 76.53638
246.7484, 67.16968
247.2305, 32.24170
247.7126, 14.13232
248.1947, 27.78857
248.6768, 10.20947
249.1589, 45.22388
249.6411, 40.35132
250.1232, 12.80737
250.6053, 5.707520
251.0874, 5.965088
251.5695, 38.10645
252.0516, 59.57788
252.5338, 66.27490
253.0159, 68.55786
253.4980, 71.98633
253.9801, 75.12061
254.4622, 75.25708
254.9443, 69.95190
255.4265, 60.73438
255.9086, 52.84595
256.3907, 46.68164
256.8728, 41.44556
257.3549, 35.75317
257.8370, 30.67139
258.3192, 28.53442
258.8013, 33.08936
259.2834, 40.87036
259.7655, 37.90527
260.2476, 15.80469
260.7297, 4.114746
261.2119, 13.73218
261.6940, 16.27344
262.1761, 16.44922
262.6582, 16.42944
263.1403, 16.12988
263.6224, 15.18945
264.1046, 13.51733
264.5867, 11.28418
265.0688, 7.369141
265.5509, 3.260010
266.0330, 1.851563
266.5151, 6.295410
266.9973, 13.22681
267.4794, 9.070801
267.9615, 18.81519
268.4436, 36.82129
268.9257, 28.80566
269.4078, 7.970215
269.8900, 8.498291
270.3721, 11.62695
270.8542, 5.134521
271.3363, 0.3867190
271.8184, 1.041748
272.3005, 3.435059
272.7827, 7.076904
273.2648, 12.43530
273.7469, 21.29395
274.2290, 35.62573
274.7111, 51.23340
275.1932, 55.26416
275.6754, 38.05225
276.1575, 26.64844
276.6396, 29.37720
277.1217, 39.44629
277.6038, 50.95923
278.0859, 61.93921
278.5681, 70.46362
279.0502, 72.23389
279.5323, 66.34692
280.0144, 54.46338
280.4965, 31.28979
280.9786, 6.031250
281.4608, 14.02051
281.9429, 26.22046
282.4250, 29.86475
282.9071, 21.22778
283.3892, 8.173584
283.8713, 30.75269
284.3535, 43.10791
284.8356, 46.93848
285.3177, 39.64453
285.7998, 20.33643
286.2819, 0.1184080
286.7640, 1.528809
287.2462, 25.27344
287.7283, 47.15601
288.2104, 64.51147
288.6925, 72.51270
289.1746, 62.21484
289.6567, 32.26660
290.1389, 1.170654
290.6210, 14.54150
291.1031, 1.719727
291.5852, 11.12476
292.0673, 25.50732
292.5495, 35.38354
293.0316, 33.05103
293.5137, 18.14136
293.9958, 2.850098
294.4779, 2.732178
294.9601, 20.78833
295.4422, 39.37256
295.9243, 68.31470
296.4064, 88.59326
296.8885, 83.92627
297.3706, 56.19531
297.8528, 26.39380
298.3349, 15.53027
298.8170, 25.59692
299.2991, 38.40552
299.7812, 60.52661
300.2633, 78.75195
300.7455, 84.70874
301.2276, 80.14795
301.7097, 74.05811
302.1918, 73.13281
302.6739, 77.40845
303.1560, 84.24365
303.6382, 83.67798
304.1203, 97.88696
304.6024, 154.1428
305.0845, 235.3928
305.5666, 294.7920
306.0487, 291.1489
306.5309, 235.8345
307.0130, 198.2197
307.4951, 185.4854
307.9772, 182.4238
308.4593, 182.5420
308.9414, 186.6152
309.4236, 194.4976
309.9057, 208.0752
310.3878, 225.0513
310.8699, 237.3711
311.3520, 242.8774
311.8341, 247.5854
312.3163, 247.3162
312.7984, 249.3088
313.2805, 266.4382
313.7626, 311.2451
314.2447, 366.0542
314.7268, 393.2417
315.2090, 383.3989
315.6911, 372.2197
316.1732, 374.6431
316.6553, 382.8469
317.1374, 388.8408
317.6195, 389.5134
318.1017, 388.7852
318.5838, 392.3799
319.0659, 401.1350
319.5480, 408.3381
320.0301, 411.9998
320.5122, 412.7336
320.9944, 409.5337
321.4765, 401.2500
321.9586, 394.2234
322.4407, 394.7542
322.9228, 402.9150
323.4049, 414.6074
323.8871, 430.7976
324.3692, 448.0193
324.8513, 462.2554
325.3334, 473.6152
325.8155, 487.1531
326.2976, 511.1929
326.7798, 542.0999
327.2619, 556.9419
327.7440, 540.5415
328.2261, 521.2029
328.7082, 525.1292
329.1903, 550.8960
329.6725, 585.8691
330.1546, 629.0632
330.6367, 676.8818
331.1188, 721.2634
331.6009, 761.2114
332.0830, 797.0762
332.5652, 824.1765
333.0473, 845.6753
333.5294, 875.2617
334.0115, 922.6653
334.4936, 977.8926
334.9757, 1027.734
335.4579, 1070.750
335.9400, 1111.645
336.4221, 1153.210
336.9042, 1195.147
337.3863, 1235.481
337.8684, 1269.061
338.3506, 1304.709
338.8327, 1352.598
339.3148, 1410.924
339.7969, 1466.358
340.2790, 1509.858
340.7611, 1545.657
341.2433, 1588.671
341.7254, 1638.185
342.2075, 1693.247
342.6896, 1754.792
343.1717, 1821.712
343.6538, 1891.310
344.1360, 1963.495
344.6181, 2036.755
345.1002, 2105.591
345.5823, 2161.366
346.0644, 2229.537
346.5465, 2325.477
347.0287, 2435.515
347.5108, 2539.007
347.9929, 2628.805
348.4750, 2712.501
348.9571, 2802.615
349.4392, 2901.030
349.9214, 3001.380
350.4035, 3105.326
350.8856, 3209.454
351.3677, 3312.425
351.8498, 3413.780
352.3319, 3512.679
352.8141, 3607.271
353.2962, 3697.166
353.7783, 3775.140
354.2604, 3859.428
354.7425, 3919.202
355.2246, 3931.172
355.7068, 3900.984
356.1889, 3851.837
356.6710, 3801.521
357.1531, 3749.876
357.6352, 3683.541
358.1173, 3597.211
358.5995, 3502.465
359.0816, 3407.019
359.5637, 3304.567
360.0458, 3182.076
360.5279, 3028.309
361.0100, 2855.900
361.4922, 2711.046
361.9743, 2623.761
362.4564, 2526.238
362.9385, 2394.505
363.4206, 2255.436
363.9027, 2135.899
364.3849, 2045.038
364.8670, 1975.525
365.3491, 1916.721
365.8312, 1871.834
366.3133, 1826.892
366.7954, 1777.484
367.2776, 1729.218
367.7597, 1687.058
368.2418, 1651.317
368.7239, 1617.769
369.2060, 1578.734
369.6881, 1533.138
370.1703, 1502.298
370.6524, 1507.608
371.1345, 1505.742
371.6166, 1469.224
372.0987, 1409.112
372.5808, 1355.395
373.0630, 1330.791
373.5451, 1325.465
374.0272, 1304.123
374.5093, 1261.321
374.9915, 1217.881
375.4736, 1179.657
375.9557, 1145.319
376.4378, 1116.829
376.9199, 1100.021
377.4020, 1082.297
377.8842, 1044.705
378.3663, 986.4526
378.8484, 927.6228
379.3305, 872.6382
379.8126, 824.7388
380.2947, 788.8667
380.7769, 768.4722
381.2590, 747.4670
381.7411, 710.8296
382.2232, 663.7859
382.7053, 623.6013
383.1874, 594.4189
383.6696, 573.6238
384.1517, 560.6086
384.6338, 555.7573
385.1159, 542.1736
385.5980, 510.3418
386.0801, 470.1274
386.5623, 430.9871
387.0444, 393.3999
387.5265, 360.6194
388.0086, 335.8171
388.4907, 319.8162
388.9728, 306.1023
389.4550, 294.5410
389.9371, 286.7947
390.4192, 286.4292
390.9013, 288.4006
391.3834, 281.3918
391.8655, 257.5720
392.3477, 221.2292
392.8298, 193.6145
393.3119, 179.3560
393.7940, 167.4077
394.2761, 157.1079
394.7582, 147.7407
395.2404, 138.5830
395.7225, 129.6965
396.2046, 121.1724
396.6867, 113.4580
397.1688, 108.2769
397.6509, 102.4309
398.1331, 93.91162
398.6152, 86.36597
399.0973, 83.92017
399.5794, 85.59521
400.0615, 85.46826
400.5436, 75.97314
401.0258, 56.09839
401.5079, 47.65015
401.9900, 65.96899
402.4721, 79.88232
402.9542, 77.80591
403.4363, 65.04712
403.9185, 50.71265
404.4006, 38.11353
404.8827, 29.59473
405.3648, 34.03662
405.8469, 59.40479
406.3290, 76.84424
406.8112, 73.87622
407.2933, 60.77222
407.7754, 44.50244
408.2575, 25.98071
408.7396, 8.502686
409.2217, 7.250000
409.7039, 20.74951
410.1860, 23.10010
410.6681, 6.120850
411.1502, 14.74146
411.6323, 23.86035
412.1144, 22.24658
412.5966, 21.13745
413.0787, 28.90845
413.5608, 38.97681
414.0429, 38.23047
414.5250, 24.37769
415.0071, 11.76050
415.4893, 13.97827
415.9714, 27.53735
416.4535, 31.03955
416.9356, 12.29346
417.4177, 6.357178
417.8998, 9.556396
418.3820, 1.470215
418.8641, 4.189697
419.3462, 0.2851560
419.8283, 8.300293
420.3104, 8.053223
420.7925, 12.08105
421.2747, 22.75146
421.7568, 13.62622
422.2389, 2.808105
422.7210, 15.28491
423.2031, 20.90967
423.6852, 20.96533
424.1674, 16.13940
424.6495, 4.350098
425.1316, 2.946533
425.6137, 0.9626460
426.0958, 0.1865230
426.5779, 5.860107
427.0601, 16.25610
427.5422, 23.98242
428.0243, 24.36865
428.5064, 18.56982
428.9885, 10.89941
429.4706, 3.166748
429.9528, 11.31226
430.4349, 4.045898
430.9170, 5.805664
431.3991, 3.167236
431.8812, 16.43701
432.3633, 38.28760
432.8455, 43.12524
433.3276, 30.11597
433.8097, 18.14038
434.2918, 10.55835
434.7739, 4.149414
435.2560, 5.998535
435.7382, 18.41016
436.2203, 24.31665
436.7024, 14.76270
437.1845, 2.797852
437.6666, 17.17285
438.1487, 28.81055
438.6309, 29.62842
439.1130, 5.203613
439.5951, 32.91675
440.0772, 49.64844
440.5593, 25.53735
441.0414, 0.6035160
441.5236, 1.391602
442.0057, 18.66138
442.4878, 27.98608
442.9699, 19.50366
443.4520, 3.176270
443.9341, 3.743164
444.4163, 1.783936
444.8984, 9.871826
445.3805, 29.79443
445.8626, 45.43677
446.3447, 37.69092
446.8268, 9.238281
447.3090, 17.18823
447.7911, 21.07495
448.2732, 2.392090
448.7553, 11.25488
449.2374, 17.08105
449.7195, 20.75464
450.2017, 23.22876
450.6838, 23.69946
451.1659, 23.22900
451.6480, 19.65430
452.1301, 14.72241
452.6122, 8.401367
453.0944, 3.361816
453.5765, 2.854004
454.0586, 27.20972
454.5407, 59.73315
455.0228, 79.36230
455.5049, 85.73657
455.9871, 88.26050
456.4692, 95.63257
456.9513, 104.6594
457.4334, 101.7144
457.9156, 81.56274
458.3977, 63.39917
458.8798, 64.68066
459.3619, 75.76978
459.8440, 78.02490
460.3261, 61.68408
460.8083, 44.11743
461.2904, 35.96045
461.7725, 36.90625
462.2546, 47.73804
462.7367, 71.25659
463.2188, 98.83105
463.7010, 116.8132
464.1831, 127.2000
464.6652, 123.0886
465.1473, 82.87744
465.6294, 41.93530
466.1115, 34.85425
466.5937, 60.56226
467.0758, 91.27051
467.5579, 104.8894
468.0400, 102.8567
468.5221, 104.1450
469.0042, 114.2515
469.4864, 119.8591
469.9685, 115.4722
470.4506, 106.5173
470.9327, 98.09741
471.4148, 92.20068
471.8969, 91.16504
472.3791, 100.9468
472.8612, 125.3071
473.3433, 143.6555
473.8254, 149.6001
474.3075, 152.9104
474.7896, 157.3279
475.2718, 162.5762
475.7539, 169.2783
476.2360, 180.6775
476.7181, 193.2954
477.2002, 196.9187
477.6823, 188.6907
478.1645, 186.3350
478.6466, 204.1067
479.1287, 231.4827
479.6108, 249.6477
480.0929, 254.6753
480.5750, 255.6868
481.0572, 253.8381
481.5393, 252.8535
482.0214, 261.9976
482.5035, 284.6108
482.9856, 308.6853
483.4677, 320.6379
483.9499, 318.5461
484.4320, 312.8489
484.9141, 300.0601
485.3962, 286.9946
485.8783, 277.4868
486.3604, 270.4155
486.8426, 263.8367
487.3247, 256.6169
487.8068, 246.7986
488.2889, 227.5916
488.7710, 184.4995
489.2531, 159.2952
489.7353, 166.5044
490.2174, 180.1423
490.6995, 183.2859
491.1816, 175.4094
491.6637, 165.9751
492.1458, 159.4609
492.6280, 156.9270
493.1101, 169.8298
493.5922, 207.2263
494.0743, 239.6411
494.5564, 245.3604
495.0385, 236.6289
495.5207, 230.7070
496.0028, 230.2478
496.4849, 236.5881
496.9670, 253.3550
497.4491, 278.6223
497.9312, 306.6045
498.4134, 335.9890
498.8955, 367.8284
499.3776, 407.1565
499.8597, 457.3242
500.3418, 496.1631
500.8239, 511.0825
501.3061, 523.3572
501.7882, 547.7292
502.2703, 583.0781
502.7524, 621.9360
503.2345, 661.1362
503.7166, 696.4011
504.1988, 710.5793
504.6809, 685.9473
505.1630, 665.2278
505.6451, 661.8149
506.1272, 659.6833
506.6093, 645.7451
507.0915, 617.4949
507.5736, 578.8345
508.0557, 526.5696
508.5378, 463.7017
509.0199, 421.1379
509.5020, 409.4136
509.9842, 397.8027
510.4663, 366.5732
510.9484, 326.2104
511.4305, 293.3801
511.9126, 275.3198
512.3948, 258.8528
512.8769, 234.5505
513.3590, 203.6965
513.8411, 165.4263
514.3232, 115.0796
514.8054, 74.70337
515.2875, 77.14795
515.7696, 132.8447
516.2517, 161.4880
516.7338, 138.2478
517.2159, 108.3452
517.6981, 95.91162
518.1802, 98.69653
518.6623, 108.5115
519.1444, 121.7205
519.6265, 134.4590
520.1086, 135.0706
520.5908, 112.6018
521.0729, 99.10132
521.5550, 100.3364
522.0371, 106.8157
522.5192, 114.3669
523.0013, 121.6831
523.4835, 127.3296
523.9656, 130.3262
524.4477, 130.8230
524.9298, 128.8711
525.4119, 123.9458
525.8940, 118.6143
526.3762, 116.3611
526.8583, 113.1040
527.3404, 99.89331
527.8225, 69.16748
528.3046, 50.96753
528.7867, 73.78979
529.2689, 115.9756
529.7510, 139.0984
530.2331, 136.3933
530.7152, 123.2437
531.1973, 110.1284
531.6794, 96.90234
532.1616, 102.7302
532.6437, 149.3242
533.1258, 186.9397
533.6079, 198.5127
534.0900, 192.9412
534.5721, 179.3608
535.0543, 161.7307
535.5364, 146.9434
536.0185, 146.5830
536.5006, 163.6301
536.9827, 178.5930
537.4648, 184.4597
537.9470, 195.9221
538.4291, 229.8223
538.9112, 273.0684
539.3933, 295.2422
539.8754, 273.7002
540.3575, 243.4312
540.8397, 254.3450
541.3218, 302.1819
541.8039, 337.7549
542.2860, 341.3794
542.7681, 334.2795
543.2502, 345.9194
543.7324, 376.9358
544.2145, 412.2598
544.6966, 450.2327
545.1787, 491.5371
545.6608, 541.4321
546.1429, 595.5566
546.6251, 638.6716
547.1072, 660.5603
547.5893, 671.4058
548.0714, 702.0076
548.5535, 766.7153
549.0356, 825.6375
549.5178, 867.9084
549.9999, 911.1848
550.4820, 966.7893
550.9641, 1034.783
551.4462, 1110.420
551.9283, 1192.170
552.4105, 1277.678
552.8926, 1362.286
553.3747, 1447.426
553.8568, 1525.751
554.3389, 1589.001
554.8210, 1646.577
555.3032, 1714.039
555.7853, 1795.472
556.2674, 1871.034
556.7495, 1941.481
557.2316, 1997.900
557.7137, 2028.404
558.1959, 2032.442
558.6780, 2017.039
559.1601, 1987.805
559.6422, 1943.422
560.1243, 1874.531
560.6064, 1759.495
561.0886, 1645.114
561.5707, 1534.779
562.0528, 1427.352
562.5349, 1322.293
563.0170, 1219.275
563.4991, 1116.406
563.9813, 1008.095
564.4634, 896.6453
564.9455, 800.0310
565.4276, 721.1404
565.9097, 650.1145
566.3918, 580.2163
566.8740, 516.2854
567.3561, 466.0281
567.8382, 432.9126
568.3203, 402.5679
568.8024, 368.7532
569.2845, 331.4932
569.7667, 285.3140
570.2488, 230.2307
570.7309, 185.5383
571.2130, 170.3843
571.6951, 182.8340
572.1772, 182.2488
572.6594, 162.5081
573.1415, 138.2144
573.6236, 102.3948
574.1057, 68.29126
574.5878, 52.20239
575.0699, 56.43481
575.5521, 66.81128
576.0342, 68.71753
576.5163, 62.57373
576.9984, 57.87109
577.4805, 57.48730
577.9626, 52.84521
578.4448, 28.96191
578.9269, 1.846680
579.4090, 2.593750
579.8911, 29.41846
580.3732, 56.47510
580.8553, 44.48071
581.3375, 12.87817
581.8196, 1.742920
582.3017, 6.913330
582.7838, 23.07104
583.2659, 34.05420
583.7480, 40.02563
584.2302, 45.58398
584.7123, 56.68848
585.1944, 60.02100
585.6765, 46.80518
586.1586, 28.05396
586.6407, 14.30225
587.1229, 8.201660
587.6050, 6.818359
588.0871, 8.278564
588.5692, 12.27515
589.0513, 15.27222
589.5334, 16.43726
590.0156, 18.57544
590.4977, 26.91211
590.9798, 35.59058
591.4619, 35.51904
591.9440, 23.48071
592.4261, 9.651367
592.9083, 3.080322
593.3904, 13.47876
593.8725, 18.73755
594.3546, 18.83179
594.8367, 18.53662
595.3188, 22.32593
595.8010, 28.99805
596.2831, 28.28760
596.7652, 9.517578
597.2473, 3.274902
597.7294, 4.924316
598.2115, 1.601807
598.6937, 3.136719
599.1758, 7.762207
599.6579, 9.700684
600.1400, 6.010498
600.6221, 2.128418
601.1042, 11.58203
601.5864, 23.73364
602.0685, 30.21069
602.5506, 23.58447
603.0327, 11.26636
603.5148, 6.117920
603.9969, 9.525146
604.4791, 15.36328
604.9612, 24.57544
605.4433, 31.78638
605.9254, 30.86743
606.4075, 22.51050
606.8896, 11.53979
607.3718, 0.5603030
607.8539, 9.354736
608.3360, 14.51807
608.8181, 14.84766
609.3002, 9.431396
609.7823, 6.888672
610.2645, 23.72314
610.7466, 36.69385
611.2287, 44.44653
611.7108, 44.39160
612.1929, 29.39014
612.6750, 10.72607
613.1572, 8.850586
613.6393, 22.49048
614.1214, 31.59375
614.6035, 28.26904
615.0856, 19.03784
615.5677, 12.84009
616.0499, 10.50317
616.5320, 9.105225
617.0141, 10.52393
617.4962, 10.99365
617.9783, 5.647705
618.4604, 1.798340
618.9426, 2.941650
619.4247, 5.844238
619.9068, 17.33252
620.3889, 18.55664
620.8710, 7.395020
621.3531, 2.052979
621.8353, 7.363770
622.3174, 13.35938
622.7995, 15.24561
623.2816, 13.77368
623.7637, 8.886719
624.2458, 6.002441
624.7280, 12.23608
625.2101, 11.90747
625.6922, 52.10034
626.1743, 80.04663
626.6564, 90.31128
627.1385, 89.40991
627.6207, 79.54346
628.1028, 61.07300
628.5849, 61.11523
629.0670, 106.5247
629.5491, 140.6042
630.0313, 144.5686
630.5134, 140.9783
630.9955, 151.9275
631.4776, 180.1738
631.9597, 211.3438
632.4418, 235.8291
632.9240, 253.9741
633.4061, 263.4697
633.8882, 262.5908
634.3703, 270.0078
634.8524, 296.7007
635.3345, 334.0493
635.8167, 367.2507
636.2988, 398.3669
636.7809, 419.4529
637.2630, 422.3828
637.7451, 420.7761
638.2272, 424.4448
638.7094, 432.7561
639.1915, 440.1514
639.6736, 443.6775
640.1557, 442.9316
640.6378, 437.8389
641.1199, 428.5527
641.6021, 415.4395
642.0842, 398.8560
642.5663, 377.7859
643.0484, 348.9094
643.5305, 315.4355
644.0126, 285.8257
644.4948, 263.2451
644.9769, 244.0801
645.4590, 224.1147
645.9411, 206.1260
646.4232, 198.1609
646.9053, 201.4553
647.3875, 206.1790
647.8696, 203.1233
648.3517, 192.5493
648.8338, 180.0583
649.3159, 159.9468
649.7980, 145.4868
650.2802, 142.9067
650.7623, 143.8682
651.2444, 140.9768
651.7265, 133.4609
652.2086, 124.8884
652.6907, 117.9524
653.1729, 111.2781
653.6550, 102.0823
654.1371, 90.77856
654.6192, 80.15356
655.1013, 69.02539
655.5834, 60.49927
656.0656, 62.55151
656.5477, 83.21997
657.0298, 90.48535
657.5119, 69.75806
657.9940, 50.45093
658.4761, 51.19385
658.9583, 63.04321
659.4404, 69.46191
659.9225, 63.68726
660.4046, 50.24805
660.8867, 30.96118
661.3688, 6.837891
661.8510, 4.588135
662.3331, 1.618164
662.8152, 11.47510
663.2974, 16.68848
663.7795, 19.03589
664.2616, 24.38965
664.7437, 39.06128
665.2258, 45.26587
665.7079, 25.00330
666.1901, 1.235718
666.6722, 0.5407710
667.1543, 19.13574
667.6364, 44.78491
668.1185, 67.21069
668.6006, 82.66309
669.0828, 76.82922
669.5649, 41.77271
670.0470, 14.33984
670.5291, 2.170166
671.0112, 2.173462
671.4933, 4.043091
671.9755, 3.252686
672.4576, 1.190552
672.9397, 15.38086
673.4218, 27.31860
673.9039, 25.24353
674.3860, 15.98059
674.8682, 12.34644
675.3503, 17.46790
675.8324, 28.20947
676.3145, 42.83801
676.7966, 60.87170
677.2787, 67.42114
677.7609, 52.87219
678.2430, 42.10986
678.7251, 45.50464
679.2072, 51.36401
679.6893, 48.03833
680.1714, 35.12695
680.6536, 24.51404
681.1357, 23.74622
681.6178, 27.75281
682.0999, 32.92334
682.5820, 37.66858
683.0641, 35.36401
683.5463, 21.73413
684.0284, 4.195190
684.5105, 7.396484
684.9926, 13.38904
685.4747, 11.17896
685.9568, 12.11646
686.4390, 28.99487
686.9211, 26.01697
687.4032, 15.28015
687.8853, 12.47424
688.3674, 21.38342
688.8495, 32.17896
689.3317, 37.93567
689.8138, 40.02844
690.2959, 40.93933
690.7780, 40.85254
691.2601, 40.36658
691.7422, 39.93213
692.2244, 38.95532
692.7065, 35.90649
693.1886, 27.85168
693.6707, 24.96143
694.1528, 36.66821
694.6349, 43.27246
695.1171, 29.88220
695.5992, 6.543335
696.0813, 9.559570
696.5634, 11.99316
697.0455, 6.418945
697.5276, 4.809082
698.0098, 19.27271
698.4919, 27.96558
698.9740, 29.77026
699.4561, 29.76428
699.9382, 29.99817
700.4203, 31.48938
700.9025, 37.46228
701.3846, 55.58276
701.8667, 65.96436
702.3488, 61.59204
702.8309, 55.08289
703.3130, 54.94702
703.7952, 59.02734
704.2773, 61.39661
704.7594, 59.69934
705.2415, 53.70459
705.7236, 39.05225
706.2057, 18.65210
706.6879, 9.223022
707.1700, 14.01807
707.6521, 23.71167
708.1342, 32.88782
708.6163, 41.32422
709.0984, 47.96118
709.5806, 54.22424
710.0627, 56.84521
710.5448, 54.81348
711.0269, 49.60938
711.5090, 36.65369
711.9911, 21.42395
712.4733, 19.46411
712.9554, 42.46716
713.4375, 70.49109
713.9196, 70.27722
714.4017, 46.58081
714.8839, 32.56543
715.3660, 35.02917
715.8481, 41.49255
716.3302, 43.10742
716.8123, 40.59558
717.2944, 37.45911
717.7766, 31.15784
718.2587, 28.09485
718.7408, 28.62817
719.2229, 32.78125
719.7050, 42.90112
720.1871, 57.49622
720.6693, 69.86987
721.1514, 76.49512
721.6335, 77.66003
722.1156, 69.45178
722.5977, 54.70984
723.0798, 52.73657
723.5620, 69.49817
724.0441, 85.72241
724.5262, 85.43433
725.0083, 71.70337
725.4904, 62.64099
725.9725, 61.76489
726.4547, 60.82568
726.9368, 56.17773
727.4189, 53.39343
727.9010, 58.17871
728.3831, 68.28674
728.8652, 76.82617
729.3474, 80.43823
729.8295, 81.11487
730.3116, 82.08789
730.7937, 82.73608
731.2758, 77.88318
731.7579, 65.94055
732.2401, 53.77930
732.7222, 46.54443
733.2043, 44.43567
733.6864, 47.27380
734.1685, 64.91431
734.6506, 73.60352
735.1328, 66.35889
735.6149, 54.89099
736.0970, 43.31665
736.5791, 34.46680
737.0612, 33.55066
737.5433, 44.28796
738.0255, 60.97058
738.5076, 83.46216
738.9897, 106.7367
739.4718, 113.2047
739.9539, 99.84460
740.4360, 83.21082
740.9182, 75.34045
741.4003, 75.35266
741.8824, 78.66541
742.3645, 89.13989
742.8466, 93.13025
743.3287, 88.42834
743.8109, 81.41504
744.2930, 71.98206
744.7751, 61.01453
745.2572, 51.95581
745.7393, 46.29590
746.2214, 43.32458
746.7036, 43.92383
747.1857, 46.89368
747.6678, 51.50476
748.1499, 56.91650
748.6320, 61.91223
749.1141, 67.34741
749.5963, 71.65588
750.0784, 68.65857
750.5605, 53.64478
751.0426, 42.92029
751.5247, 40.01965
752.0068, 39.94250
752.4890, 41.44434
752.9711, 43.26965
753.4532, 41.85095
753.9353, 33.05737
754.4174, 29.43396
754.8995, 44.56702
755.3817, 64.21387
755.8638, 68.94446
756.3459, 60.98853
756.8280, 58.83289
757.3101, 74.21155
757.7922, 93.47791
758.2744, 87.07141
758.7565, 51.25916
759.2386, 29.36060
759.7207, 27.39868
760.2028, 31.00464
760.6849, 34.47363
761.1671, 37.79346
761.6492, 40.66846
762.1313, 42.35120
762.6134, 45.99658
763.0955, 54.44983
763.5776, 63.71802
764.0598, 69.68359
764.5419, 73.32410
765.0240, 80.35046
765.5061, 92.55042
765.9882, 100.2676
766.4703, 84.53369
766.9525, 52.59729
767.4346, 48.91492
767.9167, 78.06274
768.3988, 95.50159
768.8809, 77.03406
769.3630, 44.35120
769.8452, 33.24683
770.3273, 51.62390
770.8094, 62.86523
771.2915, 62.60986
771.7736, 60.06873
772.2557, 59.37219
772.7379, 57.73987
773.2200, 48.87305
773.7021, 32.76331
774.1842, 22.10229
774.6663, 31.50244
775.1484, 48.93237
775.6306, 55.59021
776.1127, 52.93347
776.5948, 48.30237
777.0769, 43.76318
777.5590, 41.05286
778.0411, 43.00732
778.5233, 49.38147
779.0054, 46.05066
779.4875, 22.61353
779.9696, 7.406006
780.4517, 12.81177
780.9338, 23.02454
781.4160, 27.21973
781.8981, 25.35864
782.3802, 21.59351
782.8623, 16.40857
783.3444, 10.68689
783.8265, 3.050537
784.3087, 3.901367
784.7908, 5.768311
785.2729, 2.369507
785.7550, 3.223022
786.2371, 9.135498
786.7192, 14.63684
787.2014, 17.74011
787.6835, 18.30640
788.1656, 17.45618
788.6477, 13.71863
789.1298, 12.28406
789.6119, 19.43506
790.0941, 31.72412
790.5762, 35.84607
791.0583, 26.42639
791.5404, 18.74829
792.0225, 15.21509
792.5046, 13.94678
792.9868, 14.65991
793.4689, 16.38745
793.9510, 17.99207
794.4331, 19.12109
794.9152, 18.53662
795.3973, 13.74146
795.8795, 6.527100
796.3616, 1.213867
796.8437, 1.942383
797.3258, 3.069458
797.8079, 1.724365
798.2900, 0.4586180
798.7722, 4.486206
799.2543, 16.19446
799.7364, 20.52087
800.2185, 11.24585
800.7006, 3.115356
801.1827, 3.451538
801.6649, 5.295044
802.1470, 2.256836
802.6291, 19.58276
803.1112, 25.91541
803.5933, 1.975708
804.0754, 24.50024
804.5576, 35.42542
805.0397, 33.95984
805.5218, 22.37659
806.0039, 3.546997
806.4860, 10.49475
806.9681, 7.298096
807.4503, 6.376587
807.9324, 9.308350
808.4145, 0.9522710
808.8966, 8.716064
809.3787, 18.57764
809.8608, 27.10767
810.3430, 32.77905
810.8251, 35.90637
811.3072, 38.73804
811.7893, 49.75842
812.2714, 48.12915
812.7535, 16.43616
813.2357, 13.50977
813.7178, 18.13110
814.1999, 4.739868
814.6820, 7.292847
815.1641, 11.26843
815.6462, 12.61816
816.1284, 16.30945
816.6105, 20.05835
817.0926, 18.88940
817.5747, 13.83679
818.0568, 11.12683
818.5389, 13.80603
819.0211, 17.73999
819.5032, 16.56787
819.9853, 10.15918
820.4674, 3.6254998E-02
820.9495, 17.54639
821.4316, 29.45898
821.9138, 29.98218
822.3959, 23.27271
822.8780, 10.99695
823.3601, 7.480469
823.8422, 13.98340
824.3243, 7.454102
824.8065, 24.67798
825.2886, 22.81299
825.7707, 11.87292
826.2528, 2.726196
826.7349, 3.217896
827.2170, 10.30310
827.6992, 24.06274
828.1813, 36.01721
828.6635, 29.49121
829.1456, 11.00562
829.6277, 1.953003
830.1098, 5.768433
830.5919, 16.46033
831.0740, 31.74133
831.5562, 46.16467
832.0383, 41.37183
832.5204, 8.987793
833.0025, 11.79944
833.4846, 16.40112
833.9667, 13.36609
834.4489, 1.217163
834.9310, 13.67102
835.4131, 20.36487
835.8952, 15.51843
836.3773, 15.07593
836.8594, 26.56201
837.3416, 39.46924
837.8237, 47.76685
838.3058, 53.51770
838.7879, 57.09326
839.2700, 59.51575
839.7521, 68.46143
840.2343, 99.41699
840.7164, 135.0481
841.1985, 135.8804
841.6806, 109.0466
842.1627, 94.19507
842.6448, 101.5023
843.1270, 118.2046
843.6091, 133.1982
844.0912, 147.0966
844.5733, 164.1399
845.0554, 189.2267
845.5375, 203.2976
846.0197, 192.1534
846.5018, 183.9340
846.9839, 197.8439
847.4660, 227.0206
847.9481, 257.6221
848.4302, 290.4526
848.9124, 318.7188
849.3945, 332.5978
849.8766, 348.8394
850.3587, 384.1890
850.8408, 429.2434
851.3229, 464.3083
851.8051, 483.7755
852.2872, 503.3071
852.7693, 539.0222
853.2514, 583.3411
853.7335, 620.9099
854.2156, 653.0791
854.6978, 688.9355
855.1799, 731.5210
855.6620, 769.8835
856.1441, 790.4678
856.6262, 797.3798
857.1083, 821.6152
857.5905, 871.6862
858.0726, 915.5941
858.5547, 947.7710
859.0368, 972.5691
859.5189, 991.2534
860.0010, 1005.714
860.4832, 1019.674
860.9653, 1037.418
861.4474, 1045.329
861.9295, 1037.894
862.4116, 1021.055
862.8937, 996.7815
863.3759, 967.4756
863.8580, 933.9824
864.3401, 895.9492
864.8222, 859.9854
865.3043, 836.3450
865.7864, 814.6882
866.2686, 778.6311
866.7507, 731.8059
867.2328, 686.4290
867.7149, 646.1812
868.1970, 613.3601
868.6791, 591.0925
869.1613, 576.7036
869.6434, 559.8667
870.1255, 540.9844
870.6076, 514.9346
871.0897, 476.3247
871.5718, 439.4343
872.0540, 415.3206
872.5361, 401.0950
873.0182, 388.1946
873.5003, 377.2852
873.9824, 366.5153
874.4645, 354.8358
874.9467, 344.3722
875.4288, 336.6267
875.9109, 330.5269
876.3930, 323.8975
876.8751, 316.3018
877.3572, 311.9348
877.8394, 314.6757
878.3215, 319.7476
878.8036, 323.9744
879.2857, 326.6256
879.7678, 325.0787
880.2499, 320.6113
880.7321, 321.9996
881.2142, 337.0388
881.6963, 358.1925
882.1784, 372.4435
882.6605, 379.4614
883.1426, 378.9451
883.6248, 370.6600
884.1069, 362.5659
884.5890, 357.5693
885.0711, 360.1040
885.5532, 382.8071
886.0353, 433.4662
886.5175, 472.5925
886.9996, 494.4578
887.4817, 513.8589
887.9638, 534.0853
888.4459, 555.8943
888.9280, 579.6792
889.4102, 605.4589
889.8923, 634.7542
890.3744, 669.1174
890.8565, 705.0081
891.3386, 745.5869
891.8207, 784.2305
892.3029, 812.3640
892.7850, 832.2988
893.2671, 853.6780
893.7492, 878.4948
894.2313, 913.1855
894.7134, 977.0479
895.1956, 1047.557
895.6777, 1082.252
896.1598, 1088.081
896.6419, 1103.430
897.1240, 1144.445
897.6061, 1201.952
898.0883, 1267.903
898.5704, 1340.032
899.0525, 1398.366
899.5346, 1441.185
900.0167, 1500.049
900.4988, 1585.829
900.9810, 1681.240
901.4631, 1767.583
901.9452, 1848.557
902.4273, 1948.705
902.9094, 2068.104
903.3915, 2205.677
903.8737, 2370.597
904.3558, 2543.668
904.8379, 2707.561
905.3200, 2874.169
905.8021, 3067.564
906.2842, 3291.930
906.7664, 3528.943
907.2485, 3764.176
907.7306, 4021.641
908.2127, 4320.622
908.6948, 4646.279
909.1769, 4982.431
909.6591, 5323.750
910.1412, 5665.704
910.6233, 5996.953
911.1054, 6342.300
911.5875, 6742.786
912.0696, 7172.585
912.5518, 7587.461
913.0339, 7981.499
913.5160, 8365.521
913.9981, 8746.385
914.4802, 9114.325
914.9623, 9459.814
915.4445, 9780.789
915.9266, 10063.95
916.4087, 10311.07
916.8908, 10485.08
917.3729, 10572.31
917.8550, 10574.65
918.3372, 10490.10
918.8193, 10321.33
919.3014, 10101.70
919.7835, 9834.267
920.2656, 9511.539
920.7477, 9118.691
921.2299, 8684.930
921.7120, 8209.331
922.1941, 7708.407
922.6762, 7219.463
923.1583, 6740.021
923.6404, 6283.530
924.1226, 5846.033
924.6047, 5434.365
925.0868, 5049.827
925.5689, 4692.375
926.0510, 4366.010
926.5331, 4069.202
927.0153, 3784.393
927.4974, 3494.474
927.9795, 3223.496
928.4616, 2999.216
928.9437, 2801.612
929.4258, 2604.141
929.9080, 2407.235
930.3901, 2227.066
930.8722, 2073.204
931.3543, 1936.843
931.8364, 1807.561
932.3185, 1686.771
932.8007, 1580.355
933.2828, 1487.294
933.7649, 1394.027
934.2470, 1295.024
934.7291, 1201.734
935.2112, 1127.247
935.6934, 1068.085
936.1755, 1008.716
936.6576, 949.0762
937.1397, 891.4470
937.6218, 836.7942
938.1039, 782.8022
938.5861, 726.4907
939.0682, 671.4270
939.5503, 629.2811
940.0324, 607.4617
940.5145, 576.5350
940.9966, 525.7958
941.4788, 479.7585
941.9609, 447.6281
942.4430, 424.1149
942.9251, 402.3756
943.4072, 380.8192
943.8893, 364.2878
944.3715, 366.2274
944.8536, 359.1440
945.3357, 327.4396
945.8178, 290.6720
946.2999, 264.6993
946.7820, 246.5540
947.2642, 224.2164
947.7463, 192.4359
948.2284, 168.0170
948.7105, 169.2460
949.1926, 176.2970
949.6747, 172.2332
950.1569, 159.1699
950.6390, 138.5725
951.1211, 112.9319
951.6032, 92.75952
952.0853, 85.41016
952.5674, 87.22192
953.0496, 98.89954
953.5317, 114.2701
954.0138, 112.3204
954.4959, 93.41223
954.9780, 78.30554
955.4601, 77.18738
955.9423, 79.95972
956.4244, 72.43811
956.9065, 55.71277
957.3886, 36.31348
957.8707, 13.12402
958.3528, 6.100464
958.8350, 24.44067
959.3171, 41.74536
959.7992, 33.69763
960.2813, 9.037109
960.7634, 1.567871
961.2455, 19.80603
961.7277, 29.08936
962.2098, 24.83545
962.6919, 18.01978
963.1740, 12.59619
963.6561, 7.574463
964.1382, 7.2388001E-02
964.6204, 10.76611
965.1025, 13.36560
965.5846, 1.708252
966.0667, 11.96814
966.5488, 11.91626
967.0309, 7.299683
967.5131, 8.7523997E-02
967.9952, 8.131714
968.4773, 14.30762
968.9594, 17.75745
969.4415, 19.50537
969.9236, 20.58264
970.4058, 19.28223
970.8879, 10.09485
971.3700, 0.3638920
971.8521, 2.927368
972.3342, 16.62280
972.8163, 24.55994
973.2985, 15.42188
973.7806, 2.153320
974.2627, 7.775757
974.7448, 13.81519
975.2269, 13.93677
975.7090, 9.599487
976.1912, 4.337158
976.6733, 0.4272460
977.1554, 3.667480
977.6375, 4.855591
978.1196, 3.602051
978.6017, 3.831421
979.0839, 14.15320
979.5660, 15.46289
980.0481, 6.495972
980.5302, 3.430176
981.0123, 8.427490
981.4944, 8.380371
981.9766, 0.1569820
982.4587, 14.30896
982.9408, 20.69348
983.4229, 18.34631
983.9050, 11.13879
984.3871, 0.4785160
984.8693, 9.077026
985.3514, 5.629028
985.8335, 7.087646
986.3156, 12.73840
986.7977, 9.548950
987.2798, 11.29041
987.7620, 23.04309
988.2441, 28.16956
988.7262, 13.89417
989.2083, 7.609741
989.6904, 13.24097
990.1725, 4.9438000E-02
990.6547, 5.782837
991.1368, 0.3403320
991.6189, 5.990356
992.1011, 10.47412
992.5832, 11.42908
993.0653, 4.364136
993.5474, 7.955322
994.0295, 14.88452
994.5117, 15.00159
994.9938, 12.91626
995.4759, 7.116699
995.9580, 1.162354
996.4401, 4.208252
996.9222, 8.626587
997.4044, 11.96692
997.8865, 14.12463
998.3686, 14.37341
998.8507, 8.828369
999.3328, 6.483154
999.8149, 19.28259
1000.297, 27.25671
1000.779, 7.201660
1001.261, 25.17395
1001.743, 39.24927
1002.226, 27.96326
1002.708, 15.87939
1003.190, 16.49341
1003.672, 17.57800
1004.154, 8.406250
1004.636, 2.925415
1005.118, 6.562012
1005.600, 2.888428
1006.082, 3.050171
1006.565, 9.685669
1007.047, 14.80640
1007.529, 13.65430
1008.011, 12.56421
1008.493, 22.37842
1008.975, 36.70593
1009.457, 39.41418
1009.939, 29.99719
1010.422, 26.17871
1010.904, 41.16711
1011.386, 62.42383
1011.868, 77.80103
1012.350, 86.46643
1012.832, 83.08557
1013.314, 71.10681
1013.796, 63.01379
1014.278, 63.25366
1014.761, 69.87317
1015.243, 83.74097
1015.725, 99.24683
1016.207, 102.2791
1016.689, 95.87549
1017.171, 93.15295
1017.653, 95.41101
1018.135, 95.04016
1018.617, 87.73853
1019.100, 83.53357
1019.582, 101.7062
1020.064, 135.4596
1020.546, 145.6168
1021.028, 133.3507
1021.510, 125.4421
1021.992, 127.7709
1022.474, 133.5135
1022.957, 138.3610
1023.439, 143.5291
1023.921, 150.5688
1024.403, 159.5623
1024.885, 170.5916
1025.367, 184.7205
1025.849, 191.2444
1026.331, 186.1748
1026.813, 175.1366
1027.296, 161.2913
1027.778, 147.9750
1028.260, 149.6499
1028.742, 169.7238
1029.224, 190.3711
1029.706, 212.5568
1030.188, 228.0323
1030.670, 232.9161
1031.152, 232.0154
1031.635, 228.1249
1032.117, 221.7510
1032.599, 226.7224
1033.081, 247.0095
1033.563, 268.8177
1034.045, 297.1656
1034.527, 314.2828
1035.009, 304.4978
1035.492, 283.8118
1035.974, 277.3043
1036.456, 285.8917
1036.938, 300.0935
1037.420, 324.0674
1037.902, 346.0776
1038.384, 364.4468
1038.866, 379.8857
1039.349, 392.2817
1039.831, 402.9453
1040.313, 412.9849
1040.795, 420.6781
1041.277, 433.9609
1041.759, 461.9027
1042.241, 483.0508
1042.723, 485.0070
1043.205, 485.8356
1043.688, 503.7400
1044.170, 532.0962
1044.652, 546.2456
1045.134, 534.4640
1045.616, 528.9418
1046.098, 535.6525
1046.580, 545.0353
1047.062, 559.0565
1047.544, 570.0247
1048.027, 567.1364
1048.509, 552.0311
1048.991, 542.1680
1049.473, 543.0688
1049.955, 543.2159
1050.437, 540.9563
1050.919, 538.0265
1051.401, 536.4961
1051.884, 533.3654
1052.366, 526.7086
1052.848, 516.1160
1053.330, 499.3842
1053.812, 470.8312
1054.294, 444.1160
1054.776, 426.4304
1055.258, 407.7316
1055.740, 376.4116
1056.223, 343.0667
1056.705, 327.5083
1057.187, 330.4539
1057.669, 324.8206
1058.151, 294.4690
1058.633, 268.7747
1059.115, 261.4185
1059.597, 256.7030
1060.079, 241.0317
1060.562, 221.4207
1061.044, 214.8556
1061.526, 224.2633
1062.008, 222.7523
1062.490, 190.3649
1062.972, 158.5896
1063.454, 141.0615
1063.936, 130.8990
1064.419, 122.9268
1064.901, 116.5348
1065.383, 114.5370
1065.865, 118.2970
1066.347, 113.8208
1066.829, 85.60242
1067.311, 59.39221
1067.793, 47.45544
1068.276, 44.64246
1068.758, 48.32910
1069.240, 55.76953
1069.722, 63.31140
1070.204, 70.32117
1070.686, 74.14648
1071.168, 70.55249
1071.650, 67.02783
1072.132, 70.96216
1072.615, 74.97803
1073.097, 68.76257
1073.579, 55.65259
1074.061, 47.95007
1074.543, 50.38770
1075.025, 52.80847
1075.507, 50.98047
1075.989, 47.30713
1076.472, 41.75452
1076.954, 36.37720
1077.436, 32.70959
1077.918, 31.04553
1078.400, 31.39319
1078.882, 33.53149
1079.364, 38.72119
1079.846, 54.52393
1080.328, 65.81677
1080.811, 60.00513
1081.293, 45.84460
1081.775, 30.23340
1082.257, 16.66211
1082.739, 12.02661
1083.221, 20.62708
1083.703, 31.33447
1084.185, 44.37146
1084.667, 52.07214
1085.150, 42.52698
1085.632, 29.32983
1086.114, 32.38928
1086.596, 48.75342
1087.078, 56.78735
1087.560, 46.17322
1088.042, 36.47156
1088.524, 35.75891
1089.007, 38.94092
1089.489, 46.45459
1089.971, 53.62500
1090.453, 54.29590
1090.935, 49.14258
1091.417, 44.49695
1091.899, 42.68701
1092.381, 40.54810
1092.864, 33.72595
1093.346, 29.67017
1093.828, 36.48962
1094.310, 46.62073
1094.792, 51.43567
1095.274, 50.41675
1095.756, 46.29333
1096.238, 37.19885
1096.720, 31.55774
1097.203, 37.22229
1097.685, 42.20642
1098.167, 38.42969
1098.649, 31.08167
1099.131, 26.70337
1099.613, 25.21973
1100.095, 22.40247
1100.577, 17.97290
1101.059, 10.87256
1101.542, 11.86401
1102.024, 22.55615
1102.506, 9.571899
1102.988, 49.45056
1103.470, 54.20459
1103.952, 27.37366
1104.434, 5.832642
1104.916, 7.635620
1105.399, 9.002319
1105.881, 16.79175
1106.363, 37.65857
1106.845, 31.18213
1107.327, 19.19238
1107.809, 32.66406
1108.291, 21.90088
1108.773, 11.45886
1109.255, 22.28711
1109.738, 16.08203
1110.220, 5.669312
1110.702, 20.96045
1111.184, 31.50354
1111.666, 35.13049
1112.148, 25.88428
1112.630, 6.931396
1113.112, 4.399170
1113.594, 4.258789
1114.077, 3.414917
1114.559, 1.443726
1115.041, 0.6645510
1115.523, 2.199585
1116.005, 4.166870
1116.487, 7.119019
1116.969, 11.26758
1117.451, 17.57629
1117.934, 26.52649
1118.416, 36.87512
1118.898, 54.46265
1119.380, 61.96057
1119.862, 50.38562
1120.344, 32.27686
1120.826, 15.17078
1121.308, 1.587036
1121.791, 1.138306
1122.273, 19.57410
1122.755, 28.04480
1123.237, 23.84338
1123.719, 17.15869
1124.201, 9.599121
1124.683, 2.784302
1125.165, 2.616699
1125.647, 5.547485
1126.130, 2.331543
1126.612, 8.204834
1127.094, 14.57166
1127.576, 16.17371
1128.058, 17.57874
1128.540, 20.43188
1129.022, 20.14734
1129.504, 12.66199
1129.986, 2.124756
1130.469, 3.491089
1130.951, 4.251587
1131.433, 1.303101
1131.915, 5.405029
1132.397, 14.37805
1132.879, 25.64343
1133.361, 28.82642
1133.843, 16.21338
1134.326, 0.4724120
1134.808, 4.124390
1135.290, 21.94885
1135.772, 29.61328
1136.254, 28.01233
1136.736, 20.92358
1137.218, 10.11755
1137.700, 5.810913
1138.182, 12.67188
1138.665, 23.30334
1139.147, 29.87585
1139.629, 32.16467
1140.111, 27.60364
1140.593, 18.68506
1141.075, 11.81714
1141.557, 8.161255
1142.039, 9.295532
1142.521, 15.60986
1143.004, 21.62012
1143.486, 21.31116
1143.968, 24.22461
1144.450, 20.21838
1144.932, 23.11646
1145.414, 21.25830
1145.896, 17.53223
1146.378, 23.89075
1146.861, 42.23450
1147.343, 54.34998
1147.825, 42.18420
1148.307, 28.35828
1148.789, 38.14917
1149.271, 51.06531
1149.753, 31.10034
1150.235, 2.707886
1150.718, 25.83093
1151.200, 100.9613
1151.682, 148.1764
1152.164, 122.8877
1152.646, 82.33350
1153.128, 25.43762
1153.610, 5.818848
1154.092, 50.89441
1154.574, 129.9441
1155.057, 138.1711
1155.539, 79.95557
1156.021, 33.85388
1156.503, 18.03857
1156.985, 12.62537
1157.467, 23.30591
1157.949, 31.37927
1158.431, 24.09766
1158.913, 14.69348
1159.396, 15.91663
1159.878, 25.32434
1160.360, 33.54126
1160.842, 38.70679
1161.324, 41.17249
1161.806, 43.35791
1162.288, 37.79724
1162.770, 12.77954
1163.253, 5.898193
1163.735, 4.694946
1164.217, 29.75073
1164.699, 38.92200
1165.181, 30.72327
1165.663, 26.72400
1166.145, 28.95593
1166.627, 25.16187
1167.109, 10.59387
1167.592, 2.446655
1168.074, 11.61780
1168.556, 26.77124
1169.038, 31.02332
1169.520, 26.61328
1170.002, 26.76575
1170.484, 31.27039
1170.966, 35.35071
1171.448, 38.93848
1171.931, 40.29993
1172.413, 38.80896
1172.895, 34.88037
1173.377, 28.13196
1173.859, 20.62927
1174.341, 15.87109
1174.823, 14.07300
1175.305, 18.06445
1175.788, 25.62219
1176.270, 27.23315
1176.752, 21.44031
1177.234, 17.48767
1177.716, 21.94324
1178.198, 27.92163
1178.680, 26.11816
1179.162, 22.82471
1179.645, 27.59216
1180.127, 36.42029
1180.609, 43.77161
1181.091, 47.10718
1181.573, 40.06238
1182.055, 17.63660
1182.537, 3.989746
1183.019, 21.00720
1183.501, 40.93994
1183.984, 49.99683
1184.466, 51.64795
1184.948, 45.71301
1185.430, 36.42590
1185.912, 33.14014
1186.394, 38.04260
1186.876, 37.56860
1187.358, 21.14673
1187.840, 10.55835
1188.323, 12.56628
1188.805, 19.08398
1189.287, 29.28125
1189.769, 39.30713
1190.251, 45.44031
1190.733, 47.34265
1191.215, 39.51660
1191.697, 13.28247
1192.180, 2.257324
1192.662, 14.54517
1193.144, 23.90405
1193.626, 21.22205
1194.108, 12.22290
1194.590, 0.4364010
1195.072, 11.59338
1195.554, 3.175781
1196.036, 24.64465
1196.519, 34.10144
1197.001, 25.35046
1197.483, 17.93298
1197.965, 16.15259
1198.447, 17.60266
1198.929, 20.92590
1199.411, 26.27075
1199.893, 36.07581
1200.375, 46.51746
1200.858, 48.17505
1201.340, 43.58276
1201.822, 38.21631
1202.304, 33.03174
1202.786, 27.73340
1203.268, 22.38196
1203.750, 19.23340
1204.232, 20.93579
1204.715, 23.82886
1205.197, 24.04541
1205.679, 24.56494
1206.161, 29.68860
1206.643, 36.63403
1207.125, 40.99915
1207.607, 42.07593
1208.089, 42.09802
1208.572, 41.34070
1209.054, 41.57202
1209.536, 47.64929
1210.018, 49.45813
1210.500, 38.64050
1210.982, 25.26794
1211.464, 15.35522
1211.946, 9.632813
1212.428, 9.692627
1212.911, 16.62280
1213.393, 22.64001
1213.875, 29.12305
1214.357, 30.35034
1214.839, 21.42749
1215.321, 19.39661
1215.803, 37.17102
1216.285, 55.54749
1216.767, 48.04932
1217.250, 22.63586
1217.732, 16.76404
1218.214, 29.31982
1218.696, 34.45630
1219.178, 30.93079
1219.660, 25.53418
1220.142, 20.50391
1220.624, 18.19214
1221.107, 20.49634
1221.589, 25.05664
1222.071, 29.37817
1222.553, 33.19055
1223.035, 36.41748
1223.517, 38.61108
1223.999, 38.00098
1224.481, 35.49463
1224.964, 36.18103
1225.446, 41.91895
1225.928, 41.00891
1226.410, 15.75769
1226.892, 4.393433
1227.374, 1.716431
1227.856, 16.01025
1228.338, 27.68091
1228.820, 35.19067
1229.302, 38.16760
1229.785, 36.51074
1230.267, 29.68445
1230.749, 9.982056
1231.231, 1.182373
1231.713, 1.907471
1232.195, 7.297607
1232.677, 12.94836
1233.159, 17.61633
1233.642, 19.67920
1234.124, 20.98572
1234.606, 26.32605
1235.088, 35.66199
1235.570, 36.41150
1236.052, 27.66821
1236.534, 42.90051
1237.016, 86.77832
1237.499, 101.9563
1237.981, 62.23499
1238.463, 35.07153
1238.945, 104.3436
1239.427, 197.1429
1239.909, 165.0837
1240.391, 67.61914
1240.873, 17.36462
1241.355, 8.389038
1241.838, 8.828735
1242.320, 10.05554
1242.802, 11.32617
1243.284, 11.68970
1243.766, 15.66980
1244.248, 34.78369
1244.730, 47.70312
1245.212, 33.59766
1245.695, 14.23792
1246.177, 10.34875
1246.659, 16.41577
1247.141, 16.92078
1247.623, 10.26929
1248.105, 14.44727
1248.587, 47.35193
1249.069, 57.76038
1249.552, 25.50513
1250.034, 8.509644
1250.516, 36.53760
1250.998, 65.49438
1251.480, 51.13281
1251.962, 75.42700
1252.444, 84.36755
1252.926, 80.98572
1253.408, 96.71619
1253.891, 77.85242
1254.373, 57.53015
1254.855, 41.98230
1255.337, 29.01758
1255.819, 17.71619
1256.301, 10.34961
1256.783, 10.04517
1257.265, 13.19006
1257.747, 17.59790
1258.230, 20.63879
1258.712, 16.80737
1259.194, 9.806396
1259.676, 4.940674
1260.158, 4.076172
1260.640, 10.39490
1261.122, 27.63135
1261.604, 42.22571
1262.087, 51.58887
1262.569, 55.24512
1263.051, 53.08350
1263.533, 44.76953
1264.015, 21.54504
1264.497, 1.388184
1264.979, 1.456543
1265.461, 28.01636
1265.943, 30.75012
1266.426, 10.51636
1266.908, 0.0000000E+00
##END=



