##NAMES=Pyrope
##RRUFFID=R040159
##IDEAL CHEMISTRY=Mg_3_Al_2_(SiO_4_)_3_
##LOCALITY=Meronitz, Bohemia
##OWNER=RRUFF
##SOURCE=University of Arizona Mineral Museum
##DESCRIPTION=Deep red crystal fragments
##STATUS=The identification of this mineral has been confirmed by X-ray diffraction and chemical analysis
##URL=rruff.info/R040159
##MEASURED CHEMISTRY=(Mg_2.17_Fe^2+^_0.47_Ca_0.34_Mn_0.02_)_Σ=3_(Al_1.86_Cr_0.11_Ti_0.03_)_Σ=2_((Si_0.99_Al_0.01_)_Σ=1_O_4_)_3_; trace amounts of Rb?
158.3399, 0.0000000E+00
158.8221, 5.478027
159.3042, 12.64062
159.7863, 21.62598
160.2684, 28.79541
160.7505, 29.09961
161.2326, 22.78711
161.7148, 19.77979
162.1969, 31.20020
162.6790, 35.52637
163.1611, 35.56396
163.6432, 27.06445
164.1253, 16.90088
164.6075, 7.341309
165.0896, 1.605957
165.5717, 7.136230
166.0538, 6.422852
166.5359, 1.525879
167.0180, 4.602051
167.5002, 13.66992
167.9823, 21.81689
168.4644, 23.96875
168.9465, 18.41650
169.4286, 16.12305
169.9107, 30.14648
170.3929, 53.46777
170.8750, 71.98877
171.3571, 74.77246
171.8392, 70.36377
172.3213, 67.47656
172.8034, 67.16309
173.2856, 68.14209
173.7677, 66.19922
174.2498, 63.65430
174.7319, 68.19727
175.2140, 92.88818
175.6961, 125.6714
176.1783, 146.6855
176.6604, 148.1455
177.1425, 143.7168
177.6246, 152.0674
178.1067, 170.9531
178.5888, 187.0752
179.0710, 188.3945
179.5531, 179.5430
180.0352, 169.2144
180.5173, 155.5869
180.9994, 145.4717
181.4815, 153.5161
181.9637, 179.3809
182.4458, 207.3091
182.9279, 226.6045
183.4100, 237.6348
183.8921, 241.0781
184.3742, 228.1025
184.8564, 211.6519
185.3385, 229.6426
185.8206, 285.0605
186.3027, 341.5991
186.7848, 358.4717
187.2669, 340.3672
187.7491, 324.2056
188.2312, 323.4531
188.7133, 334.6338
189.1954, 345.6953
189.6775, 356.4224
190.1596, 367.2134
190.6418, 379.8540
191.1239, 394.1348
191.6060, 406.0645
192.0881, 415.4214
192.5702, 421.7437
193.0524, 416.9287
193.5345, 396.3838
194.0166, 376.6235
194.4987, 389.7002
194.9808, 438.1421
195.4629, 481.0635
195.9451, 496.2417
196.4272, 484.5728
196.9093, 472.3276
197.3914, 457.6978
197.8735, 446.6069
198.3556, 453.3154
198.8378, 480.3662
199.3199, 508.5679
199.8020, 527.7983
200.2841, 537.3984
200.7662, 543.7207
201.2483, 546.1406
201.7305, 546.3687
202.2126, 549.5288
202.6947, 556.9746
203.1768, 562.2974
203.6589, 560.4893
204.1410, 550.2197
204.6232, 542.0747
205.1053, 537.9346
205.5874, 536.0923
206.0695, 528.3511
206.5516, 510.1113
207.0337, 498.0498
207.5159, 508.6392
207.9980, 549.0352
208.4801, 576.3247
208.9622, 584.4316
209.4443, 575.4380
209.9264, 556.9629
210.4086, 523.9502
210.8907, 491.5430
211.3728, 472.0596
211.8549, 468.2363
212.3370, 468.4438
212.8191, 474.4224
213.3013, 484.1802
213.7834, 479.9761
214.2655, 455.3735
214.7476, 427.1167
215.2297, 410.1924
215.7118, 408.2686
216.1940, 406.3716
216.6761, 403.6177
217.1582, 400.0205
217.6403, 395.4780
218.1224, 390.1099
218.6045, 383.9673
219.0867, 377.4873
219.5688, 369.7417
220.0509, 358.0967
220.5330, 342.2002
221.0151, 321.7617
221.4972, 306.5845
221.9794, 296.8110
222.4615, 292.0591
222.9436, 294.0107
223.4257, 310.9111
223.9078, 317.0239
224.3899, 302.3408
224.8721, 263.9976
225.3542, 240.4453
225.8363, 240.8135
226.3184, 247.0835
226.8005, 235.1929
227.2827, 188.2949
227.7648, 157.0762
228.2469, 159.2954
228.7290, 200.8564
229.2111, 227.2246
229.6932, 234.1074
230.1754, 229.2192
230.6575, 221.1543
231.1396, 205.7021
231.6217, 192.3726
232.1038, 185.7148
232.5859, 187.6074
233.0681, 187.3462
233.5502, 186.8418
234.0323, 182.9863
234.5144, 168.9663
234.9965, 132.3730
235.4786, 105.4507
235.9608, 100.8857
236.4429, 124.5879
236.9250, 142.9604
237.4071, 155.6392
237.8892, 162.9907
238.3713, 164.4526
238.8535, 154.4297
239.3356, 148.2373
239.8177, 153.9946
240.2998, 176.0273
240.7819, 183.8501
241.2640, 171.1230
241.7462, 149.2441
242.2283, 139.3857
242.7104, 152.9722
243.1925, 159.5249
243.6746, 144.4038
244.1567, 93.87354
244.6389, 70.54834
245.1210, 87.55713
245.6031, 123.8594
246.0852, 141.9473
246.5673, 134.0278
247.0494, 121.0488
247.5316, 108.7881
248.0137, 95.18262
248.4958, 90.08252
248.9779, 97.90186
249.4600, 111.7441
249.9421, 118.4370
250.4243, 115.8276
250.9064, 110.0688
251.3885, 102.0811
251.8706, 89.12695
252.3527, 83.20654
252.8348, 84.94824
253.3170, 93.25635
253.7991, 109.2969
254.2812, 143.8052
254.7633, 164.8594
255.2454, 154.9961
255.7275, 100.1030
256.2097, 67.97852
256.6918, 66.97314
257.1739, 83.25000
257.6560, 92.21191
258.1381, 93.09912
258.6202, 88.16211
259.1024, 76.80859
259.5845, 56.58789
260.0666, 40.12646
260.5487, 27.40625
261.0308, 18.49902
261.5129, 12.65576
261.9951, 8.089355
262.4772, 10.97314
262.9593, 27.27686
263.4414, 63.13770
263.9235, 83.49609
264.4056, 85.43652
264.8878, 74.82764
265.3699, 59.21533
265.8520, 33.76758
266.3341, 17.00781
266.8162, 19.37207
267.2983, 45.06396
267.7805, 62.33789
268.2626, 69.78223
268.7447, 70.09229
269.2268, 66.46631
269.7089, 57.32959
270.1910, 49.88525
270.6732, 47.12256
271.1553, 49.39062
271.6374, 53.18408
272.1195, 59.06104
272.6016, 65.66748
273.0837, 72.01465
273.5659, 79.47754
274.0480, 80.09521
274.5301, 69.19678
275.0122, 46.36670
275.4943, 20.98193
275.9764, 11.45752
276.4586, 37.98486
276.9407, 33.65674
277.4228, 5.166016
277.9049, 41.88330
278.3870, 62.62207
278.8691, 67.82764
279.3513, 66.45215
279.8334, 57.17725
280.3155, 44.70068
280.7976, 35.71436
281.2798, 30.44922
281.7619, 23.70947
282.2440, 11.50732
282.7261, 4.751953
283.2082, 13.05273
283.6903, 11.88086
284.1725, 8.311035
284.6546, 12.04248
285.1367, 22.76611
285.6188, 31.82568
286.1009, 35.52930
286.5830, 35.03711
287.0652, 36.74023
287.5473, 41.61621
288.0294, 43.15674
288.5115, 29.64600
288.9936, 3.336426
289.4757, 16.30615
289.9579, 21.41260
290.4400, 15.67285
290.9221, 7.117676
291.4042, 4.716309
291.8863, 13.59082
292.3684, 10.24756
292.8506, 2.461914
293.3327, 11.90820
293.8148, 10.59326
294.2969, 5.680176
294.7790, 17.28125
295.2611, 45.49463
295.7433, 65.59619
296.2254, 42.89648
296.7075, 6.394043
297.1896, 35.12891
297.6717, 20.14502
298.1538, 13.41846
298.6360, 27.82080
299.1181, 24.47852
299.6002, 17.94141
300.0823, 16.55127
300.5644, 20.25635
301.0465, 29.48926
301.5287, 46.84814
302.0108, 66.62549
302.4929, 84.23438
302.9750, 99.37061
303.4571, 108.9644
303.9392, 106.9258
304.4214, 99.46777
304.9035, 94.61230
305.3856, 93.12891
305.8677, 96.55566
306.3498, 112.3701
306.8319, 135.9902
307.3141, 151.6035
307.7962, 142.1992
308.2783, 123.5371
308.7604, 110.1494
309.2425, 104.0977
309.7246, 105.9551
310.2068, 123.6074
310.6889, 150.4639
311.1710, 169.7002
311.6531, 158.4824
312.1352, 145.5488
312.6173, 156.3682
313.0995, 205.3047
313.5816, 247.1836
314.0637, 253.2236
314.5458, 238.1113
315.0279, 229.6621
315.5100, 248.1602
315.9922, 268.8496
316.4743, 278.6201
316.9564, 274.5195
317.4385, 265.4375
317.9206, 246.3779
318.4027, 225.8809
318.8849, 215.8799
319.3670, 227.1543
319.8491, 242.8066
320.3312, 258.4795
320.8133, 274.7959
321.2954, 285.4336
321.7776, 289.1973
322.2597, 286.8545
322.7418, 279.2188
323.2239, 242.8350
323.7060, 224.6807
324.1881, 249.2529
324.6703, 322.9189
325.1524, 364.4346
325.6345, 342.9121
326.1166, 299.9854
326.5987, 268.8604
327.0808, 252.0176
327.5630, 244.3496
328.0451, 246.1631
328.5272, 257.3066
329.0093, 275.5674
329.4914, 310.7334
329.9735, 343.6211
330.4557, 360.1768
330.9378, 344.3291
331.4199, 340.4893
331.9020, 355.5938
332.3841, 385.9277
332.8662, 414.0674
333.3484, 440.6035
333.8305, 463.1377
334.3126, 478.4863
334.7947, 483.1338
335.2768, 497.4355
335.7589, 522.8320
336.2411, 556.0400
336.7232, 590.7266
337.2053, 627.8320
337.6874, 662.8516
338.1695, 692.8965
338.6516, 716.7393
339.1338, 744.9014
339.6159, 779.5303
340.0980, 814.9385
340.5801, 838.3652
341.0622, 848.5225
341.5443, 860.7852
342.0265, 882.1875
342.5086, 911.4912
342.9907, 942.3506
343.4728, 974.8662
343.9549, 1007.813
344.4370, 1037.085
344.9192, 1063.248
345.4013, 1094.783
345.8834, 1136.283
346.3655, 1185.263
346.8476, 1232.879
347.3297, 1278.024
347.8119, 1321.093
348.2940, 1358.317
348.7761, 1393.032
349.2582, 1433.647
349.7403, 1482.770
350.2225, 1540.042
350.7046, 1606.159
351.1867, 1680.727
351.6688, 1759.195
352.1509, 1846.124
352.6331, 1933.036
353.1152, 2004.720
353.5973, 2049.715
354.0794, 2093.980
354.5615, 2159.288
355.0436, 2241.556
355.5258, 2332.895
356.0079, 2441.000
356.4900, 2548.062
356.9721, 2638.663
357.4542, 2708.448
357.9363, 2768.593
358.4185, 2823.278
358.9006, 2872.773
359.3827, 2917.580
359.8648, 2962.536
360.3469, 2999.151
360.8290, 3024.739
361.3112, 3039.846
361.7933, 3038.021
362.2754, 3012.938
362.7575, 2971.734
363.2396, 2921.959
363.7217, 2871.594
364.2039, 2808.556
364.6860, 2722.468
365.1681, 2610.293
365.6502, 2503.443
366.1323, 2405.730
366.6144, 2313.667
367.0966, 2224.999
367.5787, 2137.319
368.0608, 2057.972
368.5429, 1993.114
369.0250, 1939.099
369.5071, 1875.136
369.9893, 1784.896
370.4714, 1700.650
370.9535, 1642.786
371.4356, 1635.340
371.9177, 1603.341
372.3998, 1527.340
372.8820, 1431.460
373.3641, 1382.691
373.8462, 1406.239
374.3283, 1414.223
374.8104, 1362.878
375.2925, 1244.294
375.7747, 1155.873
376.2568, 1101.906
376.7389, 1068.114
377.2210, 1041.348
377.7031, 1022.487
378.1852, 993.3984
378.6674, 943.6992
379.1495, 880.3389
379.6316, 828.3740
380.1137, 785.8008
380.5958, 751.7383
381.0779, 729.7314
381.5601, 717.1631
382.0422, 703.2627
382.5243, 683.8223
383.0064, 659.4268
383.4885, 631.8867
383.9706, 602.0898
384.4528, 575.1064
384.9349, 561.6855
385.4170, 548.8457
385.8991, 511.1875
386.3812, 435.0762
386.8633, 365.8008
387.3455, 354.6963
387.8276, 385.2969
388.3097, 415.0996
388.7918, 419.5322
389.2739, 412.2588
389.7560, 403.4873
390.2382, 392.7373
390.7203, 381.2070
391.2024, 371.4346
391.6845, 359.6094
392.1666, 341.4502
392.6487, 311.3311
393.1309, 277.9600
393.6130, 241.5137
394.0951, 202.9570
394.5772, 172.6641
395.0593, 157.6152
395.5414, 148.7314
396.0236, 140.5381
396.5057, 123.9287
396.9878, 117.9883
397.4699, 136.3838
397.9520, 168.2373
398.4341, 179.1367
398.9163, 146.7070
399.3984, 116.5547
399.8805, 106.5674
400.3626, 126.2637
400.8447, 140.2988
401.3268, 149.1709
401.8090, 150.7363
402.2911, 136.1748
402.7732, 93.85449
403.2553, 66.94531
403.7374, 73.49902
404.2195, 110.8994
404.7017, 127.0312
405.1838, 117.2666
405.6659, 97.88574
406.1480, 82.34180
406.6301, 70.63184
407.1122, 57.39258
407.5944, 37.31641
408.0765, 19.68262
408.5586, 34.09766
409.0407, 79.94434
409.5228, 121.8584
410.0049, 133.5762
410.4871, 122.9297
410.9692, 111.5986
411.4513, 101.8496
411.9334, 90.92188
412.4155, 69.76465
412.8976, 43.76074
413.3798, 28.81152
413.8619, 43.04883
414.3440, 65.35352
414.8261, 73.27344
415.3082, 66.34082
415.7903, 56.34668
416.2725, 47.36328
416.7546, 40.96289
417.2367, 39.07617
417.7188, 48.08203
418.2009, 55.34277
418.6830, 54.32031
419.1652, 46.55566
419.6473, 37.58105
420.1294, 28.59668
420.6115, 19.35645
421.0937, 7.166992
421.5758, 18.79883
422.0579, 24.47656
422.5400, 21.15723
423.0221, 84.22656
423.5042, 109.6514
423.9864, 59.27539
424.4685, 11.88379
424.9506, 14.45703
425.4327, 17.65137
425.9148, 23.59375
426.3969, 37.13184
426.8791, 47.92383
427.3612, 44.23438
427.8433, 18.06738
428.3254, 4.090820
428.8075, 13.35254
429.2896, 35.69238
429.7718, 32.69824
430.2539, 0.5830080
430.7360, 32.82910
431.2181, 43.65234
431.7002, 34.52246
432.1823, 26.36719
432.6645, 20.02246
433.1466, 15.31250
433.6287, 10.91406
434.1108, 7.458984
434.5929, 8.604492
435.0750, 22.93848
435.5572, 39.71582
436.0393, 33.13379
436.5214, 4.601563
437.0035, 15.98047
437.4856, 11.69434
437.9677, 56.98633
438.4499, 74.04004
438.9320, 34.77051
439.4141, 7.359375
439.8962, 7.921875
440.3783, 18.95508
440.8604, 36.97363
441.3426, 17.13184
441.8247, 6.526367
442.3068, 13.08496
442.7889, 3.691406
443.2710, 18.42578
443.7531, 31.05762
444.2353, 35.55957
444.7174, 25.54980
445.1995, 26.78809
445.6816, 64.27441
446.1637, 76.85254
446.6458, 65.70508
447.1280, 39.76074
447.6101, 22.94141
448.0922, 76.38965
448.5743, 91.33496
449.0564, 47.88477
449.5385, 19.72754
450.0207, 12.60938
450.5028, 18.09668
450.9849, 20.28027
451.4670, 17.81250
451.9491, 18.82422
452.4312, 29.86523
452.9134, 48.38086
453.3955, 52.91699
453.8776, 41.95410
454.3597, 27.77734
454.8418, 22.51270
455.3239, 24.35059
455.8061, 26.16699
456.2882, 27.29004
456.7703, 26.31934
457.2524, 12.54004
457.7345, 8.128906
458.2166, 11.34961
458.6988, 44.68555
459.1809, 112.0996
459.6630, 133.2617
460.1451, 97.39746
460.6272, 53.94531
461.1093, 22.58398
461.5915, 5.495117
462.0736, 6.139648
462.5557, 52.41895
463.0378, 90.33887
463.5199, 86.09570
464.0020, 47.67480
464.4842, 36.30762
464.9663, 107.9053
465.4484, 177.8525
465.9305, 198.6318
466.4126, 119.9004
466.8947, 79.06543
467.3769, 97.43750
467.8590, 144.3066
468.3411, 169.8145
468.8232, 164.9551
469.3053, 155.5469
469.7874, 144.6689
470.2696, 133.1680
470.7517, 142.1621
471.2338, 179.8252
471.7159, 212.7725
472.1980, 199.3271
472.6801, 141.2666
473.1623, 121.5244
473.6444, 162.5371
474.1265, 225.3535
474.6086, 238.8379
475.0907, 210.0117
475.5728, 184.2959
476.0550, 191.5137
476.5371, 215.1738
477.0192, 226.3457
477.5013, 223.9268
477.9834, 224.9434
478.4655, 251.5215
478.9477, 286.5234
479.4298, 305.7344
479.9119, 294.8916
480.3940, 281.4775
480.8761, 270.2070
481.3582, 263.6318
481.8404, 269.9736
482.3225, 306.7256
482.8046, 343.0928
483.2867, 367.8350
483.7688, 379.3027
484.2509, 379.9150
484.7331, 356.4785
485.2152, 330.2754
485.6973, 321.6016
486.1794, 336.0020
486.6615, 356.6680
487.1436, 390.4707
487.6258, 430.2549
488.1079, 429.7002
488.5900, 371.1123
489.0721, 315.9814
489.5542, 307.8965
490.0363, 347.4219
490.5185, 352.0312
491.0006, 313.2871
491.4827, 260.5664
491.9648, 231.9082
492.4470, 223.7139
492.9291, 216.0811
493.4112, 198.0645
493.8933, 180.0527
494.3754, 180.3818
494.8575, 196.3379
495.3397, 216.5840
495.8218, 236.8750
496.3039, 252.8584
496.7860, 256.8711
497.2681, 242.2188
497.7502, 234.0898
498.2324, 250.9043
498.7145, 280.8770
499.1966, 309.0010
499.6787, 323.1543
500.1608, 341.7080
500.6429, 374.4521
501.1251, 419.8174
501.6072, 460.7314
502.0893, 499.9346
502.5714, 531.1582
503.0535, 548.0557
503.5356, 542.4893
504.0178, 542.8945
504.4999, 550.6816
504.9820, 566.8789
505.4641, 598.5068
505.9462, 648.1816
506.4283, 680.6836
506.9105, 680.7666
507.3926, 656.6309
507.8747, 640.5088
508.3568, 632.7656
508.8389, 630.1904
509.3210, 642.2939
509.8032, 657.6963
510.2853, 639.2256
510.7674, 575.5918
511.2495, 506.2520
511.7316, 467.2393
512.2137, 452.5557
512.6959, 450.5195
513.1780, 477.8877
513.6601, 498.2188
514.1422, 482.0488
514.6243, 433.9697
515.1064, 386.8984
515.5886, 349.1807
516.0707, 319.1416
516.5528, 297.4219
517.0349, 283.7676
517.5170, 274.4209
517.9991, 272.1006
518.4813, 272.7383
518.9634, 272.0039
519.4455, 274.8037
519.9276, 266.6846
520.4097, 238.2012
520.8918, 194.8770
521.3740, 174.3389
521.8561, 181.1191
522.3382, 195.7168
522.8203, 212.2119
523.3024, 229.2266
523.7845, 220.4395
524.2667, 178.3584
524.7488, 133.2871
525.2309, 124.0537
525.7130, 143.0391
526.1951, 164.4326
526.6772, 186.0352
527.1594, 200.0293
527.6415, 186.3838
528.1236, 151.9023
528.6057, 127.9902
529.0878, 141.5654
529.5699, 166.6123
530.0521, 185.2373
530.5342, 195.8516
531.0163, 197.7656
531.4984, 181.1777
531.9805, 159.9688
532.4626, 148.7900
532.9448, 161.0918
533.4269, 169.7031
533.9090, 168.6328
534.3911, 161.3643
534.8732, 161.6035
535.3553, 173.0137
535.8375, 185.1250
536.3196, 190.6064
536.8017, 188.5723
537.2838, 205.0859
537.7659, 246.0400
538.2480, 286.7354
538.7302, 290.5723
539.2123, 265.1484
539.6944, 265.6553
540.1765, 313.3359
540.6586, 375.2959
541.1407, 402.0039
541.6229, 402.2529
542.1050, 409.9961
542.5871, 450.4180
543.0692, 502.4961
543.5513, 547.9229
544.0334, 585.5898
544.5156, 623.8789
544.9977, 660.8213
545.4798, 700.5039
545.9619, 747.2393
546.4440, 814.6162
546.9261, 870.5156
547.4083, 897.9805
547.8904, 913.2520
548.3725, 944.6885
548.8546, 996.2666
549.3367, 1059.986
549.8188, 1136.963
550.3010, 1225.882
550.7831, 1313.012
551.2652, 1399.935
551.7473, 1480.208
552.2294, 1544.928
552.7115, 1596.165
553.1937, 1652.157
553.6758, 1714.890
554.1579, 1780.094
554.6400, 1851.030
555.1221, 1921.282
555.6042, 1970.361
556.0864, 1972.141
556.5685, 1968.759
557.0506, 2009.356
557.5327, 2081.553
558.0148, 2139.148
558.4969, 2168.010
558.9791, 2168.962
559.4612, 2139.158
559.9433, 2075.186
560.4254, 1998.365
560.9075, 1913.022
561.3896, 1815.998
561.8718, 1703.338
562.3539, 1562.752
562.8360, 1426.312
563.3181, 1292.145
563.8002, 1166.809
564.2823, 1070.134
564.7645, 1011.072
565.2466, 943.2217
565.7287, 841.9570
566.2108, 716.8545
566.6929, 613.5039
567.1750, 532.6670
567.6572, 474.2031
568.1393, 460.3643
568.6214, 466.2227
569.1035, 437.4697
569.5856, 358.0889
570.0677, 273.7627
570.5499, 217.9697
571.0320, 182.4873
571.5141, 153.7988
571.9962, 134.8320
572.4783, 113.8662
572.9604, 76.50586
573.4426, 29.55957
573.9247, 7.415039
574.4068, 39.67188
574.8889, 76.28027
575.3710, 100.0693
575.8531, 110.5322
576.3353, 108.4951
576.8174, 89.19141
577.2995, 64.48047
577.7816, 43.78516
578.2637, 26.91406
578.7458, 17.81836
579.2280, 18.33496
579.7101, 24.55273
580.1922, 32.60254
580.6743, 41.39355
581.1564, 44.80762
581.6385, 34.11230
582.1207, 19.61035
582.6028, 18.04785
583.0849, 27.35840
583.5670, 31.31055
584.0491, 4.205078
584.5313, 21.77832
585.0134, 17.84375
585.4955, 31.10547
585.9776, 74.28027
586.4597, 105.3135
586.9418, 120.8906
587.4240, 115.3203
587.9061, 60.82715
588.3882, 30.25195
588.8703, 43.62109
589.3524, 82.56348
589.8345, 89.33691
590.3167, 54.75098
590.7988, 23.05762
591.2809, 13.45703
591.7630, 22.74805
592.2451, 39.77051
592.7272, 65.04590
593.2094, 84.87207
593.6915, 84.95898
594.1736, 72.04785
594.6557, 57.26758
595.1378, 41.18848
595.6199, 29.56836
596.1021, 33.90332
596.5842, 43.63477
597.0663, 43.75098
597.5485, 14.31445
598.0306, 9.786133
598.5127, 17.50098
598.9948, 10.64844
599.4769, 2.871094
599.9590, 41.81152
600.4412, 63.89160
600.9233, 48.46289
601.4054, 8.334961
601.8875, 40.69531
602.3696, 42.45020
602.8517, 34.39844
603.3339, 34.61914
603.8160, 42.07227
604.2981, 43.45898
604.7802, 37.13184
605.2623, 24.99805
605.7444, 4.363281
606.2266, 20.53125
606.7087, 37.01465
607.1908, 35.81738
607.6729, 29.80078
608.1550, 27.98145
608.6371, 29.62305
609.1193, 32.33398
609.6014, 34.65332
610.0835, 38.23242
610.5656, 47.19141
611.0477, 64.24902
611.5298, 65.58691
612.0120, 38.74707
612.4941, 7.885742
612.9762, 11.33594
613.4583, 17.14258
613.9404, 17.22754
614.4225, 10.60938
614.9047, 0.4755860
615.3868, 10.90625
615.8689, 23.14551
616.3510, 29.53613
616.8331, 26.49414
617.3152, 18.72070
617.7974, 8.308594
618.2795, 1.893555
618.7616, 1.380859
619.2437, 24.12012
619.7258, 56.14941
620.2079, 85.23633
620.6901, 110.3818
621.1722, 122.7363
621.6543, 103.7510
622.1364, 81.80371
622.6185, 76.06543
623.1006, 95.34277
623.5828, 114.0801
624.0649, 136.0840
624.5470, 154.0342
625.0291, 154.0234
625.5112, 129.6680
625.9933, 126.6133
626.4755, 157.0068
626.9576, 204.5068
627.4397, 239.7480
627.9218, 264.5371
628.4039, 290.2129
628.8860, 323.7969
629.3682, 360.8672
629.8503, 399.1855
630.3324, 437.4287
630.8145, 464.6191
631.2966, 462.7393
631.7787, 455.2686
632.2609, 458.0186
632.7430, 473.1650
633.2251, 498.2080
633.7072, 535.6982
634.1893, 581.0020
634.6714, 631.7549
635.1536, 694.6250
635.6357, 749.4365
636.1178, 792.2637
636.5999, 825.2705
637.0820, 851.8838
637.5641, 871.7627
638.0463, 888.9463
638.5284, 897.4658
639.0105, 910.6211
639.4926, 968.7012
639.9747, 1062.977
640.4568, 1140.979
640.9390, 1158.215
641.4211, 1153.959
641.9032, 1171.673
642.3853, 1213.203
642.8674, 1229.835
643.3495, 1185.679
643.8317, 1120.358
644.3138, 1060.622
644.7959, 1013.479
645.2780, 966.4434
645.7601, 919.6465
646.2422, 870.5342
646.7244, 814.6250
647.2065, 749.8438
647.6886, 692.9160
648.1707, 647.3428
648.6528, 611.3604
649.1349, 584.9150
649.6171, 565.7363
650.0992, 539.5244
650.5813, 485.2979
651.0634, 429.0752
651.5455, 410.0049
652.0276, 421.1484
652.5098, 425.9951
652.9919, 392.7646
653.4740, 356.6777
653.9561, 343.7969
654.4382, 362.8867
654.9203, 369.1768
655.4025, 344.0195
655.8846, 310.2881
656.3667, 282.2969
656.8488, 259.3037
657.3309, 247.7314
657.8130, 250.5830
658.2952, 258.9023
658.7773, 263.5781
659.2594, 263.8408
659.7415, 248.8223
660.2236, 210.2549
660.7057, 168.4922
661.1879, 153.5938
661.6700, 158.5762
662.1521, 165.4297
662.6342, 169.7588
663.1163, 170.1934
663.5984, 163.8018
664.0806, 150.9922
664.5627, 139.8545
665.0448, 136.0195
665.5269, 131.0723
666.0090, 121.8086
666.4911, 108.1846
666.9733, 87.87109
667.4554, 51.97168
667.9375, 27.06055
668.4196, 45.44336
668.9017, 105.4346
669.3839, 137.9951
669.8660, 133.4131
670.3481, 115.6025
670.8302, 112.7236
671.3123, 116.8359
671.7944, 108.1504
672.2766, 65.63281
672.7587, 33.91797
673.2408, 59.65723
673.7229, 114.5488
674.2050, 143.8711
674.6871, 97.95020
675.1693, 62.50391
675.6514, 68.06445
676.1335, 104.7959
676.6156, 124.1299
677.0977, 124.8125
677.5798, 110.4033
678.0620, 72.43066
678.5441, 16.68164
679.0262, 5.186523
679.5083, 40.35742
679.9904, 75.43945
680.4725, 66.31836
680.9547, 33.35352
681.4368, 12.94824
681.9189, 10.52832
682.4010, 9.961914
682.8831, 4.111328
683.3652, 18.89355
683.8474, 22.18555
684.3295, 1.335938
684.8116, 15.16797
685.2937, 13.80762
685.7758, 10.21973
686.2579, 29.65820
686.7401, 91.51465
687.2222, 119.8916
687.7043, 90.40332
688.1864, 29.95117
688.6685, 4.139648
689.1506, 11.12012
689.6328, 21.27832
690.1149, 20.57812
690.5970, 15.89648
691.0791, 20.57031
691.5612, 31.93555
692.0433, 36.46387
692.5255, 12.50586
693.0076, 8.818359
693.4897, 2.943359
693.9718, 35.03613
694.4539, 61.87402
694.9360, 60.44629
695.4182, 57.17285
695.9003, 69.09375
696.3824, 104.5205
696.8645, 117.4727
697.3466, 104.0078
697.8287, 78.41211
698.3109, 47.06348
698.7930, 14.24316
699.2751, 7.418945
699.7572, 37.76855
700.2393, 71.57910
700.7214, 73.75977
701.2036, 55.16113
701.6857, 33.81836
702.1678, 7.875977
702.6499, 9.499023
703.1320, 9.959961
703.6141, 2.008789
704.0963, 15.39062
704.5784, 35.86816
705.0605, 45.43457
705.5426, 35.25195
706.0247, 12.74219
706.5068, 13.78320
706.9890, 42.11426
707.4711, 68.76367
707.9532, 76.28027
708.4353, 71.75195
708.9174, 72.13867
709.3995, 77.02441
709.8817, 82.41504
710.3638, 95.00879
710.8459, 100.8877
711.3280, 79.68359
711.8101, 23.86133
712.2922, 10.92480
712.7744, 9.696289
713.2565, 43.54199
713.7386, 61.97461
714.2207, 58.64453
714.7028, 53.69629
715.1849, 43.41504
715.6671, 38.05273
716.1492, 55.47949
716.6313, 92.75195
717.1134, 115.4385
717.5955, 115.6162
718.0776, 107.0156
718.5598, 107.5410
719.0419, 113.6572
719.5240, 117.0186
720.0061, 111.4766
720.4882, 106.4668
720.9703, 111.7471
721.4525, 121.2842
721.9346, 119.8145
722.4167, 95.21875
722.8988, 74.94727
723.3809, 62.98242
723.8630, 59.27637
724.3452, 68.87500
724.8273, 95.70703
725.3094, 109.9268
725.7915, 83.18164
726.2736, 38.20605
726.7557, 39.00293
727.2379, 79.11133
727.7200, 120.4336
728.2021, 152.9062
728.6842, 170.4541
729.1663, 158.3867
729.6484, 115.3350
730.1306, 92.79883
730.6127, 133.6543
731.0948, 168.3623
731.5769, 158.2119
732.0590, 84.85547
732.5411, 48.66895
733.0233, 57.55566
733.5054, 85.79297
733.9875, 123.7637
734.4696, 166.2598
734.9517, 163.7676
735.4338, 103.4600
735.9160, 43.79883
736.3981, 55.96973
736.8802, 103.0918
737.3623, 133.6699
737.8444, 124.7373
738.3266, 117.8359
738.8087, 144.4336
739.2908, 177.7295
739.7729, 175.3965
740.2551, 100.4404
740.7372, 56.29004
741.2193, 63.38574
741.7014, 97.87891
742.1835, 113.1309
742.6656, 107.9805
743.1478, 99.68164
743.6299, 89.96191
744.1120, 85.08496
744.5941, 100.1758
745.0762, 129.1729
745.5583, 154.9160
746.0405, 175.4814
746.5226, 185.5918
747.0047, 174.8516
747.4868, 147.2402
747.9689, 127.2012
748.4510, 112.0254
748.9332, 109.6318
749.4153, 132.8477
749.8974, 176.9639
750.3795, 179.5488
750.8616, 134.4248
751.3438, 98.77539
751.8259, 118.8877
752.3080, 168.2734
752.7901, 192.0703
753.2722, 190.3887
753.7543, 177.8838
754.2365, 154.0176
754.7186, 130.0518
755.2007, 115.7520
755.6828, 113.7324
756.1649, 112.4023
756.6470, 111.1074
757.1292, 108.4990
757.6113, 102.4053
758.0934, 88.83105
758.5755, 91.51367
759.0576, 115.6543
759.5397, 138.8145
760.0219, 133.7852
760.5040, 107.4932
760.9861, 80.49512
761.4682, 53.92871
761.9503, 43.38672
762.4324, 85.36719
762.9146, 139.7158
763.3967, 157.5557
763.8788, 92.81836
764.3609, 46.49805
764.8430, 46.95020
765.3251, 67.45703
765.8073, 79.62988
766.2894, 81.62109
766.7715, 83.20215
767.2536, 87.25195
767.7357, 88.43359
768.2178, 71.49316
768.7000, 42.14355
769.1821, 25.38672
769.6642, 35.40625
770.1463, 48.84375
770.6284, 47.32227
771.1105, 38.05078
771.5927, 35.35254
772.0748, 46.53613
772.5569, 62.11719
773.0390, 89.96777
773.5211, 118.6816
774.0032, 111.8281
774.4854, 54.10449
774.9675, 19.16016
775.4496, 35.30664
775.9317, 82.74902
776.4138, 124.2549
776.8959, 156.0508
777.3781, 159.8916
777.8602, 92.52441
778.3423, 20.11035
778.8244, 3.068359
779.3065, 30.68359
779.7886, 54.95508
780.2708, 64.41992
780.7529, 64.58594
781.2350, 56.41602
781.7171, 40.58887
782.1992, 22.14355
782.6813, 0.5761720
783.1635, 19.16699
783.6456, 33.06055
784.1277, 39.29688
784.6098, 17.33789
785.0919, 29.47754
785.5740, 64.52441
786.0562, 58.76465
786.5383, 35.74121
787.0204, 6.121094
787.5025, 28.82422
787.9846, 40.02148
788.4667, 11.53223
788.9489, 57.12598
789.4310, 62.90332
789.9131, 25.35840
790.3952, 14.82129
790.8773, 36.51855
791.3594, 64.20605
791.8416, 88.05078
792.3237, 101.0420
792.8058, 72.84082
793.2879, 2.767578
793.7700, 56.16016
794.2521, 58.08301
794.7343, 37.79883
795.2164, 22.48438
795.6985, 15.66992
796.1806, 12.49414
796.6627, 14.25977
797.1448, 17.04199
797.6270, 20.21875
798.1091, 25.20117
798.5912, 16.89062
799.0733, 8.491211
799.5554, 33.41211
800.0375, 39.40234
800.5197, 32.19238
801.0018, 20.89551
801.4839, 5.950195
801.9660, 6.518555
802.4481, 8.083984
802.9302, 8.289063
803.4124, 16.05664
803.8945, 40.01172
804.3766, 55.48438
804.8587, 65.42090
805.3408, 62.95605
805.8229, 31.75977
806.3051, 27.77246
806.7872, 53.62207
807.2693, 37.69531
807.7514, 5.721680
808.2335, 28.97754
808.7156, 57.70898
809.1978, 64.02246
809.6799, 36.65723
810.1620, 12.28516
810.6441, 9.022461
811.1262, 14.31543
811.6083, 16.52930
812.0905, 17.27930
812.5726, 9.178711
813.0547, 11.14160
813.5368, 33.73438
814.0189, 47.10742
814.5010, 52.22363
814.9832, 54.64453
815.4653, 55.09668
815.9474, 53.06934
816.4295, 45.39160
816.9116, 36.65820
817.3937, 32.23438
817.8759, 34.33984
818.3580, 39.10840
818.8401, 50.59180
819.3222, 60.41699
819.8043, 58.83984
820.2864, 42.12305
820.7686, 37.78613
821.2507, 49.24902
821.7328, 69.79004
822.2149, 102.0020
822.6970, 135.5869
823.1791, 139.2754
823.6613, 97.50195
824.1434, 51.40625
824.6255, 16.45312
825.1076, 2.243164
825.5897, 1.438477
826.0718, 54.41895
826.5540, 91.97656
827.0361, 109.5420
827.5182, 118.4365
828.0003, 132.4297
828.4824, 150.7480
828.9645, 158.6338
829.4467, 151.0391
829.9288, 145.7158
830.4109, 173.7617
830.8930, 213.3818
831.3751, 228.2988
831.8572, 194.4619
832.3394, 168.4688
832.8215, 170.9346
833.3036, 191.6523
833.7857, 218.2754
834.2678, 255.7178
834.7499, 279.0176
835.2321, 282.2969
835.7142, 280.8936
836.1963, 290.2705
836.6784, 310.2383
837.1605, 344.6084
837.6426, 396.7510
838.1248, 442.9766
838.6069, 454.1826
839.0890, 454.5957
839.5711, 471.1211
840.0532, 519.9922
840.5353, 564.2520
841.0175, 599.6758
841.4996, 632.0264
841.9817, 663.8105
842.4638, 696.3418
842.9459, 748.0762
843.4280, 820.5547
843.9102, 899.1533
844.3923, 972.4707
844.8744, 1039.187
845.3565, 1093.697
845.8386, 1132.104
846.3207, 1182.362
846.8029, 1249.477
847.2850, 1331.324
847.7671, 1425.953
848.2492, 1533.078
848.7313, 1658.719
849.2134, 1812.787
849.6956, 1956.302
850.1777, 2041.554
850.6598, 2084.113
851.1419, 2136.289
851.6240, 2201.787
852.1061, 2276.376
852.5883, 2352.527
853.0704, 2438.714
853.5525, 2548.787
854.0346, 2698.944
854.5167, 2821.948
854.9988, 2902.289
855.4810, 2970.669
855.9631, 3053.871
856.4452, 3153.661
856.9273, 3230.388
857.4094, 3281.833
857.8915, 3306.354
858.3737, 3285.783
858.8558, 3245.243
859.3379, 3217.438
859.8200, 3206.997
860.3021, 3192.743
860.7842, 3187.796
861.2664, 3156.645
861.7485, 3072.611
862.2306, 2927.608
862.7127, 2816.422
863.1948, 2747.906
863.6769, 2676.453
864.1591, 2551.400
864.6412, 2399.565
865.1233, 2289.585
865.6054, 2219.943
866.0875, 2151.506
866.5696, 2062.678
867.0518, 1965.894
867.5339, 1867.591
868.0160, 1766.387
868.4981, 1672.111
868.9802, 1585.417
869.4623, 1502.580
869.9445, 1418.802
870.4266, 1338.526
870.9087, 1287.684
871.3908, 1262.790
871.8729, 1235.137
872.3550, 1183.441
872.8372, 1124.115
873.3193, 1072.576
873.8014, 1026.447
874.2835, 972.2871
874.7656, 879.2822
875.2477, 812.5654
875.7299, 796.0830
876.2120, 816.8135
876.6941, 827.6660
877.1762, 828.6533
877.6583, 815.5693
878.1404, 775.2881
878.6226, 731.7510
879.1047, 721.3730
879.5869, 733.4648
880.0690, 740.3594
880.5511, 722.2969
881.0332, 708.3350
881.5153, 707.6758
881.9974, 716.3193
882.4796, 728.4570
882.9617, 745.6250
883.4438, 756.9785
883.9259, 758.4590
884.4080, 755.7051
884.8901, 755.0898
885.3723, 757.3896
885.8544, 764.3545
886.3365, 775.5000
886.8186, 793.1553
887.3007, 830.3486
887.7828, 869.3262
888.2650, 884.4189
888.7471, 865.2656
889.2292, 846.8613
889.7113, 827.6572
890.1934, 819.8350
890.6755, 847.6992
891.1577, 900.0859
891.6398, 943.0566
892.1219, 969.1133
892.6040, 989.2852
893.0861, 1008.356
893.5682, 1026.407
894.0504, 1041.856
894.5325, 1046.354
895.0146, 1071.789
895.4967, 1127.205
895.9788, 1186.691
896.4609, 1224.567
896.9431, 1245.534
897.4252, 1277.402
897.9073, 1321.703
898.3894, 1373.678
898.8715, 1431.342
899.3536, 1494.129
899.8358, 1560.606
900.3179, 1629.465
900.8000, 1712.727
901.2821, 1808.373
901.7642, 1918.330
902.2463, 2051.257
902.7285, 2200.952
903.2106, 2324.730
903.6927, 2424.008
904.1748, 2545.702
904.6569, 2728.549
905.1390, 2942.213
905.6212, 3159.119
906.1033, 3378.687
906.5854, 3615.331
907.0675, 3885.164
907.5496, 4155.467
908.0317, 4416.400
908.5139, 4671.988
908.9960, 4931.973
909.4781, 5195.344
909.9602, 5500.109
910.4423, 5876.729
910.9244, 6267.188
911.4066, 6596.861
911.8887, 6887.594
912.3708, 7184.164
912.8529, 7511.631
913.3350, 7830.864
913.8171, 8137.637
914.2993, 8428.635
914.7814, 8706.284
915.2635, 8973.544
915.7456, 9179.633
916.2277, 9312.083
916.7098, 9401.430
917.1920, 9496.728
917.6741, 9565.603
918.1562, 9561.646
918.6383, 9475.485
919.1204, 9315.446
919.6025, 9047.292
920.0847, 8731.881
920.5668, 8408.181
921.0489, 8077.311
921.5310, 7723.951
922.0131, 7348.398
922.4952, 6960.215
922.9774, 6542.730
923.4595, 6131.404
923.9416, 5799.719
924.4237, 5546.506
924.9058, 5258.033
925.3879, 4832.393
925.8701, 4417.948
926.3522, 4068.541
926.8343, 3779.588
927.3164, 3518.861
927.7985, 3288.187
928.2806, 3068.523
928.7628, 2847.527
929.2449, 2635.573
929.7270, 2448.073
930.2091, 2286.562
930.6912, 2148.992
931.1733, 2062.672
931.6555, 1969.617
932.1376, 1847.134
932.6197, 1711.584
933.1018, 1588.943
933.5839, 1479.519
934.0660, 1375.569
934.5482, 1275.122
935.0303, 1179.320
935.5124, 1077.663
935.9945, 982.4258
936.4766, 919.3506
936.9587, 904.9238
937.4409, 893.0537
937.9230, 876.1621
938.4051, 850.0908
938.8872, 811.6309
939.3693, 759.1299
939.8514, 695.6250
940.3336, 618.4355
940.8157, 554.9492
941.2978, 543.6445
941.7799, 551.3174
942.2620, 532.8428
942.7441, 486.2695
943.2263, 424.3926
943.7084, 309.6348
944.1905, 227.5400
944.6726, 225.4229
945.1547, 287.2520
945.6368, 306.2529
946.1190, 279.5986
946.6011, 246.6729
947.0832, 226.9072
947.5653, 210.5957
948.0474, 177.6055
948.5295, 138.0010
949.0117, 117.3232
949.4938, 140.6162
949.9759, 154.9824
950.4580, 153.4277
950.9401, 141.1729
951.4222, 123.4189
951.9044, 100.7285
952.3865, 74.00195
952.8686, 38.13770
953.3507, 11.85156
953.8328, 43.13379
954.3149, 90.37402
954.7971, 92.80273
955.2792, 17.85840
955.7613, 18.23730
956.2434, 39.47168
956.7255, 94.61816
957.2076, 79.96094
957.6898, 1.688477
958.1719, 43.41309
958.6540, 45.90039
959.1361, 33.28320
959.6182, 9.947266
960.1003, 11.20215
960.5825, 12.27734
961.0646, 2.041992
961.5467, 1.517578
962.0288, 37.61035
962.5109, 63.32617
962.9930, 59.17285
963.4752, 37.47461
963.9573, 28.35059
964.4394, 29.93164
964.9215, 29.54590
965.4036, 20.16211
965.8857, 13.33398
966.3679, 20.52734
966.8500, 34.89258
967.3321, 48.09180
967.8142, 67.85352
968.2963, 65.79590
968.7784, 29.32031
969.2606, 3.763672
969.7427, 21.72070
970.2248, 83.34668
970.7069, 94.03418
971.1890, 47.72363
971.6711, 5.275391
972.1533, 42.02637
972.6354, 65.68457
973.1175, 75.29102
973.5996, 71.31152
974.0817, 62.71387
974.5638, 46.46582
975.0460, 37.00879
975.5281, 45.12793
976.0102, 59.32617
976.4923, 53.93555
976.9744, 33.82324
977.4565, 13.21777
977.9387, 5.477539
978.4208, 19.18164
978.9029, 28.53320
979.3850, 31.19141
979.8671, 18.86816
980.3492, 15.07227
980.8314, 18.44531
981.3135, 21.32812
981.7956, 61.00781
982.2777, 40.81152
982.7598, 3.925781
983.2419, 17.51367
983.7241, 13.49316
984.2062, 30.22559
984.6883, 4.787109
985.1704, 38.06152
985.6525, 48.75684
986.1346, 37.27832
986.6168, 4.871094
987.0989, 76.01855
987.5810, 123.3516
988.0631, 100.1895
988.5452, 52.92871
989.0273, 15.99316
989.5095, 9.780273
989.9916, 21.76367
990.4737, 8.999023
990.9558, 1.506836
991.4379, 6.728516
991.9200, 8.185547
992.4022, 4.468750
992.8843, 1.699219
993.3664, 3.883789
993.8485, 26.07031
994.3306, 45.39746
994.8127, 47.81543
995.2949, 41.82617
995.7770, 33.00684
996.2591, 20.87891
996.7412, 14.44824
997.2233, 15.25391
997.7054, 16.32422
998.1876, 10.55273
998.6697, 3.243164
999.1518, 11.04199
999.6339, 29.07129
1000.116, 38.00000
1000.598, 15.05859
1001.080, 1.918945
1001.562, 5.937500
1002.044, 25.10938
1002.527, 28.52637
1003.009, 14.03906
1003.491, 17.36133
1003.973, 49.11426
1004.455, 81.89551
1004.937, 88.43652
1005.419, 76.09473
1005.901, 46.84277
1006.384, 10.86035
1006.866, 30.44922
1007.348, 19.81641
1007.830, 70.50195
1008.312, 81.34570
1008.794, 58.74609
1009.276, 28.82520
1009.758, 4.450195
1010.240, 9.668945
1010.723, 68.15625
1011.205, 143.6787
1011.687, 154.5381
1012.169, 121.9170
1012.651, 106.2109
1013.133, 111.9033
1013.615, 127.8896
1014.097, 157.7793
1014.580, 185.2754
1015.062, 182.5000
1015.544, 162.6221
1016.026, 148.3584
1016.508, 144.5566
1016.990, 150.8223
1017.472, 174.2549
1017.954, 200.9189
1018.436, 224.3721
1018.919, 244.2783
1019.401, 257.3447
1019.883, 263.9844
1020.365, 267.6787
1020.847, 259.4961
1021.329, 255.3262
1021.811, 280.4688
1022.293, 321.2227
1022.776, 343.7559
1023.258, 329.0615
1023.740, 316.3740
1024.222, 309.4023
1024.704, 305.7314
1025.186, 303.0654
1025.668, 300.9111
1026.150, 294.4727
1026.632, 281.8887
1027.115, 281.1973
1027.597, 324.8652
1028.079, 366.0371
1028.561, 361.3584
1029.043, 314.0957
1029.525, 323.8721
1030.007, 398.1689
1030.489, 453.8008
1030.972, 439.9746
1031.454, 402.6660
1031.936, 404.5996
1032.418, 432.8896
1032.900, 457.9971
1033.382, 473.5576
1033.864, 476.6738
1034.346, 459.5469
1034.828, 444.5039
1035.311, 456.0225
1035.793, 491.3877
1036.275, 539.9619
1036.757, 601.4482
1037.239, 650.4082
1037.721, 660.1270
1038.203, 657.7539
1038.685, 665.3887
1039.167, 682.8379
1039.650, 678.2500
1040.132, 639.4902
1040.614, 635.2051
1041.096, 701.4385
1041.578, 793.1855
1042.060, 829.5713
1042.542, 834.1035
1043.024, 851.9756
1043.507, 908.2646
1043.989, 960.6748
1044.471, 1002.122
1044.953, 1038.912
1045.435, 1079.328
1045.917, 1122.240
1046.399, 1153.584
1046.881, 1173.369
1047.364, 1189.093
1047.846, 1207.621
1048.328, 1225.772
1048.810, 1240.431
1049.292, 1252.054
1049.774, 1263.970
1050.256, 1274.474
1050.738, 1285.495
1051.220, 1302.523
1051.703, 1323.206
1052.185, 1353.323
1052.667, 1378.909
1053.149, 1371.634
1053.631, 1318.130
1054.113, 1269.053
1054.595, 1245.231
1055.077, 1221.132
1055.559, 1183.316
1056.042, 1133.337
1056.524, 1078.056
1057.006, 1020.025
1057.488, 972.9072
1057.970, 951.3574
1058.452, 933.5479
1058.934, 912.9092
1059.416, 885.3828
1059.899, 841.6543
1060.381, 776.3682
1060.863, 708.5127
1061.345, 638.5459
1061.827, 574.6924
1062.309, 523.8975
1062.791, 482.2725
1063.273, 441.7939
1063.755, 401.4834
1064.238, 376.1748
1064.720, 399.3584
1065.202, 406.3584
1065.684, 366.6006
1066.166, 300.2734
1066.648, 269.3291
1067.130, 266.9688
1067.612, 258.2705
1068.094, 232.1670
1068.577, 208.9883
1069.059, 197.2168
1069.541, 189.8730
1070.023, 179.1660
1070.505, 163.1602
1070.987, 156.4316
1071.469, 160.1553
1071.951, 160.5664
1072.434, 134.9502
1072.916, 110.4766
1073.398, 130.7637
1073.880, 181.2959
1074.362, 209.8438
1074.844, 198.8262
1075.326, 176.0518
1075.808, 142.0254
1076.291, 101.9766
1076.773, 54.24414
1077.255, 6.980469
1077.737, 11.85449
1078.219, 2.878906
1078.701, 22.99902
1079.183, 40.77832
1079.665, 53.45801
1080.147, 59.99805
1080.630, 60.81934
1081.112, 55.93652
1081.594, 45.69043
1082.076, 42.52539
1082.558, 51.88867
1083.040, 68.55469
1083.522, 104.3027
1084.004, 137.1523
1084.486, 133.3516
1084.969, 69.35254
1085.451, 26.62500
1085.933, 5.720703
1086.415, 4.812500
1086.897, 37.14355
1087.379, 81.28711
1087.861, 102.3301
1088.343, 101.4199
1088.826, 87.22461
1089.308, 43.43652
1089.790, 12.90527
1090.272, 4.749023
1090.754, 10.97266
1091.236, 24.94629
1091.718, 43.43945
1092.200, 48.52148
1092.682, 36.29688
1093.165, 25.64941
1093.647, 28.04395
1094.129, 36.29785
1094.611, 49.31543
1095.093, 64.98438
1095.575, 68.01660
1096.057, 58.23633
1096.539, 44.71680
1097.022, 22.49707
1097.504, 3.938477
1097.986, 2.428711
1098.468, 10.81152
1098.950, 19.75195
1099.432, 28.99219
1099.914, 35.34473
1100.396, 37.88281
1100.879, 40.06543
1101.361, 47.27539
1101.843, 54.45020
1102.325, 47.40137
1102.807, 30.76367
1103.289, 22.12793
1103.771, 44.75488
1104.253, 51.45508
1104.735, 25.24805
1105.218, 7.991211
1105.700, 4.102539
1106.182, 26.22949
1106.664, 22.14746
1107.146, 23.74902
1107.628, 49.04395
1108.110, 11.90039
1108.592, 76.64941
1109.074, 93.20801
1109.557, 75.26953
1110.039, 83.58594
1110.521, 118.8955
1111.003, 125.6592
1111.485, 79.09766
1111.967, 25.45020
1112.449, 4.119141
1112.931, 2.782227
1113.414, 11.79980
1113.896, 34.36328
1114.378, 40.25684
1114.860, 25.31738
1115.342, 11.66211
1115.824, 10.42383
1116.306, 22.58887
1116.788, 50.35254
1117.271, 82.68359
1117.753, 103.5137
1118.235, 101.4521
1118.717, 94.77832
1119.199, 84.37207
1119.681, 70.66211
1120.163, 42.88477
1120.645, 13.78125
1121.127, 33.15137
1121.609, 96.67676
1122.092, 144.1807
1122.574, 145.9668
1123.056, 123.1699
1123.538, 68.51074
1124.020, 6.681641
1124.502, 9.835938
1124.984, 14.33594
1125.466, 43.38184
1125.949, 72.19922
1126.431, 92.39355
1126.913, 95.73145
1127.395, 86.74512
1127.877, 62.22266
1128.359, 27.33691
1128.841, 13.43555
1129.323, 21.12500
1129.806, 41.29883
1130.288, 76.38477
1130.770, 110.0771
1131.252, 129.7939
1131.734, 136.1445
1132.216, 126.7598
1132.698, 94.20996
1133.180, 72.61523
1133.662, 61.04102
1134.145, 64.75977
1134.627, 98.01074
1135.109, 141.1182
1135.591, 169.0010
1136.073, 182.7822
1136.555, 179.3828
1137.037, 142.3018
1137.519, 108.5508
1138.001, 76.05273
1138.484, 56.23047
1138.966, 69.82617
1139.448, 103.2285
1139.930, 126.9131
1140.412, 138.9521
1140.894, 137.1016
1141.376, 106.6357
1141.858, 78.95605
1142.341, 57.86133
1142.823, 48.32129
1143.305, 64.64062
1143.787, 101.1104
1144.269, 139.3340
1144.751, 179.1738
1145.233, 190.3311
1145.715, 123.8203
1146.198, 55.65332
1146.680, 27.28711
1147.162, 31.56152
1147.644, 39.63086
1148.126, 50.86816
1148.608, 53.06250
1149.090, 35.27246
1149.572, 26.81055
1150.054, 67.00098
1150.536, 114.9023
1151.019, 130.0020
1151.501, 109.8330
1151.983, 101.1260
1152.465, 104.8770
1152.947, 94.87988
1153.429, 28.82812
1153.911, 25.62012
1154.393, 26.16016
1154.876, 125.2715
1155.358, 163.3740
1155.840, 104.2490
1156.322, 80.11719
1156.804, 98.70215
1157.286, 122.6982
1157.768, 123.4775
1158.250, 111.3252
1158.733, 92.36621
1159.215, 71.18359
1159.697, 63.20703
1160.179, 78.40625
1160.661, 87.82129
1161.143, 85.45410
1161.625, 84.62988
1162.107, 109.0781
1162.589, 141.4639
1163.072, 150.9707
1163.554, 137.2285
1164.036, 119.2861
1164.518, 95.07422
1165.000, 75.53906
1165.482, 63.46582
1165.964, 62.73828
1166.446, 71.30664
1166.928, 86.43164
1167.411, 103.8721
1167.893, 123.7812
1168.375, 139.8057
1168.857, 159.0459
1169.339, 161.0635
1169.821, 129.9160
1170.303, 81.31738
1170.785, 62.38184
1171.268, 65.91406
1171.750, 69.18750
1172.232, 69.89453
1172.714, 56.31445
1173.196, 4.315430
1173.678, 52.54492
1174.160, 45.35742
1174.642, 7.199219
1175.125, 39.69238
1175.607, 55.07031
1176.089, 67.84375
1176.571, 78.83398
1177.053, 97.17871
1177.535, 151.9121
1178.017, 196.1514
1178.499, 177.5254
1178.981, 96.56152
1179.464, 40.20801
1179.946, 9.269531
1180.428, 0.1562500
1180.910, 25.24121
1181.392, 54.07520
1181.874, 79.45020
1182.356, 91.85742
1182.838, 72.38770
1183.320, 18.61133
1183.803, 15.53809
1184.285, 26.00879
1184.767, 15.23438
1185.249, 32.37207
1185.731, 84.09570
1186.213, 119.6270
1186.695, 140.2041
1187.177, 150.8516
1187.660, 151.4131
1188.142, 144.6670
1188.624, 130.6689
1189.106, 111.1406
1189.588, 78.67773
1190.070, 48.78125
1190.552, 34.60156
1191.034, 35.45898
1191.516, 42.86719
1191.999, 57.85938
1192.481, 69.30566
1192.963, 72.00000
1193.445, 80.24707
1193.927, 128.4424
1194.409, 175.7803
1194.891, 173.5215
1195.373, 117.8398
1195.855, 72.63281
1196.338, 35.12695
1196.820, 34.96484
1197.302, 101.8369
1197.784, 170.1699
1198.266, 161.8086
1198.748, 116.7842
1199.230, 80.56738
1199.712, 55.37695
1200.195, 64.96582
1200.677, 115.6602
1201.159, 156.9521
1201.641, 162.7314
1202.123, 143.8613
1202.605, 82.50781
1203.087, 15.86133
1203.569, 11.14062
1204.052, 111.3311
1204.534, 156.3496
1205.016, 140.3047
1205.498, 108.3926
1205.980, 86.21875
1206.462, 66.54199
1206.944, 27.68750
1207.426, 12.95410
1207.908, 8.470703
1208.391, 71.69824
1208.873, 112.7617
1209.355, 105.9131
1209.837, 84.00195
1210.319, 65.12793
1210.801, 54.07324
1211.283, 58.78418
1211.765, 74.62012
1212.247, 97.09570
1212.730, 132.8818
1213.212, 138.3750
1213.694, 101.8096
1214.176, 68.97363
1214.658, 106.4863
1215.140, 155.8486
1215.622, 138.2793
1216.104, 64.77832
1216.587, 24.09766
1217.069, 28.57324
1217.551, 42.40918
1218.033, 62.32129
1218.515, 79.43359
1218.997, 77.00391
1219.479, 70.90332
1219.961, 85.41211
1220.443, 118.9893
1220.926, 125.9297
1221.408, 95.37207
1221.890, 75.87402
1222.372, 79.80566
1222.854, 94.47461
1223.336, 120.1162
1223.818, 138.1367
1224.300, 117.0752
1224.782, 52.02246
1225.265, 25.50098
1225.747, 45.02734
1226.229, 69.57129
1226.711, 87.30957
1227.193, 99.00000
1227.675, 103.4619
1228.157, 103.3330
1228.639, 98.05664
1229.122, 86.18848
1229.604, 100.2520
1230.086, 147.5146
1230.568, 170.5586
1231.050, 136.9658
1231.532, 88.30566
1232.014, 73.64746
1232.496, 80.91797
1232.979, 90.62402
1233.461, 101.7891
1233.943, 109.0137
1234.425, 113.3799
1234.907, 99.79883
1235.389, 44.35254
1235.871, 4.931641
1236.353, 9.564453
1236.835, 52.65918
1237.318, 77.83789
1237.800, 80.64844
1238.282, 85.73145
1238.764, 94.00781
1239.246, 95.84277
1239.728, 84.16211
1240.210, 62.69336
1240.692, 32.24609
1241.175, 5.404297
1241.657, 0.1533200
1242.139, 20.76270
1242.621, 35.36816
1243.103, 44.12109
1243.585, 48.26367
1244.067, 49.37402
1244.549, 46.10840
1245.031, 29.85938
1245.514, 13.27930
1245.996, 15.32520
1246.478, 38.32812
1246.960, 47.30957
1247.442, 42.60742
1247.924, 45.85449
1248.406, 88.62988
1248.888, 123.4912
1249.370, 119.5215
1249.853, 93.80859
1250.335, 63.96094
1250.817, 30.61914
1251.299, 21.55957
1251.781, 35.20801
1252.263, 53.43262
1252.745, 81.49805
1253.227, 90.08008
1253.710, 45.30078
1254.192, 8.444336
1254.674, 8.221680
1255.156, 36.62891
1255.638, 54.37793
1256.120, 43.70410
1256.602, 42.38184
1257.084, 100.7988
1257.567, 132.4258
1258.049, 96.80078
1258.531, 39.91309
1259.013, 27.23145
1259.495, 47.55957
1259.977, 63.10547
1260.459, 70.65820
1260.941, 71.64062
1261.423, 68.18555
1261.906, 53.79785
1262.388, 19.64746
1262.870, 13.15625
1263.352, 5.705078
1263.834, 24.19824
1264.316, 31.01270
1264.798, 13.27832
1265.280, 9.352539
1265.762, 44.39746
1266.245, 71.03027
1266.727, 81.98535
1267.209, 85.05176
1267.691, 94.95020
1268.173, 103.7266
1268.655, 95.85547
1269.137, 71.00391
1269.619, 46.70215
1270.102, 18.09277
1270.584, 8.903320
1271.066, 27.43457
1271.548, 55.06348
1272.030, 63.89453
1272.512, 69.90430
1272.994, 102.6406
1273.476, 158.6221
1273.958, 166.9131
1274.441, 113.2021
1274.923, 76.04004
1275.405, 71.74707
1275.887, 83.16113
1276.369, 94.24316
1276.851, 99.21289
1277.333, 86.00879
1277.815, 59.58105
1278.297, 51.71484
1278.780, 63.23730
1279.262, 79.50391
1279.744, 95.64746
1280.226, 103.0000
1280.708, 65.10547
1281.190, 27.06641
1281.672, 28.37793
1282.154, 54.49023
1282.637, 47.13281
1283.119, 11.24023
1283.601, 7.388672
1284.083, 1.173828
1284.565, 28.18262
1285.047, 104.1895
1285.529, 154.8926
1286.011, 136.5283
1286.494, 76.16504
1286.976, 49.27344
1287.458, 46.83203
1287.940, 34.18848
1288.422, 5.8590001E-03
1288.904, 7.376953
1289.386, 64.30859
1289.868, 113.7197
1290.350, 116.3633
1290.833, 89.74414
1291.315, 62.83301
1291.797, 40.47949
1292.279, 26.62012
1292.761, 15.68750
1293.243, 43.03613
1293.725, 120.5215
1294.207, 152.8164
1294.689, 100.6738
1295.172, 23.11719
1295.654, 0.0000000E+00
##END=



