##NAMES=Pyrope
##RRUFFID=R050446
##IDEAL CHEMISTRY=Mg_3_Al_2_(SiO_4_)_3_
##LOCALITY=Sunset Crater, Arizona, USA
##OWNER=RRUFF
##SOURCE=Marcus Origlieri
##DESCRIPTION=Red fragment
##STATUS=The identification of this mineral has been confirmed by X-ray diffraction and chemical analysis
##URL=rruff.info/R050446
##MEASURED CHEMISTRY=(Mg_1.93_Fe^2+^_0.65_Ca_0.42_)_Î£=3_Al_2.00_(Si_1.00_O_4_)_3_
106.3182, 0.0000000E+00
106.8004, 0.4224660
107.2825, 0.6534690
107.7646, 0.8996850
108.2467, 0.4937480
108.7288, 5.8327001E-02
109.2109, 0.1281590
109.6931, 1.354076
110.1752, 2.228275
110.6573, 1.924290
111.1394, 0.7980730
111.6215, 0.1401250
112.1036, 3.5580002E-02
112.5858, 1.528412
113.0679, 2.734028
113.5500, 3.695137
114.0321, 4.380863
114.5142, 4.649025
114.9964, 4.477840
115.4785, 4.224617
115.9606, 4.384247
116.4427, 4.929096
116.9248, 5.262104
117.4069, 4.978359
117.8891, 4.403580
118.3712, 4.271221
118.8533, 4.939510
119.3354, 5.749004
119.8175, 6.002674
120.2996, 5.758152
120.7818, 5.556458
121.2639, 5.863304
121.7460, 6.698334
122.2281, 7.434074
122.7102, 8.107292
123.1923, 8.495083
123.6745, 8.295902
124.1566, 7.495094
124.6387, 6.548115
125.1208, 6.152225
125.6029, 6.675800
126.0850, 6.992081
126.5672, 6.814709
127.0493, 6.535400
127.5314, 6.505466
128.0135, 6.859360
128.4956, 7.436382
128.9777, 7.787968
129.4599, 7.653088
129.9420, 7.564632
130.4241, 7.619812
130.9062, 7.736092
131.3883, 7.796364
131.8705, 7.715904
132.3526, 7.540203
132.8347, 7.396843
133.3168, 7.108311
133.7989, 7.040623
134.2810, 7.375824
134.7632, 7.993164
135.2453, 8.727318
135.7274, 9.566792
136.2095, 10.26133
136.6916, 10.76654
137.1737, 11.24228
137.6559, 11.54812
138.1380, 12.09491
138.6201, 13.21708
139.1022, 14.23196
139.5843, 14.31792
140.0664, 14.01043
140.5486, 13.94971
141.0307, 14.22044
141.5128, 14.75231
141.9949, 15.08639
142.4770, 15.23486
142.9591, 15.14579
143.4413, 14.64451
143.9234, 13.93021
144.4055, 13.36789
144.8876, 13.27966
145.3697, 13.66954
145.8518, 13.85452
146.3340, 13.61965
146.8161, 13.35321
147.2982, 13.19176
147.7803, 13.10917
148.2624, 12.99968
148.7445, 12.76624
149.2267, 12.41836
149.7088, 11.88056
150.1909, 10.86621
150.6730, 9.927200
151.1551, 9.465126
151.6372, 9.488110
152.1194, 9.630882
152.6015, 9.441711
153.0836, 8.766823
153.5657, 8.112453
154.0478, 7.511139
154.5299, 6.914013
155.0121, 6.219231
155.4942, 5.387875
155.9763, 4.607784
156.4584, 4.274933
156.9405, 4.440727
157.4227, 4.428772
157.9048, 3.831470
158.3869, 2.937824
158.8690, 2.429230
159.3511, 2.668507
159.8332, 3.047016
160.3154, 2.760731
160.7975, 1.797615
161.2796, 0.8323630
161.7617, 0.3064540
162.2438, 0.1879270
162.7259, 9.7576000E-02
163.2081, 4.9549998E-03
163.6902, 0.1502340
164.1723, 0.3513260
164.6544, 0.6783140
165.1365, 0.9420430
165.6186, 0.8258060
166.1008, 0.1599960
166.5829, 0.1134070
167.0650, 0.6802410
167.5471, 1.554577
168.0292, 1.856125
168.5113, 1.431721
168.9935, 0.6564640
169.4756, 0.1517450
169.9577, 1.0601000E-02
170.4398, 5.9158001E-02
170.9219, 8.2291000E-02
171.4040, 0.1926310
171.8862, 2.9526001E-02
172.3683, 0.6765560
172.8504, 1.471565
173.3325, 1.748116
173.8146, 0.5437010
174.2967, 3.5973001E-02
174.7789, 0.4099200
175.2610, 1.392021
175.7431, 2.351864
176.2252, 3.044510
176.7073, 3.565887
177.1894, 4.231171
177.6716, 5.177868
178.1537, 6.084446
178.6358, 6.948677
179.1179, 7.732349
179.6000, 8.327469
180.0821, 8.615654
180.5643, 8.762772
181.0464, 9.297710
181.5285, 10.50976
182.0106, 11.62665
182.4927, 12.06313
182.9749, 12.00379
183.4570, 12.33353
183.9391, 13.70256
184.4212, 15.60215
184.9033, 16.86615
185.3854, 17.16991
185.8676, 17.34711
186.3497, 18.18866
186.8318, 19.71901
187.3139, 21.05721
187.7960, 21.72137
188.2781, 22.00374
188.7603, 22.15134
189.2424, 22.13968
189.7245, 22.16558
190.2066, 22.50838
190.6887, 23.23771
191.1708, 24.04157
191.6530, 24.76529
192.1351, 25.52755
192.6172, 26.47231
193.0993, 27.66892
193.5814, 28.97674
194.0635, 30.10519
194.5457, 30.99506
195.0278, 31.80333
195.5099, 32.46883
195.9920, 33.12630
196.4741, 33.96413
196.9562, 35.08025
197.4384, 36.30278
197.9205, 37.10952
198.4026, 36.95485
198.8847, 37.12113
199.3668, 37.97575
199.8489, 39.14552
200.3311, 40.21831
200.8132, 40.98566
201.2953, 41.51750
201.7774, 42.08099
202.2595, 42.82482
202.7416, 43.43320
203.2238, 43.85591
203.7059, 44.13034
204.1880, 44.30102
204.6701, 44.38451
205.1522, 44.40121
205.6344, 44.44085
206.1165, 44.30439
206.5986, 44.40964
207.0807, 45.21206
207.5628, 46.30073
208.0449, 46.88101
208.5271, 46.49273
209.0092, 45.35712
209.4913, 44.38104
209.9734, 43.58748
210.4555, 42.88228
210.9376, 42.32566
211.4198, 41.84843
211.9019, 41.23933
212.3840, 40.35155
212.8661, 39.28074
213.3482, 38.36505
213.8303, 37.65737
214.3125, 37.00506
214.7946, 36.42538
215.2767, 35.87621
215.7588, 35.11361
216.2409, 33.88266
216.7230, 32.47111
217.2052, 31.40089
217.6873, 30.79018
218.1694, 30.29177
218.6515, 29.74821
219.1336, 29.12920
219.6157, 28.21460
220.0979, 26.64517
220.5800, 24.92427
221.0621, 23.62557
221.5442, 22.85839
222.0263, 22.23954
222.5084, 21.41544
222.9906, 20.38047
223.4727, 19.37135
223.9548, 18.48677
224.4369, 17.66181
224.9190, 16.76668
225.4011, 15.76532
225.8833, 14.82864
226.3654, 14.22686
226.8475, 14.07836
227.3296, 13.83726
227.8117, 13.18405
228.2938, 12.49068
228.7760, 11.99794
229.2581, 11.74626
229.7402, 11.59828
230.2223, 11.34035
230.7044, 10.95932
231.1866, 10.48611
231.6687, 9.604248
232.1508, 8.739262
232.6329, 8.254379
233.1150, 8.208126
233.5971, 8.377995
234.0793, 8.485855
234.5614, 8.546837
235.0435, 8.486294
235.5256, 8.186207
236.0077, 7.867683
236.4898, 7.665562
236.9720, 7.603939
237.4541, 7.621597
237.9362, 7.655888
238.4183, 7.782543
238.9004, 7.722355
239.3825, 7.332878
239.8647, 6.909298
240.3468, 6.600574
240.8289, 6.440811
241.3110, 6.376553
241.7931, 6.338432
242.2752, 6.320080
242.7574, 6.357704
243.2395, 6.446186
243.7216, 6.583588
244.2037, 6.784851
244.6858, 7.043285
245.1679, 7.338352
245.6501, 7.683933
246.1322, 8.175358
246.6143, 8.225071
247.0964, 7.499222
247.5785, 6.633694
248.0606, 6.020138
248.5428, 5.701458
249.0249, 5.520855
249.5070, 5.337395
249.9891, 5.147640
250.4712, 4.996838
250.9533, 4.929108
251.4355, 4.864014
251.9176, 4.713348
252.3997, 4.487991
252.8818, 4.327450
253.3639, 4.407505
253.8460, 4.718021
254.3282, 4.690990
254.8103, 3.912102
255.2924, 3.130173
255.7745, 2.996464
256.2566, 3.460636
256.7387, 3.814789
257.2209, 3.439247
257.7030, 2.496952
258.1851, 2.110397
258.6672, 2.823742
259.1493, 3.651588
259.6314, 3.838234
260.1136, 3.446304
260.5957, 3.124615
261.0778, 3.327831
261.5599, 3.861675
262.0420, 4.094921
262.5241, 3.917702
263.0063, 3.563507
263.4884, 3.097382
263.9705, 2.543560
264.4526, 2.125912
264.9347, 2.012352
265.4168, 2.069080
265.8990, 2.016869
266.3811, 1.807064
266.8632, 1.585781
267.3453, 1.531620
267.8275, 1.605450
268.3096, 1.448135
268.7917, 0.6938060
269.2738, 0.1311840
269.7559, 0.2886580
270.2380, 0.3450320
270.7202, 1.030727
271.2023, 1.256229
271.6844, 1.076290
272.1665, 0.8448520
272.6486, 0.5725780
273.1307, 0.3696480
273.6129, 0.3869670
274.0950, 0.6211660
274.5771, 0.7810780
275.0592, 0.5739520
275.5413, 8.3462000E-02
276.0234, 0.1762120
276.5056, 1.9257000E-02
276.9877, 0.2688480
277.4698, 0.2226980
277.9519, 6.3786000E-02
278.4340, 0.3095860
278.9161, 0.2586590
279.3983, 3.1470000E-03
279.8804, 2.4212001E-02
280.3625, 0.3099820
280.8446, 0.7133030
281.3267, 1.060062
281.8088, 1.335987
282.2910, 1.502323
282.7731, 1.492893
283.2552, 1.358437
283.7373, 1.275803
284.2194, 1.292267
284.7015, 1.270626
285.1837, 1.235825
285.6658, 1.112915
286.1479, 0.7150190
286.6300, 0.2315670
287.1121, 1.316254
287.5942, 1.459301
288.0764, 0.1471750
288.5585, 0.8972510
289.0406, 0.9259380
289.5227, 0.4380110
290.0048, 0.1153030
290.4869, 0.6035000
290.9691, 1.008976
291.4512, 1.320621
291.9333, 1.563152
292.4154, 1.626266
292.8975, 1.195930
293.3796, 0.7454610
293.8618, 0.7377280
294.3439, 1.288651
294.8260, 1.922634
295.3081, 1.974419
295.7902, 1.309498
296.2723, 0.7030830
296.7545, 1.0265000E-02
297.2366, 0.4143070
297.7187, 0.1343540
298.2008, 0.8097840
298.6829, 1.986050
299.1650, 3.068981
299.6472, 4.099327
300.1293, 4.667953
300.6114, 4.243977
301.0935, 3.775246
301.5756, 3.601032
302.0577, 3.737980
302.5399, 4.112114
303.0220, 4.783154
303.5041, 5.723030
303.9862, 6.286533
304.4683, 6.080078
304.9504, 5.938236
305.4326, 6.157055
305.9147, 6.654644
306.3968, 7.266171
306.8789, 7.909088
307.3610, 8.579998
307.8431, 9.252762
308.3253, 9.930725
308.8074, 10.60651
309.2895, 11.30215
309.7716, 11.98919
310.2537, 12.58963
310.7358, 13.05241
311.2180, 13.50800
311.7001, 14.27440
312.1822, 15.54147
312.6643, 16.71478
313.1464, 17.74960
313.6285, 18.62247
314.1107, 19.24947
314.5928, 19.61884
315.0749, 19.92694
315.5570, 20.50241
316.0392, 21.47787
316.5213, 22.22965
317.0034, 22.65524
317.4855, 22.87572
317.9676, 22.85661
318.4497, 22.64306
318.9319, 22.41848
319.4140, 22.44564
319.8961, 22.78461
320.3782, 22.78597
320.8603, 22.14884
321.3424, 21.43036
321.8246, 20.72592
322.3067, 20.10456
322.7888, 19.66091
323.2709, 19.44079
323.7530, 19.45805
324.2351, 19.88394
324.7173, 21.28040
325.1994, 22.28411
325.6815, 22.30761
326.1636, 21.77343
326.6457, 21.21384
327.1278, 20.83427
327.6100, 20.69970
328.0921, 21.04932
328.5742, 22.13785
329.0563, 23.13087
329.5384, 23.72219
330.0205, 24.20668
330.5027, 24.83350
330.9848, 25.67678
331.4669, 26.63383
331.9490, 27.53131
332.4311, 28.30822
332.9132, 29.29606
333.3954, 30.67574
333.8775, 32.18846
334.3596, 33.72946
334.8417, 35.28089
335.3238, 36.86686
335.8059, 38.45404
336.2881, 40.03722
336.7702, 41.85318
337.2523, 44.14333
337.7344, 46.41598
338.2165, 48.32533
338.6986, 50.02541
339.1808, 51.92282
339.6629, 54.32048
340.1450, 57.09772
340.6271, 59.80753
341.1092, 62.40363
341.5913, 65.02477
342.0735, 67.60429
342.5556, 70.27251
343.0377, 73.20605
343.5198, 76.48617
344.0019, 80.04073
344.4840, 83.71987
344.9662, 87.51326
345.4483, 91.44654
345.9304, 95.53975
346.4125, 99.76400
346.8946, 104.0934
347.3767, 108.5696
347.8589, 113.3374
348.3410, 118.5267
348.8231, 124.1522
349.3052, 130.0091
349.7873, 136.1220
350.2694, 142.4690
350.7516, 148.8810
351.2337, 155.4397
351.7158, 162.3597
352.1979, 169.8194
352.6800, 177.7787
353.1621, 186.1148
353.6443, 194.9838
354.1264, 203.8671
354.6085, 212.4140
355.0906, 220.7936
355.5727, 229.2614
356.0548, 238.0459
356.5370, 246.7685
357.0191, 255.2283
357.5012, 263.4745
357.9833, 270.4424
358.4654, 275.4090
358.9475, 278.8769
359.4297, 281.5232
359.9118, 283.4648
360.3939, 284.3120
360.8760, 283.8529
361.3581, 282.0808
361.8402, 278.9269
362.3224, 274.3771
362.8045, 268.4005
363.2866, 260.8384
363.7687, 251.8218
364.2508, 242.1190
364.7329, 231.4713
365.2151, 220.4661
365.6972, 210.0466
366.1793, 200.2675
366.6614, 191.0191
367.1436, 182.4000
367.6257, 174.2265
368.1078, 166.0147
368.5899, 157.1790
369.0720, 148.6855
369.5541, 141.4687
370.0363, 135.3826
370.5184, 129.6025
371.0005, 123.7641
371.4826, 118.0035
371.9647, 112.5825
372.4468, 107.5655
372.9290, 102.7349
373.4111, 98.06605
373.8932, 93.51384
374.3753, 89.04530
374.8574, 84.63333
375.3395, 80.41594
375.8217, 76.59293
376.3038, 73.17917
376.7859, 70.15176
377.2680, 67.90077
377.7501, 65.80557
378.2322, 63.23626
378.7144, 60.20013
379.1965, 57.19070
379.6786, 54.55936
380.1607, 52.29270
380.6428, 50.03629
381.1249, 47.73391
381.6071, 45.52720
382.0892, 43.47481
382.5713, 41.54071
383.0534, 39.62508
383.5355, 37.66447
384.0176, 35.79712
384.4998, 34.31406
384.9819, 33.63332
385.4640, 32.64015
385.9461, 30.99380
386.4282, 29.20815
386.9103, 27.72621
387.3925, 26.61563
387.8746, 25.66913
388.3567, 24.69653
388.8388, 23.70518
389.3209, 22.70303
389.8030, 21.60646
390.2852, 20.56823
390.7673, 19.65398
391.2494, 18.83732
391.7315, 18.06410
392.2136, 17.30481
392.6957, 16.54843
393.1779, 15.77880
393.6600, 14.94154
394.1421, 14.18488
394.6242, 13.56568
395.1063, 12.99494
395.5884, 12.36270
396.0706, 11.65680
396.5527, 11.01776
397.0348, 10.70000
397.5169, 10.87200
397.9990, 10.69791
398.4811, 9.842415
398.9633, 8.948929
399.4454, 8.234200
399.9275, 7.693142
400.4096, 7.227524
400.8917, 6.760117
401.3738, 6.325508
401.8560, 6.123314
402.3381, 6.402760
402.8202, 6.430809
403.3023, 5.700710
403.7844, 4.773685
404.2665, 4.230038
404.7487, 4.248592
405.2308, 4.562614
405.7129, 4.968666
406.1950, 5.490658
406.6771, 5.703762
407.1592, 5.484446
407.6414, 4.953157
408.1235, 3.976318
408.6056, 2.690096
409.0877, 1.776733
409.5698, 1.897629
410.0519, 2.631502
410.5341, 2.967690
411.0162, 2.804457
411.4983, 2.542200
411.9804, 2.418522
412.4625, 2.354080
412.9446, 2.216665
413.4268, 1.962542
413.9089, 1.670082
414.3910, 1.387730
414.8731, 1.117380
415.3553, 0.8579060
415.8374, 0.5875190
416.3195, 0.3649250
416.8016, 0.3112580
417.2837, 0.4330580
417.7658, 0.5204280
418.2480, 0.5442850
418.7301, 0.4912430
419.2122, 0.2503680
419.6943, 0.1696280
420.1764, 0.4179360
420.6585, 0.1381800
421.1407, 0.5980430
421.6228, 0.9446320
422.1049, 0.7817380
422.5870, 0.4107820
423.0691, 0.2533130
423.5512, 1.010214
424.0334, 1.478264
424.5155, 1.494804
424.9976, 1.271120
425.4797, 1.201740
425.9618, 1.430424
426.4439, 1.524126
426.9261, 1.424967
427.4082, 1.241991
427.8903, 1.012138
428.3724, 0.7623370
428.8545, 0.5483570
429.3366, 0.4214320
429.8188, 0.3756220
430.3009, 0.2944110
430.7830, 5.1390000E-02
431.2651, 8.3962999E-02
431.7472, 6.2719002E-02
432.2293, 0.2896900
432.7115, 0.3051010
433.1936, 8.8839997E-03
433.6757, 0.3600030
434.1578, 0.3563900
434.6399, 0.1850550
435.1220, 0.5129830
435.6042, 0.3965870
436.0863, 0.1991040
436.5684, 4.5047998E-02
437.0505, 4.5924999E-02
437.5326, 7.2075002E-02
438.0147, 1.2758000E-02
438.4969, 0.1073040
438.9790, 0.2025720
439.4611, 0.2711600
439.9432, 0.3191640
440.4253, 0.2936080
440.9074, 0.2742290
441.3896, 0.3735870
441.8717, 0.6378330
442.3538, 0.8904040
442.8359, 0.9690970
443.3180, 0.8944870
443.8001, 0.7774450
444.2823, 0.6221100
444.7644, 0.4583150
445.2465, 0.2804220
445.7286, 0.1025390
446.2107, 2.5593000E-02
446.6928, 0.2005770
447.1750, 0.4057180
447.6571, 0.3730530
448.1392, 0.1254200
448.6213, 7.6779999E-02
449.1034, 7.5801998E-02
449.5855, 4.3703001E-02
450.0677, 3.4061000E-02
450.5498, 0.1807770
451.0319, 0.3395020
451.5140, 0.2841280
451.9961, 0.1787260
452.4782, 0.2944890
452.9604, 0.6600440
453.4425, 0.9564250
453.9246, 0.8107950
454.4067, 0.1480560
454.8888, 0.1465890
455.3709, 0.1226200
455.8531, 0.4759860
456.3352, 0.8057460
456.8173, 1.087688
457.2994, 1.266352
457.7815, 1.313457
458.2636, 1.358274
458.7458, 1.715107
459.2279, 2.679939
459.7100, 3.332521
460.1921, 3.567774
460.6742, 3.595985
461.1563, 3.354076
461.6385, 2.977940
462.1206, 2.860334
462.6027, 3.424473
463.0848, 4.473248
463.5669, 4.932676
464.0491, 4.506472
464.5312, 4.080038
465.0133, 3.872221
465.4954, 3.851900
465.9775, 4.049751
466.4597, 4.489435
466.9418, 4.940897
467.4239, 5.125782
467.9060, 5.101009
468.3881, 5.280941
468.8702, 5.812933
469.3524, 6.389269
469.8345, 6.690687
470.3166, 6.818003
470.7987, 7.063692
471.2808, 7.712317
471.7629, 8.345165
472.2451, 8.469929
472.7272, 8.196262
473.2093, 8.094511
473.6914, 8.423950
474.1735, 9.001396
474.6556, 9.463013
475.1378, 9.707708
475.6199, 10.20438
476.1020, 11.32319
476.5841, 12.51575
477.0662, 13.29554
477.5483, 13.62207
478.0305, 13.69979
478.5126, 13.62766
478.9947, 13.50854
479.4768, 14.10966
479.9589, 16.29643
480.4410, 18.14354
480.9232, 19.25339
481.4053, 19.93339
481.8874, 20.39872
482.3695, 20.78971
482.8516, 21.35200
483.3337, 22.44108
483.8159, 24.13730
484.2980, 25.50948
484.7801, 26.51352
485.2622, 27.23810
485.7443, 27.73396
486.2264, 27.97659
486.7086, 27.90131
487.1907, 27.45396
487.6728, 26.75038
488.1549, 25.92269
488.6370, 24.97445
489.1191, 24.00161
489.6013, 22.92373
490.0834, 21.90339
490.5655, 21.22902
491.0476, 20.83812
491.5297, 20.16372
492.0118, 18.55203
492.4940, 16.72202
492.9761, 15.66482
493.4582, 15.40126
493.9403, 15.42283
494.4224, 15.52006
494.9045, 15.68179
495.3867, 15.86640
495.8688, 15.98955
496.3509, 16.30401
496.8330, 16.82414
497.3151, 17.59562
497.7972, 18.74038
498.2794, 20.23331
498.7615, 21.81822
499.2436, 23.24072
499.7257, 24.51026
500.2078, 26.10963
500.6899, 28.24191
501.1721, 30.49821
501.6542, 32.85612
502.1363, 35.28987
502.6184, 37.74089
503.1005, 40.21363
503.5826, 42.86127
504.0648, 45.96254
504.5469, 49.58611
505.0290, 52.80866
505.5111, 55.72939
505.9932, 58.13923
506.4753, 60.04723
506.9575, 61.38708
507.4396, 62.08110
507.9217, 62.11909
508.4038, 61.47868
508.8859, 60.09476
509.3680, 57.96716
509.8502, 55.14983
510.3323, 51.36322
510.8144, 47.34799
511.2965, 43.78074
511.7786, 40.61272
512.2607, 37.53101
512.7429, 34.25110
513.2250, 31.21104
513.7071, 28.86760
514.1892, 27.09554
514.6713, 25.26656
515.1534, 23.03935
515.6356, 20.76156
516.1177, 19.13055
516.5998, 18.39671
517.0819, 17.76498
517.5640, 17.44304
518.0461, 17.03139
518.5283, 16.07683
519.0104, 14.75416
519.4925, 13.69712
519.9746, 13.35566
520.4567, 13.49699
520.9388, 13.21850
521.4210, 12.12522
521.9031, 11.35474
522.3852, 11.14019
522.8673, 11.17050
523.3494, 11.25888
523.8315, 11.37903
524.3137, 11.58418
524.7958, 12.03835
525.2779, 12.59274
525.7600, 12.62228
526.2421, 11.95074
526.7242, 11.42006
527.2064, 11.52357
527.6885, 11.91016
528.1706, 12.11502
528.6527, 12.06297
529.1348, 12.07413
529.6169, 12.42092
530.0991, 12.89822
530.5812, 13.08473
531.0633, 12.93716
531.5454, 12.92388
532.0275, 13.42643
532.5096, 14.36174
532.9918, 15.13997
533.4739, 15.78083
533.9560, 16.26580
534.4381, 16.39940
534.9202, 16.47662
535.4023, 16.81768
535.8845, 17.47736
536.3666, 18.31504
536.8487, 19.19497
537.3308, 20.11854
537.8129, 21.07875
538.2951, 21.98941
538.7772, 23.06560
539.2593, 24.37777
539.7415, 25.85576
540.2236, 27.39580
540.7057, 28.97403
541.1878, 30.73992
541.6699, 33.06351
542.1520, 35.78396
542.6342, 37.77207
543.1163, 38.63343
543.5984, 39.57293
544.0805, 41.34328
544.5626, 43.69866
545.0447, 46.27809
545.5269, 49.13076
546.0090, 52.05679
546.4911, 54.95908
546.9732, 57.84765
547.4553, 60.60993
547.9374, 63.22119
548.4196, 66.06782
548.9017, 69.54858
549.3838, 73.70531
549.8659, 78.19706
550.3480, 83.16524
550.8301, 88.18541
551.3123, 93.05354
551.7944, 97.96413
552.2765, 103.1162
552.7586, 108.5599
553.2407, 114.2826
553.7228, 120.2698
554.2050, 126.5220
554.6871, 132.9516
555.1692, 139.7249
555.6513, 146.3811
556.1334, 152.9870
556.6155, 159.2885
557.0977, 165.1877
557.5798, 170.7516
558.0619, 175.1484
558.5440, 177.7424
559.0261, 178.6001
559.5082, 177.8200
559.9904, 175.3333
560.4725, 171.2426
560.9546, 165.4058
561.4367, 157.9071
561.9188, 149.6915
562.4009, 140.3525
562.8831, 130.8635
563.3652, 121.3745
563.8473, 111.9993
564.3294, 102.7654
564.8115, 93.72074
565.2936, 85.13196
565.7758, 77.28445
566.2579, 70.15036
566.7400, 63.46173
567.2221, 57.09290
567.7042, 51.37387
568.1863, 46.53553
568.6685, 42.29451
569.1506, 38.43803
569.6327, 34.91914
570.1148, 31.72039
570.5969, 28.96099
571.0790, 26.56437
571.5612, 24.00016
572.0433, 21.06745
572.5254, 18.52362
573.0075, 16.92220
573.4896, 15.89458
573.9717, 14.89472
574.4539, 13.89336
574.9360, 12.91158
575.4181, 11.88710
575.9002, 10.92150
576.3823, 10.22626
576.8644, 9.793425
577.3466, 9.327372
577.8287, 8.604980
578.3108, 7.686611
578.7929, 6.869116
579.2750, 6.175846
579.7571, 5.557186
580.2393, 4.950020
580.7214, 4.465385
581.2035, 4.214430
581.6856, 4.182060
582.1677, 4.249819
582.6498, 4.328308
583.1320, 4.441282
583.6141, 4.695349
584.0962, 5.147409
584.5783, 5.552811
585.0604, 5.946907
585.5425, 6.178820
586.0247, 6.086210
586.5068, 5.684252
586.9889, 5.204872
587.4710, 4.608189
587.9531, 4.078640
588.4352, 3.820757
588.9174, 3.827787
589.3995, 4.094728
589.8816, 4.692217
590.3637, 5.333948
590.8458, 5.513111
591.3279, 5.043726
591.8101, 4.599922
592.2922, 4.190334
592.7743, 3.796225
593.2564, 3.440777
593.7385, 3.088829
594.2206, 2.658049
594.7028, 2.111828
595.1849, 1.546339
595.6670, 1.135178
596.1491, 0.8972990
596.6312, 0.6759400
597.1133, 0.4727120
597.5955, 0.2659380
598.0776, 2.5448000E-02
598.5597, 0.3172020
599.0418, 0.4145240
599.5239, 0.1606010
600.0060, 5.3610001E-02
600.4882, 0.1850070
600.9703, 0.6891440
601.4524, 0.9700390
601.9345, 0.9258940
602.4166, 0.8437770
602.8987, 0.9876750
603.3809, 1.335415
603.8630, 1.542540
604.3451, 1.657183
604.8272, 1.593870
605.3093, 1.087570
605.7914, 0.5495410
606.2736, 0.4822080
606.7557, 0.8730140
607.2378, 1.220253
607.7199, 1.086359
608.2020, 0.5586760
608.6841, 1.0489000E-02
609.1663, 0.6803700
609.6484, 1.036121
610.1305, 0.6635420
610.6126, 6.7703001E-02
611.0947, 0.3917410
611.5768, 0.6900220
612.0590, 0.7862150
612.5411, 0.5110490
613.0232, 0.1318610
613.5053, 5.7567999E-02
613.9874, 7.5464003E-02
614.4695, 6.8727002E-02
614.9517, 0.1102120
615.4338, 8.7050997E-02
615.9159, 0.2509230
616.3980, 1.178303
616.8801, 1.436544
617.3622, 0.4676110
617.8444, 0.4963150
618.3265, 0.9288060
618.8086, 1.011908
619.2907, 1.033262
619.7728, 1.103344
620.2549, 1.260887
620.7371, 1.607748
621.2192, 2.132330
621.7013, 2.531603
622.1834, 2.757059
622.6655, 2.936041
623.1476, 3.014290
623.6298, 3.141262
624.1119, 3.606865
624.5940, 4.554922
625.0761, 5.457266
625.5582, 6.068399
626.0403, 6.507414
626.5225, 6.846266
627.0046, 7.135115
627.4867, 7.510941
627.9688, 8.031914
628.4509, 8.747301
628.9330, 9.879114
629.4152, 11.79056
629.8973, 13.44314
630.3794, 14.82841
630.8615, 15.97213
631.3436, 16.59465
631.8257, 17.01008
632.3079, 17.95796
632.7900, 19.87203
633.2721, 22.27652
633.7542, 24.56793
634.2363, 26.76274
634.7184, 28.95036
635.2006, 31.14955
635.6827, 33.34063
636.1648, 35.45390
636.6469, 37.48568
637.1291, 39.54896
637.6112, 41.49866
638.0933, 43.67379
638.5754, 46.37505
639.0576, 49.21903
639.5397, 51.97993
640.0218, 54.50169
640.5039, 56.41343
640.9860, 57.37211
641.4681, 57.53647
641.9503, 57.76931
642.4324, 58.38527
642.9145, 58.23706
643.3966, 56.74638
643.8787, 54.65661
644.3608, 52.36631
644.8430, 49.88163
645.3251, 47.14256
645.8072, 43.82941
646.2893, 40.50331
646.7714, 37.74985
647.2535, 35.46151
647.7357, 33.35007
648.2178, 31.35398
648.6999, 29.40956
649.1820, 27.46416
649.6641, 25.50435
650.1462, 23.68567
650.6284, 21.97381
651.1105, 20.42524
651.5926, 19.05246
652.0747, 17.85579
652.5568, 16.85867
653.0389, 16.05136
653.5211, 15.39741
654.0032, 14.93674
654.4853, 14.56991
654.9674, 13.99833
655.4495, 13.20284
655.9316, 12.40578
656.4138, 11.65529
656.8959, 10.96460
657.3780, 10.36503
657.8601, 9.850214
658.3422, 9.381056
658.8243, 8.981461
659.3065, 8.579247
659.7886, 8.146297
660.2707, 7.697790
660.7528, 7.175947
661.2349, 6.585552
661.7170, 6.154341
662.1992, 6.249723
662.6813, 6.836201
663.1634, 6.745512
663.6455, 5.496832
664.1276, 4.503531
664.6097, 4.453306
665.0919, 4.658274
665.5740, 4.627731
666.0561, 4.337822
666.5382, 3.831699
667.0203, 2.736010
667.5024, 1.682056
667.9846, 1.423803
668.4667, 1.808779
668.9488, 2.339682
669.4309, 2.876228
669.9130, 3.182304
670.3951, 2.859989
670.8773, 1.774845
671.3594, 1.210417
671.8415, 1.577375
672.3236, 1.987860
672.8057, 2.397156
673.2878, 2.674911
673.7700, 2.597443
674.2521, 2.138607
674.7342, 1.699812
675.2163, 1.713060
675.6984, 1.956375
676.1805, 1.943480
676.6627, 1.680145
677.1448, 1.545803
677.6269, 1.753269
678.1090, 1.981771
678.5911, 1.728519
679.0732, 0.8494170
679.5554, 0.3122410
680.0375, 0.3569130
680.5196, 0.4552040
681.0017, 0.3773460
681.4838, 0.2537020
681.9659, 0.3124160
682.4481, 0.5754300
682.9302, 0.7878590
683.4123, 0.6788860
683.8944, 0.3302540
684.3765, 4.5814998E-02
684.8586, 0.1791190
685.3408, 0.2973160
685.8229, 0.2866190
686.3050, 0.1650770
686.7871, 3.7744999E-02
687.2692, 0.3148290
687.7513, 0.7286720
688.2335, 1.691063
688.7156, 2.367035
689.1977, 2.056919
689.6798, 1.260273
690.1619, 0.7636070
690.6440, 0.7491150
691.1262, 0.8540710
691.6083, 0.7131750
692.0904, 0.3695130
692.5725, 0.1064610
693.0546, 0.1128100
693.5367, 0.1268330
694.0189, 0.3446240
694.5010, 0.8423330
694.9831, 0.8675590
695.4652, 0.4857460
695.9473, 0.2617440
696.4294, 0.4555560
696.9116, 0.7627620
697.3937, 1.100690
697.8758, 1.370381
698.3579, 1.291815
698.8400, 0.8475060
699.3221, 0.4828800
699.8043, 0.6661830
700.2864, 1.291347
700.7685, 1.514986
701.2506, 1.032226
701.7327, 0.7982210
702.2148, 1.319855
702.6970, 1.883144
703.1791, 1.959055
703.6612, 1.655353
704.1433, 1.484601
704.6254, 1.720796
705.1075, 2.023609
705.5897, 2.141036
706.0718, 2.127362
706.5539, 2.065269
707.0360, 1.976733
707.5181, 1.898160
708.0002, 1.863696
708.4824, 1.846508
708.9645, 1.741534
709.4466, 1.498659
709.9287, 1.278928
710.4108, 1.038229
710.8929, 0.8848520
711.3751, 0.8472630
711.8572, 0.9449770
712.3393, 1.247144
712.8214, 1.865587
713.3035, 2.465843
713.7856, 2.739651
714.2678, 2.782547
714.7499, 2.816088
715.2320, 2.870846
715.7141, 2.827175
716.1962, 2.575422
716.6783, 2.173532
717.1605, 1.875084
717.6426, 1.704033
718.1247, 1.650383
718.6068, 1.719805
719.0889, 1.889835
719.5710, 2.345583
720.0532, 2.840666
720.5353, 2.862847
721.0174, 2.185449
721.4995, 1.598159
721.9816, 2.006263
722.4637, 2.879702
722.9459, 3.088471
723.4280, 2.604525
723.9101, 2.119082
724.3922, 1.965006
724.8743, 2.036013
725.3564, 2.167959
725.8386, 2.447630
726.3207, 2.495276
726.8028, 1.835610
727.2849, 1.495688
727.7670, 2.158621
728.2491, 3.134254
728.7313, 3.541973
729.2134, 3.219331
729.6955, 2.785012
730.1776, 2.690176
730.6597, 2.774807
731.1418, 2.840092
731.6240, 2.866172
732.1061, 2.697803
732.5882, 2.241871
733.0703, 1.850119
733.5524, 1.987553
734.0345, 2.650856
734.5167, 3.011087
734.9988, 2.846556
735.4809, 2.723889
735.9631, 2.775199
736.4452, 2.886475
736.9273, 2.911995
737.4094, 2.870525
737.8915, 2.953007
738.3737, 3.329562
738.8558, 3.772428
739.3379, 4.018658
739.8200, 4.091629
740.3021, 4.084747
740.7842, 4.036940
741.2664, 4.100906
741.7485, 4.432217
742.2306, 4.913305
742.7127, 4.977628
743.1948, 4.331081
743.6769, 3.861115
744.1591, 3.537579
744.6412, 3.439661
745.1233, 3.760698
745.6054, 4.310687
746.0875, 4.753162
746.5696, 5.013607
747.0518, 5.140196
747.5339, 5.007587
748.0160, 4.751102
748.4981, 4.697234
748.9802, 4.873491
749.4623, 5.067023
749.9445, 5.146872
750.4266, 5.068275
750.9087, 4.733011
751.3908, 4.036600
751.8729, 3.644724
752.3550, 3.748333
752.8372, 3.936825
753.3193, 4.084462
753.8014, 4.210167
754.2835, 4.404205
754.7656, 4.669277
755.2477, 4.765004
755.7299, 4.409916
756.2120, 3.966345
756.6941, 3.773224
757.1762, 3.781074
757.6583, 3.866421
758.1404, 3.975186
758.6226, 4.071901
759.1047, 4.115592
759.5868, 4.109734
760.0689, 4.095198
760.5510, 4.109781
761.0331, 3.985578
761.5153, 3.415565
761.9974, 2.979019
762.4795, 3.287826
762.9616, 4.075986
763.4437, 4.470772
763.9258, 4.116558
764.4080, 3.662200
764.8901, 3.258863
765.3722, 3.022324
765.8543, 3.263818
766.3364, 3.831360
766.8185, 4.119739
767.3007, 3.787603
767.7828, 3.158268
768.2649, 2.792587
768.7470, 2.702115
769.2291, 2.606709
769.7112, 2.497374
770.1934, 2.387846
770.6755, 2.255608
771.1576, 2.144211
771.6397, 2.188227
772.1218, 2.446991
772.6039, 2.436882
773.0861, 1.668619
773.5682, 1.056780
774.0503, 1.298037
774.5324, 1.897961
775.0145, 2.109241
775.4966, 1.808975
775.9788, 1.452681
776.4609, 1.432692
776.9430, 1.608534
777.4251, 1.610306
777.9072, 1.444487
778.3893, 1.463408
778.8715, 1.813339
779.3536, 2.098356
779.8357, 1.933607
780.3178, 1.406967
780.7999, 1.109818
781.2820, 1.162226
781.7642, 1.257763
782.2463, 1.464462
782.7284, 1.639126
783.2105, 1.654436
783.6926, 1.575817
784.1747, 1.573137
784.6569, 1.719536
785.1390, 1.774715
785.6211, 1.361053
786.1032, 0.7825950
786.5853, 0.7060810
787.0674, 1.095858
787.5496, 1.466581
788.0317, 1.623293
788.5138, 1.551226
788.9959, 1.182281
789.4780, 0.4810100
789.9601, 2.0693000E-02
790.4423, 0.3608590
790.9244, 0.4414960
791.4065, 5.8701999E-02
791.8886, 0.5999910
792.3707, 0.7512740
792.8528, 0.5288430
793.3350, 0.1929190
793.8171, 0.2600020
794.2992, 0.6865980
794.7813, 1.005695
795.2634, 1.244293
795.7455, 1.486687
796.2277, 1.699394
796.7098, 1.679245
797.1919, 1.281631
797.6740, 0.7332500
798.1561, 0.4852200
798.6382, 0.5491770
799.1204, 0.5947950
799.6025, 0.5771010
800.0846, 0.6226370
800.5667, 0.8692820
801.0488, 1.166594
801.5309, 1.215157
802.0131, 0.9812640
802.4952, 0.7725320
802.9773, 0.4524060
803.4594, 0.3406200
803.9415, 0.8255270
804.4236, 1.453930
804.9058, 1.587650
805.3879, 1.220161
805.8700, 0.9734590
806.3521, 1.362001
806.8342, 1.953974
807.3163, 2.111166
807.7985, 1.896696
808.2806, 1.485266
808.7627, 0.9028320
809.2448, 0.5084020
809.7269, 0.5874790
810.2090, 0.9766600
810.6912, 1.191704
811.1733, 1.173359
811.6554, 1.126623
812.1375, 1.072062
812.6196, 0.9617710
813.1017, 0.6821060
813.5839, 0.3887810
814.0660, 0.3652650
814.5481, 0.6601220
815.0302, 0.7485560
815.5123, 0.1824360
815.9944, 0.4610710
816.4766, 0.6630540
816.9587, 0.6260030
817.4408, 0.7564770
817.9229, 1.124548
818.4050, 1.475838
818.8871, 1.577829
819.3693, 1.542992
819.8514, 1.597542
820.3335, 1.736214
820.8156, 2.591312
821.2977, 4.611141
821.7798, 6.224209
822.2620, 6.221642
822.7441, 5.123180
823.2262, 4.435711
823.7083, 4.223087
824.1904, 4.298824
824.6725, 4.998035
825.1547, 5.597649
825.6368, 5.707569
826.1189, 5.545971
826.6010, 5.326344
827.0831, 5.127621
827.5652, 5.176121
828.0474, 5.888340
828.5295, 6.714027
829.0116, 6.916035
829.4937, 6.711323
829.9758, 6.603039
830.4579, 6.708210
830.9401, 7.044033
831.4222, 7.674797
831.9043, 8.485752
832.3864, 9.040966
832.8685, 9.269306
833.3506, 9.456146
833.8328, 9.502296
834.3149, 9.737427
834.7971, 10.49957
835.2792, 11.48422
835.7613, 12.10133
836.2434, 12.26209
836.7255, 12.58886
837.2076, 13.20207
837.6898, 13.95219
838.1719, 14.73964
838.6540, 15.62951
839.1361, 16.72667
839.6182, 18.03424
840.1003, 19.49112
840.5825, 21.07521
841.0646, 22.74590
841.5467, 24.50143
842.0288, 26.30715
842.5109, 27.88248
842.9930, 29.22360
843.4752, 30.95411
843.9573, 33.48262
844.4394, 36.44489
844.9215, 38.93723
845.4036, 40.76562
845.8857, 43.16616
846.3679, 46.64615
846.8500, 49.79696
847.3321, 51.44214
847.8142, 52.93591
848.2963, 55.84699
848.7784, 60.13138
849.2606, 64.41542
849.7427, 68.43008
850.2248, 72.35979
850.7069, 76.23393
851.1890, 80.06918
851.6711, 83.71191
852.1533, 87.32405
852.6354, 91.44102
853.1175, 96.39624
853.5996, 101.4583
854.0817, 105.8794
854.5638, 109.8004
855.0460, 113.5430
855.5281, 117.1160
856.0102, 120.1202
856.4923, 122.3723
856.9744, 124.2512
857.4565, 126.3587
857.9387, 128.6382
858.4208, 129.3427
858.9029, 127.9990
859.3850, 126.2087
859.8671, 124.1173
860.3492, 121.8632
860.8314, 119.7762
861.3135, 117.5993
861.7956, 114.5618
862.2777, 110.3808
862.7598, 105.8450
863.2419, 100.7934
863.7241, 95.88062
864.2062, 91.54142
864.6883, 87.59589
865.1704, 83.76596
865.6525, 79.96152
866.1346, 76.08788
866.6168, 71.85870
867.0989, 67.63998
867.5810, 64.07588
868.0631, 61.01389
868.5452, 58.04057
869.0273, 55.07136
869.5095, 52.23379
869.9916, 49.60440
870.4737, 47.20626
870.9558, 45.20798
871.4379, 43.75650
871.9200, 41.70449
872.4022, 38.54432
872.8843, 35.81502
873.3664, 34.39124
873.8485, 33.61868
874.3306, 32.59230
874.8127, 31.29744
875.2949, 30.16327
875.7770, 29.10813
876.2591, 28.36324
876.7412, 28.29961
877.2233, 28.33855
877.7054, 27.86546
878.1876, 27.05311
878.6697, 26.49708
879.1518, 26.43432
879.6339, 26.67783
880.1160, 27.27950
880.5981, 27.97007
881.0803, 28.29683
881.5624, 28.36554
882.0445, 28.56607
882.5266, 29.04079
883.0087, 29.80545
883.4908, 30.91771
883.9730, 32.29967
884.4551, 33.66430
884.9372, 35.01340
885.4193, 36.16399
885.9014, 36.98372
886.3835, 37.97601
886.8657, 39.59443
887.3478, 41.55340
887.8299, 43.04881
888.3120, 43.71471
888.7941, 44.88012
889.2762, 46.85445
889.7584, 48.95349
890.2405, 51.04946
890.7226, 53.12064
891.2047, 54.98888
891.6868, 56.74104
892.1689, 59.06682
892.6511, 62.73571
893.1332, 66.29244
893.6153, 69.02003
894.0974, 71.26733
894.5795, 73.25967
895.0616, 75.13564
895.5438, 76.97614
896.0259, 78.82973
896.5080, 81.12840
896.9901, 84.54931
897.4722, 88.67713
897.9543, 92.38847
898.4365, 95.80391
898.9186, 99.79011
899.4007, 104.5674
899.8828, 109.9533
900.3649, 115.8042
900.8470, 122.1620
901.3292, 129.3062
901.8113, 137.2808
902.2934, 145.7367
902.7755, 154.5572
903.2576, 164.0188
903.7397, 174.0582
904.2219, 184.9256
904.7040, 197.1301
905.1861, 210.7319
905.6682, 224.8973
906.1503, 239.1337
906.6324, 254.5339
907.1146, 271.6195
907.5967, 289.8171
908.0788, 308.4091
908.5609, 327.7618
909.0430, 349.0099
909.5251, 372.8228
910.0073, 397.1540
910.4894, 420.5275
910.9715, 444.1026
911.4536, 469.1119
911.9357, 495.2680
912.4178, 522.0739
912.9000, 549.3437
913.3821, 576.4205
913.8642, 603.1609
914.3463, 628.7521
914.8284, 651.7470
915.3105, 672.1948
915.7927, 691.3471
916.2748, 709.1644
916.7569, 722.6212
917.2390, 730.1276
917.7211, 731.9526
918.2032, 728.2402
918.6854, 718.8970
919.1675, 707.0489
919.6496, 693.4417
920.1317, 675.0406
920.6138, 649.9070
921.0959, 621.0611
921.5781, 590.0646
922.0602, 557.4000
922.5423, 525.5664
923.0244, 494.9160
923.5065, 464.0721
923.9886, 431.6152
924.4708, 400.5085
924.9529, 372.0138
925.4350, 345.6249
925.9171, 320.8457
926.3992, 297.6861
926.8813, 276.1245
927.3635, 256.2158
927.8456, 237.8529
928.3277, 221.2639
928.8098, 205.9930
929.2919, 191.3062
929.7740, 177.4338
930.2562, 164.9422
930.7383, 154.1563
931.2204, 144.5014
931.7025, 135.6908
932.1846, 127.3937
932.6667, 118.9494
933.1489, 110.5404
933.6310, 103.1196
934.1132, 96.85252
934.5953, 91.00689
935.0774, 85.02182
935.5595, 79.09597
936.0416, 73.83423
936.5237, 69.23252
937.0059, 65.19710
937.4880, 61.83929
937.9701, 58.32423
938.4522, 54.16715
938.9343, 50.04433
939.4164, 46.82616
939.8986, 44.44326
940.3807, 41.62642
940.8628, 37.82708
941.3449, 34.73267
941.8270, 33.01158
942.3091, 31.41279
942.7913, 29.20409
943.2734, 26.78044
943.7555, 24.75442
944.2376, 23.19078
944.7197, 21.64180
945.2018, 19.92235
945.6840, 18.30717
946.1661, 16.97720
946.6482, 15.76924
947.1303, 14.45363
947.6124, 13.12737
948.0945, 12.14965
948.5767, 11.71302
949.0588, 11.25841
949.5409, 10.22511
950.0230, 9.173473
950.5051, 8.831909
950.9872, 8.823696
951.4694, 8.330967
951.9515, 7.260231
952.4336, 6.251633
952.9157, 5.799084
953.3978, 5.483391
953.8799, 4.481903
954.3621, 3.169353
954.8442, 2.678310
955.3263, 2.964527
955.8084, 3.098415
956.2905, 2.711033
956.7726, 2.059254
957.2548, 1.346512
957.7369, 0.6790620
958.2190, 0.6282420
958.7011, 1.238255
959.1832, 1.519520
959.6653, 1.292995
960.1475, 0.8532710
960.6296, 0.2698590
961.1117, 0.2290950
961.5938, 0.1683850
962.0759, 0.5434150
962.5580, 0.9134180
963.0402, 0.8044820
963.5223, 0.6337590
964.0044, 0.4356690
964.4865, 0.2654990
964.9686, 0.1578830
965.4507, 0.1139830
965.9329, 0.1485210
966.4150, 0.3341790
966.8971, 0.4018060
967.3792, 0.3321150
967.8613, 0.1435780
968.3434, 0.2489890
968.8256, 0.6904450
969.3077, 1.010033
969.7898, 1.229927
970.2719, 1.522009
970.7540, 2.041119
971.2361, 2.405684
971.7183, 2.510086
972.2004, 2.352304
972.6825, 1.723207
973.1646, 0.9236720
973.6467, 0.3721960
974.1288, 0.1653730
974.6110, 0.2245160
975.0931, 0.6227530
975.5752, 1.068514
976.0573, 1.284521
976.5394, 1.381384
977.0215, 1.521427
977.5037, 1.700739
977.9858, 1.871258
978.4679, 2.009098
978.9500, 2.030895
979.4321, 1.837173
979.9142, 1.490627
980.3964, 1.086918
980.8785, 0.6393830
981.3606, 0.1444070
981.8427, 0.3740180
982.3248, 0.6773740
982.8069, 0.6282810
983.2891, 0.4538760
983.7712, 0.4949930
984.2533, 0.7142330
984.7354, 0.8402650
985.2175, 0.8722400
985.6996, 0.8257600
986.1818, 0.6906890
986.6639, 0.5730080
987.1460, 0.5690880
987.6281, 0.5832310
988.1102, 0.3542770
988.5923, 0.1965160
989.0745, 0.3995080
989.5566, 0.1800460
990.0387, 0.2017520
990.5208, 0.8587860
991.0029, 1.324062
991.4850, 1.085821
991.9672, 0.3476390
992.4493, 0.1020130
992.9314, 0.1216450
993.4135, 0.1879140
993.8956, 0.3439120
994.3777, 0.4875300
994.8599, 0.6479280
995.3420, 0.7365860
995.8241, 0.6382850
996.3062, 0.3830130
996.7883, 0.1499750
997.2704, 8.3126001E-02
997.7526, 0.2286620
998.2347, 0.2018530
998.7168, 0.1671710
999.1989, 0.2782860
999.6810, 0.3826620
1000.163, 0.2337680
1000.645, 0.1465570
1001.127, 0.4123270
1001.609, 0.5055850
1002.092, 0.3966100
1002.574, 5.3539000E-02
1003.056, 0.5887030
1003.538, 1.084221
1004.020, 1.486086
1004.502, 1.732500
1004.984, 1.816881
1005.466, 1.793835
1005.949, 1.608688
1006.431, 1.445005
1006.913, 1.399954
1007.395, 1.477926
1007.877, 1.736012
1008.359, 2.112738
1008.841, 2.523054
1009.323, 2.919283
1009.805, 3.118176
1010.288, 2.718048
1010.770, 2.355265
1011.252, 3.014599
1011.734, 4.171652
1012.216, 4.879744
1012.698, 5.119593
1013.180, 5.266869
1013.662, 5.485691
1014.145, 5.846069
1014.627, 6.553553
1015.109, 7.334818
1015.591, 7.506975
1016.073, 7.287546
1016.555, 7.437416
1017.037, 8.005436
1017.519, 8.489124
1018.001, 8.632807
1018.484, 8.709677
1018.966, 9.057833
1019.448, 9.636307
1019.930, 10.44595
1020.412, 11.40923
1020.894, 11.70371
1021.376, 11.20198
1021.858, 10.94554
1022.341, 11.54854
1022.823, 12.60902
1023.305, 13.53792
1023.787, 14.34005
1024.269, 15.08585
1024.751, 15.78136
1025.233, 16.35221
1025.715, 16.78589
1026.198, 17.05644
1026.680, 17.10872
1027.162, 17.08423
1027.644, 17.26775
1028.126, 17.66132
1028.608, 17.91348
1029.090, 17.96444
1029.572, 18.19301
1030.054, 18.68363
1030.536, 19.46531
1031.019, 20.67974
1031.501, 21.99089
1031.983, 22.65088
1032.465, 22.51815
1032.947, 22.79306
1033.429, 23.71342
1033.911, 24.38216
1034.393, 24.46303
1034.876, 24.51233
1035.358, 24.92393
1035.840, 25.58579
1036.322, 26.19560
1036.804, 26.66338
1037.286, 27.59438
1037.768, 29.38453
1038.250, 30.96500
1038.733, 32.12872
1039.215, 32.98462
1039.697, 33.28113
1040.179, 33.38685
1040.661, 34.33378
1041.143, 36.43569
1041.625, 38.22898
1042.107, 39.49889
1042.589, 40.75969
1043.072, 42.10572
1043.554, 43.47696
1044.036, 44.86183
1044.518, 46.22425
1045.000, 47.44478
1045.482, 48.43760
1045.964, 49.61961
1046.446, 51.29766
1046.928, 52.75202
1047.411, 53.69114
1047.893, 54.48782
1048.375, 55.43897
1048.857, 56.43861
1049.339, 57.25594
1049.821, 57.84072
1050.303, 58.28188
1050.785, 58.65392
1051.268, 58.83643
1051.750, 58.70725
1052.232, 58.44574
1052.714, 58.35061
1053.196, 58.19322
1053.678, 57.40962
1054.160, 55.84761
1054.642, 54.23180
1055.125, 52.68181
1055.607, 51.16529
1056.089, 49.82079
1056.571, 48.36219
1057.053, 46.54611
1057.535, 44.44828
1058.017, 42.18944
1058.499, 39.76169
1058.981, 37.41645
1059.464, 35.24880
1059.946, 33.22569
1060.428, 31.47961
1060.910, 29.71529
1061.392, 27.48115
1061.874, 25.08997
1062.356, 23.20397
1062.838, 21.96002
1063.320, 20.85857
1063.803, 19.88096
1064.285, 18.79674
1064.767, 17.31174
1065.249, 15.87204
1065.731, 14.95176
1066.213, 14.33999
1066.695, 13.55556
1067.177, 12.52162
1067.660, 11.48629
1068.142, 10.45317
1068.624, 9.573591
1069.106, 8.909561
1069.588, 8.462446
1070.070, 8.420187
1070.552, 8.526368
1071.034, 8.315686
1071.516, 7.718548
1071.999, 7.010815
1072.481, 6.114859
1072.963, 5.389312
1073.445, 5.083464
1073.927, 4.933620
1074.409, 4.729813
1074.891, 4.538564
1075.373, 4.532241
1075.855, 4.711540
1076.338, 4.815861
1076.820, 4.800277
1077.302, 4.594314
1077.784, 3.963063
1078.266, 3.330299
1078.748, 3.067809
1079.230, 3.005539
1079.712, 2.844883
1080.195, 2.560967
1080.677, 2.382030
1081.159, 2.399592
1081.641, 2.565118
1082.123, 3.123507
1082.605, 3.545236
1083.087, 3.312496
1083.569, 2.782024
1084.052, 2.394431
1084.534, 2.202806
1085.016, 2.127480
1085.498, 2.160945
1085.980, 2.258389
1086.462, 2.508354
1086.944, 2.699065
1087.426, 2.666545
1087.908, 2.519016
1088.391, 2.364362
1088.873, 2.218349
1089.355, 2.055923
1089.837, 1.850116
1090.319, 1.692250
1090.801, 1.624725
1091.283, 1.610816
1091.765, 1.703597
1092.248, 1.783954
1092.730, 1.637474
1093.212, 1.384946
1093.694, 1.461925
1094.176, 2.052024
1094.658, 2.294421
1095.140, 1.564623
1095.622, 0.8325700
1096.104, 0.3647240
1096.587, 0.2307040
1097.069, 0.6891580
1097.551, 1.455114
1098.033, 1.994368
1098.515, 2.213408
1098.997, 2.235958
1099.479, 1.909813
1099.961, 1.647335
1100.443, 1.599844
1100.926, 1.655203
1101.408, 1.866775
1101.890, 2.062165
1102.372, 1.942028
1102.854, 1.492065
1103.336, 1.082745
1103.818, 0.6998280
1104.300, 0.5100060
1104.783, 0.6838280
1105.265, 0.9081390
1105.747, 1.122816
1106.229, 1.220343
1106.711, 0.9393320
1107.193, 0.3671460
1107.675, 0.1919470
1108.157, 0.8262260
1108.640, 1.225946
1109.122, 1.077654
1109.604, 0.9000240
1110.086, 0.9017500
1110.568, 0.9614550
1111.050, 0.9799260
1111.532, 0.9535730
1112.014, 0.8799840
1112.496, 0.7342440
1112.979, 0.6094450
1113.461, 0.4142190
1113.943, 0.3719380
1114.425, 0.7262130
1114.907, 1.059502
1115.389, 1.086192
1115.871, 0.8756460
1116.353, 0.5343950
1116.835, 5.5419998E-03
1117.318, 0.2707780
1117.800, 0.1970830
1118.282, 4.7517002E-02
1118.764, 0.6260600
1119.246, 1.087097
1119.728, 1.163949
1120.210, 0.9935290
1120.692, 0.7574260
1121.175, 0.4568450
1121.657, 0.1848360
1122.139, 0.1263750
1122.621, 0.1940760
1123.103, 0.1633790
1123.585, 0.3518730
1124.067, 5.4410002E-03
1124.549, 0.3830960
1125.031, 0.2246540
1125.514, 0.3383700
1125.996, 0.6433520
1126.478, 0.6679710
1126.960, 0.4937120
1127.442, 1.9144000E-02
1127.924, 0.1434520
1128.406, 0.2571740
1128.888, 0.7703310
1129.370, 1.082884
1129.853, 1.154514
1130.335, 0.7452710
1130.817, 0.1431280
1131.299, 4.4376999E-02
1131.781, 1.115290
1132.263, 1.555896
1132.745, 0.8766750
1133.227, 0.2781600
1133.710, 0.4739810
1134.192, 0.9373430
1134.674, 0.8892290
1135.156, 0.4795910
1135.638, 0.3704000
1136.120, 0.5049480
1136.602, 0.3144880
1137.084, 0.1997800
1137.567, 0.1803830
1138.049, 0.6924560
1138.531, 1.501557
1139.013, 1.330782
1139.495, 0.6425380
1139.977, 0.2754060
1140.459, 0.1468510
1140.941, 3.9900001E-03
1141.423, 0.1460650
1141.906, 4.6983998E-02
1142.388, 0.3111630
1142.870, 0.6629600
1143.352, 0.8625660
1143.834, 0.8644590
1144.316, 0.4508300
1144.798, 6.9701999E-02
1145.280, 0.1996080
1145.762, 8.5221000E-02
1146.245, 5.0891999E-02
1146.727, 9.9289000E-02
1147.209, 2.3357000E-02
1147.691, 0.2560010
1148.173, 0.5360020
1148.655, 0.7464630
1149.137, 0.8047080
1149.619, 0.3854670
1150.102, 3.3767000E-02
1150.584, 0.2456300
1151.066, 0.9181530
1151.548, 1.352621
1152.030, 1.406524
1152.512, 1.152177
1152.994, 0.3668900
1153.476, 0.2019400
1153.958, 0.1537960
1154.441, 0.2006960
1154.923, 1.009983
1155.405, 1.766164
1155.887, 1.689629
1156.369, 1.012084
1156.851, 0.8032690
1157.333, 1.422518
1157.815, 1.887585
1158.297, 1.999183
1158.780, 1.910521
1159.262, 1.456379
1159.744, 1.032743
1160.226, 0.9288750
1160.708, 1.045216
1161.190, 1.237013
1161.672, 1.513931
1162.154, 1.593682
1162.637, 1.246700
1163.119, 1.158001
1163.601, 1.537452
1164.083, 1.904097
1164.565, 2.121434
1165.047, 2.129383
1165.529, 1.751641
1166.011, 1.188054
1166.494, 1.304266
1166.976, 2.371041
1167.458, 2.633964
1167.940, 1.876385
1168.422, 1.431287
1168.904, 1.668160
1169.386, 1.976376
1169.868, 1.924595
1170.350, 1.830642
1170.833, 2.317567
1171.315, 3.207952
1171.797, 3.402904
1172.279, 2.963687
1172.761, 2.506930
1173.243, 2.111329
1173.725, 1.727999
1174.207, 1.343434
1174.689, 1.254272
1175.172, 1.815144
1175.654, 2.568639
1176.136, 2.605412
1176.618, 2.252299
1177.100, 2.295229
1177.582, 2.611933
1178.064, 2.753942
1178.546, 2.655890
1179.029, 2.494453
1179.511, 2.338309
1179.993, 2.205116
1180.475, 1.995204
1180.957, 1.961958
1181.439, 2.612181
1181.921, 3.345073
1182.403, 3.321865
1182.885, 2.794918
1183.368, 2.354744
1183.850, 2.123085
1184.332, 1.946514
1184.814, 1.660571
1185.296, 1.597564
1185.778, 2.083054
1186.260, 2.628574
1186.742, 3.033449
1187.225, 3.245240
1187.707, 3.127460
1188.189, 2.785885
1188.671, 2.595641
1189.153, 2.690740
1189.635, 2.632187
1190.117, 2.200160
1190.599, 1.877799
1191.082, 1.713705
1191.564, 1.717597
1192.046, 1.967840
1192.528, 2.305834
1193.010, 2.535534
1193.492, 2.671346
1193.974, 2.673492
1194.456, 2.495131
1194.938, 2.330543
1195.421, 2.206855
1195.903, 2.074016
1196.385, 1.900810
1196.867, 1.712644
1197.349, 1.525388
1197.831, 1.470980
1198.313, 1.903560
1198.795, 2.657866
1199.277, 2.865377
1199.760, 2.652880
1200.242, 2.701675
1200.724, 3.015932
1201.206, 2.995980
1201.688, 2.438313
1202.170, 1.774788
1202.652, 1.294394
1203.134, 1.047712
1203.617, 1.225438
1204.099, 1.589211
1204.581, 2.009360
1205.063, 2.256078
1205.545, 1.707638
1206.027, 0.5924520
1206.509, 2.3238000E-02
1206.991, 0.2719490
1207.474, 0.7191900
1207.956, 1.083336
1208.438, 1.280834
1208.920, 1.094000
1209.402, 0.8923590
1209.884, 0.9762450
1210.366, 1.247853
1210.848, 1.585064
1211.330, 1.913762
1211.813, 1.944439
1212.295, 1.386762
1212.777, 1.063915
1213.259, 1.202331
1213.741, 1.223743
1214.223, 0.8991920
1214.705, 0.5423290
1215.187, 0.3286740
1215.669, 0.2905540
1216.152, 0.4762710
1216.634, 0.8589460
1217.116, 1.243999
1217.598, 1.655544
1218.080, 1.686509
1218.562, 1.276537
1219.044, 0.9219370
1219.526, 0.7930820
1220.009, 0.8238890
1220.491, 0.9796460
1220.973, 1.159222
1221.455, 1.174383
1221.937, 1.083694
1222.419, 1.011905
1222.901, 0.9694690
1223.383, 0.9822850
1223.865, 1.045213
1224.348, 1.131419
1224.830, 1.229333
1225.312, 1.326510
1225.794, 1.454882
1226.276, 1.503324
1226.758, 1.258278
1227.240, 1.027438
1227.722, 1.133112
1228.204, 1.389315
1228.687, 1.623137
1229.169, 1.757380
1229.651, 1.588857
1230.133, 0.9781020
1230.615, 0.6855520
1231.097, 1.154651
1231.579, 1.482639
1232.061, 1.405566
1232.544, 1.267303
1233.026, 1.252669
1233.508, 1.212920
1233.990, 0.9562110
1234.472, 0.5448980
1234.954, 0.2325690
1235.436, 1.7935000E-02
1235.918, 0.1224140
1236.401, 0.2135000
1236.883, 0.1421170
1237.365, 1.054493
1237.847, 1.676461
1238.329, 1.549906
1238.811, 1.109983
1239.293, 0.8007180
1239.775, 0.6218920
1240.257, 0.6419160
1240.740, 0.7577520
1241.222, 0.6597020
1241.704, 0.4601660
1242.186, 0.5590600
1242.668, 0.9468570
1243.150, 1.236564
1243.632, 1.264509
1244.114, 1.127677
1244.596, 0.7441700
1245.079, 0.4018560
1245.561, 0.1789530
1246.043, 0.1792340
1246.525, 0.7832030
1247.007, 1.489998
1247.489, 1.453391
1247.971, 0.7562900
1248.453, 0.3407080
1248.936, 0.4708280
1249.418, 0.4559830
1249.900, 0.1927980
1250.382, 4.9334001E-02
1250.864, 0.3353740
1251.346, 0.2757990
1251.828, 0.5321530
1252.310, 1.338775
1252.792, 1.031116
1253.275, 1.6138000E-02
1253.757, 0.1234740
1254.239, 0.6023340
1254.721, 0.7238580
1255.203, 0.2719620
1255.685, 9.1216996E-02
1256.167, 0.3483880
1256.649, 0.7212830
1257.131, 1.045363
1257.614, 1.256863
1258.096, 1.287811
1258.578, 1.182874
1259.060, 0.8289970
1259.542, 0.5082190
1260.024, 0.7286770
1260.506, 1.162669
1260.988, 1.101810
1261.471, 0.6291790
1261.953, 0.5457620
1262.435, 1.185764
1262.917, 1.713712
1263.399, 1.765825
1263.881, 1.826143
1264.363, 2.158983
1264.845, 2.361129
1265.328, 2.195949
1265.810, 1.841245
1266.292, 1.485545
1266.774, 1.111927
1267.256, 0.6066700
1267.738, 9.1004997E-02
1268.220, 0.1295200
1268.702, 0.5218520
1269.184, 0.8780110
1269.667, 0.6764490
1270.149, 0.6185170
1270.631, 0.7759870
1271.113, 1.024692
1271.595, 1.403907
1272.077, 1.588831
1272.559, 0.8504110
1273.041, 0.1013130
1273.523, 8.7623000E-02
1274.006, 0.4711010
1274.488, 0.8435690
1274.970, 0.9417390
1275.452, 0.8506450
1275.934, 0.5913820
1276.416, 0.5847150
1276.898, 1.415675
1277.380, 1.869234
1277.863, 1.139668
1278.345, 0.4215280
1278.827, 0.4858420
1279.309, 0.7168580
1279.791, 0.6570550
1280.273, 0.5013440
1280.755, 0.5192350
1281.237, 1.117410
1281.719, 1.322569
1282.202, 1.107302
1282.684, 0.8055140
1283.166, 0.4642600
1283.648, 0.2068630
1284.130, 6.8889998E-02
1284.612, 0.1558560
1285.094, 0.5257880
1285.576, 0.8652250
1286.059, 0.7202230
1286.541, 0.3638310
1287.023, 0.1116420
1287.505, 0.0000000E+00
##END=



