##NAMES=Pyromorphite
##RRUFFID=R050015
##IDEAL CHEMISTRY=Pb_5_(PO_4_)_3_Cl
##LOCALITY=Bunker Hill mine, Shoshone County, Idaho, USA
##OWNER=RRUFF
##SOURCE=Eugene Schlepp
##DESCRIPTION=Yellowish green prismatic hexagonal single crystals
##STATUS=The identification of this mineral has been confirmed by X-ray diffraction and chemical analysis
##URL=rruff.info/R050015
##MEASURED CHEMISTRY=Pb_5.00_((P_0.88_As_0.12_)O_4_)_3_Cl_1.00_
107.7177, 0.0000000E+00
108.1998, 16.70767
108.6819, 33.95880
109.1640, 50.82582
109.6461, 67.23582
110.1282, 83.08350
110.6104, 96.06617
111.0925, 111.7429
111.5746, 122.5663
112.0567, 124.3747
112.5388, 124.5188
113.0209, 104.0308
113.5031, 75.70618
113.9852, 45.60886
114.4673, 20.25266
114.9494, 2.663635
115.4315, 7.839630
115.9136, 16.87372
116.3958, 29.98022
116.8779, 41.62704
117.3600, 46.31097
117.8421, 36.93658
118.3242, 23.96008
118.8063, 14.94257
119.2885, 11.13086
119.7706, 2.679749
120.2527, 16.29944
120.7348, 44.19153
121.2169, 78.36462
121.6990, 114.5891
122.1812, 157.0473
122.6633, 209.7966
123.1454, 273.6660
123.6275, 346.8052
124.1096, 429.7725
124.5917, 521.3621
125.0739, 616.7550
125.5560, 713.1100
126.0381, 810.5217
126.5202, 912.5376
127.0023, 1022.386
127.4844, 1134.265
127.9666, 1235.416
128.4487, 1326.009
128.9308, 1420.966
129.4129, 1535.890
129.8950, 1668.249
130.3772, 1797.582
130.8593, 1916.390
131.3414, 2028.535
131.8235, 2146.634
132.3056, 2268.858
132.7877, 2399.115
133.2699, 2545.308
133.7520, 2708.906
134.2341, 2871.471
134.7162, 3024.930
135.1983, 3170.041
135.6804, 3314.872
136.1626, 3457.760
136.6447, 3599.982
137.1268, 3744.153
137.6089, 3890.111
138.0910, 4034.331
138.5731, 4173.388
139.0553, 4311.062
139.5374, 4433.694
140.0195, 4535.826
140.5016, 4622.765
140.9837, 4709.846
141.4658, 4797.959
141.9480, 4886.442
142.4301, 4973.490
142.9122, 5056.402
143.3943, 5143.190
143.8764, 5235.855
144.3585, 5333.425
144.8407, 5435.432
145.3228, 5542.608
145.8049, 5652.918
146.2870, 5762.610
146.7691, 5857.649
147.2512, 5968.494
147.7334, 6105.851
148.2155, 6281.518
148.6976, 6436.937
149.1797, 6555.509
149.6618, 6658.946
150.1439, 6774.688
150.6261, 6920.883
151.1082, 7061.616
151.5903, 7186.552
152.0724, 7291.186
152.5545, 7388.868
153.0366, 7479.752
153.5188, 7563.709
154.0009, 7640.107
154.4830, 7712.365
154.9651, 7775.323
155.4472, 7826.799
155.9293, 7858.355
156.4115, 7890.259
156.8936, 7930.871
157.3757, 7976.197
157.8578, 8013.167
158.3399, 8025.543
158.8221, 8035.502
159.3042, 8057.797
159.7863, 8115.836
160.2684, 8167.271
160.7505, 8190.032
161.2326, 8188.854
161.7148, 8197.906
162.1969, 8231.876
162.6790, 8283.168
163.1611, 8343.773
163.6432, 8415.456
164.1253, 8492.854
164.6075, 8570.363
165.0896, 8647.662
165.5717, 8730.764
166.0538, 8846.615
166.5359, 8976.218
167.0180, 9092.675
167.5002, 9167.829
167.9823, 9237.395
168.4644, 9327.433
168.9465, 9440.607
169.4286, 9568.850
169.9107, 9722.176
170.3929, 9886.253
170.8750, 10035.36
171.3571, 10144.02
171.8392, 10234.33
172.3213, 10328.59
172.8034, 10428.42
173.2856, 10533.14
173.7677, 10650.83
174.2498, 10775.46
174.7319, 10884.98
175.2140, 10978.77
175.6961, 11047.33
176.1783, 11068.17
176.6604, 11021.85
177.1425, 10952.96
177.6246, 10921.42
178.1067, 10921.04
178.5888, 10910.33
179.0710, 10859.65
179.5531, 10776.89
180.0352, 10678.25
180.5173, 10565.83
180.9994, 10441.96
181.4815, 10309.38
181.9637, 10167.27
182.4458, 10025.45
182.9279, 9894.286
183.4100, 9770.163
183.8921, 9637.241
184.3742, 9490.397
184.8564, 9331.817
185.3385, 9171.291
185.8206, 9007.800
186.3027, 8838.392
186.7848, 8656.901
187.2669, 8464.525
187.7491, 8264.386
188.2312, 8051.155
188.7133, 7831.603
189.1954, 7628.103
189.6775, 7443.810
190.1596, 7266.978
190.6418, 7080.720
191.1239, 6886.029
191.6060, 6691.998
192.0881, 6505.453
192.5702, 6324.607
193.0524, 6129.887
193.5345, 5917.256
194.0166, 5702.500
194.4987, 5514.727
194.9808, 5355.171
195.4629, 5203.303
195.9451, 5050.824
196.4272, 4896.007
196.9093, 4752.073
197.3914, 4620.396
197.8735, 4498.051
198.3556, 4381.101
198.8378, 4270.688
199.3199, 4160.947
199.8020, 4046.589
200.2841, 3927.523
200.7662, 3820.921
201.2483, 3730.793
201.7305, 3650.929
202.2126, 3564.657
202.6947, 3469.218
203.1768, 3377.667
203.6589, 3300.040
204.1410, 3239.651
204.6232, 3173.457
205.1053, 3095.718
205.5874, 3012.519
206.0695, 2947.300
206.5516, 2906.926
207.0337, 2866.493
207.5159, 2805.665
207.9980, 2719.803
208.4801, 2641.320
208.9622, 2576.065
209.4443, 2521.253
209.9264, 2462.780
210.4086, 2397.594
210.8907, 2335.375
211.3728, 2287.559
211.8549, 2261.148
212.3370, 2224.320
212.8191, 2168.352
213.3013, 2097.034
213.7834, 2035.687
214.2655, 1985.240
214.7476, 1940.531
215.2297, 1899.694
215.7118, 1866.114
216.1940, 1827.133
216.6761, 1777.117
217.1582, 1716.999
217.6403, 1672.433
218.1224, 1650.596
218.6045, 1634.805
219.0867, 1608.985
219.5688, 1569.847
220.0509, 1529.358
220.5330, 1490.317
221.0151, 1451.885
221.4972, 1414.118
221.9794, 1375.506
222.4615, 1339.088
222.9436, 1308.296
223.4257, 1286.857
223.9078, 1263.425
224.3899, 1234.208
224.8721, 1197.201
225.3542, 1165.483
225.8363, 1141.747
226.3184, 1121.640
226.8005, 1098.318
227.2827, 1067.577
227.7648, 1042.630
228.2469, 1028.958
228.7290, 1028.708
229.2111, 1018.517
229.6932, 995.1284
230.1754, 966.1589
230.6575, 940.1714
231.1396, 917.6235
231.6217, 896.4460
232.1038, 876.0601
232.5859, 856.1318
233.0681, 835.3621
233.5502, 814.7490
234.0323, 794.4641
234.5144, 772.6106
234.9965, 746.0984
235.4786, 722.3049
235.9608, 705.9714
236.4429, 700.9180
236.9250, 691.3967
237.4071, 675.5764
237.8892, 655.2856
238.3713, 631.7188
238.8535, 601.0820
239.3356, 573.9421
239.8177, 554.7317
240.2998, 546.4204
240.7819, 533.8433
241.2640, 512.4275
241.7462, 489.1416
242.2283, 477.3142
242.7104, 486.7825
243.1925, 491.4661
243.6746, 481.4182
244.1567, 451.0791
244.6389, 424.4084
245.1210, 401.4932
245.6031, 382.2229
246.0852, 366.5984
246.5673, 354.4695
247.0494, 346.3262
247.5316, 343.7969
248.0137, 350.5059
248.4958, 350.0479
248.9779, 339.2390
249.4600, 323.0566
249.9421, 311.7444
250.4243, 309.4944
250.9064, 304.3977
251.3885, 290.9629
251.8706, 265.1775
252.3527, 244.5376
252.8348, 231.6670
253.3170, 222.3577
253.7991, 208.0786
254.2812, 185.5859
254.7633, 164.6902
255.2454, 148.8821
255.7275, 138.8486
256.2097, 132.9236
256.6918, 135.0400
257.1739, 138.6848
257.6560, 129.6763
258.1381, 99.92700
258.6202, 74.16895
259.1024, 62.94556
259.5845, 70.78760
260.0666, 75.28076
260.5487, 76.82202
261.0308, 74.68994
261.5129, 65.82324
261.9951, 46.45068
262.4772, 29.62695
262.9593, 20.95581
263.4414, 21.70410
263.9235, 25.16528
264.4056, 34.57910
264.8878, 43.64014
265.3699, 38.49146
265.8520, 12.11084
266.3341, 8.574219
266.8162, 9.602783
267.2983, 14.21191
267.7805, 23.68359
268.2626, 14.71387
268.7447, 4.160645
269.2268, 18.29297
269.7089, 26.24951
270.1910, 34.65088
270.6732, 48.42090
271.1553, 69.06421
271.6374, 77.83716
272.1195, 71.11841
272.6016, 57.85889
273.0837, 52.31567
273.5659, 55.39258
274.0480, 61.42310
274.5301, 69.54224
275.0122, 79.86743
275.4943, 86.93652
275.9764, 89.96179
276.4586, 91.22766
276.9407, 94.61169
277.4228, 100.4397
277.9049, 104.8480
278.3870, 105.5146
278.8691, 102.6677
279.3513, 101.4709
279.8334, 102.0381
280.3155, 103.9689
280.7976, 108.4833
281.2798, 115.8156
281.7619, 118.7054
282.2440, 111.6432
282.7261, 96.54126
283.2082, 88.38928
283.6903, 87.98499
284.1725, 91.57983
284.6546, 96.60583
285.1367, 102.8157
285.6188, 105.0668
286.1009, 98.60852
286.5830, 86.42371
287.0652, 82.75867
287.5473, 88.76477
288.0294, 96.49707
288.5115, 98.48022
288.9936, 94.80493
289.4757, 86.01758
289.9579, 68.56262
290.4400, 47.01855
290.9221, 36.30688
291.4042, 37.36841
291.8863, 37.45190
292.3684, 43.07178
292.8506, 9.817139
293.3327, 16.59814
293.8148, 36.55261
294.2969, 30.81445
294.7790, 58.19055
295.2611, 72.26465
295.7433, 85.77917
296.2254, 117.7690
296.7075, 134.1246
297.1896, 167.8384
297.6717, 195.1410
298.1538, 220.9563
298.6360, 252.5785
299.1181, 289.9319
299.6002, 328.7637
300.0823, 364.8625
300.5644, 400.6091
301.0465, 440.3667
301.5287, 483.4724
302.0108, 533.2400
302.4929, 597.5884
302.9750, 674.3358
303.4571, 747.3557
303.9392, 800.2285
304.4214, 845.0083
304.9035, 899.0618
305.3856, 965.8804
305.8677, 1042.126
306.3498, 1126.784
306.8319, 1218.067
307.3141, 1311.713
307.7962, 1406.025
308.2783, 1499.731
308.7604, 1593.462
309.2425, 1686.700
309.7246, 1777.063
310.2068, 1861.439
310.6889, 1941.821
311.1710, 2024.306
311.6531, 2118.903
312.1352, 2212.561
312.6173, 2293.097
313.0995, 2353.060
313.5816, 2413.448
314.0637, 2487.794
314.5458, 2569.484
315.0279, 2646.646
315.5100, 2714.497
315.9922, 2776.799
316.4743, 2835.324
316.9564, 2890.204
317.4385, 2941.602
317.9206, 2992.781
318.4027, 3039.781
318.8849, 3077.063
319.3670, 3101.299
319.8491, 3117.183
320.3312, 3122.515
320.8133, 3114.115
321.2954, 3114.278
321.7776, 3146.512
322.2597, 3182.107
322.7418, 3190.460
323.2239, 3134.431
323.7060, 3083.443
324.1881, 3055.936
324.6703, 3054.737
325.1524, 3050.772
325.6345, 3044.461
326.1166, 3033.039
326.5987, 3014.095
327.0808, 2989.793
327.5630, 2954.646
328.0451, 2899.507
328.5272, 2825.785
329.0093, 2771.618
329.4914, 2757.162
329.9735, 2747.178
330.4557, 2716.711
330.9378, 2640.091
331.4199, 2586.649
331.9020, 2568.504
332.3841, 2578.365
332.8662, 2581.695
333.3484, 2578.217
333.8305, 2569.219
334.3126, 2555.647
334.7947, 2538.403
335.2768, 2512.190
335.7589, 2471.791
336.2411, 2425.425
336.7232, 2394.855
337.2053, 2385.869
337.6874, 2375.791
338.1695, 2351.237
338.6516, 2309.581
339.1338, 2277.625
339.6159, 2259.896
340.0980, 2247.081
340.5801, 2222.142
341.0622, 2183.108
341.5443, 2143.403
342.0265, 2110.724
342.5086, 2083.424
342.9907, 2043.644
343.4728, 1990.845
343.9549, 1930.361
344.4370, 1864.018
344.9192, 1792.973
345.4013, 1730.276
345.8834, 1687.623
346.3655, 1655.791
346.8476, 1612.250
347.3297, 1557.401
347.8119, 1494.600
348.2940, 1420.992
348.7761, 1340.525
349.2582, 1268.188
349.7403, 1209.886
350.2225, 1158.212
350.7046, 1106.500
351.1867, 1053.980
351.6688, 1000.951
352.1509, 941.1628
352.6331, 882.6052
353.1152, 836.5413
353.5973, 810.6143
354.0794, 787.9753
354.5615, 751.5872
355.0436, 705.6772
355.5258, 663.1177
356.0079, 635.0559
356.4900, 611.1809
356.9721, 580.3115
357.4542, 536.6038
357.9363, 499.9287
358.4185, 486.3228
358.9006, 486.7786
359.3827, 485.7068
359.8648, 476.0510
360.3469, 464.0784
360.8290, 450.5034
361.3112, 434.0037
361.7933, 426.3364
362.2754, 436.1580
362.7575, 454.7522
363.2396, 472.7161
363.7217, 480.8489
364.2039, 495.0232
364.6860, 523.2720
365.1681, 565.9397
365.6502, 601.8413
366.1323, 622.2229
366.6144, 639.1970
367.0966, 661.0898
367.5787, 680.7695
368.0608, 714.3457
368.5429, 767.9927
369.0250, 838.2356
369.5071, 905.5444
369.9893, 964.5076
370.4714, 1026.487
370.9535, 1097.887
371.4356, 1183.437
371.9177, 1264.712
372.3998, 1334.255
372.8820, 1403.449
373.3641, 1498.001
373.8462, 1623.844
374.3283, 1758.857
374.8104, 1892.196
375.2925, 2023.959
375.7747, 2166.058
376.2568, 2319.626
376.7389, 2483.581
377.2210, 2655.817
377.7031, 2836.537
378.1852, 3021.538
378.6674, 3209.126
379.1495, 3400.210
379.6316, 3607.313
380.1137, 3829.066
380.5958, 4063.777
381.0779, 4309.543
381.5601, 4567.757
382.0422, 4824.444
382.5243, 5076.155
383.0064, 5333.126
383.4885, 5622.431
383.9706, 5941.516
384.4528, 6251.435
384.9349, 6522.072
385.4170, 6769.625
385.8991, 7031.150
386.3812, 7321.744
386.8633, 7603.492
387.3455, 7847.932
387.8276, 8056.751
388.3097, 8237.521
388.7918, 8395.265
389.2739, 8523.226
389.7560, 8619.848
390.2382, 8685.950
390.7203, 8706.717
391.2024, 8685.478
391.6845, 8611.166
392.1666, 8469.950
392.6487, 8226.947
393.1309, 7944.611
393.6130, 7641.400
394.0951, 7317.362
394.5772, 6983.667
395.0593, 6614.650
395.5414, 6254.678
396.0236, 5935.056
396.5057, 5662.552
396.9878, 5426.411
397.4699, 5231.970
397.9520, 5075.427
398.4341, 4945.454
398.9163, 4828.001
399.3984, 4752.402
399.8805, 4732.228
400.3626, 4780.165
400.8447, 4845.944
401.3268, 4931.604
401.8090, 5032.520
402.2911, 5143.622
402.7732, 5261.785
403.2553, 5396.894
403.7374, 5554.906
404.2195, 5734.477
404.7017, 5914.060
405.1838, 6096.805
405.6659, 6273.462
406.1480, 6438.004
406.6301, 6591.195
407.1122, 6729.844
407.5944, 6861.838
408.0765, 6970.244
408.5586, 7009.262
409.0407, 6980.550
409.5228, 6914.832
410.0049, 6832.046
410.4871, 6728.206
410.9692, 6589.100
411.4513, 6410.154
411.9334, 6204.358
412.4155, 5975.010
412.8976, 5725.642
413.3798, 5475.837
413.8619, 5218.241
414.3440, 4969.480
414.8261, 4750.475
415.3082, 4560.437
415.7903, 4368.312
416.2725, 4141.402
416.7546, 3903.692
417.2367, 3677.380
417.7188, 3485.915
418.2009, 3295.534
418.6830, 3089.436
419.1652, 2872.428
419.6473, 2668.723
420.1294, 2485.240
420.6115, 2315.125
421.0937, 2151.146
421.5758, 1990.123
422.0579, 1848.293
422.5400, 1731.609
423.0221, 1633.600
423.5042, 1541.440
423.9864, 1457.410
424.4685, 1377.142
424.9506, 1296.907
425.4327, 1217.322
425.9148, 1147.543
426.3969, 1091.212
426.8791, 1041.107
427.3612, 992.3323
427.8433, 945.0588
428.3254, 899.1946
428.8075, 854.1965
429.2896, 810.1976
429.7718, 768.0718
430.2539, 727.1093
430.7360, 691.5073
431.2181, 667.4583
431.7002, 653.8491
432.1823, 633.8469
432.6645, 605.2207
433.1466, 573.9114
433.6287, 551.4089
434.1108, 535.0908
434.5929, 510.8094
435.0750, 464.4205
435.5572, 410.2999
436.0393, 375.2177
436.5214, 358.5068
437.0035, 345.8302
437.4856, 326.6925
437.9677, 304.6429
438.4499, 285.8025
438.9320, 276.4500
439.4141, 262.5767
439.8962, 227.4736
440.3783, 179.5474
440.8604, 139.2549
441.3426, 120.7125
441.8247, 109.1534
442.3068, 96.95154
442.7889, 83.16418
443.2710, 69.43359
443.7531, 53.98035
444.2353, 39.73486
444.7174, 29.54688
445.1995, 30.70032
445.6816, 28.65967
446.1637, 17.27344
446.6458, 1.748779
447.1280, 11.06543
447.6101, 4.207642
448.0922, 5.185303
448.5743, 10.20081
449.0564, 10.99487
449.5385, 5.927246
450.0207, 8.529175
450.5028, 25.60974
450.9849, 31.07874
451.4670, 22.55347
451.9491, 13.92932
452.4312, 10.39148
452.9134, 11.39734
453.3955, 13.04028
453.8776, 15.37476
454.3597, 17.73804
454.8418, 18.72778
455.3239, 18.95923
455.8061, 20.94092
456.2882, 26.30872
456.7703, 32.34009
457.2524, 36.57983
457.7345, 38.43811
458.2166, 36.02429
458.6988, 22.65784
459.1809, 7.140137
459.6630, 0.1300050
460.1451, 2.771851
460.6272, 7.390137
461.1093, 8.603027
461.5915, 8.307495
462.0736, 8.708862
462.5557, 11.57190
463.0378, 14.25964
463.5199, 15.65259
464.0020, 15.85077
464.4842, 15.98279
464.9663, 13.61920
465.4484, 13.16913
465.9305, 17.46185
466.4126, 32.73895
466.8947, 42.17456
467.3769, 44.71033
467.8590, 41.87231
468.3411, 35.40515
468.8232, 22.25977
469.3053, 11.52972
469.7874, 5.527161
470.2696, 4.134644
470.7517, 5.727112
471.2338, 10.88544
471.7159, 17.17010
472.1980, 23.28088
472.6801, 29.19366
473.1623, 32.08459
473.6444, 31.42645
474.1265, 27.99994
474.6086, 20.45325
475.0907, 9.956787
475.5728, 4.095520
476.0550, 12.09357
476.5371, 25.51471
477.0192, 29.16333
477.5013, 22.46533
477.9834, 15.50372
478.4655, 17.78534
478.9477, 23.95807
479.4298, 26.86322
479.9119, 22.60175
480.3940, 16.94800
480.8761, 13.34705
481.3582, 10.78351
481.8404, 6.316162
482.3225, 4.582764
482.8046, 14.66675
483.2867, 20.88226
483.7688, 22.79504
484.2509, 21.43475
484.7331, 11.97876
485.2152, 1.842896
485.6973, 2.200195
486.1794, 2.491089
486.6615, 9.068359
487.1436, 18.32318
487.6258, 28.84027
488.1079, 32.43066
488.5900, 25.80402
489.0721, 21.37115
489.5542, 28.17865
490.0363, 46.37714
490.5185, 58.11536
491.0006, 61.99097
491.4827, 62.33752
491.9648, 64.09058
492.4470, 67.05609
492.9291, 70.21008
493.4112, 73.08112
493.8933, 76.06421
494.3754, 80.71075
494.8575, 86.54822
495.3397, 90.51025
495.8218, 87.94653
496.3039, 83.72333
496.7860, 83.57507
497.2681, 89.19824
497.7502, 95.30280
498.2324, 98.50323
498.7145, 100.6530
499.1966, 104.2819
499.6787, 112.9487
500.1608, 120.3599
500.6429, 123.8561
501.1251, 123.6920
501.6072, 124.5390
502.0893, 127.9467
502.5714, 131.3308
503.0535, 133.4711
503.5356, 133.9258
504.0178, 133.9357
504.4999, 132.3076
504.9820, 131.2318
505.4641, 135.3186
505.9462, 145.9051
506.4283, 154.3091
506.9105, 157.3599
507.3926, 156.4596
507.8747, 157.2167
508.3568, 159.4505
508.8389, 161.2576
509.3210, 160.9532
509.8032, 159.4106
510.2853, 159.2527
510.7674, 161.0474
511.2495, 162.7523
511.7316, 162.4822
512.2137, 160.5254
512.6959, 157.5826
513.1780, 146.7396
513.6601, 140.9084
514.1422, 154.7594
514.6243, 184.4391
515.1064, 204.3653
515.5886, 196.2201
516.0707, 181.4964
516.5528, 173.7805
517.0349, 177.1827
517.5170, 181.4175
517.9991, 187.2565
518.4813, 192.3455
518.9634, 193.4526
519.4455, 186.8392
519.9276, 182.9150
520.4097, 184.8870
520.8918, 191.4386
521.3740, 193.1420
521.8561, 188.3140
522.3382, 184.5437
522.8203, 187.6221
523.3024, 197.0033
523.7845, 205.8102
524.2667, 213.2377
524.7488, 219.0282
525.2309, 221.8438
525.7130, 223.1355
526.1951, 227.0114
526.6772, 237.1133
527.1594, 249.0311
527.6415, 256.0405
528.1236, 259.2444
528.6057, 264.7956
529.0878, 278.8712
529.5699, 294.4977
530.0521, 304.9348
530.5342, 307.2513
531.0163, 314.6354
531.4984, 336.7959
531.9805, 364.3546
532.4626, 387.5093
532.9448, 399.6785
533.4269, 413.7615
533.9090, 430.4999
534.3911, 449.0227
534.8732, 466.5790
535.3553, 481.4736
535.8375, 501.1150
536.3196, 529.8990
536.8017, 568.7469
537.2838, 598.6562
537.7659, 617.8900
538.2480, 636.9860
538.7302, 668.9931
539.2123, 712.1427
539.6944, 752.4381
540.1765, 786.5698
540.6586, 818.0139
541.1407, 851.1574
541.6229, 885.9985
542.1050, 923.5320
542.5871, 974.6639
543.0692, 1021.335
543.5513, 1043.641
544.0334, 1041.083
544.5156, 1037.576
544.9977, 1041.391
545.4798, 1050.606
545.9619, 1063.621
546.4440, 1082.847
546.9261, 1101.069
547.4083, 1118.185
547.8904, 1134.392
548.3725, 1148.625
548.8546, 1157.895
549.3367, 1170.136
549.8188, 1190.089
550.3010, 1216.258
550.7831, 1232.035
551.2652, 1238.209
551.7473, 1231.274
552.2294, 1205.720
552.7115, 1162.996
553.1937, 1117.990
553.6758, 1071.983
554.1579, 1022.991
554.6400, 967.8094
555.1221, 907.4217
555.6042, 845.3884
556.0864, 779.3419
556.5685, 714.8320
557.0506, 654.3398
557.5327, 599.4100
558.0148, 556.7933
558.4969, 540.3335
558.9791, 529.1290
559.4612, 508.4576
559.9433, 473.2029
560.4254, 447.7122
560.9075, 438.5986
561.3896, 440.1901
561.8718, 447.3390
562.3539, 464.3958
562.8360, 479.2383
563.3181, 488.1331
563.8002, 495.5352
564.2823, 514.2424
564.7645, 547.0318
565.2466, 577.6098
565.7287, 597.0533
566.2108, 608.6905
566.6929, 628.4468
567.1750, 656.2776
567.6572, 689.3705
568.1393, 727.0474
568.6214, 767.5767
569.1035, 806.6478
569.5856, 844.2484
570.0677, 879.0996
570.5499, 909.1443
571.0320, 936.3291
571.5141, 964.0183
571.9962, 1009.903
572.4783, 1040.371
572.9604, 1039.086
573.4426, 1009.417
573.9247, 969.1911
574.4068, 920.4136
574.8889, 862.0654
575.3710, 791.8765
575.8531, 707.6509
576.3353, 626.9255
576.8174, 548.0282
577.2995, 476.2663
577.7816, 416.7216
578.2637, 370.3981
578.7458, 329.4462
579.2280, 293.0520
579.7101, 261.0465
580.1922, 235.0976
580.6743, 214.1918
581.1564, 192.3290
581.6385, 161.6726
582.1207, 131.1243
582.6028, 114.7866
583.0849, 111.2992
583.5670, 108.7687
584.0491, 98.28040
584.5313, 87.21393
585.0134, 82.39935
585.4955, 87.89697
585.9776, 89.79810
586.4597, 80.02863
586.9418, 66.74310
587.4240, 59.36731
587.9061, 61.97528
588.3882, 64.72644
588.8703, 68.41357
589.3524, 71.09344
589.8345, 65.22247
590.3167, 47.74762
590.7988, 33.34839
591.2809, 30.09235
591.7630, 35.54895
592.2451, 37.11615
592.7272, 34.65466
593.2094, 31.75488
593.6915, 31.52679
594.1736, 32.91858
594.6557, 34.01740
595.1378, 34.51196
595.6199, 34.78650
596.1021, 33.58331
596.5842, 32.70850
597.0663, 34.74542
597.5485, 45.33179
598.0306, 53.99146
598.5127, 55.28217
598.9948, 51.26251
599.4769, 51.26733
599.9590, 61.92468
600.4412, 69.29254
600.9233, 67.19489
601.4054, 54.63641
601.8875, 48.97278
602.3696, 52.35437
602.8517, 57.49884
603.3339, 57.92169
603.8160, 54.01678
604.2981, 51.11230
604.7802, 49.98584
605.2623, 49.44220
605.7444, 46.90283
606.2266, 43.63464
606.7087, 43.37415
607.1908, 51.73267
607.6729, 59.16272
608.1550, 56.35529
608.6371, 46.07721
609.1193, 37.16364
609.6014, 32.68994
610.0835, 30.82892
610.5656, 31.35699
611.0477, 34.54376
611.5298, 37.57703
612.0120, 40.91205
612.4941, 43.56342
612.9762, 44.99268
613.4583, 45.39362
613.9404, 43.38342
614.4225, 38.10278
614.9047, 31.91486
615.3868, 27.63953
615.8689, 25.21722
616.3510, 25.07922
616.8331, 28.68262
617.3152, 32.88556
617.7974, 32.33228
618.2795, 28.02899
618.7616, 23.77789
619.2437, 20.57428
619.7258, 18.92151
620.2079, 20.83691
620.6901, 26.32007
621.1722, 28.23895
621.6543, 20.35712
622.1364, 10.73743
622.6185, 4.351563
623.1006, 0.5921630
623.5828, 2.305542
624.0649, 13.36963
624.5470, 26.39185
625.0291, 32.30176
625.5112, 30.04077
625.9933, 25.76245
626.4755, 19.55328
626.9576, 13.51471
627.4397, 13.07904
627.9218, 17.29614
628.4039, 20.15875
628.8860, 15.95966
629.3682, 10.20728
629.8503, 11.57715
630.3324, 19.21930
630.8145, 26.18781
631.2966, 27.19659
631.7787, 26.68085
632.2609, 28.38477
632.7430, 34.00208
633.2251, 37.81201
633.7072, 39.99561
634.1893, 38.69843
634.6714, 31.32312
635.1536, 11.04913
635.6357, 1.376038
636.1178, 8.450439
636.5999, 21.97687
637.0820, 22.24115
637.5641, 8.625427
638.0463, 1.400269
638.5284, 1.426392
639.0105, 5.030884
639.4926, 13.09369
639.9747, 21.95087
640.4568, 27.14838
640.9390, 22.17755
641.4211, 14.82233
641.9032, 13.72729
642.3853, 19.74658
642.8674, 23.25781
643.3495, 16.01337
643.8317, 6.546814
644.3138, 1.285645
644.7959, 3.774780
645.2780, 6.769836
645.7601, 10.41443
646.2422, 13.46173
646.7244, 13.88043
647.2065, 10.76105
647.6886, 12.53693
648.1707, 22.14441
648.6528, 33.23547
649.1349, 33.52155
649.6171, 24.67206
650.0992, 15.61310
650.5813, 8.505310
651.0634, 5.172607
651.5455, 10.13702
652.0276, 21.63794
652.5098, 30.56445
652.9919, 29.20032
653.4740, 25.69995
653.9561, 26.05206
654.4382, 32.10699
654.9203, 33.06219
655.4025, 22.30109
655.8846, 11.02173
656.3667, 6.970276
656.8488, 12.84460
657.3309, 17.72156
657.8130, 21.17688
658.2952, 23.58215
658.7773, 25.59277
659.2594, 27.19824
659.7415, 27.41162
660.2236, 25.10529
660.7057, 22.41089
661.1879, 23.04559
661.6700, 25.98486
662.1521, 28.36273
662.6342, 28.44702
663.1163, 28.22760
663.5984, 28.55090
664.0806, 29.23700
664.5627, 29.98749
665.0448, 32.87238
665.5269, 34.71307
666.0090, 33.47235
666.4911, 28.23810
666.9733, 25.94604
667.4554, 26.34814
667.9375, 28.58295
668.4196, 33.41040
668.9017, 40.61267
669.3839, 42.81177
669.8660, 38.73755
670.3481, 34.07062
670.8302, 37.07471
671.3123, 44.21454
671.7944, 47.70477
672.2766, 42.80994
672.7587, 37.91071
673.2408, 38.13916
673.7229, 41.43890
674.2050, 44.31201
674.6871, 48.33917
675.1693, 49.53094
675.6514, 44.32587
676.1335, 34.60229
676.6156, 30.69379
677.0977, 34.76727
677.5798, 39.93378
678.0620, 43.58276
678.5441, 45.79785
679.0262, 46.21368
679.5083, 44.70361
679.9904, 43.86877
680.4725, 47.32794
680.9547, 52.41486
681.4368, 54.10107
681.9189, 51.54047
682.4010, 48.32538
682.8831, 48.36719
683.3652, 48.21442
683.8474, 43.91425
684.3295, 27.80408
684.8116, 18.31641
685.2937, 22.16278
685.7758, 32.25598
686.2579, 40.55499
686.7401, 48.98578
687.2222, 49.44904
687.7043, 37.46753
688.1864, 19.50281
688.6685, 11.62506
689.1506, 13.31317
689.6328, 16.16388
690.1149, 14.97345
690.5970, 13.73962
691.0791, 22.21191
691.5612, 37.67218
692.0433, 46.06720
692.5255, 32.16473
693.0076, 15.19586
693.4897, 7.644104
693.9718, 11.32031
694.4539, 14.78162
694.9360, 17.31195
695.4182, 18.39996
695.9003, 17.39056
696.3824, 13.51569
696.8645, 11.08759
697.3466, 10.34656
697.8287, 10.38245
698.3109, 10.97955
698.7930, 11.74164
699.2751, 9.585205
699.7572, 2.754089
700.2393, 2.531982
700.7214, 4.525940
701.2036, 16.61987
701.6857, 21.50964
702.1678, 8.323792
702.6499, 5.124329
703.1320, 11.85895
703.6141, 14.00732
704.0963, 17.16522
704.5784, 26.31750
705.0605, 29.34027
705.5426, 21.10382
706.0247, 4.838379
706.5068, 4.838928
706.9890, 7.643738
707.4711, 6.534729
707.9532, 1.221069
708.4353, 6.498535
708.9174, 12.37964
709.3995, 16.41089
709.8817, 18.55603
710.3638, 18.56335
710.8459, 16.90265
711.3280, 13.14166
711.8101, 6.700806
712.2922, 2.501526
712.7744, 3.364685
713.2565, 5.943298
713.7386, 7.920959
714.2207, 9.115845
714.7028, 9.958801
715.1849, 10.26819
715.6671, 10.49951
716.1492, 11.41132
716.6313, 12.88361
717.1134, 12.89575
717.5955, 10.87488
718.0776, 8.207581
718.5598, 5.772278
719.0419, 4.084290
719.5240, 4.263794
720.0061, 8.884277
720.4882, 12.76959
720.9703, 11.39606
721.4525, 7.674866
721.9346, 8.219666
722.4167, 17.09711
722.8988, 26.32416
723.3809, 36.04694
723.8630, 44.90045
724.3452, 46.71332
724.8273, 40.86279
725.3094, 32.40942
725.7915, 21.70905
726.2736, 10.87640
726.7557, 6.060669
727.2379, 6.761719
727.7200, 8.925842
728.2021, 9.149109
728.6842, 10.23773
729.1663, 16.43250
729.6484, 28.33777
730.1306, 35.05347
730.6127, 28.44202
731.0948, 19.85547
731.5769, 15.75293
732.0590, 17.55975
732.5411, 17.47119
733.0233, 15.10278
733.5054, 11.76282
733.9875, 8.250549
734.4696, 4.640503
734.9517, 1.917358
735.4338, 0.1667480
735.9160, 0.8284910
736.3981, 1.078125
736.8802, 0.7875980
737.3623, 3.9062999E-02
737.8444, 2.276245
738.3266, 2.778198
738.8087, 2.049561
739.2908, 8.776855
739.7729, 11.95776
740.2551, 6.839722
740.7372, 6.913452
741.2193, 15.85437
741.7014, 28.97913
742.1835, 35.66943
742.6656, 35.80713
743.1478, 37.16565
743.6299, 42.07422
744.1120, 49.79504
744.5941, 62.93604
745.0762, 78.35315
745.5583, 86.92993
746.0405, 75.93408
746.5226, 64.05408
747.0047, 63.84424
747.4868, 73.16492
747.9689, 77.76404
748.4510, 68.81323
748.9332, 64.37073
749.4153, 71.31970
749.8974, 88.39343
750.3795, 102.0077
750.8616, 111.6979
751.3438, 119.7411
751.8259, 127.2351
752.3080, 134.7633
752.7901, 143.5797
753.2722, 153.6958
753.7543, 166.5310
754.2365, 185.7020
754.7186, 206.0426
755.2007, 222.5704
755.6828, 234.0452
756.1649, 247.3456
756.6470, 264.9365
757.1292, 283.6765
757.6113, 301.2498
758.0934, 316.7777
758.5755, 336.9098
759.0576, 363.3201
759.5397, 389.4471
760.0219, 406.2188
760.5040, 416.7443
760.9861, 431.4141
761.4682, 451.6006
761.9503, 477.6940
762.4324, 513.1986
762.9146, 553.6017
763.3967, 593.7538
763.8788, 628.0339
764.3609, 669.6732
764.8430, 722.8799
765.3251, 782.1748
765.8073, 842.6836
766.2894, 903.9177
766.7715, 966.1594
767.2536, 1028.149
767.7357, 1093.113
768.2178, 1168.717
768.7000, 1253.031
769.1821, 1335.223
769.6642, 1409.868
770.1463, 1485.815
770.6284, 1568.208
771.1105, 1657.364
771.5927, 1754.134
772.0748, 1865.901
772.5569, 1977.615
773.0390, 2083.451
773.5211, 2186.598
774.0032, 2294.648
774.4854, 2409.129
774.9675, 2523.588
775.4496, 2639.716
775.9317, 2751.656
776.4138, 2841.350
776.8959, 2911.215
777.3781, 2979.034
777.8602, 3059.558
778.3423, 3136.902
778.8244, 3197.302
779.3065, 3243.654
779.7886, 3287.932
780.2708, 3345.902
780.7529, 3387.784
781.2350, 3401.504
781.7171, 3390.068
782.1992, 3383.397
782.6813, 3385.643
783.1635, 3378.432
783.6456, 3343.526
784.1277, 3293.400
784.6098, 3271.816
785.0919, 3275.886
785.5740, 3278.876
786.0562, 3269.076
786.5383, 3246.916
787.0204, 3206.920
787.5025, 3148.608
787.9846, 3098.425
788.4667, 3067.767
788.9489, 3043.830
789.4310, 3022.719
789.9131, 3004.701
790.3952, 2975.731
790.8773, 2931.133
791.3594, 2898.929
791.8416, 2903.819
792.3237, 2936.926
792.8058, 2974.485
793.2879, 3015.730
793.7700, 3068.058
794.2521, 3135.313
794.7343, 3216.844
795.2164, 3313.916
795.6985, 3431.975
796.1806, 3545.980
796.6627, 3645.608
797.1448, 3750.089
797.6270, 3870.197
798.1091, 4006.561
798.5912, 4149.509
799.0733, 4297.463
799.5554, 4468.264
800.0375, 4680.418
800.5197, 4925.070
801.0018, 5180.701
801.4839, 5439.072
801.9660, 5744.733
802.4481, 6107.402
802.9302, 6539.886
803.4124, 7050.945
803.8945, 7635.986
804.3766, 8322.683
804.8587, 9107.504
805.3408, 9998.048
805.8229, 11005.50
806.3051, 12129.73
806.7872, 13346.38
807.2693, 14660.69
807.7514, 16050.62
808.2335, 17512.06
808.7156, 19045.72
809.1978, 20659.19
809.6799, 22367.61
810.1620, 24110.21
810.6441, 25862.27
811.1262, 27644.25
811.6083, 29457.52
812.0905, 31317.11
812.5726, 33213.24
813.0547, 35163.93
813.5368, 37079.01
814.0189, 38916.47
814.5010, 40640.78
814.9832, 42082.98
815.4653, 43237.37
815.9474, 43952.23
816.4295, 44191.84
816.9116, 43874.66
817.3937, 42869.55
817.8759, 40979.02
818.3580, 38735.50
818.8401, 36106.40
819.3222, 33279.09
819.8043, 30348.39
820.2864, 27248.85
820.7686, 24326.46
821.2507, 21619.03
821.7328, 19147.03
822.2149, 16994.81
822.6970, 15138.14
823.1791, 13488.41
823.6613, 12052.24
824.1434, 10794.58
824.6255, 9749.256
825.1076, 8857.188
825.5897, 8070.249
826.0718, 7395.433
826.5540, 6796.491
827.0361, 6267.374
827.5182, 5809.664
828.0003, 5431.644
828.4824, 5135.385
828.9645, 4838.241
829.4467, 4525.130
829.9288, 4228.331
830.4109, 3987.567
830.8930, 3787.800
831.3751, 3603.487
831.8572, 3429.875
832.3394, 3271.227
832.8215, 3133.314
833.3036, 3007.905
833.7857, 2882.888
834.2678, 2754.700
834.7499, 2644.404
835.2321, 2556.980
835.7142, 2480.748
836.1963, 2398.644
836.6784, 2314.632
837.1605, 2248.783
837.6426, 2209.395
838.1248, 2170.272
838.6069, 2102.157
839.0890, 2027.510
839.5711, 1972.735
840.0532, 1957.212
840.5353, 1935.651
841.0175, 1897.075
841.4996, 1859.711
841.9817, 1847.094
842.4638, 1860.733
842.9459, 1857.345
843.4280, 1830.413
843.9102, 1799.005
844.3923, 1782.456
844.8744, 1775.980
845.3565, 1775.510
845.8386, 1785.900
846.3207, 1780.709
846.8029, 1735.224
847.2850, 1678.286
847.7671, 1635.349
848.2492, 1612.204
848.7313, 1590.007
849.2134, 1571.673
849.6956, 1547.078
850.1777, 1501.243
850.6598, 1440.240
851.1419, 1386.363
851.6240, 1342.822
852.1061, 1298.742
852.5883, 1248.896
853.0704, 1192.336
853.5525, 1126.519
854.0346, 1048.554
854.5167, 970.1693
854.9988, 886.4875
855.4810, 809.7186
855.9631, 750.2280
856.4452, 708.1428
856.9273, 660.8389
857.4094, 607.0947
857.8915, 559.2725
858.3737, 536.3130
858.8558, 522.2034
859.3379, 494.9609
859.8200, 451.1892
860.3021, 410.0098
860.7842, 381.5488
861.2664, 355.9268
861.7485, 327.6174
862.2306, 295.9014
862.7127, 266.4148
863.1948, 238.3486
863.6769, 215.2913
864.1591, 203.2971
864.6412, 197.2576
865.1233, 182.7998
865.6054, 160.3103
866.0875, 141.5752
866.5696, 143.0029
867.0518, 142.4563
867.5339, 122.4524
868.0160, 80.59058
868.4981, 49.56909
868.9802, 33.32812
869.4623, 19.46533
869.9445, 0.6042480
870.4266, 20.46509
870.9087, 28.24243
871.3908, 23.95923
871.8729, 20.71069
872.3550, 25.41724
872.8372, 35.28271
873.3193, 50.89307
873.8014, 70.65283
874.2835, 86.02979
874.7656, 89.55469
875.2477, 95.64990
875.7299, 112.1455
876.2120, 133.0251
876.6941, 128.8940
877.1762, 99.87891
877.6583, 81.68604
878.1404, 97.27515
878.6226, 124.4077
879.1047, 135.8264
879.5869, 135.0247
880.0690, 131.0696
880.5511, 116.7334
881.0332, 112.1694
881.5153, 131.0544
881.9974, 160.9673
882.4796, 177.6499
882.9617, 180.0452
883.4438, 173.8245
883.9259, 157.5188
884.4080, 139.2324
884.8901, 133.1055
885.3723, 135.1111
885.8544, 136.1125
886.3365, 134.9792
886.8186, 129.0820
887.3007, 114.1677
887.7828, 95.15234
888.2650, 79.05493
888.7471, 67.61255
889.2292, 55.62451
889.7113, 42.92480
890.1934, 28.85278
890.6755, 11.57202
891.1577, 8.011230
891.6398, 26.13574
892.1219, 39.92676
892.6040, 62.28711
893.0861, 108.8618
893.5682, 163.8372
894.0504, 211.9666
894.5325, 246.3506
895.0146, 285.3440
895.4967, 328.7996
895.9788, 376.9287
896.4609, 423.4414
896.9431, 472.3372
897.4252, 551.4380
897.9073, 662.5464
898.3894, 783.0723
898.8715, 896.8865
899.3536, 1014.579
899.8358, 1144.324
900.3179, 1285.135
900.8000, 1448.471
901.2821, 1628.765
901.7642, 1836.159
902.2463, 2076.141
902.7285, 2345.918
903.2106, 2651.563
903.6927, 2993.094
904.1748, 3394.357
904.6569, 3876.251
905.1390, 4425.890
905.6212, 5020.633
906.1033, 5664.360
906.5854, 6413.380
907.0675, 7298.152
907.5496, 8271.513
908.0317, 9323.701
908.5139, 10449.22
908.9960, 11657.40
909.4781, 12943.81
909.9602, 14303.23
910.4423, 15723.39
910.9244, 17205.59
911.4066, 18758.73
911.8887, 20361.44
912.3708, 21998.67
912.8529, 23676.60
913.3350, 25361.35
913.8171, 27048.36
914.2993, 28722.84
914.7814, 30398.76
915.2635, 32094.38
915.7456, 33574.80
916.2277, 34830.93
916.7098, 35763.62
917.1920, 36300.15
917.6741, 36413.58
918.1562, 36037.92
918.6383, 35124.58
919.1204, 33861.52
919.6025, 32149.66
920.0847, 30218.67
920.5668, 28186.86
921.0489, 26021.30
921.5310, 23910.74
922.0131, 21853.74
922.4952, 19925.88
922.9774, 18179.84
923.4595, 16613.75
923.9416, 15233.40
924.4237, 14041.89
924.9058, 12989.63
925.3879, 12031.15
925.8701, 11230.85
926.3522, 10604.85
926.8343, 10143.62
927.3164, 9786.189
927.7985, 9529.637
928.2806, 9382.162
928.7628, 9366.446
929.2449, 9448.314
929.7270, 9579.277
930.2091, 9761.994
930.6912, 10009.15
931.1733, 10305.92
931.6555, 10689.03
932.1376, 11202.96
932.6197, 11794.83
933.1018, 12375.82
933.5839, 12943.07
934.0660, 13550.23
934.5482, 14214.12
935.0303, 14925.22
935.5124, 15705.67
935.9945, 16524.60
936.4766, 17319.80
936.9587, 18081.72
937.4409, 18846.77
937.9230, 19679.74
938.4051, 20489.42
938.8872, 21204.04
939.3693, 21819.21
939.8514, 22402.51
940.3336, 22956.69
940.8157, 23428.63
941.2978, 23792.77
941.7799, 24040.64
942.2620, 24163.46
942.7441, 24159.87
943.2263, 24029.60
943.7084, 23763.43
944.1905, 23371.55
944.6726, 22856.91
945.1547, 22227.33
945.6368, 21527.35
946.1190, 20750.71
946.6011, 19906.67
947.0832, 18966.16
947.5653, 17994.71
948.0474, 17065.59
948.5295, 16163.67
949.0117, 15253.49
949.4938, 14284.44
949.9759, 13355.96
950.4580, 12489.91
950.9401, 11664.22
951.4222, 10848.88
951.9044, 10039.52
952.3865, 9299.083
952.8686, 8640.803
953.3507, 8037.614
953.8328, 7467.229
954.3149, 6931.631
954.7971, 6430.509
955.2792, 5974.863
955.7613, 5549.893
956.2434, 5151.706
956.7255, 4783.490
957.2076, 4448.157
957.6898, 4144.433
958.1719, 3872.946
958.6540, 3631.359
959.1361, 3405.088
959.6182, 3177.258
960.1003, 2962.355
960.5825, 2773.528
961.0646, 2608.540
961.5467, 2451.501
962.0288, 2293.607
962.5109, 2153.574
962.9930, 2038.960
963.4752, 1945.536
963.9573, 1872.947
964.4394, 1817.688
964.9215, 1752.285
965.4036, 1657.894
965.8857, 1570.189
966.3679, 1518.753
966.8500, 1490.774
967.3321, 1469.675
967.8142, 1457.202
968.2963, 1442.689
968.7784, 1421.863
969.2606, 1407.741
969.7427, 1420.519
970.2248, 1451.391
970.7069, 1467.136
971.1890, 1465.339
971.6711, 1461.646
972.1533, 1465.251
972.6354, 1471.228
973.1175, 1475.125
973.5996, 1477.053
974.0817, 1486.288
974.5638, 1504.654
975.0460, 1524.582
975.5281, 1547.598
976.0102, 1566.082
976.4923, 1561.582
976.9744, 1538.842
977.4565, 1511.807
977.9387, 1481.030
978.4208, 1453.463
978.9029, 1441.705
979.3850, 1429.573
979.8671, 1390.906
980.3492, 1319.020
980.8314, 1261.399
981.3135, 1224.271
981.7956, 1196.507
982.2777, 1172.865
982.7598, 1146.994
983.2419, 1108.488
983.7241, 1054.622
984.2062, 998.5322
984.6883, 938.6685
985.1704, 882.9385
985.6525, 833.1753
986.1346, 789.8975
986.6168, 764.2178
987.0989, 755.3271
987.5810, 738.0332
988.0631, 684.6021
988.5452, 627.1177
989.0273, 601.2090
989.5095, 595.4692
989.9916, 580.4683
990.4737, 532.1104
990.9558, 504.0312
991.4379, 507.1318
991.9200, 526.7632
992.4022, 542.1553
992.8843, 554.6367
993.3664, 569.6377
993.8485, 587.9297
994.3306, 608.3032
994.8127, 633.3960
995.2949, 658.8999
995.7770, 674.3188
996.2591, 671.9971
996.7412, 707.6479
997.2233, 791.3911
997.7054, 883.0303
998.1876, 957.8447
998.6697, 1021.622
999.1518, 1090.859
999.6339, 1163.425
1000.116, 1231.369
1000.598, 1286.306
1001.080, 1342.369
1001.562, 1399.857
1002.044, 1463.075
1002.527, 1545.412
1003.009, 1648.065
1003.491, 1747.225
1003.973, 1838.904
1004.455, 1918.442
1004.937, 1974.525
1005.419, 2016.160
1005.901, 2050.861
1006.384, 2074.338
1006.866, 2121.503
1007.348, 2211.476
1007.830, 2297.048
1008.312, 2347.343
1008.794, 2370.452
1009.276, 2418.519
1009.758, 2487.398
1010.240, 2544.445
1010.723, 2565.741
1011.205, 2573.873
1011.687, 2577.369
1012.169, 2579.559
1012.651, 2589.180
1013.133, 2612.138
1013.615, 2622.816
1014.097, 2616.689
1014.580, 2600.038
1015.062, 2581.805
1015.544, 2559.579
1016.026, 2525.365
1016.508, 2475.484
1016.990, 2432.105
1017.472, 2414.857
1017.954, 2396.970
1018.436, 2364.338
1018.919, 2317.600
1019.401, 2251.222
1019.883, 2165.137
1020.365, 2085.291
1020.847, 2034.202
1021.329, 1990.221
1021.811, 1931.723
1022.293, 1863.592
1022.776, 1796.432
1023.258, 1738.042
1023.740, 1669.882
1024.222, 1586.065
1024.704, 1498.387
1025.186, 1423.786
1025.668, 1359.392
1026.150, 1299.612
1026.632, 1243.625
1027.115, 1186.938
1027.597, 1119.431
1028.079, 1056.754
1028.561, 1009.605
1029.043, 977.2925
1029.525, 951.5669
1030.007, 934.8608
1030.489, 909.5837
1030.972, 864.5808
1031.454, 810.1694
1031.936, 753.3877
1032.418, 698.2571
1032.900, 654.3904
1033.382, 630.4146
1033.864, 609.9871
1034.346, 593.8225
1034.828, 577.0044
1035.311, 553.6050
1035.793, 524.4258
1036.275, 496.4812
1036.757, 469.9980
1037.239, 445.2930
1037.721, 421.4368
1038.203, 400.2588
1038.685, 385.7981
1039.167, 376.9182
1039.650, 361.7515
1040.132, 339.7939
1040.614, 313.5557
1041.096, 281.4429
1041.578, 251.1348
1042.060, 241.3196
1042.542, 241.8774
1043.024, 232.5906
1043.507, 186.3330
1043.989, 186.2085
1044.471, 179.4724
1044.953, 166.4731
1045.435, 127.9736
1045.917, 122.7463
1046.399, 104.1360
1046.881, 85.04541
1047.364, 84.70117
1047.846, 50.83276
1048.328, 51.14331
1048.810, 38.23999
1049.292, 31.57690
1049.774, 9.009521
1050.256, 10.44629
1050.738, 24.86646
1051.220, 30.54468
1051.703, 34.47754
1052.185, 51.81030
1052.667, 71.90015
1053.149, 71.80859
1053.631, 39.00415
1054.113, 23.10107
1054.595, 51.93530
1055.077, 85.32544
1055.559, 103.2903
1056.042, 107.3611
1056.524, 111.5718
1057.006, 116.4441
1057.488, 122.7747
1057.970, 133.8699
1058.452, 141.9722
1058.934, 141.3420
1059.416, 135.6140
1059.899, 130.6492
1060.381, 126.4348
1060.863, 122.2385
1061.345, 118.8494
1061.827, 113.3914
1062.309, 96.96924
1062.791, 79.40039
1063.273, 79.91235
1063.755, 99.51025
1064.238, 108.4673
1064.720, 88.54956
1065.202, 69.62207
1065.684, 60.88184
1066.166, 59.39917
1066.648, 56.82471
1067.130, 52.76367
1067.612, 47.16626
1068.094, 38.83081
1068.577, 32.57837
1069.059, 36.02783
1069.541, 39.57422
1070.023, 33.31274
1070.505, 14.74805
1070.987, 1.461182
1071.469, 6.136963
1071.951, 13.03442
1072.434, 19.96997
1072.916, 30.13477
1073.398, 54.36450
1073.880, 85.72534
1074.362, 99.88257
1074.844, 72.03711
1075.326, 60.93579
1075.808, 78.05786
1076.291, 106.4670
1076.773, 127.5281
1077.255, 140.0188
1077.737, 134.2996
1078.219, 107.7871
1078.701, 93.20386
1079.183, 120.4080
1079.665, 151.1702
1080.147, 166.3835
1080.630, 168.3472
1081.112, 169.9788
1081.594, 171.2939
1082.076, 172.4766
1082.558, 172.0010
1083.040, 174.4832
1083.522, 187.3408
1084.004, 204.1973
1084.486, 216.4766
1084.969, 222.6821
1085.451, 224.7744
1085.933, 220.5251
1086.415, 220.8514
1086.897, 242.2715
1087.379, 269.7939
1087.861, 272.4736
1088.343, 256.0837
1088.826, 247.2212
1089.308, 265.1382
1089.790, 278.7943
1090.272, 282.0994
1090.754, 279.3634
1091.236, 275.9718
1091.718, 272.2727
1092.200, 270.3000
1092.682, 270.6418
1093.165, 270.1548
1093.647, 266.6426
1094.129, 261.8826
1094.611, 256.6534
1095.093, 251.0557
1095.575, 244.3418
1096.057, 236.2775
1096.539, 233.8958
1097.022, 244.3285
1097.504, 253.0114
1097.986, 238.4078
1098.468, 215.4789
1098.950, 206.1461
1099.432, 221.6801
1099.914, 228.6165
1100.396, 225.6758
1100.879, 218.5757
1101.361, 209.5430
1101.843, 200.1134
1102.325, 192.0101
1102.807, 185.6407
1103.289, 182.7349
1103.771, 192.3046
1104.253, 193.0476
1104.735, 177.9106
1105.218, 157.1403
1105.700, 143.5824
1106.182, 136.7644
1106.664, 137.5353
1107.146, 146.0491
1107.628, 153.1508
1108.110, 150.2161
1108.592, 146.5962
1109.074, 148.2577
1109.557, 153.8062
1110.039, 159.2015
1110.521, 164.3595
1111.003, 159.5480
1111.485, 138.7670
1111.967, 121.0089
1112.449, 131.7484
1112.931, 149.3217
1113.414, 148.1179
1113.896, 119.9236
1114.378, 110.3330
1114.860, 124.4254
1115.342, 134.1991
1115.824, 117.3395
1116.306, 91.94275
1116.788, 90.65698
1117.271, 103.5935
1117.753, 107.9331
1118.235, 85.69263
1118.717, 70.73914
1119.199, 66.82654
1119.681, 67.28821
1120.163, 66.53088
1120.645, 65.28699
1121.127, 65.40173
1121.609, 65.62463
1122.092, 63.27698
1122.574, 52.01135
1123.056, 47.60400
1123.538, 58.47168
1124.020, 75.28210
1124.502, 78.23328
1124.984, 69.26575
1125.466, 65.55786
1125.949, 70.88831
1126.431, 78.11658
1126.913, 81.54541
1127.395, 84.83105
1127.877, 92.07361
1128.359, 103.3076
1128.841, 112.9037
1129.323, 120.4524
1129.806, 124.8461
1130.288, 123.5133
1130.770, 123.7413
1131.252, 133.8292
1131.734, 149.6434
1132.216, 166.4138
1132.698, 184.0714
1133.180, 200.8032
1133.662, 218.0032
1134.145, 230.5588
1134.627, 228.5785
1135.109, 224.6584
1135.591, 243.9817
1136.073, 277.2618
1136.555, 300.7762
1137.037, 299.2329
1137.519, 299.5442
1138.001, 301.5814
1138.484, 309.2808
1138.966, 331.9624
1139.448, 362.1488
1139.930, 378.1819
1140.412, 381.1526
1140.894, 390.2119
1141.376, 422.4109
1141.858, 449.8871
1142.341, 463.4589
1142.823, 470.6277
1143.305, 487.6461
1143.787, 511.0214
1144.269, 524.3923
1144.751, 524.3839
1145.233, 521.3584
1145.715, 514.2039
1146.198, 513.3562
1146.680, 528.6525
1147.162, 554.0918
1147.644, 559.9005
1148.126, 547.1588
1148.608, 529.9933
1149.090, 509.8298
1149.572, 493.8826
1150.054, 493.1705
1150.536, 495.3887
1151.019, 487.3237
1151.501, 467.4043
1151.983, 456.2382
1152.465, 454.2894
1152.947, 450.3083
1153.429, 437.5508
1153.911, 420.7205
1154.393, 402.6965
1154.876, 384.4398
1155.358, 367.5522
1155.840, 351.9751
1156.322, 339.0322
1156.804, 329.3564
1157.286, 318.8257
1157.768, 302.0847
1158.250, 284.0356
1158.733, 270.6656
1159.215, 261.3928
1159.697, 253.4080
1160.179, 249.5094
1160.661, 238.9871
1161.143, 218.5802
1161.625, 197.3303
1162.107, 183.8369
1162.589, 176.2465
1163.072, 174.9213
1163.554, 179.0996
1164.036, 176.5627
1164.518, 158.9802
1165.000, 143.8647
1165.482, 134.7574
1165.964, 130.5884
1166.446, 132.8764
1166.928, 138.4926
1167.411, 140.0731
1167.893, 135.8705
1168.375, 130.2737
1168.857, 123.9569
1169.339, 116.2247
1169.821, 106.4878
1170.303, 96.71484
1170.785, 90.00690
1171.268, 85.50635
1171.750, 81.08142
1172.232, 77.08630
1172.714, 73.61871
1173.196, 71.11053
1173.678, 67.26978
1174.160, 60.03650
1174.642, 51.18280
1175.125, 47.54431
1175.607, 48.18127
1176.089, 48.98102
1176.571, 48.86285
1177.053, 48.64972
1177.535, 50.68634
1178.017, 51.35382
1178.499, 45.57837
1178.981, 33.64325
1179.464, 31.11823
1179.946, 37.30450
1180.428, 38.99823
1180.910, 20.34711
1181.392, 4.414307
1181.874, 6.203003
1182.356, 16.55084
1182.838, 21.82306
1183.320, 21.90381
1183.803, 23.56537
1184.285, 27.33002
1184.767, 27.52069
1185.249, 13.21851
1185.731, 0.4298710
1186.213, 2.846375
1186.695, 15.58130
1187.177, 24.86176
1187.660, 30.76575
1188.142, 31.98407
1188.624, 27.82770
1189.106, 21.78558
1189.588, 10.76569
1190.070, 3.851990
1190.552, 14.22333
1191.034, 37.79431
1191.516, 42.93085
1191.999, 27.05707
1192.481, 18.28467
1192.963, 25.55426
1193.445, 34.87982
1193.927, 31.74646
1194.409, 24.23474
1194.891, 19.82281
1195.373, 19.17627
1195.855, 22.68060
1196.338, 31.16150
1196.820, 38.17328
1197.302, 41.67957
1197.784, 41.85693
1198.266, 35.87573
1198.748, 28.48535
1199.230, 27.07697
1199.712, 34.34961
1200.195, 34.35791
1200.677, 26.01385
1201.159, 18.54193
1201.641, 16.86108
1202.123, 18.71667
1202.605, 23.04126
1203.087, 28.85059
1203.569, 34.85577
1204.052, 41.77283
1204.534, 44.95361
1205.016, 43.97131
1205.498, 41.22083
1205.980, 35.44415
1206.462, 30.15228
1206.944, 32.28101
1207.426, 37.91724
1207.908, 34.38605
1208.391, 12.47723
1208.873, 9.410217
1209.355, 30.19696
1209.837, 51.55005
1210.319, 47.76227
1210.801, 36.34003
1211.283, 41.13940
1211.765, 57.20813
1212.247, 63.74750
1212.730, 56.74042
1213.212, 49.49127
1213.694, 42.98096
1214.176, 39.98700
1214.658, 45.76752
1215.140, 52.24060
1215.622, 48.03229
1216.104, 35.31055
1216.587, 30.75037
1217.069, 39.20795
1217.551, 41.37439
1218.033, 32.91132
1218.515, 22.88794
1218.997, 17.98206
1219.479, 18.96967
1219.961, 31.68121
1220.443, 54.31561
1220.926, 59.84540
1221.408, 41.44666
1221.890, 30.86951
1222.372, 37.21466
1222.854, 47.47748
1223.336, 44.75458
1223.818, 38.07172
1224.300, 38.02301
1224.782, 46.23755
1225.265, 54.78864
1225.747, 64.70587
1226.229, 68.92883
1226.711, 63.68018
1227.193, 56.31757
1227.675, 57.74341
1228.157, 60.92468
1228.639, 55.48486
1229.122, 38.98456
1229.604, 33.74280
1230.086, 41.05273
1230.568, 50.07141
1231.050, 56.78394
1231.532, 63.10754
1232.014, 21.30804
1232.496, 36.51996
1232.979, 44.90710
1233.461, 46.87201
1233.943, 23.17810
1234.425, 32.64185
1234.907, 28.83069
1235.389, 24.51294
1235.871, 38.71698
1236.353, 18.79999
1236.835, 32.57397
1237.318, 32.85205
1237.800, 39.41895
1238.282, 32.73315
1238.764, 30.01746
1239.246, 40.31842
1239.728, 43.21973
1240.210, 34.61884
1240.692, 41.37726
1241.175, 20.87732
1241.657, 24.35614
1242.139, 38.16010
1242.621, 30.32819
1243.103, 37.21948
1243.585, 38.27216
1244.067, 13.61829
1244.549, 33.87054
1245.031, 34.83636
1245.514, 15.96332
1245.996, 34.78778
1246.478, 18.61078
1246.960, 14.84851
1247.442, 20.35822
1247.924, 15.97675
1248.406, 27.13702
1248.888, 23.61621
1249.370, 18.79596
1249.853, 19.62299
1250.335, 3.941833
1250.817, 18.78412
1251.299, 12.87671
1251.781, 17.27881
1252.263, 23.95258
1252.745, 12.61926
1253.227, 20.28271
1253.710, 1.520691
1254.192, 1.409729
1254.674, 1.733826
1255.156, 17.84723
1255.638, 3.683289
1256.120, 1.429993
1256.602, 10.90796
1257.084, 9.031555
1257.567, 13.59137
1258.049, 0.3582760
1258.531, 3.552063
1259.013, 2.323120
1259.495, 17.00201
1259.977, 19.30573
1260.459, 6.557068
1260.941, 6.229980
1261.423, 9.488342
1261.906, 2.205933
1262.388, 1.095337
1262.870, 10.65015
1263.352, 9.368164
1263.834, 8.201782
1264.316, 0.5252080
1264.798, 13.08649
1265.280, 0.5798950
1265.762, 1.054688
1266.245, 1.824890
1266.727, 4.077148
1267.209, 14.10938
1267.691, 15.38538
1268.173, 7.220337
1268.655, 6.663086
1269.137, 13.09711
1269.619, 2.552856
1270.102, 6.049622
1270.584, 6.767700
1271.066, 6.506104
1271.548, 19.62616
1272.030, 11.53479
1272.512, 4.643799
1272.994, 14.77667
1273.476, 17.08740
1273.958, 16.68622
1274.441, 13.36218
1274.923, 8.472473
1275.405, 1.624329
1275.887, 3.149597
1276.369, 0.6500850
1276.851, 7.034607
1277.333, 10.72607
1277.815, 11.77142
1278.297, 13.97369
1278.780, 17.85626
1279.262, 18.66528
1279.744, 14.45715
1280.226, 11.03149
1280.708, 15.03088
1281.190, 19.36389
1281.672, 18.50037
1282.154, 14.07196
1282.637, 11.89795
1283.119, 12.05200
1283.601, 13.46283
1284.083, 15.86591
1284.565, 18.30334
1285.047, 24.45947
1285.529, 25.93878
1286.011, 17.49121
1286.494, 4.169678
1286.976, 2.606323
1287.458, 10.12329
1287.940, 16.63751
1288.422, 21.35352
1288.904, 22.56287
1289.386, 16.51233
1289.868, 12.64447
1290.350, 15.29999
1290.833, 20.90399
1291.315, 23.03357
1291.797, 25.19812
1292.279, 21.42407
1292.761, 12.56915
1293.243, 4.333496
1293.725, 3.506348
1294.207, 4.037964
1294.689, 2.397461
1295.172, 3.1615999E-02
1295.654, 2.437561
1296.136, 2.463623
1296.618, 3.560791
1297.100, 17.07092
1297.582, 19.31360
1298.064, 8.393860
1298.546, 0.4840700
1299.029, 1.010559
1299.511, 4.920715
1299.993, 8.272217
1300.475, 11.14453
1300.957, 13.18079
1301.439, 15.46612
1301.921, 16.77789
1302.403, 16.76349
1302.885, 17.19543
1303.368, 18.87952
1303.850, 19.58789
1304.332, 15.53113
1304.814, 12.34235
1305.296, 12.68976
1305.778, 16.33716
1306.260, 18.03223
1306.742, 16.60547
1307.224, 15.40662
1307.707, 15.90503
1308.189, 14.79999
1308.671, 7.115784
1309.153, 3.207214
1309.635, 9.015503
1310.117, 18.03534
1310.599, 13.82922
1311.081, 3.028442
1311.564, 0.3231810
1312.046, 10.05811
1312.528, 14.47791
1313.010, 10.52283
1313.492, 5.534912
1313.974, 1.405579
1314.456, 0.0000000E+00
##END=



