##NAMES=Pyromorphite
##RRUFFID=R060285
##IDEAL CHEMISTRY=Pb_5_(PO_4_)_3_Cl
##LOCALITY=Les Farges mine, Correze Ussel, France
##OWNER=RRUFF
##SOURCE=Herb Obodda
##DESCRIPTION=Aggregate of green hexagonal prisms
##STATUS=The identification of this mineral has been confirmed by X-ray diffraction and chemical analysis
##URL=rruff.info/R060285
##MEASURED CHEMISTRY=Pb_5.00_((P_0.99_As_0.01_)_Î£=1_O_4_)_3_Cl_1.00_
185.4692, 0.0000000E+00
185.9513, 4.714844
186.4334, 5.637695
186.9155, 9.838379
187.3976, 17.02344
187.8798, 25.25049
188.3619, 34.00000
188.8440, 43.13721
189.3261, 49.88525
189.8082, 52.11719
190.2903, 50.92041
190.7725, 51.22461
191.2546, 54.17090
191.7367, 56.75830
192.2188, 54.12158
192.7009, 45.81982
193.1830, 38.61816
193.6652, 37.21045
194.1473, 40.50195
194.6294, 40.01709
195.1115, 35.53613
195.5936, 28.67480
196.0757, 21.10059
196.5579, 13.23730
197.0400, 6.733398
197.5221, 3.145996
198.0042, 2.395020
198.4863, 1.859863
198.9684, 2.615723
199.4506, 4.939941
199.9327, 10.10645
200.4148, 18.59863
200.8969, 25.23975
201.3790, 28.46826
201.8611, 28.55078
202.3433, 28.46045
202.8254, 27.32666
203.3075, 25.75146
203.7896, 24.44580
204.2717, 22.39551
204.7538, 21.15967
205.2360, 22.13135
205.7181, 25.04590
206.2002, 24.62891
206.6823, 21.49365
207.1644, 17.14014
207.6465, 15.10693
208.1287, 17.08691
208.6108, 19.41504
209.0929, 19.50488
209.5750, 16.46191
210.0571, 15.94141
210.5392, 19.35645
211.0214, 24.87891
211.5035, 28.66943
211.9856, 32.25244
212.4677, 36.23486
212.9498, 41.58203
213.4319, 49.26758
213.9141, 55.77930
214.3962, 60.38232
214.8783, 62.43799
215.3604, 66.70166
215.8425, 76.72803
216.3246, 88.29297
216.8068, 98.30762
217.2889, 105.9048
217.7710, 107.3237
218.2531, 101.1143
218.7352, 90.47070
219.2173, 86.21436
219.6995, 93.38867
220.1816, 98.90039
220.6637, 96.14014
221.1458, 80.92139
221.6279, 70.61963
222.1100, 67.34912
222.5922, 68.45020
223.0743, 66.72168
223.5564, 61.43604
224.0385, 55.27783
224.5206, 48.26270
225.0027, 37.89453
225.4849, 33.75049
225.9670, 39.36768
226.4491, 50.36963
226.9312, 54.99902
227.4133, 49.40918
227.8954, 43.99072
228.3776, 44.09717
228.8597, 53.18506
229.3418, 58.55029
229.8239, 58.93359
230.3060, 55.69629
230.7881, 52.03613
231.2703, 45.87354
231.7524, 41.80615
232.2345, 41.83740
232.7166, 49.20312
233.1987, 53.04492
233.6808, 52.71338
234.1630, 49.31836
234.6451, 45.37207
235.1272, 40.90674
235.6093, 35.75732
236.0914, 30.05469
236.5735, 24.32471
237.0557, 17.16797
237.5378, 7.564941
238.0199, 2.848633
238.5020, 9.514648
238.9841, 10.52881
239.4662, 10.49805
239.9484, 10.98730
240.4305, 12.20557
240.9126, 13.25342
241.3947, 14.15869
241.8768, 15.38574
242.3589, 17.57227
242.8411, 22.13184
243.3232, 21.82129
243.8053, 18.73486
244.2874, 11.21191
244.7695, 5.237793
245.2516, 0.6972660
245.7338, 2.301758
246.2159, 3.146484
246.6980, 9.6680000E-02
247.1801, 2.440918
247.6622, 2.722656
248.1443, 0.1464840
248.6265, 3.481934
249.1086, 9.437988
249.5907, 15.95020
250.0728, 18.67285
250.5549, 14.04932
251.0370, 11.64258
251.5192, 16.33301
252.0013, 32.12402
252.4834, 40.63574
252.9655, 38.07471
253.4476, 30.25293
253.9297, 28.14014
254.4119, 34.19531
254.8940, 41.17920
255.3761, 46.98047
255.8582, 51.97754
256.3403, 54.13232
256.8224, 52.46875
257.3046, 48.83154
257.7867, 46.38086
258.2688, 45.93018
258.7509, 45.21094
259.2330, 43.44141
259.7151, 40.46924
260.1973, 38.16504
260.6794, 37.34326
261.1615, 36.63281
261.6436, 33.09668
262.1257, 23.97900
262.6078, 18.78809
263.0900, 21.56543
263.5721, 33.42773
264.0542, 42.41260
264.5363, 48.27783
265.0184, 51.41064
265.5005, 51.69531
265.9827, 47.32031
266.4648, 45.27100
266.9469, 48.18750
267.4290, 56.09961
267.9111, 62.19189
268.3932, 66.67236
268.8754, 68.93213
269.3575, 67.97363
269.8396, 63.23193
270.3217, 57.12598
270.8038, 49.60596
271.2859, 40.87451
271.7681, 35.01025
272.2502, 32.93311
272.7323, 31.84326
273.2144, 28.93262
273.6965, 24.00391
274.1786, 18.75195
274.6608, 13.10254
275.1429, 7.347168
275.6250, 3.581543
276.1071, 2.149414
276.5892, 1.646484
277.0714, 0.5932620
277.5535, 1.143555
278.0356, 1.412109
278.5177, 0.2514650
278.9998, 3.642578
279.4819, 8.789551
279.9641, 16.58057
280.4462, 23.35010
280.9283, 26.23682
281.4104, 25.16113
281.8925, 21.51172
282.3746, 14.28223
282.8568, 5.457520
283.3389, 1.027344
283.8210, 1.413086
284.3031, 4.014160
284.7852, 7.399902
285.2673, 11.29639
285.7495, 14.53955
286.2316, 16.54785
286.7137, 18.36572
287.1958, 22.63477
287.6779, 29.31689
288.1600, 35.24170
288.6422, 37.28662
289.1243, 36.20801
289.6064, 38.43701
290.0885, 45.92920
290.5706, 53.78027
291.0527, 51.54492
291.5349, 40.06592
292.0170, 31.30908
292.4991, 35.66943
292.9812, 48.82764
293.4633, 54.25146
293.9454, 50.49854
294.4276, 42.13916
294.9097, 33.41455
295.3918, 24.48291
295.8739, 16.83350
296.3560, 9.946289
296.8381, 5.563477
297.3203, 8.946777
297.8024, 20.86182
298.2845, 33.32471
298.7666, 38.53125
299.2487, 37.40430
299.7308, 33.10742
300.2130, 24.17432
300.6951, 13.64746
301.1772, 7.688477
301.6593, 6.497559
302.1414, 6.451172
302.6235, 2.924316
303.1057, 1.975098
303.5878, 3.888184
304.0699, 1.159668
304.5520, 7.670410
305.0341, 8.502441
305.5162, 4.481934
305.9984, 1.662598
306.4805, 4.875977
306.9626, 11.76514
307.4447, 19.14502
307.9268, 28.05273
308.4089, 34.24561
308.8911, 31.73096
309.3732, 22.61719
309.8553, 15.21191
310.3374, 15.85596
310.8195, 19.55371
311.3016, 20.99609
311.7838, 17.68604
312.2659, 15.22754
312.7480, 18.96191
313.2301, 26.51562
313.7122, 32.13818
314.1943, 30.68848
314.6765, 28.13672
315.1586, 28.83301
315.6407, 33.94873
316.1228, 40.52979
316.6049, 48.27148
317.0870, 56.40088
317.5692, 63.46143
318.0513, 68.49854
318.5334, 72.66553
319.0155, 76.53613
319.4976, 80.23682
319.9797, 82.47852
320.4619, 81.25391
320.9440, 78.84619
321.4261, 77.78906
321.9082, 79.51904
322.3903, 81.60986
322.8724, 83.04736
323.3546, 83.78857
323.8367, 85.64648
324.3188, 92.17383
324.8009, 98.47998
325.2830, 100.7588
325.7651, 93.35547
326.2473, 88.09717
326.7294, 88.93652
327.2115, 94.81787
327.6936, 96.66113
328.1757, 89.17773
328.6578, 81.10986
329.1400, 76.77246
329.6221, 78.57910
330.1042, 80.87598
330.5863, 84.50635
331.0684, 88.54102
331.5505, 90.23975
332.0327, 88.74268
332.5148, 85.65820
332.9969, 80.94580
333.4790, 72.59668
333.9611, 68.03076
334.4432, 68.85693
334.9254, 72.44775
335.4075, 74.12744
335.8896, 72.85010
336.3717, 72.37402
336.8538, 74.61572
337.3359, 80.30273
337.8181, 81.13525
338.3002, 74.53369
338.7823, 67.12646
339.2644, 67.43311
339.7465, 77.63525
340.2286, 86.33496
340.7108, 91.22852
341.1929, 92.41699
341.6750, 88.39209
342.1571, 77.42432
342.6392, 67.50195
343.1213, 67.45215
343.6035, 77.38428
344.0856, 81.77979
344.5677, 76.22168
345.0498, 65.35840
345.5319, 61.40137
346.0140, 64.59521
346.4962, 67.65137
346.9783, 66.63086
347.4604, 61.77783
347.9425, 52.50391
348.4246, 37.30176
348.9067, 22.28809
349.3889, 17.89258
349.8710, 22.51270
350.3531, 26.82666
350.8352, 26.19238
351.3173, 22.14160
351.7994, 17.14795
352.2816, 11.21143
352.7637, 5.331543
353.2458, 1.116211
353.7279, 6.818848
354.2100, 8.854492
354.6921, 2.980957
355.1743, 4.827148
355.6564, 8.125488
356.1385, 7.156250
356.6206, 5.346680
357.1027, 2.991211
357.5848, 1.814941
358.0670, 4.036621
358.5491, 11.32861
359.0312, 20.28711
359.5133, 30.64990
359.9954, 41.30566
360.4775, 49.06689
360.9597, 51.82080
361.4418, 51.43262
361.9239, 47.91113
362.4060, 38.34131
362.8881, 33.91211
363.3702, 45.57324
363.8524, 63.72998
364.3345, 73.67920
364.8166, 62.33838
365.2987, 50.12744
365.7808, 44.51221
366.2629, 46.30713
366.7451, 51.16113
367.2272, 63.30713
367.7093, 75.96729
368.1914, 83.19775
368.6735, 79.27295
369.1556, 75.86133
369.6378, 73.95215
370.1199, 73.62061
370.6020, 75.75195
371.0841, 83.88525
371.5662, 91.22510
372.0483, 93.44141
372.5305, 84.29688
373.0126, 81.98438
373.4947, 89.05273
373.9768, 102.2998
374.4589, 114.3550
374.9410, 124.1689
375.4232, 134.9907
375.9053, 148.3667
376.3874, 164.6958
376.8695, 181.5371
377.3516, 200.1714
377.8337, 217.5625
378.3159, 228.9541
378.7980, 233.1733
379.2801, 241.1055
379.7622, 257.6113
380.2443, 279.9727
380.7264, 295.1753
381.2086, 301.9072
381.6907, 309.8877
382.1728, 328.9072
382.6549, 357.3662
383.1370, 383.6611
383.6191, 405.4697
384.1013, 425.3223
384.5834, 447.3135
385.0655, 471.4766
385.5476, 497.5596
386.0297, 528.0254
386.5118, 560.1016
386.9940, 588.9805
387.4761, 613.7373
387.9582, 637.8828
388.4403, 664.9229
388.9224, 694.3281
389.4045, 724.3447
389.8867, 756.1543
390.3688, 787.0645
390.8509, 814.7402
391.3330, 839.0273
391.8151, 859.9883
392.2972, 879.1748
392.7794, 893.5664
393.2615, 900.6797
393.7436, 901.4355
394.2257, 892.5000
394.7078, 867.2764
395.1899, 830.7451
395.6721, 795.9902
396.1542, 768.0898
396.6363, 742.2930
397.1184, 715.9697
397.6005, 687.6230
398.0826, 662.8701
398.5648, 642.4316
399.0469, 626.1270
399.5290, 613.7305
400.0111, 607.9717
400.4932, 603.1494
400.9753, 595.2158
401.4575, 584.5557
401.9396, 588.1289
402.4217, 615.8740
402.9038, 646.6406
403.3859, 664.9531
403.8680, 661.3320
404.3502, 668.2070
404.8323, 690.7656
405.3144, 723.6064
405.7965, 751.8564
406.2786, 774.6885
406.7607, 796.2822
407.2429, 820.3643
407.7250, 847.3682
408.2071, 863.1680
408.6892, 865.9229
409.1713, 863.1924
409.6534, 866.5615
410.1356, 875.3154
410.6177, 875.6631
411.0998, 861.8301
411.5819, 837.9404
412.0640, 813.7324
412.5461, 789.3447
413.0283, 761.1309
413.5104, 722.4336
413.9925, 678.7393
414.4746, 641.0283
414.9567, 611.4873
415.4388, 587.2041
415.9210, 567.4082
416.4031, 550.4121
416.8852, 531.5537
417.3673, 509.1436
417.8494, 483.9307
418.3315, 454.6309
418.8137, 421.5117
419.2958, 392.0664
419.7779, 372.6191
420.2600, 357.4639
420.7421, 341.6777
421.2242, 324.0186
421.7064, 305.6484
422.1885, 286.8525
422.6706, 267.6182
423.1527, 247.1768
423.6348, 224.3604
424.1169, 201.3789
424.5990, 178.4473
425.0811, 153.4160
425.5633, 134.3975
426.0454, 125.0674
426.5275, 120.4668
427.0096, 114.1416
427.4917, 103.1113
427.9738, 95.05566
428.4560, 92.56055
428.9381, 95.28125
429.4202, 95.27539
429.9023, 90.90820
430.3844, 87.11719
430.8665, 88.55176
431.3487, 96.85449
431.8308, 97.62598
432.3129, 86.78418
432.7950, 71.41602
433.2771, 67.89941
433.7592, 76.69141
434.2414, 83.91309
434.7235, 81.22852
435.2056, 71.60645
435.6877, 67.25781
436.1698, 68.83887
436.6519, 71.36035
437.1341, 69.44922
437.6162, 64.66895
438.0983, 60.83105
438.5804, 59.79297
439.0625, 58.55762
439.5446, 52.54395
440.0268, 43.23145
440.5089, 35.72168
440.9910, 34.50586
441.4731, 35.62305
441.9552, 35.84277
442.4373, 34.81934
442.9195, 32.89258
443.4016, 30.74121
443.8837, 27.67480
444.3658, 22.84180
444.8479, 13.42285
445.3300, 4.828125
445.8122, 2.207031
446.2943, 7.394531
446.7764, 8.970703
447.2585, 1.562500
447.7406, 5.528320
448.2227, 7.262695
448.7049, 1.111328
449.1870, 5.790039
449.6691, 5.080078
450.1512, 1.497070
450.6333, 0.9091800
451.1154, 1.471680
451.5976, 2.327148
452.0797, 3.987305
452.5618, 6.410156
453.0439, 9.272461
453.5260, 12.69922
454.0081, 15.78320
454.4903, 18.27441
454.9724, 20.11133
455.4545, 19.02734
455.9366, 13.83789
456.4187, 7.525391
456.9008, 6.398438
457.3830, 9.653320
457.8651, 10.89160
458.3472, 3.625000
458.8293, 6.521484
459.3114, 8.441406
459.7935, 2.043945
460.2757, 5.828125
460.7578, 10.13086
461.2399, 12.45801
461.7220, 15.08789
462.2041, 19.32031
462.6862, 22.80469
463.1684, 23.21387
463.6505, 21.66699
464.1326, 20.73047
464.6147, 22.02637
465.0968, 23.60840
465.5789, 25.04590
466.0611, 26.58301
466.5432, 25.22363
467.0253, 15.07715
467.5074, 4.478516
467.9895, 0.4501950
468.4716, 10.31152
468.9538, 17.90918
469.4359, 22.57031
469.9180, 24.29883
470.4001, 22.54102
470.8822, 15.45117
471.3643, 8.438477
471.8465, 3.700195
472.3286, 1.492188
472.8107, 0.3789060
473.2928, 0.8027340
473.7749, 1.617188
474.2570, 2.922852
474.7392, 4.750000
475.2213, 0.1708980
475.7034, 15.73633
476.1855, 34.70996
476.6676, 37.58887
477.1497, 25.84570
477.6319, 13.33594
478.1140, 8.457031
478.5961, 8.218750
479.0782, 8.124023
479.5603, 8.006836
480.0424, 7.353516
480.5246, 5.809570
481.0067, 3.523438
481.4888, 0.6630860
481.9709, 2.950195
482.4530, 6.833008
482.9352, 11.89746
483.4173, 17.22266
483.8994, 19.91504
484.3815, 15.27441
484.8636, 10.80273
485.3457, 11.28027
485.8279, 19.69043
486.3100, 22.92871
486.7921, 15.05957
487.2742, 4.221680
487.7563, 2.618164
488.2384, 4.372070
488.7206, 3.752930
489.2027, 0.3632810
489.6848, 5.113281
490.1669, 11.05762
490.6490, 18.91602
491.1311, 22.79102
491.6133, 16.83594
492.0954, 1.374023
492.5775, 2.820313
493.0596, 6.471680
493.5417, 17.93457
494.0238, 17.89062
494.5060, 8.790039
494.9881, 1.667969
495.4702, 0.7373050
495.9523, 0.1269530
496.4344, 3.034180
496.9165, 7.649414
497.3987, 12.68457
497.8808, 18.52930
498.3629, 23.80566
498.8450, 27.05566
499.3271, 28.11816
499.8092, 28.16016
500.2914, 25.35840
500.7735, 22.91406
501.2556, 23.93750
501.7377, 33.76660
502.2198, 41.39746
502.7019, 44.69824
503.1841, 44.07715
503.6662, 40.69922
504.1483, 28.69238
504.6304, 20.28418
505.1125, 20.58984
505.5946, 30.36816
506.0768, 36.83789
506.5589, 39.66797
507.0410, 39.57910
507.5231, 36.18359
508.0052, 28.51270
508.4873, 25.59961
508.9695, 29.64941
509.4516, 36.96484
509.9337, 40.26465
510.4158, 39.77441
510.8979, 39.85059
511.3800, 43.95020
511.8622, 49.36719
512.3443, 49.19141
512.8264, 43.61621
513.3085, 37.78711
513.7906, 34.54688
514.2728, 33.73047
514.7549, 36.53711
515.2370, 45.72852
515.7191, 50.75977
516.2012, 39.28223
516.6833, 20.35156
517.1655, 8.420898
517.6476, 15.52637
518.1297, 23.72168
518.6118, 27.06348
519.0939, 25.78223
519.5760, 23.89160
520.0582, 20.66602
520.5403, 17.97168
521.0224, 16.54590
521.5045, 16.45312
521.9866, 17.26367
522.4688, 18.76562
522.9509, 21.25879
523.4330, 25.98340
523.9151, 33.76172
524.3972, 38.57812
524.8793, 37.82910
525.3615, 34.28418
525.8436, 36.17285
526.3257, 43.56641
526.8078, 50.13086
527.2899, 52.18848
527.7720, 50.93359
528.2542, 48.67090
528.7363, 45.53516
529.2184, 42.17871
529.7005, 38.00000
530.1826, 34.29102
530.6647, 33.08691
531.1469, 36.16309
531.6290, 40.04102
532.1111, 42.38965
532.5932, 44.10742
533.0753, 46.82129
533.5574, 49.92480
534.0396, 53.43848
534.5217, 60.20996
535.0038, 71.41406
535.4859, 77.59277
535.9680, 73.44824
536.4501, 67.84961
536.9323, 66.14453
537.4144, 70.19238
537.8965, 72.36914
538.3786, 70.74219
538.8607, 69.85156
539.3428, 79.58301
539.8250, 101.5098
540.3071, 114.4492
540.7892, 109.0410
541.2713, 93.39355
541.7534, 86.71777
542.2355, 88.54102
542.7177, 93.31934
543.1998, 101.0469
543.6819, 108.3242
544.1640, 108.6465
544.6461, 101.2705
545.1282, 93.34961
545.6104, 88.93848
546.0925, 87.08691
546.5746, 86.61621
547.0567, 86.98828
547.5388, 89.20410
548.0209, 94.47559
548.5031, 101.4482
548.9852, 107.5537
549.4673, 111.9541
549.9494, 115.6816
550.4315, 119.8506
550.9136, 125.0820
551.3958, 125.6074
551.8779, 117.6543
552.3600, 111.1680
552.8421, 114.4229
553.3242, 129.3389
553.8063, 136.3125
554.2885, 133.6348
554.7706, 125.7500
555.2527, 117.0479
555.7348, 107.7725
556.2169, 99.99219
556.6990, 95.18848
557.1812, 91.14062
557.6633, 84.10938
558.1454, 74.92480
558.6275, 66.68555
559.1096, 60.48730
559.5917, 56.49902
560.0739, 55.71680
560.5560, 58.26758
561.0381, 60.49805
561.5202, 60.46582
562.0023, 59.80176
562.4844, 59.54395
562.9666, 57.41504
563.4487, 59.56250
563.9308, 71.10352
564.4129, 84.83887
564.8950, 88.72168
565.3771, 76.51660
565.8593, 68.21387
566.3414, 69.10059
566.8235, 77.11133
567.3056, 83.49414
567.7877, 88.10938
568.2698, 91.90723
568.7520, 94.90430
569.2341, 97.48340
569.7162, 102.8193
570.1983, 111.3223
570.6804, 116.9775
571.1625, 109.4785
571.6447, 96.58203
572.1268, 91.32715
572.6089, 99.83887
573.0910, 110.2910
573.5731, 117.6016
574.0552, 121.3848
574.5374, 121.1367
575.0195, 112.6846
575.5016, 104.3438
575.9837, 99.97656
576.4658, 99.13770
576.9479, 94.67090
577.4301, 83.40820
577.9122, 72.25488
578.3943, 64.10254
578.8764, 59.38672
579.3585, 55.49414
579.8406, 52.36230
580.3228, 50.13379
580.8049, 49.39355
581.2870, 49.95410
581.7691, 49.13574
582.2512, 45.43555
582.7333, 42.73438
583.2155, 49.55371
583.6976, 62.38672
584.1797, 71.11426
584.6618, 65.80859
585.1439, 57.44238
585.6260, 54.79980
586.1082, 57.94043
586.5903, 65.90527
587.0724, 88.36035
587.5545, 105.8613
588.0366, 104.5889
588.5187, 77.65039
589.0009, 59.92578
589.4830, 63.72754
589.9651, 72.81348
590.4472, 75.23047
590.9293, 68.06152
591.4114, 61.36523
591.8936, 56.26953
592.3757, 51.57227
592.8578, 43.44922
593.3399, 31.45703
593.8220, 25.06738
594.3041, 29.72559
594.7863, 40.12012
595.2684, 42.79688
595.7505, 38.84375
596.2326, 36.62500
596.7147, 45.88672
597.1968, 57.33691
597.6790, 59.23242
598.1611, 50.63672
598.6432, 41.68848
599.1253, 38.95020
599.6074, 37.90137
600.0895, 34.50195
600.5717, 24.53809
601.0538, 18.44922
601.5359, 19.95312
602.0180, 25.39355
602.5001, 30.23145
602.9822, 34.00684
603.4644, 38.03320
603.9465, 43.24609
604.4286, 48.44043
604.9107, 49.94727
605.3928, 47.44434
605.8749, 42.62012
606.3571, 32.26172
606.8392, 20.37988
607.3213, 23.43164
607.8034, 40.85059
608.2855, 58.29785
608.7676, 62.67969
609.2498, 59.64551
609.7319, 58.01074
610.2140, 60.17773
610.6961, 60.51562
611.1782, 51.41504
611.6603, 40.81738
612.1425, 37.13965
612.6246, 51.76074
613.1067, 62.07520
613.5888, 63.84961
614.0709, 59.82910
614.5530, 55.16211
615.0352, 50.03906
615.5173, 44.81055
615.9994, 37.54785
616.4815, 29.53027
616.9636, 28.97070
617.4457, 36.62109
617.9279, 43.73438
618.4100, 43.96094
618.8921, 39.47949
619.3742, 35.99023
619.8563, 33.70898
620.3384, 32.11523
620.8206, 30.71094
621.3027, 29.70801
621.7848, 29.76074
622.2669, 32.06836
622.7490, 32.41797
623.2311, 25.35059
623.7133, 16.50391
624.1954, 13.09961
624.6775, 23.69727
625.1596, 30.66406
625.6417, 29.67090
626.1238, 24.06934
626.6060, 24.13770
627.0881, 32.99219
627.5702, 38.19238
628.0523, 33.50488
628.5344, 21.69629
629.0165, 16.81250
629.4987, 18.98438
629.9808, 23.12891
630.4629, 26.13184
630.9450, 28.85742
631.4271, 31.97559
631.9092, 35.05273
632.3914, 38.33691
632.8735, 42.63379
633.3556, 46.40332
633.8377, 48.12891
634.3198, 46.99902
634.8019, 44.65820
635.2841, 38.13770
635.7662, 31.17871
636.2483, 28.83887
636.7304, 35.59180
637.2125, 39.60938
637.6946, 39.34082
638.1768, 35.35059
638.6589, 28.59277
639.1410, 18.66797
639.6231, 9.155273
640.1052, 1.269531
640.5873, 4.931641
641.0695, 9.210938
641.5516, 11.49902
642.0337, 12.07227
642.5158, 9.524414
642.9979, 6.769531
643.4800, 9.604492
643.9622, 18.82129
644.4443, 23.24316
644.9264, 12.90625
645.4085, 1.886719
645.8906, 12.52246
646.3727, 12.27441
646.8549, 17.91504
647.3370, 35.68066
647.8191, 55.03320
648.3012, 62.64844
648.7833, 55.01074
649.2654, 46.14258
649.7476, 36.76855
650.2297, 28.66699
650.7118, 25.74512
651.1939, 27.61426
651.6760, 30.74805
652.1581, 33.50879
652.6403, 36.96680
653.1224, 45.16406
653.6045, 56.30664
654.0866, 63.16992
654.5687, 58.53125
655.0508, 50.82617
655.5330, 45.46191
656.0151, 42.99316
656.4972, 40.18945
656.9793, 32.01465
657.4614, 26.98535
657.9435, 30.97266
658.4257, 48.87012
658.9078, 58.04688
659.3899, 56.42773
659.8720, 49.50781
660.3541, 40.80957
660.8362, 30.68555
661.3184, 27.32129
661.8005, 33.72949
662.2826, 41.33008
662.7647, 36.74121
663.2468, 24.33008
663.7289, 14.99023
664.2111, 15.97070
664.6932, 17.29492
665.1753, 9.134766
665.6574, 3.588867
666.1395, 10.19043
666.6216, 1.121094
667.1038, 8.081055
667.5859, 12.24707
668.0680, 12.18555
668.5501, 12.98242
669.0322, 14.51172
669.5143, 16.91992
669.9964, 21.47754
670.4785, 27.70312
670.9606, 27.50488
671.4427, 20.26953
671.9249, 11.65430
672.4070, 2.086914
672.8891, 4.862305
673.3712, 2.244141
673.8533, 26.03711
674.3354, 45.92578
674.8176, 42.87402
675.2997, 30.39844
675.7818, 22.76172
676.2639, 25.89355
676.7460, 28.92383
677.2281, 30.80176
677.7103, 30.77930
678.1924, 27.43457
678.6745, 17.76953
679.1566, 11.54980
679.6387, 10.32129
680.1208, 12.99902
680.6030, 18.78711
681.0851, 27.47363
681.5672, 33.40527
682.0493, 33.57910
682.5314, 30.53125
683.0135, 27.23242
683.4957, 23.90332
683.9778, 21.58105
684.4599, 21.44824
684.9420, 21.97266
685.4241, 23.00098
685.9063, 24.19141
686.3884, 22.94238
686.8705, 16.65137
687.3526, 9.627930
687.8347, 2.676758
688.3168, 5.035156
688.7990, 4.205078
689.2811, 8.912109
689.7632, 22.75684
690.2453, 28.58105
690.7274, 26.84473
691.2095, 20.38770
691.6917, 8.390625
692.1738, 0.9687500
692.6559, 5.569336
693.1380, 19.46680
693.6201, 25.10449
694.1022, 15.50000
694.5844, 6.437500
695.0665, 8.291992
695.5486, 15.32812
696.0307, 20.28320
696.5128, 19.16895
696.9949, 18.81641
697.4771, 21.64355
697.9592, 24.60938
698.4413, 19.80078
698.9234, 3.684570
699.4055, 4.053711
699.8876, 5.397461
700.3698, 23.62988
700.8519, 27.96680
701.3340, 19.80762
701.8161, 9.661133
702.2982, 3.770508
702.7803, 5.0781000E-02
703.2625, 5.190430
703.7446, 11.79395
704.2267, 16.20898
704.7088, 16.19434
705.1909, 13.81641
705.6730, 8.901367
706.1552, 1.068359
706.6373, 2.797852
707.1194, 0.3662110
707.6015, 3.418945
708.0836, 2.679688
708.5657, 1.800781
709.0479, 7.641602
709.5300, 14.71484
710.0121, 22.58203
710.4942, 32.25000
710.9763, 41.94141
711.4584, 47.81445
711.9406, 48.97852
712.4227, 47.98633
712.9048, 45.89941
713.3869, 43.06250
713.8690, 39.91895
714.3511, 36.78809
714.8333, 33.25977
715.3154, 30.25586
715.7975, 26.74414
716.2796, 21.50684
716.7617, 14.34082
717.2438, 6.608398
717.7260, 2.619141
718.2081, 9.996094
718.6902, 7.120117
719.1723, 4.515625
719.6544, 12.04688
720.1365, 9.668945
720.6187, 4.096680
721.1008, 3.796875
721.5829, 6.362305
722.0650, 6.492188
722.5471, 3.242188
723.0292, 11.31348
723.5114, 11.28125
723.9935, 5.378906
724.4756, 3.265625
724.9577, 9.720703
725.4398, 14.00586
725.9219, 12.35449
726.4041, 5.918945
726.8862, 1.816406
727.3683, 0.1865230
727.8504, 2.629883
728.3325, 12.47070
728.8146, 24.09863
729.2968, 23.93750
729.7789, 13.23145
730.2610, 2.939453
730.7431, 4.6875000E-02
731.2252, 1.111328
731.7073, 3.013672
732.1895, 4.990234
732.6716, 8.611328
733.1537, 18.33691
733.6358, 25.63770
734.1179, 24.83301
734.6000, 13.20215
735.0822, 9.377930
735.5643, 15.02637
736.0464, 22.31055
736.5285, 24.46973
737.0106, 22.38379
737.4927, 18.70801
737.9749, 13.51270
738.4570, 9.621094
738.9391, 10.79492
739.4212, 14.34473
739.9033, 17.76758
740.3854, 22.32812
740.8676, 22.96094
741.3497, 14.29199
741.8318, 3.435547
742.3139, 2.694336
742.7960, 4.008789
743.2781, 0.2900390
743.7603, 9.935547
744.2424, 22.36426
744.7245, 30.75879
745.2066, 35.28906
745.6887, 38.95215
746.1708, 41.77832
746.6530, 44.53809
747.1351, 47.15918
747.6172, 49.90723
748.0993, 54.30859
748.5814, 65.38770
749.0635, 72.94141
749.5457, 71.64062
750.0278, 64.60645
750.5099, 59.23828
750.9920, 53.73730
751.4741, 54.33301
751.9562, 66.32812
752.4384, 82.20312
752.9205, 78.58887
753.4026, 56.23926
753.8847, 39.64648
754.3668, 40.94238
754.8489, 50.22949
755.3311, 54.85840
755.8132, 55.67090
756.2953, 54.86621
756.7774, 51.39062
757.2595, 48.29980
757.7416, 47.90527
758.2238, 49.61621
758.7059, 51.57910
759.1880, 53.40332
759.6701, 55.93555
760.1522, 60.29199
760.6343, 65.53027
761.1165, 64.87500
761.5986, 57.70703
762.0807, 54.84570
762.5628, 67.06152
763.0449, 85.62695
763.5270, 94.57617
764.0092, 95.40527
764.4913, 96.16602
764.9734, 102.4883
765.4555, 109.0137
765.9376, 111.1709
766.4197, 108.9756
766.9019, 112.2803
767.3840, 125.3838
767.8661, 138.7627
768.3482, 149.6328
768.8303, 157.9287
769.3124, 155.4453
769.7946, 140.9727
770.2767, 131.0898
770.7588, 141.6221
771.2409, 163.1807
771.7230, 178.5879
772.2051, 187.4434
772.6873, 198.0166
773.1694, 219.3008
773.6515, 240.6973
774.1336, 254.9297
774.6157, 260.1387
775.0978, 263.9434
775.5800, 262.9385
776.0621, 265.2285
776.5442, 277.2959
777.0263, 299.8018
777.5084, 319.6123
777.9905, 336.7588
778.4727, 351.5908
778.9548, 360.9980
779.4369, 369.4287
779.9190, 386.9053
780.4011, 414.7490
780.8832, 439.3135
781.3654, 447.9150
781.8475, 454.2500
782.3296, 468.7500
782.8117, 495.6650
783.2938, 520.4570
783.7759, 542.7588
784.2581, 564.5234
784.7402, 586.2305
785.2223, 607.7500
785.7044, 633.8008
786.1865, 665.0557
786.6686, 693.9844
787.1508, 709.6992
787.6329, 719.4277
788.1150, 735.1729
788.5971, 759.4932
789.0792, 784.2139
789.5613, 801.5479
790.0435, 820.2266
790.5256, 849.4395
791.0077, 897.8174
791.4898, 932.4209
791.9719, 948.3066
792.4540, 958.0674
792.9362, 972.7627
793.4183, 992.0205
793.9004, 1008.553
794.3825, 1021.929
794.8646, 1034.050
795.3467, 1050.585
795.8289, 1065.875
796.3110, 1071.378
796.7931, 1064.304
797.2752, 1054.765
797.7573, 1043.979
798.2394, 1033.998
798.7216, 1026.798
799.2037, 1024.703
799.6858, 1018.651
800.1679, 1006.956
800.6500, 994.8672
801.1321, 990.2607
801.6143, 990.3125
802.0964, 980.9971
802.5785, 960.3584
803.0606, 933.7393
803.5427, 899.9160
804.0248, 865.8574
804.5070, 839.4160
804.9891, 824.2344
805.4712, 809.9873
805.9533, 794.3340
806.4354, 778.9736
806.9175, 766.0684
807.3997, 757.4863
807.8818, 742.5244
808.3639, 719.5859
808.8460, 696.5225
809.3281, 683.5879
809.8102, 677.0615
810.2924, 664.2666
810.7745, 642.1396
811.2566, 628.1738
811.7387, 639.3535
812.2208, 659.9668
812.7029, 674.8604
813.1851, 677.8770
813.6672, 690.6748
814.1493, 719.3369
814.6314, 750.9189
815.1135, 774.9785
815.5956, 791.7422
816.0778, 806.2920
816.5599, 818.4199
817.0420, 831.8379
817.5241, 853.8252
818.0062, 877.9580
818.4883, 896.0146
818.9705, 907.3232
819.4526, 908.9951
819.9347, 896.4004
820.4168, 876.1230
820.8989, 853.0703
821.3810, 829.4785
821.8632, 796.0762
822.3453, 749.9092
822.8274, 701.3398
823.3095, 658.6875
823.7916, 619.6035
824.2737, 579.7734
824.7559, 539.3789
825.2380, 504.3906
825.7201, 475.9414
826.2022, 453.4385
826.6843, 440.9355
827.1664, 441.6416
827.6486, 436.1338
828.1307, 412.4326
828.6128, 388.5029
829.0949, 372.4688
829.5770, 364.3018
830.0591, 356.6670
830.5413, 349.4971
831.0234, 342.5508
831.5055, 336.8975
831.9876, 331.3252
832.4697, 322.8672
832.9518, 311.4756
833.4340, 298.8418
833.9161, 280.5664
834.3982, 265.7764
834.8803, 263.2236
835.3624, 274.4766
835.8445, 276.0459
836.3267, 264.1514
836.8088, 250.0020
837.2909, 238.5293
837.7730, 229.5430
838.2551, 221.3037
838.7372, 214.0088
839.2194, 209.2529
839.7015, 208.9219
840.1836, 211.2188
840.6657, 215.6816
841.1478, 221.7812
841.6299, 226.0781
842.1121, 225.2715
842.5942, 224.9111
843.0763, 226.9561
843.5584, 230.8867
844.0405, 233.8623
844.5226, 235.4219
845.0048, 238.1670
845.4869, 244.4688
845.9690, 251.3359
846.4511, 251.1367
846.9332, 246.0947
847.4153, 243.7070
847.8975, 251.5459
848.3796, 258.8096
848.8617, 258.9854
849.3438, 254.3379
849.8259, 253.3057
850.3080, 260.1494
850.7902, 262.0566
851.2723, 255.8701
851.7544, 243.9580
852.2365, 229.0117
852.7186, 212.1797
853.2007, 200.2021
853.6829, 198.8389
854.1650, 198.0605
854.6471, 189.2686
855.1292, 174.9199
855.6113, 159.1162
856.0934, 138.8789
856.5756, 122.8252
857.0577, 112.6064
857.5398, 106.1719
858.0219, 101.7617
858.5040, 99.62793
858.9861, 91.73828
859.4683, 75.34180
859.9504, 57.55176
860.4325, 47.09668
860.9146, 41.43652
861.3967, 36.38086
861.8788, 30.45898
862.3610, 26.22168
862.8431, 27.17871
863.3252, 28.64062
863.8073, 25.82715
864.2894, 16.05762
864.7715, 11.20215
865.2537, 12.94922
865.7358, 15.14844
866.2179, 11.27051
866.7000, 3.195313
867.1821, 4.041016
867.6642, 9.782227
868.1464, 16.11035
868.6285, 30.32129
869.1106, 41.24902
869.5927, 37.81055
870.0748, 14.13672
870.5569, 2.161133
871.0391, 7.809570
871.5212, 14.65332
872.0033, 12.31934
872.4854, 2.501953
872.9675, 2.161133
873.4496, 1.914063
873.9318, 1.515625
874.4139, 3.275391
874.8960, 6.774414
875.3781, 13.35547
875.8602, 22.15137
876.3423, 26.86133
876.8245, 20.91504
877.3066, 16.77539
877.7887, 19.43750
878.2708, 26.32617
878.7529, 26.67871
879.2350, 20.64648
879.7172, 10.33887
880.1993, 7.705078
880.6814, 24.07422
881.1635, 20.56641
881.6456, 5.838867
882.1277, 0.2050780
882.6099, 27.01172
883.0920, 44.90234
883.5741, 34.55664
884.0562, 12.34863
884.5383, 4.206055
885.0204, 12.18750
885.5026, 22.30371
885.9847, 33.59082
886.4668, 41.99316
886.9489, 40.97852
887.4310, 33.09277
887.9131, 23.15234
888.3953, 11.96289
888.8774, 0.4384770
889.3595, 15.63867
889.8416, 28.75098
890.3237, 30.79102
890.8058, 14.87500
891.2880, 8.086914
891.7701, 11.99414
892.2522, 20.06738
892.7343, 28.66797
893.2164, 36.53320
893.6985, 38.26562
894.1807, 33.52539
894.6628, 32.45996
895.1449, 47.47168
895.6270, 63.49121
896.1091, 69.15820
896.5912, 62.72070
897.0734, 60.61133
897.5555, 63.31738
898.0376, 69.06250
898.5197, 77.42383
899.0018, 87.98340
899.4839, 98.73047
899.9661, 109.9150
900.4482, 122.9473
900.9303, 142.9971
901.4124, 161.2949
901.8945, 168.5225
902.3766, 169.1562
902.8588, 179.0078
903.3409, 203.3975
903.8230, 229.3066
904.3051, 254.9736
904.7872, 280.7686
905.2693, 305.1318
905.7515, 329.6846
906.2336, 365.9355
906.7157, 420.0654
907.1978, 478.0137
907.6799, 526.3711
908.1620, 571.7676
908.6442, 622.9316
909.1263, 682.8545
909.6084, 746.3184
910.0905, 814.2705
910.5726, 883.8633
911.0547, 952.0947
911.5369, 1019.754
912.0190, 1098.765
912.5011, 1190.104
912.9832, 1287.864
913.4653, 1385.063
913.9474, 1487.892
914.4296, 1603.551
914.9117, 1733.021
915.3938, 1865.568
915.8759, 2003.028
916.3580, 2138.458
916.8401, 2270.198
917.3223, 2397.319
917.8044, 2519.919
918.2865, 2635.950
918.7686, 2731.103
919.2507, 2804.306
919.7328, 2846.958
920.2150, 2850.045
920.6971, 2815.880
921.1792, 2750.687
921.6613, 2639.475
922.1434, 2516.552
922.6255, 2381.128
923.1077, 2241.643
923.5898, 2110.176
924.0719, 1987.679
924.5540, 1874.076
925.0361, 1768.951
925.5182, 1673.188
926.0004, 1587.134
926.4825, 1509.118
926.9646, 1436.055
927.4467, 1365.303
927.9288, 1310.274
928.4109, 1274.296
928.8931, 1246.651
929.3752, 1221.658
929.8573, 1199.959
930.3394, 1181.429
930.8215, 1165.908
931.3036, 1158.286
931.7858, 1161.473
932.2679, 1175.532
932.7500, 1203.886
933.2321, 1244.723
933.7142, 1287.087
934.1964, 1324.057
934.6785, 1368.508
935.1606, 1424.664
935.6427, 1489.823
936.1248, 1552.974
936.6069, 1615.428
937.0891, 1682.858
937.5712, 1757.802
938.0533, 1838.779
938.5354, 1930.087
939.0175, 2026.757
939.4996, 2118.519
939.9818, 2196.438
940.4639, 2277.312
940.9460, 2364.212
941.4281, 2452.341
941.9102, 2536.227
942.3923, 2614.567
942.8745, 2682.597
943.3566, 2740.534
943.8387, 2787.688
944.3208, 2824.411
944.8029, 2849.975
945.2850, 2864.423
945.7672, 2867.547
946.2493, 2856.856
946.7314, 2834.861
947.2135, 2795.974
947.6956, 2736.576
948.1777, 2658.579
948.6599, 2568.890
949.1420, 2468.740
949.6241, 2366.773
950.1062, 2269.021
950.5883, 2168.484
951.0704, 2055.722
951.5526, 1937.405
952.0347, 1828.390
952.5168, 1734.250
952.9989, 1637.997
953.4810, 1536.892
953.9631, 1436.315
954.4453, 1342.062
954.9274, 1253.967
955.4095, 1171.086
955.8916, 1093.920
956.3737, 1022.646
956.8558, 960.4443
957.3380, 902.0156
957.8201, 842.0303
958.3022, 779.6699
958.7843, 723.2900
959.2664, 672.3291
959.7485, 628.7012
960.2307, 597.2324
960.7128, 571.0859
961.1949, 531.9814
961.6770, 483.6660
962.1591, 440.0127
962.6412, 409.3789
963.1234, 382.2979
963.6055, 354.0781
964.0876, 327.5586
964.5697, 307.7812
965.0518, 297.2646
965.5339, 283.3301
966.0161, 263.9961
966.4982, 242.9746
966.9803, 220.6045
967.4624, 200.9062
967.9445, 193.2080
968.4266, 200.4307
968.9088, 204.6885
969.3909, 197.3057
969.8730, 186.5449
970.3551, 175.5459
970.8372, 164.4990
971.3193, 156.3633
971.8015, 151.0605
972.2836, 148.3105
972.7657, 148.2510
973.2478, 150.2939
973.7299, 155.5420
974.2120, 162.3223
974.6942, 166.6152
975.1763, 168.6611
975.6584, 165.2412
976.1405, 150.9639
976.6226, 136.7207
977.1047, 142.9092
977.5869, 166.8105
978.0690, 175.1836
978.5511, 161.8691
979.0332, 147.1465
979.5153, 149.0674
979.9974, 156.8496
980.4796, 161.6074
980.9617, 162.2764
981.4438, 158.1992
981.9259, 146.1865
982.4080, 136.7480
982.8901, 137.7764
983.3723, 143.3242
983.8544, 128.8623
984.3365, 100.4355
984.8186, 83.21680
985.3007, 101.5547
985.7828, 120.6807
986.2650, 122.9746
986.7471, 115.4072
987.2292, 110.9395
987.7113, 111.9326
988.1934, 105.2920
988.6755, 87.44824
989.1577, 70.91797
989.6398, 75.23535
990.1219, 88.25586
990.6040, 87.90039
991.0861, 71.51074
991.5682, 55.93066
992.0504, 47.40430
992.5325, 42.17188
993.0146, 39.97070
993.4967, 39.85254
993.9788, 35.23730
994.4609, 26.32422
994.9431, 16.10352
995.4252, 3.985352
995.9073, 5.694336
996.3894, 7.583984
996.8715, 3.982422
997.3536, 1.206055
997.8358, 10.45605
998.3179, 15.44043
998.8000, 12.76465
999.2821, 10.64160
999.7642, 17.97656
1000.246, 33.08594
1000.728, 46.85645
1001.211, 58.88672
1001.693, 71.44922
1002.175, 89.00879
1002.657, 104.9414
1003.139, 111.6758
1003.621, 111.1953
1004.103, 119.7861
1004.585, 140.8740
1005.068, 157.2549
1005.550, 163.9033
1006.032, 165.3838
1006.514, 166.3857
1006.996, 169.0654
1007.478, 176.4023
1007.960, 191.3076
1008.442, 204.6143
1008.924, 209.9697
1009.407, 216.1309
1009.889, 230.6748
1010.371, 254.1094
1010.853, 270.2725
1011.335, 279.1113
1011.817, 286.3604
1012.299, 297.2070
1012.781, 306.7061
1013.263, 308.7871
1013.746, 305.0850
1014.228, 301.4492
1014.710, 297.0312
1015.192, 296.5801
1015.674, 301.4121
1016.156, 308.4717
1016.638, 312.8418
1017.120, 315.6025
1017.603, 320.5039
1018.085, 328.6279
1018.567, 335.3584
1019.049, 339.2256
1019.531, 339.4014
1020.013, 333.4668
1020.495, 321.8711
1020.977, 318.2529
1021.459, 323.8740
1021.942, 326.0342
1022.424, 316.6611
1022.906, 303.2383
1023.388, 297.3115
1023.870, 294.8652
1024.352, 287.9258
1024.834, 266.4736
1025.316, 252.1406
1025.799, 250.4443
1026.281, 251.4873
1026.763, 243.7676
1027.245, 229.2666
1027.727, 220.8213
1028.209, 218.8945
1028.691, 216.1758
1029.173, 204.4141
1029.656, 192.9404
1030.138, 189.3184
1030.620, 191.9922
1031.102, 191.3809
1031.584, 186.2920
1032.066, 181.1621
1032.548, 176.9141
1033.030, 173.5557
1033.512, 169.8281
1033.995, 166.6865
1034.477, 167.5898
1034.959, 175.4521
1035.441, 179.9609
1035.923, 181.0352
1036.405, 175.1152
1036.887, 156.8115
1037.369, 128.6338
1037.851, 113.5420
1038.334, 110.3965
1038.816, 105.0869
1039.298, 83.12207
1039.780, 63.35352
1040.262, 61.03027
1040.744, 69.30273
1041.226, 74.50098
1041.708, 76.87402
1042.191, 73.11621
1042.673, 61.01660
1043.155, 50.11328
1043.637, 52.95703
1044.119, 62.67480
1044.601, 66.73828
1045.083, 64.42480
1045.565, 64.39258
1046.047, 75.91699
1046.530, 82.95508
1047.012, 79.26758
1047.494, 68.39258
1047.976, 58.68945
1048.458, 50.33594
1048.940, 47.50195
1049.422, 53.38379
1049.904, 58.41797
1050.386, 55.74414
1050.869, 48.33594
1051.351, 37.00879
1051.833, 19.41699
1052.315, 15.16699
1052.797, 26.72949
1053.279, 40.22559
1053.761, 49.80469
1054.243, 54.61035
1054.726, 50.03809
1055.208, 39.55176
1055.690, 32.62402
1056.172, 38.93750
1056.654, 39.47168
1057.136, 29.63281
1057.618, 16.35352
1058.100, 7.477539
1058.583, 2.436523
1059.065, 2.868164
1059.547, 8.687500
1060.029, 13.04980
1060.511, 14.34961
1060.993, 13.74414
1061.475, 11.98438
1061.957, 8.780273
1062.439, 1.000000
1062.922, 13.57910
1063.404, 17.79883
1063.886, 4.759766
1064.368, 12.41895
1064.850, 19.17285
1065.332, 19.32520
1065.814, 16.89648
1066.296, 11.08887
1066.778, 10.14551
1067.261, 17.03223
1067.743, 24.75586
1068.225, 29.68555
1068.707, 32.38184
1069.189, 37.29980
1069.671, 42.58984
1070.153, 40.23047
1070.635, 16.53223
1071.118, 2.742188
1071.600, 0.6894530
1072.082, 8.275391
1072.564, 8.517578
1073.046, 0.9160160
1073.528, 8.008789
1074.010, 12.26953
1074.492, 14.53418
1074.974, 12.22559
1075.457, 10.45410
1075.939, 14.39941
1076.421, 22.98145
1076.903, 32.04395
1077.385, 44.01855
1077.867, 47.54297
1078.349, 38.25391
1078.831, 26.40332
1079.313, 25.76953
1079.796, 32.07617
1080.278, 38.88867
1080.760, 45.53027
1081.242, 48.74902
1081.724, 44.16504
1082.206, 39.60938
1082.688, 37.58984
1083.170, 37.69043
1083.653, 39.27539
1084.135, 42.05859
1084.617, 44.83984
1085.099, 48.64844
1085.581, 48.97363
1086.063, 40.32715
1086.545, 29.13672
1087.027, 21.32324
1087.510, 17.46680
1087.992, 13.44824
1088.474, 9.234375
1088.956, 7.434570
1089.438, 12.27832
1089.920, 18.00879
1090.402, 13.86328
1090.884, 6.655273
1091.366, 11.81836
1091.849, 42.99609
1092.331, 62.62793
1092.813, 66.97852
1093.295, 63.61523
1093.777, 56.38867
1094.259, 48.03809
1094.741, 45.96289
1095.223, 49.31445
1095.705, 49.71191
1096.188, 38.98535
1096.670, 31.68555
1097.152, 34.00195
1097.634, 39.59375
1098.116, 35.10059
1098.598, 22.98535
1099.080, 16.11328
1099.562, 16.88574
1100.045, 21.02246
1100.527, 31.90332
1101.009, 39.64941
1101.491, 34.13184
1101.973, 18.82910
1102.455, 15.99121
1102.937, 25.89648
1103.419, 36.33496
1103.901, 44.26074
1104.384, 47.75195
1104.866, 37.64844
1105.348, 25.48145
1105.830, 27.31152
1106.312, 51.27441
1106.794, 61.11230
1107.276, 53.39648
1107.758, 43.15234
1108.240, 37.53906
1108.723, 35.92969
1109.205, 38.85547
1109.687, 44.64648
1110.169, 49.43359
1110.651, 53.19336
1111.133, 54.38965
1111.615, 53.55078
1112.097, 49.79590
1112.580, 39.40820
1113.062, 25.66504
1113.544, 22.10449
1114.026, 27.67578
1114.508, 32.97168
1114.990, 32.52246
1115.472, 31.72852
1115.954, 31.62793
1116.437, 32.91113
1116.919, 37.41992
1117.401, 44.69043
1117.883, 48.98828
1118.365, 49.69141
1118.847, 49.02637
1119.329, 46.02930
1119.811, 44.53418
1120.293, 49.08105
1120.776, 57.46484
1121.258, 61.32129
1121.740, 60.16699
1122.222, 57.75195
1122.704, 56.21191
1123.186, 52.28223
1123.668, 39.06738
1124.150, 25.03125
1124.632, 20.41797
1125.115, 27.72949
1125.597, 27.50879
1126.079, 17.09766
1126.561, 9.072266
1127.043, 9.807617
1127.525, 13.01660
1128.007, 6.506836
1128.489, 2.252930
1128.972, 1.734375
1129.454, 15.64160
1129.936, 23.48242
1130.418, 16.36133
1130.900, 7.488281
1131.382, 2.929688
1131.864, 2.179688
1132.346, 5.911133
1132.828, 13.37891
1133.311, 20.56738
1133.793, 28.33594
1134.275, 31.76660
1134.757, 25.25000
1135.239, 18.86230
1135.721, 24.72656
1136.203, 40.52051
1136.685, 44.25293
1137.167, 37.10645
1137.650, 32.67969
1138.132, 44.09863
1138.614, 54.15918
1139.096, 53.52930
1139.578, 47.64453
1140.060, 42.66602
1140.542, 38.54297
1141.024, 39.12500
1141.507, 44.82324
1141.989, 51.41602
1142.471, 59.17578
1142.953, 63.65137
1143.435, 58.81250
1143.917, 48.18750
1144.399, 44.15430
1144.881, 47.80176
1145.364, 50.27344
1145.846, 49.86133
1146.328, 48.93555
1146.810, 51.72949
1147.292, 54.39453
1147.774, 49.73242
1148.256, 38.02734
1148.738, 40.96094
1149.220, 65.13770
1149.703, 80.75195
1150.185, 77.54199
1150.667, 67.36719
1151.149, 60.99023
1151.631, 59.83594
1152.113, 68.62012
1152.595, 90.45020
1153.077, 101.1152
1153.559, 95.13574
1154.042, 88.50195
1154.524, 87.03516
1155.006, 89.23438
1155.488, 96.51758
1155.970, 104.3477
1156.452, 102.7236
1156.934, 85.23438
1157.416, 69.71875
1157.899, 56.32910
1158.381, 49.31934
1158.863, 54.47461
1159.345, 65.67676
1159.827, 64.20312
1160.309, 53.93652
1160.791, 45.31836
1161.273, 42.85254
1161.755, 41.04199
1162.238, 38.52344
1162.720, 37.10352
1163.202, 40.17578
1163.684, 46.03711
1164.166, 42.73047
1164.648, 32.46777
1165.130, 25.07324
1165.612, 26.19824
1166.094, 29.27539
1166.577, 32.83398
1167.059, 36.54297
1167.541, 39.90527
1168.023, 42.75000
1168.505, 45.50098
1168.987, 47.89844
1169.469, 49.14355
1169.951, 45.28613
1170.433, 43.94531
1170.916, 52.50098
1171.398, 62.91895
1171.880, 64.45508
1172.362, 57.56348
1172.844, 50.04883
1173.326, 42.75781
1173.808, 37.97949
1174.290, 41.75391
1174.773, 44.42480
1175.255, 38.25391
1175.737, 27.96484
1176.219, 22.82422
1176.701, 22.93359
1177.183, 20.57422
1177.665, 14.64355
1178.147, 9.140625
1178.630, 8.393555
1179.112, 8.135742
1179.594, 2.397461
1180.076, 5.219727
1180.558, 0.2490230
1181.040, 18.38965
1181.522, 27.01074
1182.004, 19.41406
1182.486, 10.47656
1182.969, 14.93457
1183.451, 22.45898
1183.933, 22.51855
1184.415, 16.70410
1184.897, 21.41504
1185.379, 38.14941
1185.861, 48.68750
1186.343, 47.49316
1186.825, 41.17871
1187.308, 33.34863
1187.790, 25.69141
1188.272, 22.22559
1188.754, 22.69434
1189.236, 13.92188
1189.718, 5.423828
1190.200, 17.59375
1190.682, 15.25098
1191.165, 8.277344
1191.647, 7.605469
1192.129, 7.738281
1192.611, 1.286133
1193.093, 12.81152
1193.575, 20.95898
1194.057, 22.43359
1194.539, 21.37598
1195.021, 17.75488
1195.504, 15.36426
1195.986, 18.83887
1196.468, 25.72070
1196.950, 34.26270
1197.432, 45.49023
1197.914, 46.40723
1198.396, 34.97070
1198.878, 26.64355
1199.360, 31.34375
1199.843, 38.89258
1200.325, 37.78711
1200.807, 31.86230
1201.289, 26.13672
1201.771, 21.13672
1202.253, 17.74805
1202.735, 16.07520
1203.217, 16.58105
1203.700, 21.94434
1204.182, 26.90625
1204.664, 22.63574
1205.146, 14.92285
1205.628, 13.59766
1206.110, 22.29004
1206.592, 27.64258
1207.074, 29.16406
1207.557, 29.64453
1208.039, 30.76367
1208.521, 31.55957
1209.003, 28.99219
1209.485, 25.83301
1209.967, 27.96387
1210.449, 39.32031
1210.931, 44.46484
1211.413, 42.46875
1211.896, 40.25000
1212.378, 41.41992
1212.860, 45.97656
1213.342, 61.73242
1213.824, 79.00488
1214.306, 74.46484
1214.788, 35.19531
1215.270, 18.48535
1215.752, 27.85156
1216.235, 41.49707
1216.717, 47.17188
1217.199, 45.98535
1217.681, 35.23242
1218.163, 19.23145
1218.645, 7.349609
1219.127, 0.1035160
1219.609, 2.559570
1220.092, 0.4121090
1220.574, 4.873047
1221.056, 10.16113
1221.538, 13.35938
1222.020, 8.415039
1222.502, 1.0742000E-02
1222.984, 0.5673830
1223.466, 9.200195
1223.948, 15.22266
1224.431, 16.38086
1224.913, 17.01953
1225.395, 22.19629
1225.877, 26.73145
1226.359, 25.24512
1226.841, 20.13574
1227.323, 18.02148
1227.805, 19.94043
1228.287, 17.28613
1228.770, 9.491211
1229.252, 4.050781
1229.734, 7.062500
1230.216, 14.38086
1230.698, 26.57324
1231.180, 39.90723
1231.662, 45.49512
1232.144, 42.33105
1232.627, 44.61426
1233.109, 54.24414
1233.591, 60.81543
1234.073, 54.83496
1234.555, 45.06152
1235.037, 35.59375
1235.519, 27.11816
1236.001, 19.87305
1236.484, 14.04785
1236.966, 15.89258
1237.448, 25.85254
1237.930, 31.32812
1238.412, 16.96191
1238.894, 4.707031
1239.376, 10.69922
1239.858, 24.48730
1240.340, 29.69531
1240.823, 26.91113
1241.305, 23.15039
1241.787, 19.06445
1242.269, 14.94043
1242.751, 9.106445
1243.233, 5.893555
1243.715, 8.999023
1244.197, 14.19238
1244.679, 14.43359
1245.162, 10.84277
1245.644, 8.015625
1246.126, 6.824219
1246.608, 8.635742
1247.090, 17.28027
1247.572, 25.37012
1248.054, 27.44043
1248.536, 28.93457
1249.019, 39.65527
1249.501, 54.63477
1249.983, 54.38965
1250.465, 39.14062
1250.947, 33.53809
1251.429, 62.95605
1251.911, 81.66113
1252.393, 77.39551
1252.875, 63.92969
1253.358, 58.67285
1253.840, 58.96875
1254.322, 60.04980
1254.804, 61.09277
1255.286, 58.69629
1255.768, 49.77734
1256.250, 40.66602
1256.732, 31.24512
1257.214, 25.22266
1257.697, 32.50781
1258.179, 43.42188
1258.661, 39.53516
1259.143, 22.72754
1259.625, 12.73242
1260.107, 12.96191
1260.589, 18.06055
1261.071, 28.07520
1261.554, 38.61719
1262.036, 48.21191
1262.518, 54.76758
1263.000, 54.99805
1263.482, 49.43359
1263.964, 40.59570
1264.446, 25.74414
1264.928, 20.20117
1265.411, 26.70605
1265.893, 34.97070
1266.375, 34.83984
1266.857, 33.02734
1267.339, 33.79102
1267.821, 37.68262
1268.303, 46.12598
1268.785, 59.61621
1269.267, 73.26367
1269.750, 86.78906
1270.232, 89.95605
1270.714, 64.05176
1271.196, 37.08203
1271.678, 29.07422
1272.160, 31.87891
1272.642, 35.59180
1273.124, 39.51562
1273.606, 31.29492
1274.089, 11.43164
1274.571, 0.3271480
1275.053, 23.55273
1275.535, 41.84668
1276.017, 37.92871
1276.499, 24.68945
1276.981, 18.23828
1277.463, 17.19629
1277.946, 16.45312
1278.428, 15.77930
1278.910, 16.20312
1279.392, 21.59668
1279.874, 22.33008
1280.356, 14.14062
1280.838, 5.968750
1281.320, 10.09570
1281.802, 20.17383
1282.285, 24.07910
1282.767, 21.90039
1283.249, 16.65039
1283.731, 4.982422
1284.213, 0.8935550
1284.695, 1.394531
1285.177, 4.383789
1285.659, 0.5195310
1286.141, 7.216797
1286.624, 7.515625
1287.106, 3.102539
1287.588, 0.8876950
1288.070, 4.889648
1288.552, 3.910156
1289.034, 3.278320
1289.516, 6.902344
1289.998, 3.692383
1290.481, 16.20898
1290.963, 22.02832
1291.445, 22.04102
1291.927, 17.52539
1292.409, 7.383789
1292.891, 5.910156
1293.373, 12.68750
1293.855, 19.01855
1294.338, 20.79883
1294.820, 19.31348
1295.302, 20.79492
1295.784, 27.86914
1296.266, 27.79395
1296.748, 21.79883
1297.230, 27.97168
1297.712, 40.31934
1298.194, 53.20117
1298.677, 69.58789
1299.159, 77.40918
1299.641, 72.84570
1300.123, 64.91602
1300.605, 59.04102
1301.087, 54.39355
1301.569, 47.98438
1302.051, 38.51855
1302.533, 24.12598
1303.016, 0.0000000E+00
##END=



