##NAMES=Quartz
##RRUFFID=R100134
##IDEAL CHEMISTRY=SiO_2_
##LOCALITY=Sri Lanka
##OWNER=RRUFF
##SOURCE=William W. Pinch
##DESCRIPTION=Transparent colorless cut gemstone
##STATUS=The identification of this mineral has been confirmed by single-crystal X-ray diffraction.
##URL=rruff.info/R100134
154.6746, 0.0000000E+00
155.1567, 1.497162
155.6389, 4.079956
156.1210, 3.292786
156.6031, 0.2226560
157.0852, 1.510986
157.5673, 1.119202
158.0495, 4.876831
158.5316, 7.774048
159.0137, 8.955566
159.4958, 8.866882
159.9779, 6.394104
160.4600, 2.287537
160.9422, 0.8092040
161.4243, 2.557129
161.9064, 2.790649
162.3885, 1.432495
162.8706, 1.783325
163.3527, 6.341797
163.8349, 11.92413
164.3170, 18.62671
164.7991, 26.99658
165.2812, 37.49585
165.7633, 49.65936
166.2454, 63.07446
166.7276, 77.82440
167.2097, 93.57141
167.6918, 110.2208
168.1739, 127.6536
168.6560, 146.4636
169.1381, 167.7078
169.6203, 189.9447
170.1024, 205.6498
170.5845, 218.0859
171.0666, 229.9331
171.5487, 240.2172
172.0309, 249.0424
172.5130, 258.2806
172.9951, 270.5646
173.4772, 283.9071
173.9593, 295.2360
174.4414, 301.6597
174.9236, 306.3701
175.4057, 312.8028
175.8878, 321.0563
176.3699, 329.2180
176.8520, 335.2539
177.3341, 340.0655
177.8163, 345.6656
178.2984, 352.7845
178.7805, 361.1149
179.2626, 370.0493
179.7447, 379.2986
180.2268, 389.8831
180.7090, 402.5853
181.1911, 417.2705
181.6732, 433.4858
182.1553, 451.8671
182.6374, 471.4784
183.1195, 489.1792
183.6017, 504.7167
184.0838, 520.6661
184.5659, 540.2556
185.0480, 563.1372
185.5301, 588.7857
186.0123, 617.9450
186.4944, 649.7128
186.9765, 679.8469
187.4586, 708.0972
187.9407, 736.2369
188.4228, 766.5461
188.9050, 798.8288
189.3871, 833.1519
189.8692, 870.3291
190.3513, 909.4880
190.8334, 947.2223
191.3155, 982.9290
191.7977, 1017.745
192.2798, 1053.623
192.7619, 1090.576
193.2440, 1127.027
193.7261, 1161.836
194.2082, 1195.177
194.6904, 1230.913
195.1725, 1269.531
195.6546, 1310.123
196.1367, 1349.671
196.6188, 1388.321
197.1009, 1426.756
197.5831, 1465.267
198.0652, 1504.187
198.5473, 1542.872
199.0294, 1581.681
199.5115, 1619.695
199.9937, 1655.387
200.4758, 1688.341
200.9579, 1718.748
201.4400, 1746.503
201.9221, 1771.669
202.4042, 1793.434
202.8864, 1811.971
203.3685, 1826.869
203.8506, 1837.238
204.3327, 1842.988
204.8148, 1844.273
205.2969, 1841.322
205.7791, 1834.288
206.2612, 1821.778
206.7433, 1802.918
207.2254, 1779.189
207.7075, 1754.419
208.1896, 1728.947
208.6718, 1701.290
209.1539, 1670.306
209.6360, 1636.182
210.1181, 1599.285
210.6002, 1559.090
211.0823, 1516.511
211.5645, 1474.334
212.0466, 1433.190
212.5287, 1389.270
213.0108, 1342.282
213.4929, 1290.906
213.9750, 1240.761
214.4572, 1191.913
214.9393, 1144.654
215.4214, 1098.532
215.9035, 1053.562
216.3856, 1009.036
216.8678, 965.1911
217.3499, 920.8907
217.8320, 879.0406
218.3141, 840.3860
218.7962, 804.2614
219.2783, 769.0007
219.7605, 734.4805
220.2426, 701.5247
220.7247, 670.9000
221.2068, 643.0157
221.6889, 616.4950
222.1710, 591.5332
222.6532, 567.8825
223.1353, 545.9189
223.6174, 526.4052
224.0995, 506.9474
224.5816, 486.0851
225.0637, 462.2009
225.5459, 440.5843
226.0280, 421.8445
226.5101, 405.3698
226.9922, 389.9526
227.4743, 375.8979
227.9564, 362.0416
228.4386, 347.4536
228.9207, 331.4337
229.4028, 317.1873
229.8849, 304.9980
230.3670, 294.3483
230.8492, 283.6738
231.3313, 273.0654
231.8134, 262.7000
232.2955, 252.3722
232.7776, 241.9900
233.2597, 231.9924
233.7419, 222.6295
234.2240, 213.8721
234.7061, 205.3464
235.1882, 196.4768
235.6703, 188.3151
236.1524, 181.5092
236.6346, 177.0676
237.1167, 171.9199
237.5988, 165.5416
238.0809, 158.5320
238.5630, 152.2809
239.0451, 147.0208
239.5273, 142.4522
240.0094, 138.3851
240.4915, 134.8776
240.9736, 131.1562
241.4557, 126.7451
241.9378, 122.4760
242.4200, 120.1828
242.9021, 121.2394
243.3842, 122.1172
243.8663, 121.2008
244.3484, 117.4362
244.8306, 114.6732
245.3127, 113.0452
245.7948, 112.3293
246.2769, 112.3382
246.7590, 113.7996
247.2411, 114.9879
247.7233, 115.1823
248.2054, 114.0623
248.6875, 113.0168
249.1696, 112.1351
249.6517, 111.5092
250.1338, 111.2302
250.6160, 111.5620
251.0981, 111.4487
251.5802, 110.2585
252.0623, 107.4472
252.5444, 106.5499
253.0265, 108.5613
253.5087, 111.6547
253.9908, 113.0133
254.4729, 111.3941
254.9550, 110.7290
255.4371, 112.3251
255.9192, 116.5114
256.4014, 119.9590
256.8835, 122.1017
257.3656, 124.1790
257.8477, 127.7352
258.3298, 133.0107
258.8120, 139.2010
259.2941, 145.9921
259.7762, 153.3525
260.2583, 162.3917
260.7404, 173.6743
261.2225, 186.0278
261.7047, 198.4791
262.1868, 210.8799
262.6689, 224.0078
263.1510, 239.3648
263.6331, 256.6190
264.1152, 268.7850
264.5974, 276.1661
265.0795, 277.6941
265.5616, 272.2936
266.0437, 259.6642
266.5258, 240.5384
267.0079, 212.8670
267.4901, 177.8763
267.9722, 148.8922
268.4543, 126.8976
268.9364, 108.3043
269.4185, 89.76459
269.9006, 70.41644
270.3828, 55.08826
270.8649, 44.90924
271.3470, 39.16156
271.8291, 34.65900
272.3112, 31.78546
272.7933, 28.92560
273.2755, 24.48535
273.7576, 17.99011
274.2397, 13.20935
274.7218, 10.99292
275.2039, 10.58319
275.6860, 9.761719
276.1682, 8.468933
276.6503, 6.932495
277.1324, 5.260803
277.6145, 3.484009
278.0966, 1.507324
278.5787, 0.8289790
279.0609, 3.124573
279.5430, 4.481262
280.0251, 4.777039
280.5072, 4.678345
280.9893, 4.430786
281.4715, 4.026428
281.9536, 3.659973
282.4357, 3.292297
282.9178, 3.064636
283.3999, 3.450134
283.8820, 4.519348
284.3642, 5.210815
284.8463, 4.718628
285.3284, 3.211914
285.8105, 2.673279
286.2926, 3.375427
286.7747, 4.286316
287.2569, 3.631653
287.7390, 1.500366
288.2211, 8.5399998E-04
288.7032, 0.5603030
289.1853, 2.542114
289.6674, 2.684937
290.1496, 0.6925660
290.6317, 1.241455
291.1138, 5.4198999E-02
291.5959, 4.034302
292.0780, 6.862305
292.5602, 6.744019
293.0423, 4.828491
293.5244, 4.100220
294.0065, 4.597839
294.4886, 5.296021
294.9707, 5.022400
295.4529, 4.117493
295.9350, 3.929810
296.4171, 5.344482
296.8992, 7.157898
297.3813, 6.829895
297.8634, 4.545654
298.3456, 2.367981
298.8277, 1.965210
299.3098, 2.832092
299.7919, 4.033203
300.2740, 5.689758
300.7561, 7.027466
301.2383, 6.878967
301.7204, 5.430786
302.2025, 3.524414
302.6846, 0.9510500
303.1667, 1.545715
303.6488, 2.703064
304.1310, 2.023987
304.6131, 0.9102780
305.0952, 0.9762570
305.5773, 1.758972
306.0594, 2.008362
306.5415, 0.2049560
307.0237, 2.045593
307.5058, 2.948608
307.9879, 2.195129
308.4700, 0.9549560
308.9521, 5.1270002E-03
309.4343, 0.8300780
309.9164, 1.784546
310.3985, 3.450134
310.8806, 4.980347
311.3627, 5.395935
311.8448, 4.638367
312.3270, 4.361206
312.8091, 6.249207
313.2912, 8.922180
313.7733, 10.74469
314.2554, 10.50116
314.7375, 9.801575
315.2197, 9.288635
315.7018, 9.032410
316.1839, 9.296448
316.6660, 10.59479
317.1481, 12.25891
317.6302, 13.64215
318.1124, 14.70221
318.5945, 15.50958
319.0766, 16.13489
319.5587, 16.47485
320.0408, 16.33337
320.5229, 14.75757
321.0051, 13.47479
321.4872, 13.58417
321.9693, 16.20264
322.4514, 18.44830
322.9335, 19.79810
323.4156, 20.35486
323.8978, 20.34454
324.3799, 18.93341
324.8620, 17.77362
325.3441, 17.60706
325.8262, 18.96155
326.3083, 19.91724
326.7905, 19.77905
327.2726, 19.10883
327.7547, 18.77667
328.2368, 18.99463
328.7189, 19.67334
329.2010, 20.90814
329.6832, 22.73431
330.1653, 24.62219
330.6474, 27.38055
331.1295, 29.61688
331.6116, 30.03455
332.0938, 26.31866
332.5759, 24.52374
333.0580, 26.14001
333.5401, 30.62164
334.0222, 33.67114
334.5043, 34.44031
334.9865, 34.98199
335.4686, 36.57166
335.9507, 39.62213
336.4328, 42.58948
336.9149, 45.30402
337.3970, 47.92615
337.8792, 50.76959
338.3613, 53.90857
338.8434, 57.25049
339.3255, 61.04346
339.8076, 65.51129
340.2898, 68.64569
340.7719, 70.01996
341.2540, 70.84174
341.7361, 72.91803
342.2182, 76.28900
342.7003, 80.34839
343.1825, 85.05780
343.6646, 90.31238
344.1467, 94.97137
344.6288, 98.82269
345.1109, 103.3566
345.5930, 110.8212
346.0752, 120.7719
346.5573, 129.8580
347.0394, 136.7938
347.5215, 142.8142
348.0036, 150.2656
348.4857, 159.1188
348.9679, 170.0856
349.4500, 183.3960
349.9321, 199.3243
350.4142, 218.6171
350.8963, 241.7121
351.3784, 267.7053
351.8606, 295.6306
352.3427, 325.1605
352.8248, 355.9042
353.3069, 391.5999
353.7890, 426.4261
354.2711, 454.6846
354.7533, 476.3749
355.2354, 487.0880
355.7175, 484.6132
356.1996, 468.1975
356.6817, 436.4121
357.1638, 375.7262
357.6460, 308.7117
358.1281, 249.2694
358.6102, 197.9262
359.0923, 154.4565
359.5744, 120.4594
360.0565, 94.15198
360.5387, 74.02173
361.0208, 62.04443
361.5029, 53.01288
361.9850, 45.33679
362.4671, 38.87848
362.9492, 33.46820
363.4314, 29.68274
363.9135, 26.45538
364.3956, 23.11884
364.8777, 19.45416
365.3598, 15.98871
365.8419, 12.79669
366.3241, 10.01129
366.8062, 7.790649
367.2883, 6.492004
367.7704, 5.417908
368.2526, 4.393677
368.7347, 3.356506
369.2168, 2.535278
369.6989, 1.779236
370.1810, 1.270142
370.6631, 1.233521
371.1453, 1.868835
371.6274, 2.733643
372.1095, 4.267761
372.5916, 6.128967
373.0737, 5.855286
373.5558, 2.018555
374.0380, 1.805847
374.5201, 3.503113
375.0022, 2.307556
375.4843, 1.558960
375.9664, 1.646118
376.4485, 2.001160
376.9307, 1.242249
377.4128, 0.9687500
377.8949, 2.774597
378.3770, 3.291626
378.8591, 2.578308
379.3412, 1.766907
379.8234, 0.8498540
380.3055, 7.5562000E-02
380.7876, 0.1447750
381.2697, 0.1444700
381.7518, 0.2394410
382.2339, 9.6557997E-02
382.7161, 0.7267460
383.1982, 1.724365
383.6803, 3.018860
384.1624, 3.363037
384.6445, 0.9865720
385.1266, 3.010071
385.6088, 5.766541
386.0909, 6.591553
386.5730, 6.956543
387.0551, 8.376038
387.5372, 10.67780
388.0193, 13.40393
388.5015, 16.75745
388.9836, 20.13000
389.4657, 22.67792
389.9478, 24.30255
390.4299, 26.07172
390.9120, 28.92383
391.3942, 32.34113
391.8763, 35.59082
392.3584, 37.93854
392.8405, 40.53510
393.3226, 44.21613
393.8047, 48.74725
394.2869, 53.04938
394.7690, 55.46686
395.2511, 58.37122
395.7332, 63.34906
396.2154, 71.48486
396.6975, 79.91797
397.1796, 87.62274
397.6617, 95.41516
398.1438, 104.6011
398.6259, 114.5018
399.1081, 126.7021
399.5902, 142.0146
400.0723, 160.7852
400.5544, 180.3300
401.0365, 202.8917
401.5186, 224.6074
402.0008, 242.6003
402.4829, 259.5284
402.9650, 268.0200
403.4471, 267.3418
403.9292, 257.5560
404.4113, 238.0516
404.8935, 205.6584
405.3756, 170.6788
405.8577, 137.0314
406.3398, 104.4360
406.8219, 77.58490
407.3040, 56.85583
407.7862, 41.21289
408.2683, 29.54071
408.7504, 21.91498
409.2325, 16.08215
409.7146, 11.60449
410.1967, 8.321960
410.6789, 5.549561
411.1610, 3.305481
411.6431, 1.361328
412.1252, 0.4872440
412.6073, 2.183228
413.0894, 3.601501
413.5716, 4.789124
414.0537, 5.512085
414.5358, 5.256531
415.0179, 4.247559
415.5000, 3.169373
415.9821, 2.429321
416.4643, 1.838318
416.9464, 1.062805
417.4285, 6.2866002E-02
417.9106, 0.4511110
418.3927, 0.4317020
418.8748, 1.929932
419.3570, 3.106873
419.8391, 3.776184
420.3212, 3.948975
420.8033, 3.507202
421.2854, 2.519653
421.7675, 1.316467
422.2497, 0.4202880
422.7318, 2.058838
423.2139, 3.248047
423.6960, 3.892029
424.1781, 4.222412
424.6602, 3.733459
425.1424, 3.109863
425.6245, 3.338196
426.1066, 4.876770
426.5887, 6.667603
427.0709, 8.655029
427.5530, 10.83331
428.0351, 12.34967
428.5172, 12.68195
428.9993, 13.16364
429.4814, 14.97815
429.9636, 18.72565
430.4457, 21.30664
430.9278, 21.78668
431.4099, 21.43256
431.8920, 23.49945
432.3741, 28.46838
432.8563, 33.41284
433.3384, 36.64020
433.8205, 38.44781
434.3026, 40.99994
434.7847, 44.39813
435.2668, 48.50470
435.7490, 52.96082
436.2311, 57.83582
436.7132, 63.33948
437.1953, 69.43939
437.6774, 76.32379
438.1595, 84.91016
438.6417, 94.83984
439.1238, 104.5259
439.6059, 111.5392
440.0880, 118.5246
440.5701, 128.1724
441.0522, 140.8594
441.5344, 155.9124
442.0165, 173.5370
442.4986, 193.3129
442.9807, 214.4684
443.4628, 234.4433
443.9449, 257.6949
444.4271, 285.8096
444.9092, 318.6568
445.3913, 355.6776
445.8734, 394.9337
446.3555, 438.8406
446.8376, 488.8076
447.3198, 547.3827
447.8019, 607.3975
448.2840, 667.3531
448.7661, 728.6432
449.2482, 793.1292
449.7303, 860.8217
450.2125, 930.6497
450.6946, 1002.467
451.1767, 1076.713
451.6588, 1154.210
452.1409, 1234.896
452.6230, 1320.379
453.1052, 1409.565
453.5873, 1502.742
454.0694, 1606.197
454.5515, 1719.933
455.0337, 1844.567
455.5158, 1976.030
455.9979, 2116.036
456.4800, 2272.578
456.9621, 2451.183
457.4442, 2649.616
457.9264, 2863.415
458.4085, 3091.700
458.8906, 3340.073
459.3727, 3612.923
459.8548, 3907.171
460.3369, 4213.953
460.8191, 4538.773
461.3012, 4866.876
461.7833, 5206.781
462.2654, 5541.640
462.7475, 5835.134
463.2296, 6103.257
463.7118, 6303.478
464.1939, 6419.755
464.6760, 6452.348
465.1581, 6383.768
465.6402, 6183.111
466.1223, 5895.300
466.6045, 5553.480
467.0866, 5117.051
467.5687, 4683.716
468.0508, 4240.427
468.5329, 3803.115
469.0150, 3400.643
469.4972, 3037.007
469.9793, 2709.442
470.4614, 2422.095
470.9435, 2175.702
471.4256, 1956.301
471.9077, 1765.462
472.3899, 1598.635
472.8720, 1455.045
473.3541, 1334.047
473.8362, 1224.365
474.3183, 1124.031
474.8004, 1033.075
475.2826, 951.8440
475.7647, 880.2408
476.2468, 817.1904
476.7289, 764.2971
477.2110, 718.9203
477.6931, 676.5079
478.1753, 636.8121
478.6574, 599.8032
479.1395, 565.3853
479.6216, 533.6547
480.1037, 504.9620
480.5858, 480.0814
481.0680, 456.7598
481.5501, 433.6803
482.0322, 410.9739
482.5143, 389.1179
482.9964, 367.8243
483.4786, 347.8573
483.9607, 329.3757
484.4428, 312.5388
484.9249, 297.5848
485.4070, 286.1558
485.8892, 275.8055
486.3713, 264.7585
486.8534, 250.9161
487.3355, 239.6396
487.8176, 232.4463
488.2997, 227.4401
488.7819, 220.1500
489.2640, 209.0676
489.7461, 199.0381
490.2282, 191.8740
490.7103, 187.3353
491.1924, 182.6218
491.6746, 177.7244
492.1567, 172.5184
492.6388, 166.5544
493.1209, 159.9401
493.6030, 154.5431
494.0851, 150.7786
494.5673, 147.5704
495.0494, 143.4808
495.5315, 138.6425
496.0136, 133.7358
496.4957, 128.0204
496.9778, 123.0179
497.4600, 121.1730
497.9421, 122.1284
498.4242, 122.2968
498.9063, 118.0604
499.3884, 112.8499
499.8705, 109.7405
500.3527, 110.0980
500.8348, 110.7061
501.3169, 110.3666
501.7990, 109.6636
502.2811, 109.4175
502.7632, 109.2529
503.2454, 110.2400
503.7275, 112.5121
504.2096, 115.9518
504.6917, 120.6260
505.1738, 126.6946
505.6559, 134.0214
506.1381, 142.6565
506.6202, 152.9912
507.1023, 163.1432
507.5844, 174.1494
508.0665, 183.0966
508.5486, 186.0201
509.0308, 182.9131
509.5129, 175.3668
509.9950, 162.7412
510.4771, 146.9066
510.9592, 130.6949
511.4413, 114.3352
511.9235, 99.45837
512.4056, 87.39526
512.8877, 77.36609
513.3698, 67.49902
513.8519, 57.52026
514.3340, 49.74536
514.8162, 47.51917
515.2983, 47.85754
515.7804, 47.27258
516.2625, 44.12366
516.7446, 40.57275
517.2267, 36.83923
517.7089, 33.35449
518.1910, 31.20642
518.6731, 32.38257
519.1552, 33.13831
519.6373, 31.86597
520.1194, 28.33118
520.6016, 26.00122
521.0837, 25.34387
521.5658, 25.27844
522.0479, 25.15356
522.5300, 25.08472
523.0121, 24.45801
523.4943, 23.08606
523.9764, 21.30261
524.4585, 19.62292
524.9406, 18.08362
525.4227, 16.64539
525.9048, 14.96704
526.3870, 13.57263
526.8691, 14.40125
527.3513, 17.27673
527.8334, 19.49524
528.3155, 18.46985
528.7976, 15.82349
529.2797, 13.90039
529.7618, 13.04675
530.2440, 12.49841
530.7261, 11.85425
531.2082, 11.14990
531.6903, 10.44263
532.1724, 9.738037
532.6545, 9.037598
533.1367, 8.174438
533.6188, 7.270874
534.1009, 6.679932
534.5830, 6.405640
535.0651, 6.544434
535.5472, 7.348389
536.0294, 9.036621
536.5115, 9.726807
536.9936, 9.112793
537.4757, 7.942200
537.9578, 6.672241
538.4399, 5.177917
538.9221, 4.407227
539.4042, 4.666260
539.8863, 5.305603
540.3684, 4.930237
540.8505, 3.656982
541.3326, 2.949951
541.8148, 3.823059
542.2969, 5.372314
542.7790, 5.946533
543.2611, 5.640869
543.7432, 5.233215
544.2253, 5.298584
544.7075, 5.502991
545.1896, 5.497314
545.6717, 5.212463
546.1538, 4.844482
546.6359, 4.417297
547.1180, 4.040466
547.6002, 3.816895
548.0823, 4.238281
548.5644, 4.194458
549.0465, 2.716553
549.5286, 0.5610350
550.0107, 3.0762000E-02
550.4929, 2.697693
550.9750, 4.582275
551.4571, 4.037354
551.9392, 1.053284
552.4213, 0.4951780
552.9034, 0.3432620
553.3856, 0.4088130
553.8677, 1.108337
554.3498, 1.692871
554.8319, 1.442383
555.3140, 0.1391600
555.7961, 1.343872
556.2783, 1.876831
556.7604, 1.671265
557.2425, 1.267822
557.7246, 0.5818480
558.2067, 6.5186001E-02
558.6888, 0.1359860
559.1710, 0.7136230
559.6531, 1.629395
560.1352, 3.548950
560.6173, 5.165039
561.0994, 5.352356
561.5815, 3.792480
562.0637, 2.998352
562.5458, 4.440735
563.0279, 6.179016
563.5100, 6.813171
563.9921, 5.774109
564.4742, 4.582397
564.9564, 3.053223
565.4385, 1.582214
565.9206, 0.9736940
566.4027, 1.441345
566.8848, 1.792175
567.3669, 1.735291
567.8491, 1.279236
568.3312, 0.1011350
568.8133, 1.749268
569.2954, 3.061523
569.7775, 2.234314
570.2596, 0.5669560
570.7418, 0.9334720
571.2239, 3.582886
571.7060, 5.691711
572.1881, 4.597778
572.6702, 2.036133
573.1523, 0.1221310
573.6345, 1.315796
574.1166, 2.155151
574.5987, 3.019653
575.0808, 3.634399
575.5629, 3.549744
576.0450, 1.514038
576.5272, 0.1132200
577.0093, 0.1251830
577.4914, 1.292053
577.9735, 1.885010
578.4556, 1.727905
578.9377, 1.351257
579.4199, 0.9785770
579.9020, 0.6075440
580.3841, 9.1063999E-02
580.8662, 0.5861210
581.3483, 1.390259
581.8304, 2.372559
582.3126, 3.468506
582.7947, 4.471191
583.2768, 5.381592
583.7589, 6.064087
584.2410, 5.955444
584.7231, 5.534546
585.2053, 5.751587
585.6874, 7.879578
586.1696, 9.910278
586.6517, 10.66980
587.1338, 10.34906
587.6159, 9.900146
588.0980, 9.662903
588.5801, 9.225525
589.0623, 8.080811
589.5444, 5.899780
590.0265, 5.328430
590.5086, 7.556641
590.9907, 9.890503
591.4728, 9.979065
591.9550, 7.362183
592.4371, 5.614990
592.9192, 5.135315
593.4013, 5.420288
593.8834, 5.940247
594.3655, 6.649719
594.8477, 7.252075
595.3298, 7.629089
595.8119, 7.929504
596.2940, 8.249939
596.7761, 8.599792
597.2582, 9.100891
597.7404, 9.704590
598.2225, 10.54156
598.7046, 12.11804
599.1867, 14.40198
599.6688, 15.52734
600.1509, 13.53302
600.6331, 11.20416
601.1152, 10.40173
601.5973, 12.18158
602.0794, 13.08875
602.5615, 13.01239
603.0436, 12.15735
603.5258, 10.60590
604.0079, 8.201599
604.4900, 5.911804
604.9721, 3.720398
605.4542, 2.067200
605.9363, 2.316406
606.4185, 4.251343
606.9006, 5.859497
607.3827, 5.822449
607.8648, 5.175537
608.3469, 5.727539
608.8290, 7.199463
609.3112, 8.036987
609.7933, 6.462036
610.2754, 4.552734
610.7575, 3.793518
611.2396, 4.273926
611.7217, 5.364380
612.2039, 7.748474
612.6860, 10.18384
613.1681, 11.69342
613.6502, 11.37592
614.1323, 11.59052
614.6144, 12.95062
615.0966, 14.36682
615.5787, 13.95367
616.0608, 11.29608
616.5429, 9.503418
617.0250, 9.596680
617.5071, 10.60852
617.9893, 10.03339
618.4714, 8.124573
618.9535, 6.816711
619.4356, 7.659607
619.9177, 9.449097
620.3998, 10.83478
620.8820, 11.74847
621.3641, 12.03717
621.8462, 11.02679
622.3283, 9.905701
622.8104, 9.764893
623.2925, 11.15576
623.7747, 11.67456
624.2568, 9.775146
624.7389, 7.427307
625.2210, 6.243958
625.7031, 6.766724
626.1852, 7.361511
626.6674, 7.934570
627.1495, 8.460938
627.6316, 8.939697
628.1137, 9.335938
628.5958, 9.932007
629.0779, 11.06885
629.5601, 12.14807
630.0422, 11.79962
630.5243, 10.27740
631.0064, 8.647583
631.4885, 7.477905
631.9706, 6.609863
632.4528, 5.928345
632.9349, 5.441772
633.4170, 5.085327
633.8991, 4.837585
634.3812, 4.863464
634.8633, 5.138184
635.3455, 5.470032
635.8276, 6.554626
636.3097, 9.563354
636.7918, 12.34204
637.2739, 12.71783
637.7560, 9.737671
638.2382, 8.218201
638.7203, 8.834656
639.2024, 10.44238
639.6845, 11.40002
640.1666, 11.76056
640.6487, 12.06750
641.1309, 12.50012
641.6130, 12.88135
642.0951, 13.00006
642.5772, 12.85742
643.0594, 12.46735
643.5415, 11.28687
644.0236, 10.33582
644.5057, 10.60559
644.9879, 11.92578
645.4700, 12.50171
645.9521, 11.21826
646.4342, 9.771362
646.9163, 8.820129
647.3984, 8.363708
647.8806, 8.725220
648.3627, 10.62781
648.8448, 12.12604
649.3269, 11.28894
649.8090, 8.131348
650.2911, 5.715149
650.7733, 4.255310
651.2554, 3.575317
651.7375, 3.790771
652.2196, 4.586487
652.7017, 5.071655
653.1838, 4.559326
653.6660, 4.496277
654.1481, 6.793335
654.6302, 10.15973
655.1123, 12.35376
655.5944, 11.65936
656.0765, 10.63989
656.5587, 9.369995
657.0408, 8.232788
657.5229, 9.104431
658.0050, 13.66284
658.4871, 17.31696
658.9692, 18.47375
659.4514, 17.25818
659.9335, 14.57953
660.4156, 10.17871
660.8977, 6.506714
661.3798, 5.903259
661.8619, 7.359619
662.3441, 8.156494
662.8262, 8.113403
663.3083, 7.905090
663.7904, 8.563232
664.2725, 9.302856
664.7546, 9.013550
665.2368, 6.906982
665.7189, 5.127991
666.2010, 5.130066
666.6831, 5.617981
667.1652, 4.964417
667.6473, 1.195923
668.1295, 0.4230350
668.6116, 1.254272
669.0937, 4.612122
669.5758, 6.144592
670.0579, 5.754517
670.5400, 5.670898
671.0222, 6.576233
671.5043, 7.937134
671.9864, 8.708740
672.4685, 9.011841
672.9506, 9.320190
673.4327, 10.31970
673.9149, 11.06445
674.3970, 10.05920
674.8791, 7.663818
675.3612, 6.483765
675.8433, 8.940063
676.3254, 11.75281
676.8076, 13.17981
677.2897, 13.17371
677.7718, 12.72705
678.2539, 11.35303
678.7360, 10.22644
679.2181, 10.13245
679.7003, 11.15295
680.1824, 12.93994
680.6645, 15.60034
681.1466, 18.38086
681.6287, 20.65820
682.1108, 22.47278
682.5930, 23.77283
683.0751, 24.49170
683.5572, 24.96069
684.0393, 25.63391
684.5214, 26.14563
685.0035, 26.03040
685.4857, 23.08521
685.9678, 21.68665
686.4499, 24.10474
686.9320, 28.71094
687.4141, 31.86633
687.8962, 32.63599
688.3784, 33.68896
688.8605, 35.69714
689.3426, 38.36426
689.8247, 40.64966
690.3068, 42.57471
690.7889, 44.46301
691.2711, 46.37256
691.7532, 48.40417
692.2353, 50.79785
692.7174, 53.49866
693.1995, 56.30298
693.6816, 58.90051
694.1638, 61.67920
694.6459, 65.08606
695.1280, 69.20862
695.6101, 72.93335
696.0922, 76.57471
696.5743, 79.32898
697.0565, 80.92017
697.5386, 81.33533
698.0207, 80.30371
698.5028, 77.79602
698.9849, 74.16174
699.4670, 69.51892
699.9492, 63.93237
700.4313, 57.75024
700.9135, 50.84656
701.3956, 44.49243
701.8777, 40.30164
702.3598, 37.55518
702.8419, 35.02637
703.3240, 32.22778
703.8062, 29.82678
704.2883, 28.68823
704.7704, 28.00012
705.2525, 26.60864
705.7346, 22.49255
706.2167, 20.13794
706.6989, 21.20203
707.1810, 23.75146
707.6631, 22.93152
708.1452, 18.00305
708.6273, 14.23889
709.1094, 13.47070
709.5916, 14.67407
710.0737, 15.95752
710.5558, 17.20837
711.0379, 17.88403
711.5200, 17.71753
712.0021, 16.85095
712.4843, 15.03406
712.9664, 12.45264
713.4485, 10.10107
713.9306, 8.267944
714.4127, 6.814331
714.8948, 5.375488
715.3770, 3.887329
715.8591, 4.605835
716.3412, 9.024780
716.8233, 12.70361
717.3054, 12.55200
717.7875, 8.772095
718.2697, 6.498047
718.7518, 5.782959
719.2339, 5.645020
719.7160, 5.659546
720.1981, 5.559448
720.6802, 4.735596
721.1624, 3.040283
721.6445, 1.593628
722.1266, 0.8179930
722.6087, 0.7304690
723.0908, 1.554565
723.5729, 4.643066
724.0551, 5.741333
724.5372, 3.322632
725.0193, 0.1143800
725.5014, 0.8782960
725.9835, 0.8968510
726.4656, 1.397949
726.9478, 0.1422120
727.4299, 2.267090
727.9120, 2.957153
728.3941, 2.479126
728.8762, 1.553101
729.3583, 0.1754150
729.8405, 1.133789
730.3226, 2.021729
730.8047, 2.535645
731.2868, 2.725342
731.7689, 2.714844
732.2510, 2.256470
732.7332, 0.5280760
733.2153, 1.523438
733.6974, 1.776123
734.1795, 0.6403810
734.6616, 2.490234
735.1437, 2.905273
735.6259, 2.299194
736.1080, 1.498169
736.5901, 0.5440670
737.0722, 0.1593020
737.5543, 0.5889890
738.0364, 0.5522460
738.5186, 0.1510010
739.0007, 1.505005
739.4828, 3.492920
739.9649, 8.517822
740.4470, 11.86670
740.9291, 10.30481
741.4113, 4.206787
741.8934, 0.3406980
742.3755, 0.5974120
742.8576, 0.4976810
743.3397, 0.1165770
743.8218, 1.168823
744.3040, 2.041016
744.7861, 2.733032
745.2682, 3.085449
745.7503, 2.829468
746.2324, 2.221558
746.7145, 1.656738
747.1967, 1.140015
747.6788, 0.5843510
748.1609, 0.3902590
748.6430, 1.174927
749.1251, 1.339844
749.6072, 0.7442630
750.0894, 5.0903000E-02
750.5715, 1.561401
751.0536, 2.572876
751.5357, 1.968506
752.0178, 0.4858400
752.4999, 1.404663
752.9821, 0.5837400
753.4642, 0.4476320
753.9463, 0.2209470
754.4284, 1.618530
754.9105, 1.683716
755.3926, 6.6895001E-02
755.8748, 1.915161
756.3569, 3.901245
756.8390, 5.573242
757.3211, 6.721313
757.8032, 7.493408
758.2853, 7.120605
758.7675, 4.628906
759.2496, 1.961182
759.7318, 1.020630
760.2139, 2.092896
760.6960, 2.766479
761.1781, 2.785034
761.6602, 2.655762
762.1423, 2.757446
762.6245, 3.224365
763.1066, 4.617554
763.5887, 7.476685
764.0708, 9.845825
764.5529, 9.975098
765.0350, 8.975708
765.5172, 8.159180
765.9993, 7.501099
766.4814, 7.522095
766.9635, 8.959473
767.4456, 10.49023
767.9277, 10.11133
768.4099, 7.406494
768.8920, 5.491943
769.3741, 4.994751
769.8562, 5.071777
770.3383, 4.185913
770.8204, 2.852295
771.3026, 2.598755
771.7847, 4.572632
772.2668, 6.499634
772.7489, 6.526978
773.2310, 5.605347
773.7131, 5.215942
774.1953, 6.923950
774.6774, 7.556030
775.1595, 6.215576
775.6416, 4.002319
776.1237, 2.986328
776.6058, 3.325562
777.0880, 3.639404
777.5701, 3.562256
778.0522, 3.339355
778.5343, 3.015869
779.0164, 2.845581
779.4985, 3.656250
779.9807, 6.897949
780.4628, 9.790527
780.9449, 10.25476
781.4270, 9.161133
781.9091, 8.376831
782.3912, 8.551880
782.8734, 8.650024
783.3555, 8.368896
783.8376, 8.135742
784.3197, 8.794189
784.8018, 10.44470
785.2839, 11.12903
785.7661, 10.01147
786.2482, 8.305176
786.7303, 7.801636
787.2124, 8.345947
787.6945, 9.362061
788.1766, 10.73474
788.6588, 12.30566
789.1409, 14.48315
789.6230, 16.82007
790.1051, 18.04431
790.5872, 16.88098
791.0693, 16.34204
791.5515, 17.47961
792.0336, 19.75842
792.5157, 20.75989
792.9978, 20.51099
793.4799, 21.13660
793.9620, 23.91846
794.4442, 27.42700
794.9263, 29.39233
795.4084, 30.33093
795.8905, 31.74255
796.3726, 34.95801
796.8547, 38.09314
797.3369, 40.06958
797.8190, 41.30652
798.3011, 43.28406
798.7832, 45.94214
799.2653, 49.55359
799.7474, 54.38159
800.2296, 60.00452
800.7117, 65.67871
801.1938, 71.37366
801.6759, 76.38635
802.1580, 79.75549
802.6401, 82.99487
803.1223, 87.69678
803.6044, 93.64709
804.0865, 100.1720
804.5686, 106.7314
805.0507, 114.2192
805.5328, 124.1869
806.0150, 135.2615
806.4971, 143.8016
806.9792, 149.1896
807.4613, 154.5028
807.9434, 161.5043
808.4255, 167.8744
808.9077, 168.3301
809.3898, 163.4774
809.8719, 156.0056
810.3540, 146.1935
810.8361, 135.2081
811.3182, 122.9739
811.8004, 110.2278
812.2825, 98.47986
812.7646, 88.84460
813.2467, 79.61060
813.7288, 70.04834
814.2109, 60.68896
814.6931, 53.12915
815.1752, 47.43787
815.6573, 42.51257
816.1394, 38.05273
816.6215, 34.10645
817.1037, 30.84595
817.5858, 28.17810
818.0679, 25.76892
818.5500, 23.38037
819.0322, 21.30457
819.5143, 19.60046
819.9964, 18.32690
820.4785, 17.72815
820.9606, 18.30298
821.4427, 18.54846
821.9249, 18.21875
822.4070, 17.43872
822.8891, 16.45740
823.3712, 15.27258
823.8533, 13.85181
824.3354, 12.10437
824.8176, 10.30383
825.2997, 8.296997
825.7818, 6.575806
826.2639, 6.005371
826.7460, 9.104492
827.2281, 10.69250
827.7103, 8.279785
828.1924, 4.344238
828.6745, 1.995361
829.1566, 1.411865
829.6387, 1.941772
830.1208, 3.838013
830.6030, 5.963623
831.0851, 6.352173
831.5672, 5.509399
832.0493, 4.911255
832.5314, 5.170166
833.0135, 5.142090
833.4957, 3.107788
833.9778, 0.7550050
834.4599, 5.2855998E-02
834.9420, 3.673218
835.4241, 5.675415
835.9063, 5.455200
836.3884, 4.363037
836.8705, 4.049438
837.3526, 4.488525
837.8347, 4.339600
838.3168, 3.357422
838.7990, 2.235107
839.2811, 1.477417
839.7632, 1.106323
840.2453, 1.220215
840.7274, 1.970703
841.2095, 2.702515
841.6917, 3.179077
842.1738, 3.530273
842.6559, 3.865356
843.1380, 4.192139
843.6201, 4.476318
844.1022, 4.755127
844.5844, 4.863281
845.0665, 4.457397
845.5486, 3.786987
846.0307, 3.728516
846.5128, 4.388184
846.9949, 4.636475
847.4771, 3.467529
847.9592, 1.781250
848.4413, 3.4179999E-03
848.9234, 2.071655
849.4055, 2.634033
849.8876, 0.9180910
850.3698, 1.082275
850.8519, 2.134399
851.3340, 2.331177
851.8161, 3.135742
852.2982, 4.529785
852.7803, 5.329956
853.2625, 3.838867
853.7446, 1.839600
854.2267, 1.266113
854.7088, 2.113403
855.1909, 3.157349
855.6730, 4.374878
856.1552, 5.342285
856.6373, 6.154053
857.1194, 6.684814
857.6015, 5.467163
858.0836, 2.188232
858.5657, 0.4396970
859.0479, 1.072998
859.5300, 0.2849120
860.0121, 1.647827
860.4942, 4.201416
860.9763, 5.480469
861.4584, 3.101318
861.9406, 0.6806640
862.4227, 6.7139000E-02
862.9048, 0.5245360
863.3869, 1.113892
863.8690, 1.849976
864.3511, 2.088867
864.8333, 1.313965
865.3154, 0.4056400
865.7975, 1.780029
866.2796, 4.818970
866.7617, 6.869751
867.2438, 6.763062
867.7260, 5.789185
868.2081, 3.942017
868.6902, 2.148804
869.1723, 1.811035
869.6544, 4.828979
870.1365, 7.094238
870.6187, 8.371704
871.1008, 8.854736
871.5829, 8.616577
872.0650, 7.696777
872.5471, 6.742676
873.0292, 5.811157
873.5114, 5.125488
873.9935, 4.960449
874.4756, 5.169922
874.9577, 5.663452
875.4399, 6.641357
875.9220, 7.205811
876.4041, 6.801025
876.8862, 6.175781
877.3683, 5.736816
877.8505, 5.460571
878.3326, 5.536743
878.8147, 5.991577
879.2968, 6.517090
879.7789, 6.555908
880.2610, 6.598389
880.7432, 7.847290
881.2253, 10.29370
881.7074, 11.93005
882.1895, 10.96509
882.6716, 9.709595
883.1537, 9.608643
883.6359, 10.59021
884.1180, 10.70227
884.6001, 9.794678
885.0822, 8.800659
885.5643, 7.767700
886.0464, 7.059937
886.5286, 8.284180
887.0107, 10.83203
887.4928, 12.26172
887.9749, 9.615479
888.4570, 7.229614
888.9391, 7.759155
889.4213, 10.30017
889.9034, 11.80615
890.3855, 11.94214
890.8676, 11.81348
891.3497, 11.54175
891.8318, 11.15222
892.3140, 10.30359
892.7961, 9.247925
893.2782, 9.312622
893.7603, 11.33972
894.2424, 13.63501
894.7245, 15.65771
895.2067, 16.90784
895.6888, 16.67407
896.1709, 12.80054
896.6530, 10.96216
897.1351, 11.99219
897.6172, 13.77429
898.0994, 13.98877
898.5815, 12.88745
899.0636, 12.51428
899.5457, 13.12549
900.0278, 13.28894
900.5099, 10.75964
900.9921, 7.945435
901.4742, 7.355469
901.9563, 9.634644
902.4384, 11.18970
902.9205, 11.32104
903.4026, 11.31848
903.8848, 11.46667
904.3669, 11.87781
904.8490, 13.71521
905.3311, 16.89160
905.8132, 19.44226
906.2953, 19.68872
906.7775, 19.09460
907.2596, 19.26562
907.7417, 19.97998
908.2238, 20.10315
908.7059, 18.30542
909.1880, 17.23755
909.6702, 18.19714
910.1523, 19.75269
910.6344, 17.62305
911.1165, 11.93079
911.5986, 8.646484
912.0807, 10.14319
912.5629, 12.82312
913.0450, 12.46594
913.5271, 10.63586
914.0092, 9.627808
914.4913, 10.15918
914.9734, 11.50488
915.4556, 14.39929
915.9377, 17.21936
916.4198, 18.43201
916.9019, 17.95557
917.3840, 17.03015
917.8661, 15.62744
918.3483, 14.51257
918.8304, 14.47290
919.3125, 15.05920
919.7946, 15.89661
920.2767, 16.94312
920.7589, 17.64429
921.2410, 17.68652
921.7231, 17.47668
922.2052, 17.07092
922.6873, 16.52185
923.1694, 16.38477
923.6516, 16.66785
924.1337, 16.84460
924.6158, 16.53650
925.0979, 16.06030
925.5800, 15.81384
926.0621, 15.73267
926.5443, 15.66357
927.0264, 15.14734
927.5085, 15.24585
927.9906, 16.73242
928.4727, 18.48291
928.9548, 18.40186
929.4370, 16.42969
929.9191, 15.31555
930.4012, 15.66064
930.8833, 16.54285
931.3654, 17.38538
931.8475, 17.91699
932.3297, 17.59766
932.8118, 15.93445
933.2939, 14.74707
933.7761, 15.17957
934.2582, 15.43872
934.7403, 14.25708
935.2224, 11.56287
935.7045, 9.825684
936.1866, 9.046265
936.6688, 8.692627
937.1509, 8.608643
937.6330, 8.603638
938.1151, 8.689331
938.5972, 8.753296
939.0793, 8.207886
939.5615, 6.021729
940.0436, 4.174072
940.5257, 3.500732
941.0078, 3.462036
941.4899, 2.460083
941.9720, 0.5458980
942.4542, 1.007446
942.9363, 1.879028
943.4184, 2.220459
943.9005, 2.241577
944.3826, 1.849731
944.8647, 0.8172610
945.3469, 1.847290
945.8290, 3.272095
946.3111, 2.939819
946.7932, 1.813110
947.2753, 0.5021970
947.7574, 0.9741210
948.2396, 2.078003
948.7217, 2.790527
949.2038, 2.819580
949.6859, 1.625610
950.1680, 0.1484380
950.6501, 2.526733
951.1323, 5.354858
951.6144, 6.165527
952.0965, 2.920044
952.5786, 0.7891850
953.0607, 1.760742
953.5428, 4.635986
954.0250, 5.970825
954.5071, 5.912354
954.9892, 5.297852
955.4713, 4.131958
955.9534, 3.035889
956.4355, 2.363892
956.9177, 2.100830
957.3998, 2.258423
957.8819, 3.350586
958.3640, 3.917603
958.8461, 4.015137
959.3282, 3.421143
959.8104, 1.026978
960.2925, 2.245605
960.7746, 2.842896
961.2567, 0.5017090
961.7388, 2.393555
962.2209, 5.778687
962.7031, 7.996338
963.1852, 6.990479
963.6673, 2.998291
964.1494, 1.428101
964.6315, 3.033325
965.1136, 4.410278
965.5958, 4.046997
966.0779, 2.903320
966.5600, 2.979492
967.0421, 3.934937
967.5242, 4.838379
968.0063, 5.168091
968.4885, 5.617676
968.9706, 6.968750
969.4527, 8.306396
969.9348, 8.528687
970.4169, 7.468628
970.8990, 5.931030
971.3812, 3.817139
971.8633, 2.083984
972.3454, 1.856079
972.8275, 2.551025
973.3096, 3.539429
973.7917, 4.729370
974.2739, 5.484009
974.7560, 5.250854
975.2381, 4.864380
975.7202, 4.651123
976.2023, 4.556152
976.6844, 4.219482
977.1666, 3.665771
977.6487, 3.273438
978.1308, 3.217041
978.6129, 3.386353
979.0950, 3.947876
979.5771, 4.591187
980.0593, 4.804932
980.5414, 3.716553
981.0235, 3.354004
981.5056, 4.189453
981.9877, 5.186768
982.4698, 5.306885
982.9520, 4.643555
983.4341, 3.669067
983.9162, 2.412842
984.3983, 1.379639
984.8804, 0.6997070
985.3625, 0.5571290
985.8447, 1.510620
986.3268, 3.440430
986.8089, 4.140015
987.2910, 3.197144
987.7731, 2.169800
988.2552, 1.474976
988.7374, 1.130493
989.2195, 0.8193360
989.7016, 0.9022220
990.1837, 2.566650
990.6658, 7.803467
991.1479, 11.51501
991.6301, 10.23584
992.1122, 7.257568
992.5944, 5.860840
993.0765, 6.471558
993.5586, 6.318970
994.0407, 5.285889
994.5228, 4.145630
995.0049, 3.630737
995.4871, 3.313477
995.9692, 2.254883
996.4513, 0.6616210
996.9334, 0.1386720
997.4155, 2.488770
997.8976, 4.330200
998.3798, 4.612183
998.8619, 4.056152
999.3440, 4.409424
999.8261, 5.589722
1000.308, 7.060425
1000.790, 9.184082
1001.272, 10.13269
1001.755, 6.800415
1002.237, 2.391479
1002.719, 0.4819340
1003.201, 2.346069
1003.683, 4.304932
1004.165, 6.749512
1004.647, 8.387817
1005.129, 8.072021
1005.612, 6.321289
1006.094, 4.457153
1006.576, 2.662964
1007.058, 1.616211
1007.540, 2.614014
1008.022, 3.577881
1008.504, 3.126709
1008.986, 2.152100
1009.468, 2.496338
1009.951, 4.433105
1010.433, 5.283325
1010.915, 4.553711
1011.397, 3.245728
1011.879, 2.045654
1012.361, 1.189453
1012.843, 0.9355470
1013.325, 1.309692
1013.807, 2.432617
1014.290, 5.027954
1014.772, 7.272217
1015.254, 8.270264
1015.736, 8.302124
1016.218, 8.964600
1016.700, 9.948730
1017.182, 9.364746
1017.664, 4.467896
1018.147, 1.8921001E-02
1018.629, 3.1615999E-02
1019.111, 2.563477
1019.593, 4.255005
1020.075, 4.477417
1020.557, 5.149780
1021.039, 6.602783
1021.521, 7.516724
1022.003, 5.994141
1022.486, 3.339722
1022.968, 1.778931
1023.450, 1.393066
1023.932, 1.398071
1024.414, 1.939941
1024.896, 2.283569
1025.378, 1.977905
1025.860, 1.421143
1026.343, 1.832153
1026.825, 3.142090
1027.307, 4.788818
1027.789, 7.004517
1028.271, 8.249878
1028.753, 5.872070
1029.235, 2.467041
1029.717, 1.166748
1030.199, 3.359619
1030.682, 3.976074
1031.164, 2.516479
1031.646, 0.8487550
1032.128, 8.2886003E-02
1032.610, 2.7100001E-02
1033.092, 0.2492680
1033.574, 0.4008790
1034.056, 0.1922610
1034.539, 2.683228
1035.021, 4.924072
1035.503, 6.042847
1035.985, 6.674438
1036.467, 7.941895
1036.949, 9.883179
1037.431, 10.15234
1037.913, 8.393677
1038.396, 6.213989
1038.878, 4.409180
1039.360, 3.250977
1039.842, 3.306396
1040.324, 4.611938
1040.806, 5.240112
1041.288, 4.964355
1041.770, 4.324219
1042.252, 3.158569
1042.734, 2.038086
1043.217, 2.902588
1043.699, 4.904663
1044.181, 5.554077
1044.663, 3.250488
1045.145, 1.483643
1045.627, 2.467407
1046.109, 3.764771
1046.591, 3.270386
1047.074, 0.8457030
1047.556, 0.6810300
1048.038, 2.817749
1048.520, 4.612549
1049.002, 3.859985
1049.484, 2.412354
1049.966, 1.624878
1050.448, 1.447266
1050.931, 1.688477
1051.413, 2.422485
1051.895, 3.304688
1052.377, 4.352661
1052.859, 5.408813
1053.341, 6.885620
1053.823, 8.092163
1054.305, 6.772705
1054.787, 2.677612
1055.270, 0.1116940
1055.752, 2.852417
1056.234, 5.347168
1056.716, 4.792236
1057.198, 2.120972
1057.680, 2.112427
1058.162, 4.624390
1058.644, 6.310913
1059.126, 5.985107
1059.609, 4.754150
1060.091, 2.214844
1060.573, 4.4677999E-02
1061.055, 0.8466800
1061.537, 6.321655
1062.019, 8.244629
1062.501, 5.855469
1062.983, 2.758667
1063.466, 1.050415
1063.948, 0.4071040
1064.430, 0.4968260
1064.912, 1.143555
1065.394, 1.805054
1065.876, 2.389404
1066.358, 2.815063
1066.840, 3.054688
1067.323, 3.166260
1067.805, 2.969849
1068.287, 2.618652
1068.769, 3.219360
1069.251, 4.855957
1069.733, 7.033691
1070.215, 10.42236
1070.697, 13.25549
1071.179, 13.82007
1071.661, 12.68359
1072.144, 12.31812
1072.626, 12.86682
1073.108, 13.01038
1073.590, 12.07812
1074.072, 11.66162
1074.554, 14.53857
1075.036, 18.79651
1075.518, 21.87756
1076.001, 23.06189
1076.483, 24.26233
1076.965, 25.40283
1077.447, 27.11548
1077.929, 30.04199
1078.411, 33.58276
1078.893, 35.77771
1079.375, 37.03259
1079.858, 38.71362
1080.340, 42.59253
1080.822, 45.24060
1081.304, 44.58972
1081.786, 42.75488
1082.268, 41.50073
1082.750, 40.83691
1083.232, 40.19324
1083.714, 39.53845
1084.197, 38.17578
1084.679, 35.22485
1085.161, 31.74414
1085.643, 28.61560
1086.125, 25.65796
1086.607, 21.92236
1087.089, 16.97290
1087.571, 12.84241
1088.054, 9.786377
1088.536, 7.816650
1089.018, 7.397949
1089.500, 7.837280
1089.982, 8.047974
1090.464, 7.891968
1090.946, 8.411377
1091.428, 10.85327
1091.911, 12.26367
1092.393, 11.55090
1092.875, 9.336792
1093.357, 6.576904
1093.839, 3.591187
1094.321, 1.355469
1094.803, 0.2628170
1095.285, 0.4409180
1095.767, 1.048828
1096.250, 1.387207
1096.732, 1.271118
1097.214, 0.7257080
1097.696, 0.3205570
1098.178, 4.8705999E-02
1098.660, 5.5054002E-02
1099.142, 0.4538570
1099.624, 0.6151120
1100.106, 1.144531
1100.589, 3.402344
1101.071, 3.639526
1101.553, 0.4129640
1102.035, 0.1743160
1102.517, 3.566895
1102.999, 6.986328
1103.481, 7.302856
1103.963, 5.903809
1104.446, 3.908813
1104.928, 1.713989
1105.410, 0.6627200
1105.892, 1.910278
1106.374, 2.857910
1106.856, 3.164673
1107.338, 3.033447
1107.820, 2.255371
1108.302, 1.368408
1108.785, 2.095337
1109.267, 4.617432
1109.749, 6.291626
1110.231, 5.016968
1110.713, 3.856445
1111.195, 4.191895
1111.677, 5.287354
1112.159, 5.113403
1112.641, 3.804443
1113.124, 1.914795
1113.606, 0.7586670
1114.088, 2.514526
1114.570, 1.233643
1115.052, 0.6474610
1115.534, 0.9429930
1116.016, 2.127441
1116.498, 3.267822
1116.981, 2.842407
1117.463, 4.450073
1117.945, 3.370850
1118.427, 1.821777
1118.909, 1.977905
1119.391, 3.079956
1119.873, 4.093140
1120.355, 4.951538
1120.838, 5.560059
1121.320, 5.814331
1121.802, 5.768188
1122.284, 5.425781
1122.766, 4.880493
1123.248, 4.255981
1123.730, 3.542725
1124.212, 2.699585
1124.694, 1.314331
1125.177, 0.4172360
1125.659, 1.8188000E-02
1126.141, 0.2795410
1126.623, 1.981567
1127.105, 4.338623
1127.587, 5.126709
1128.069, 4.398804
1128.551, 3.445190
1129.033, 2.203369
1129.516, 1.627808
1129.998, 2.078125
1130.480, 3.123657
1130.962, 4.525269
1131.444, 6.070679
1131.926, 5.685669
1132.408, 2.888428
1132.890, 1.090454
1133.373, 4.095093
1133.855, 7.486084
1134.337, 8.777100
1134.819, 8.465210
1135.301, 7.997070
1135.783, 7.423218
1136.265, 7.283936
1136.747, 7.725098
1137.229, 8.764160
1137.712, 11.58643
1138.194, 14.14343
1138.676, 14.17285
1139.158, 11.69006
1139.640, 9.751343
1140.122, 8.290527
1140.604, 7.841919
1141.086, 8.805298
1141.569, 10.51953
1142.051, 13.02917
1142.533, 15.47742
1143.015, 16.41089
1143.497, 14.45447
1143.979, 15.57385
1144.461, 20.67749
1144.943, 25.20605
1145.426, 25.80042
1145.908, 24.55933
1146.390, 24.41089
1146.872, 25.29443
1147.354, 26.99329
1147.836, 30.03992
1148.318, 33.05652
1148.800, 36.03113
1149.282, 38.82227
1149.765, 41.19629
1150.247, 43.50146
1150.729, 46.52466
1151.211, 50.23267
1151.693, 54.41785
1152.175, 60.20300
1152.657, 64.62219
1153.139, 66.37585
1153.621, 67.91199
1154.104, 72.34290
1154.586, 79.00525
1155.068, 86.08276
1155.550, 93.36902
1156.032, 99.46460
1156.514, 103.6249
1156.996, 106.5043
1157.478, 108.4600
1157.961, 109.4407
1158.443, 109.2844
1158.925, 107.9712
1159.407, 105.3811
1159.889, 101.5079
1160.371, 96.52100
1160.853, 90.01392
1161.335, 82.89294
1161.818, 75.27612
1162.300, 67.54834
1162.782, 60.99158
1163.264, 55.50977
1163.746, 49.38403
1164.228, 41.88245
1164.710, 35.67200
1165.192, 33.85449
1165.674, 33.07703
1166.156, 30.86401
1166.639, 27.44812
1167.121, 24.52441
1167.603, 22.11353
1168.085, 19.79480
1168.567, 17.48303
1169.049, 15.08032
1169.531, 11.68787
1170.013, 8.732300
1170.496, 7.882080
1170.978, 9.132690
1171.460, 10.49023
1171.942, 11.97058
1172.424, 12.24121
1172.906, 10.04419
1173.388, 7.270386
1173.870, 5.544556
1174.353, 4.617798
1174.835, 4.195313
1175.317, 4.157715
1175.799, 5.420410
1176.281, 8.373169
1176.763, 9.606934
1177.245, 5.766846
1177.727, 0.8159180
1178.209, 0.8847660
1178.692, 0.4912110
1179.174, 0.1123050
1179.656, 0.8577880
1180.138, 1.099365
1180.620, 0.6282960
1181.102, 0.7041020
1181.584, 3.442139
1182.066, 6.312256
1182.548, 5.272583
1183.031, 1.935181
1183.513, 0.1693120
1183.995, 1.442871
1184.477, 2.366699
1184.959, 2.821777
1185.441, 2.900024
1185.923, 2.386475
1186.405, 1.753052
1186.888, 2.041870
1187.370, 1.098022
1187.852, 2.479248
1188.334, 0.2873540
1188.816, 2.205566
1189.298, 3.058105
1189.780, 2.773071
1190.262, 0.1678470
1190.745, 2.989136
1191.227, 3.813110
1191.709, 2.535278
1192.191, 1.226440
1192.673, 3.7354000E-02
1193.155, 0.5679930
1193.637, 0.1257320
1194.119, 0.6635740
1194.601, 1.042847
1195.084, 1.289307
1195.566, 2.037598
1196.048, 3.239380
1196.530, 3.748413
1197.012, 2.670288
1197.494, 2.333130
1197.976, 3.341919
1198.458, 4.839966
1198.941, 6.062744
1199.423, 6.727051
1199.905, 5.809204
1200.387, 3.282593
1200.869, 2.260132
1201.351, 4.888672
1201.833, 5.641357
1202.315, 2.392212
1202.797, 1.725952
1203.280, 0.9741210
1203.762, 2.213379
1204.244, 3.580078
1204.726, 2.423828
1205.208, 1.088745
1205.690, 0.5441890
1206.172, 1.117310
1206.654, 0.1336670
1207.136, 2.010498
1207.619, 2.147705
1208.101, 1.501953
1208.583, 1.889282
1209.065, 3.798950
1209.547, 5.167480
1210.029, 5.013428
1210.511, 5.889160
1210.993, 9.359375
1211.476, 13.31091
1211.958, 13.27502
1212.440, 11.18054
1212.922, 10.50549
1213.404, 12.17273
1213.886, 14.10010
1214.368, 16.26062
1214.850, 18.13623
1215.333, 19.68835
1215.815, 20.59570
1216.297, 19.54907
1216.779, 17.67554
1217.261, 17.06030
1217.743, 18.47119
1218.225, 19.98828
1218.707, 21.48047
1219.189, 22.83301
1219.672, 23.73669
1220.154, 24.80554
1220.636, 27.42175
1221.118, 30.94604
1221.600, 34.31860
1222.082, 37.35339
1222.564, 39.76855
1223.046, 41.35059
1223.528, 42.96436
1224.011, 44.74438
1224.493, 47.05164
1224.975, 51.19324
1225.457, 55.97595
1225.939, 59.29016
1226.421, 59.83875
1226.903, 61.24744
1227.385, 63.93970
1227.868, 66.07422
1228.350, 66.34314
1228.832, 65.77649
1229.314, 66.05933
1229.796, 66.58643
1230.278, 66.21326
1230.760, 64.00537
1231.242, 63.38208
1231.724, 64.97632
1232.207, 65.08899
1232.689, 60.40613
1233.171, 54.24097
1233.653, 50.51526
1234.135, 48.41016
1234.617, 46.66089
1235.099, 45.59717
1235.581, 42.92993
1236.063, 38.33508
1236.546, 34.26721
1237.028, 33.23840
1237.510, 32.45789
1237.992, 27.95605
1238.474, 22.06519
1238.956, 18.97302
1239.438, 19.78052
1239.920, 19.01807
1240.403, 16.54773
1240.885, 14.42859
1241.367, 14.34509
1241.849, 14.77979
1242.331, 13.92810
1242.813, 12.97205
1243.295, 14.02930
1243.777, 17.97900
1244.260, 18.52271
1244.742, 15.67627
1245.224, 12.82898
1245.706, 12.21716
1246.188, 11.92224
1246.670, 11.42444
1247.152, 10.96924
1247.634, 10.58032
1248.116, 10.19519
1248.599, 10.41492
1249.081, 11.17822
1249.563, 11.70410
1250.045, 11.39111
1250.527, 10.87646
1251.009, 10.89929
1251.491, 10.54639
1251.973, 8.309937
1252.455, 4.358643
1252.938, 3.379639
1253.420, 5.183350
1253.902, 6.730591
1254.384, 5.838135
1254.866, 4.828369
1255.348, 4.758667
1255.830, 4.877563
1256.313, 4.552612
1256.795, 3.887939
1257.277, 3.476929
1257.759, 3.299194
1258.241, 3.182861
1258.723, 2.455811
1259.205, 2.756348
1259.687, 5.087891
1260.169, 7.349121
1260.651, 7.404419
1261.134, 5.948364
1261.616, 5.104492
1262.098, 4.752197
1262.580, 4.383179
1263.062, 3.417358
1263.544, 3.017090
1264.026, 3.252197
1264.508, 4.066772
1264.991, 6.326416
1265.473, 8.643677
1265.955, 7.600220
1266.437, 4.434937
1266.919, 2.447998
1267.401, 3.463257
1267.883, 3.889771
1268.365, 3.501587
1268.848, 3.276611
1269.330, 4.091797
1269.812, 5.419434
1270.294, 7.185791
1270.776, 8.812134
1271.258, 8.804688
1271.740, 6.235229
1272.222, 4.843872
1272.704, 4.731567
1273.187, 5.223877
1273.669, 6.400635
1274.151, 7.415527
1274.633, 7.575928
1275.115, 7.028076
1275.597, 6.004639
1276.079, 4.439575
1276.561, 2.979370
1277.043, 1.655396
1277.526, 0.7880860
1278.008, 0.5668950
1278.490, 0.9289550
1278.972, 3.093872
1279.454, 4.890869
1279.936, 3.394409
1280.418, 1.163696
1280.900, 2.020264
1281.383, 0.3286130
1281.865, 2.699341
1282.347, 3.905884
1282.829, 4.271973
1283.311, 3.228027
1283.793, 2.132202
1284.275, 1.850586
1284.757, 2.376343
1285.240, 4.086548
1285.722, 6.632202
1286.204, 8.872070
1286.686, 11.22961
1287.168, 11.49646
1287.650, 8.887939
1288.132, 5.832886
1288.614, 3.710205
1289.096, 2.537354
1289.578, 2.654541
1290.061, 3.670410
1290.543, 4.842285
1291.025, 6.408569
1291.507, 6.730225
1291.989, 4.967651
1292.471, 4.285034
1292.953, 6.139282
1293.435, 8.691772
1293.918, 10.39502
1294.400, 11.03711
1294.882, 9.915527
1295.364, 6.781494
1295.846, 5.264771
1296.328, 5.420532
1296.810, 5.357544
1297.292, 3.549316
1297.775, 2.200806
1298.257, 4.000122
1298.739, 6.423706
1299.221, 7.106079
1299.703, 6.184937
1300.185, 4.841675
1300.667, 3.208740
1301.149, 1.772583
1301.631, 0.1721190
1302.114, 3.9795000E-02
1302.596, 0.0000000E+00
##END=



