##NAMES=Quartz
##RRUFFID=R050125
##IDEAL CHEMISTRY=SiO_2_
##LOCALITY=Linopolis, Minas Gerais, Brazil
##OWNER=RRUFF
##SOURCE=Carlos and Paulo Vasconcelos
##DESCRIPTION=Pale pink group of single crystals, variety rose quartz
##STATUS=The identification of this mineral has been confirmed by X-ray diffraction and chemical analysis
##URL=rruff.info/R050125
##MEASURED CHEMISTRY=Si_1.00_O_2_
107.8047, 0.0000000E+00
108.2868, 0.3611640
108.7689, 0.6623650
109.2510, 0.9466510
109.7332, 0.3062710
110.2153, 8.8463001E-02
110.6974, 0.1599850
111.1795, 2.0794000E-02
111.6616, 0.3347050
112.1437, 0.6947860
112.6259, 1.301262
113.1080, 2.342674
113.5901, 3.773289
114.0722, 5.492908
114.5543, 7.476704
115.0364, 9.721184
115.5185, 12.06397
116.0007, 14.42214
116.4828, 16.92371
116.9649, 19.64808
117.4470, 22.59840
117.9291, 25.78998
118.4112, 29.15302
118.8934, 32.34969
119.3755, 36.63941
119.8576, 41.99795
120.3397, 48.40312
120.8218, 55.85826
121.3039, 64.34641
121.7861, 73.82181
122.2682, 84.26570
122.7503, 94.19178
123.2324, 107.0473
123.7145, 123.5418
124.1966, 143.0812
124.6788, 165.4436
125.1609, 191.2187
125.6430, 219.4453
126.1251, 241.6292
126.6072, 263.6976
127.0893, 276.1852
127.5715, 273.4435
128.0536, 256.7171
128.5357, 232.2206
129.0178, 201.5244
129.4999, 165.9943
129.9821, 134.6063
130.4642, 107.5520
130.9463, 84.86825
131.4284, 66.56931
131.9105, 52.95560
132.3926, 42.49692
132.8748, 34.87880
133.3569, 29.09777
133.8390, 24.24851
134.3211, 20.25644
134.8032, 17.06808
135.2853, 14.53991
135.7674, 12.91172
136.2496, 11.73513
136.7317, 10.77449
137.2138, 10.02161
137.6959, 9.486599
138.1780, 9.238087
138.6601, 9.312572
139.1423, 9.291508
139.6244, 8.975948
140.1065, 8.727989
140.5886, 8.835262
141.0707, 9.216248
141.5528, 9.495102
142.0350, 9.167500
142.5171, 7.818665
142.9992, 6.938351
143.4813, 6.733826
143.9634, 6.758556
144.4455, 6.737881
144.9277, 6.598701
145.4098, 6.426632
145.8919, 6.376038
146.3740, 6.656639
146.8561, 6.647827
147.3382, 6.140072
147.8204, 5.388031
148.3025, 4.699783
148.7846, 4.185581
149.2667, 3.764656
149.7488, 3.259125
150.2309, 2.639034
150.7131, 2.048882
151.1952, 1.593594
151.6773, 1.221409
152.1594, 0.7529110
152.6415, 3.2784000E-02
153.1236, 0.7272450
153.6058, 1.218597
154.0879, 1.390583
154.5700, 1.443581
155.0521, 1.493156
155.5342, 1.535648
156.0163, 1.646568
156.4985, 2.013229
156.9806, 2.377712
157.4627, 2.521816
157.9448, 2.382843
158.4269, 2.062824
158.9090, 1.679089
159.3912, 1.178810
159.8733, 0.7582020
160.3554, 0.6329270
160.8375, 0.5246280
161.3196, 0.1449010
161.8017, 0.6459200
162.2839, 1.688953
162.7660, 2.496376
163.2481, 2.836334
163.7302, 3.240173
164.2123, 3.690147
164.6944, 4.269180
165.1766, 5.124329
165.6587, 6.340683
166.1408, 7.844509
166.6229, 8.998028
167.1050, 9.487335
167.5871, 9.972172
168.0693, 10.52563
168.5514, 11.17379
169.0335, 11.92669
169.5156, 12.77131
169.9977, 13.72279
170.4798, 14.86533
170.9620, 16.36765
171.4441, 17.85781
171.9262, 19.07587
172.4083, 20.08799
172.8904, 21.23911
173.3725, 22.82070
173.8547, 24.79189
174.3368, 26.61980
174.8189, 28.16834
175.3010, 29.67933
175.7831, 31.26391
176.2652, 32.92432
176.7474, 34.84657
177.2295, 37.39493
177.7116, 40.32207
178.1937, 42.94847
178.6758, 44.78580
179.1579, 46.37236
179.6401, 48.56986
180.1222, 51.52281
180.6043, 54.65099
181.0864, 57.49432
181.5685, 60.25431
182.0506, 63.26468
182.5328, 66.78367
183.0149, 70.64717
183.4970, 74.34467
183.9791, 77.63416
184.4612, 81.13079
184.9433, 85.19418
185.4255, 89.59657
185.9076, 93.93472
186.3897, 97.77598
186.8718, 101.2418
187.3539, 105.5725
187.8360, 111.5067
188.3182, 117.6389
188.8003, 123.5430
189.2824, 129.3178
189.7645, 135.2324
190.2466, 141.4645
190.7287, 148.0460
191.2109, 154.7705
191.6930, 161.8437
192.1751, 168.9099
192.6572, 175.6693
193.1393, 182.2627
193.6214, 189.1351
194.1036, 196.6658
194.5857, 205.0000
195.0678, 213.0747
195.5499, 220.6390
196.0320, 228.2399
196.5141, 236.1504
196.9963, 244.3396
197.4784, 252.6859
197.9605, 261.0934
198.4426, 269.5992
198.9247, 277.5717
199.4068, 284.9583
199.8890, 291.9109
200.3711, 298.5092
200.8532, 304.7766
201.3353, 310.7136
201.8174, 316.4674
202.2995, 321.9814
202.7817, 326.4491
203.2638, 330.0462
203.7459, 332.4633
204.2280, 333.1891
204.7101, 332.1309
205.1922, 330.2350
205.6744, 328.2773
206.1565, 326.1754
206.6386, 323.4612
207.1207, 320.0120
207.6028, 315.9099
208.0849, 311.2709
208.5671, 306.0856
209.0492, 300.3364
209.5313, 293.9923
210.0134, 287.0968
210.4955, 279.5410
210.9776, 270.8752
211.4598, 261.5270
211.9419, 252.3734
212.4240, 243.5164
212.9061, 234.7847
213.3882, 226.1758
213.8703, 217.6021
214.3525, 208.8459
214.8346, 199.6303
215.3167, 190.1692
215.7988, 181.4475
216.2809, 173.8921
216.7630, 166.4384
217.2451, 158.2861
217.7273, 149.9282
218.2094, 142.1945
218.6915, 135.6712
219.1736, 130.2032
219.6557, 124.8871
220.1378, 119.7153
220.6200, 114.7544
221.1021, 110.0979
221.5842, 105.6523
222.0663, 101.2181
222.5484, 96.65236
223.0305, 92.00177
223.5127, 87.70763
223.9948, 83.95343
224.4769, 80.45201
224.9590, 77.16296
225.4411, 74.07083
225.9232, 71.19720
226.4054, 68.55851
226.8875, 66.14428
227.3696, 63.61449
227.8517, 60.78699
228.3338, 58.05180
228.8159, 55.49514
229.2981, 53.10350
229.7802, 50.85427
230.2623, 48.71202
230.7444, 46.66718
231.2265, 44.79565
231.7086, 43.23485
232.1908, 41.67924
232.6729, 39.98692
233.1550, 38.25734
233.6371, 36.67233
234.1192, 35.34020
234.6013, 34.21731
235.0835, 33.09355
235.5656, 31.84099
236.0477, 30.74929
236.5298, 30.08117
237.0119, 29.62244
237.4940, 28.87420
237.9762, 27.50690
238.4583, 25.71956
238.9404, 24.40862
239.4225, 23.60469
239.9046, 23.12467
240.3867, 23.10886
240.8689, 23.37618
241.3510, 23.49419
241.8331, 23.23698
242.3152, 22.72573
242.7973, 22.30319
243.2794, 21.99176
243.7616, 21.70261
244.2437, 21.38092
244.7258, 21.05561
245.2079, 20.82906
245.6900, 20.78964
246.1721, 20.79639
246.6543, 20.55701
247.1364, 19.99325
247.6185, 19.48046
248.1006, 19.18790
248.5827, 19.08712
249.0648, 19.08311
249.5470, 19.14680
250.0291, 19.29922
250.5112, 19.59971
250.9933, 20.09479
251.4754, 20.50956
251.9576, 20.54268
252.4397, 20.31515
252.9218, 20.35033
253.4039, 20.83978
253.8860, 21.59562
254.3681, 22.38807
254.8503, 23.21383
255.3324, 24.07886
255.8145, 24.92349
256.2966, 25.78713
256.7787, 26.84834
257.2608, 28.05602
257.7430, 29.62012
258.2251, 31.46621
258.7072, 33.64353
259.1893, 36.50104
259.6714, 40.44478
260.1535, 45.32246
260.6357, 50.41797
261.1178, 56.03143
261.5999, 61.32198
262.0820, 66.57972
262.5641, 71.34561
263.0462, 74.22545
263.5284, 74.20668
264.0105, 71.48976
264.4926, 67.08029
264.9747, 60.14809
265.4568, 52.60773
265.9389, 44.95300
266.4211, 37.46305
266.9032, 30.70490
267.3853, 24.96011
267.8674, 20.22186
268.3495, 16.48409
268.8316, 14.18353
269.3138, 12.31606
269.7959, 10.48304
270.2780, 8.767868
270.7601, 7.296415
271.2422, 6.136742
271.7243, 5.263470
272.2065, 4.645489
272.6886, 4.466053
273.1707, 4.246536
273.6528, 3.822044
274.1349, 3.303778
274.6170, 2.812972
275.0992, 2.397584
275.5813, 2.059161
276.0634, 1.830206
276.5455, 1.838263
277.0276, 1.710745
277.5097, 1.168434
277.9919, 0.5892650
278.4740, 0.3977540
278.9561, 0.7401900
279.4382, 1.288194
279.9203, 1.384679
280.4024, 0.7121360
280.8846, 0.2572970
281.3667, 0.2222280
281.8488, 0.3373460
282.3309, 0.4445610
282.8130, 0.4911600
283.2951, 0.4712600
283.7773, 0.3597310
284.2594, 9.5730998E-02
284.7415, 0.1078370
285.2236, 0.1948570
285.7057, 0.2695880
286.1878, 0.4176310
286.6700, 0.6328410
287.1521, 0.8273780
287.6342, 0.8934640
288.1163, 0.7939700
288.5984, 0.7038970
289.0805, 0.5707140
289.5627, 0.4910560
290.0448, 0.5609260
290.5269, 0.7415520
291.0090, 0.8924030
291.4911, 0.8682950
291.9732, 0.6453700
292.4554, 0.5520800
292.9375, 0.7763660
293.4196, 0.9416060
293.9017, 0.8673330
294.3838, 0.6344540
294.8659, 0.4333390
295.3481, 0.4029900
295.8302, 0.5297260
296.3123, 0.6255000
296.7944, 0.7455380
297.2765, 0.7708710
297.7586, 0.5891610
298.2408, 0.3138930
298.7229, 0.1160890
299.2050, 9.3029998E-02
299.6871, 0.1995380
300.1692, 0.2621840
300.6513, 0.2249320
301.1335, 0.2081800
301.6156, 0.2842380
302.0977, 0.3598930
302.5798, 0.2979870
303.0619, 4.8829000E-02
303.5440, 0.2655850
304.0262, 0.3812610
304.5083, 0.1001140
304.9904, 9.2496000E-02
305.4725, 0.1631790
305.9546, 0.1675420
306.4367, 0.1296970
306.9189, 6.3698001E-02
307.4010, 4.4729998E-03
307.8831, 1.2872000E-02
308.3652, 0.1714120
308.8473, 0.1701360
309.3294, 0.1386770
309.8116, 0.4607290
310.2937, 0.6003250
310.7758, 0.5609450
311.2579, 0.4815400
311.7400, 0.5056840
312.2221, 0.6580170
312.7043, 0.7338040
313.1864, 0.6996760
313.6685, 0.6345530
314.1506, 0.5448610
314.6327, 0.4478860
315.1148, 0.3680180
315.5970, 0.3201060
316.0791, 0.3074860
316.5612, 0.3700290
317.0433, 0.5822840
317.5254, 0.7709540
318.0075, 0.9110860
318.4897, 1.010591
318.9718, 1.090917
319.4539, 1.164627
319.9360, 1.212264
320.4181, 1.171578
320.9002, 0.8536990
321.3824, 0.6734820
321.8645, 0.7233140
322.3466, 0.8913230
322.8287, 1.118520
323.3108, 1.370606
323.7929, 1.560555
324.2751, 1.510053
324.7572, 0.9410170
325.2393, 0.6773180
325.7214, 0.9280270
326.2035, 1.282409
326.6856, 1.474630
327.1678, 1.467525
327.6499, 1.375118
328.1320, 1.315584
328.6141, 1.292627
329.0962, 1.286205
329.5783, 1.296724
330.0605, 1.320490
330.5426, 1.385502
331.0247, 1.465775
331.5068, 1.488971
331.9889, 1.385247
332.4710, 1.170359
332.9532, 1.103258
333.4353, 1.313958
333.9174, 1.540467
334.3995, 1.740021
334.8816, 1.923470
335.3637, 2.132605
335.8459, 2.390841
336.3280, 2.645757
336.8101, 2.723142
337.2922, 2.416819
337.7743, 2.238616
338.2564, 2.267389
338.7386, 2.405920
339.2206, 2.601018
339.7028, 2.826952
340.1849, 3.033727
340.6670, 3.138865
341.1491, 3.093754
341.6312, 3.064641
342.1133, 2.971585
342.5955, 2.953022
343.0776, 3.140141
343.5597, 3.497431
344.0418, 3.852974
344.5239, 4.033308
345.0060, 4.025332
345.4882, 4.105331
345.9703, 4.307480
346.4524, 4.601119
346.9345, 5.033197
347.4166, 5.559253
347.8987, 6.093357
348.3809, 6.565775
348.8630, 7.023291
349.3451, 7.638704
349.8272, 8.313122
350.3093, 9.350842
350.7914, 10.87601
351.2736, 12.70171
351.7557, 14.69006
352.2378, 16.79361
352.7199, 18.91891
353.2020, 21.00997
353.6841, 23.29285
354.1663, 24.80526
354.6484, 25.63078
355.1305, 25.52470
355.6126, 24.04780
356.0947, 21.33185
356.5768, 18.14596
357.0590, 14.99393
357.5411, 11.85367
358.0232, 9.302314
358.5053, 7.552794
358.9874, 6.260234
359.4695, 5.423394
359.9517, 4.900833
360.4338, 4.442086
360.9159, 3.892743
361.3980, 3.324347
361.8801, 2.960075
362.3622, 2.891798
362.8444, 2.783063
363.3265, 2.406775
363.8086, 1.993049
364.2907, 1.803504
364.7728, 1.936670
365.2549, 2.198859
365.7371, 2.341728
366.2192, 2.343982
366.7013, 2.344749
367.1834, 2.410256
367.6655, 2.480884
368.1476, 2.504974
368.6298, 2.477977
369.1119, 2.431726
369.5940, 2.410026
370.0761, 2.400640
370.5582, 2.323807
371.0403, 2.158696
371.5225, 1.941672
372.0046, 1.673634
372.4867, 1.374824
372.9688, 1.087854
373.4509, 0.7763720
373.9330, 0.5216570
374.4152, 0.4797460
374.8973, 0.6777620
375.3794, 0.9080630
375.8615, 1.145535
376.3436, 1.307914
376.8257, 1.242738
377.3079, 0.8316730
377.7900, 0.4534360
378.2721, 0.4201810
378.7542, 0.6585760
379.2363, 0.8877180
379.7184, 1.063718
380.2006, 1.165698
380.6827, 1.111620
381.1648, 0.9018410
381.6469, 0.7950700
382.1290, 0.9368350
382.6111, 1.192671
383.0933, 1.378195
383.5754, 1.483027
384.0575, 1.611942
384.5396, 1.859578
385.0217, 2.209105
385.5038, 2.525877
385.9860, 2.694887
386.4681, 2.930135
386.9502, 3.346379
387.4323, 3.934678
387.9144, 4.631822
388.3965, 5.362940
388.8787, 6.252907
389.3608, 7.692457
389.8429, 9.855453
390.3250, 12.08191
390.8071, 14.29263
391.2892, 16.48229
391.7714, 18.94718
392.2535, 21.69446
392.7356, 23.80353
393.2177, 24.17627
393.6998, 22.52973
394.1819, 20.00607
394.6641, 15.53806
395.1462, 11.21405
395.6283, 8.207846
396.1104, 6.383795
396.5925, 5.118578
397.0746, 4.023790
397.5568, 3.110577
398.0389, 2.412985
398.5210, 1.973629
399.0031, 1.715591
399.4852, 1.828686
399.9673, 2.030269
400.4495, 1.972021
400.9316, 1.559923
401.4137, 1.035039
401.8958, 0.7950440
402.3779, 1.042560
402.8600, 1.018500
403.3422, 0.5270110
403.8243, 2.1635000E-02
404.3064, 0.4636920
404.7885, 0.7819030
405.2706, 1.012753
405.7527, 1.183371
406.2349, 1.291050
406.7170, 1.295262
407.1991, 1.075140
407.6812, 0.9254710
408.1633, 0.9781100
408.6454, 1.103458
409.1276, 1.148957
409.6097, 1.058311
410.0918, 0.9158580
410.5739, 0.8687630
411.0560, 0.9548190
411.5381, 0.9316570
412.0203, 0.5830280
412.5024, 0.2662510
412.9845, 0.2600710
413.4666, 0.5088130
413.9487, 0.6945800
414.4308, 0.5358110
414.9130, 0.1300350
415.3951, 0.1541520
415.8772, 0.2927360
416.3593, 0.3672570
416.8414, 0.3516060
417.3235, 0.3195030
417.8057, 0.3894630
418.2878, 0.6367320
418.7699, 0.8984910
419.2520, 0.9696270
419.7341, 0.8781630
420.2162, 0.9212240
420.6984, 1.276684
421.1805, 1.684743
421.6626, 1.788946
422.1447, 1.593549
422.6268, 1.397220
423.1089, 1.279706
423.5911, 1.234535
424.0732, 1.236917
424.5553, 1.283360
425.0374, 1.441045
425.5195, 1.771973
426.0016, 2.270828
426.4838, 2.818377
426.9659, 3.531560
427.4480, 4.169130
427.9301, 4.567641
428.4122, 4.813834
428.8943, 5.058014
429.3765, 5.348149
429.8586, 5.734669
430.3407, 6.321463
430.8228, 7.260942
431.3049, 8.073471
431.7870, 8.640840
432.2692, 9.159968
432.7513, 9.725754
433.2334, 10.36700
433.7155, 11.14864
434.1976, 12.13724
434.6797, 13.31336
435.1619, 14.42233
435.6440, 15.29650
436.1261, 16.29628
436.6082, 17.40188
437.0903, 18.69740
437.5724, 20.37080
438.0546, 22.46330
438.5367, 24.70111
439.0188, 26.51790
439.5009, 27.50708
439.9830, 29.39642
440.4651, 32.72401
440.9473, 36.54739
441.4294, 40.42730
441.9115, 44.44076
442.3936, 48.86903
442.8757, 53.78697
443.3578, 59.31226
443.8400, 65.71639
444.3221, 73.13918
444.8042, 81.18457
445.2863, 89.62167
445.7684, 99.06275
446.2505, 108.6674
446.7327, 119.6712
447.2148, 131.0684
447.6969, 142.9229
448.1790, 154.8705
448.6611, 164.9468
449.1432, 172.5906
449.6254, 178.7320
450.1075, 183.3893
450.5896, 187.0763
451.0717, 191.4748
451.5538, 196.3731
452.0359, 202.6399
452.5181, 210.9346
453.0002, 221.2769
453.4823, 233.6276
453.9644, 247.8287
454.4465, 264.2114
454.9286, 283.7838
455.4108, 306.2239
455.8929, 331.3058
456.3750, 358.2562
456.8571, 388.1817
457.3392, 422.0847
457.8214, 460.2003
458.3035, 503.2110
458.7856, 552.0497
459.2677, 606.8533
459.7498, 665.2955
460.2319, 729.1348
460.7141, 794.0080
461.1962, 862.7742
461.6783, 930.6235
462.1604, 993.0214
462.6425, 1047.908
463.1246, 1090.831
463.6068, 1114.774
464.0889, 1120.441
464.5710, 1103.793
465.0531, 1057.184
465.5352, 997.1179
466.0173, 925.4484
466.4995, 846.3203
466.9816, 766.4506
467.4637, 689.0058
467.9458, 615.1923
468.4279, 548.2890
468.9100, 487.9597
469.3922, 434.9356
469.8743, 391.5085
470.3564, 353.8818
470.8385, 319.8849
471.3206, 289.1320
471.8027, 261.6309
472.2849, 237.8327
472.7670, 217.3253
473.2491, 199.0173
473.7312, 182.9770
474.2133, 168.6407
474.6954, 156.0068
475.1776, 144.7692
475.6597, 134.5358
476.1418, 125.3895
476.6239, 117.1278
477.1060, 109.7502
477.5881, 103.1966
478.0703, 97.14195
478.5524, 91.54791
479.0345, 86.37443
479.5166, 81.63528
479.9987, 77.35046
480.4808, 73.41371
480.9630, 69.98009
481.4451, 66.77648
481.9272, 63.66127
482.4093, 60.62829
482.8914, 57.71291
483.3735, 54.91846
483.8557, 52.26038
484.3378, 49.76971
484.8199, 47.36628
485.3020, 45.28330
485.7841, 43.84041
486.2662, 42.47742
486.7484, 40.59935
487.2305, 38.25244
487.7126, 36.10091
488.1947, 34.80231
488.6768, 34.29157
489.1589, 33.50625
489.6411, 32.27993
490.1232, 31.02912
490.6053, 29.84888
491.0874, 28.73199
491.5695, 27.67535
492.0516, 26.67944
492.5338, 25.74083
493.0159, 24.90992
493.4980, 24.16390
493.9801, 23.30060
494.4622, 22.22945
494.9443, 21.15131
495.4265, 20.21838
495.9086, 19.40608
496.3907, 18.68838
496.8728, 18.12869
497.3549, 17.59988
497.8370, 17.00927
498.3192, 16.37976
498.8013, 15.73874
499.2834, 15.08539
499.7655, 14.45216
500.2476, 13.89956
500.7297, 13.45601
501.2119, 13.01220
501.6940, 12.54486
502.1761, 12.09499
502.6582, 11.68956
503.1403, 11.32614
503.6224, 11.00426
504.1045, 10.72903
504.5866, 10.44286
505.0688, 9.958261
505.5509, 9.044870
506.0330, 8.317701
506.5151, 7.840270
506.9972, 7.518954
507.4793, 7.358946
507.9615, 7.314585
508.4436, 7.231388
508.9257, 6.932431
509.4078, 6.469740
509.8899, 6.220590
510.3720, 6.257122
510.8542, 6.351060
511.3363, 6.562193
511.8184, 6.719888
512.3005, 6.593267
512.7827, 6.114120
513.2648, 5.622072
513.7469, 5.307814
514.2290, 5.186472
514.7111, 5.396132
515.1932, 6.043520
515.6754, 6.524691
516.1575, 6.278877
516.6396, 5.477629
517.1217, 4.956884
517.6038, 4.916807
518.0859, 4.963741
518.5681, 4.972214
519.0502, 4.934576
519.5323, 4.826368
520.0144, 4.641818
520.4965, 4.429089
520.9786, 4.241787
521.4608, 4.078533
521.9429, 3.907312
522.4250, 3.689481
522.9071, 3.511684
523.3892, 3.413134
523.8713, 3.375759
524.3535, 3.383301
524.8356, 3.433234
525.3177, 3.503379
525.7998, 3.533021
526.2819, 3.489356
526.7640, 3.576472
527.2462, 3.924819
527.7283, 4.283070
528.2104, 4.558495
528.6925, 4.749987
529.1746, 4.863480
529.6567, 4.885829
530.1389, 4.854986
530.6210, 4.859195
531.1031, 4.888710
531.5852, 4.738113
532.0673, 4.272228
532.5494, 3.722931
533.0316, 3.372688
533.5137, 3.208160
533.9958, 3.081888
534.4779, 3.046472
534.9600, 2.971521
535.4421, 2.717879
535.9243, 2.328905
536.4064, 1.937891
536.8885, 1.603700
537.3706, 1.344348
537.8527, 1.204970
538.3348, 1.265912
538.8170, 1.281400
539.2991, 1.214989
539.7812, 1.139886
540.2633, 1.074749
540.7454, 1.036648
541.2275, 1.061655
541.7097, 1.179201
542.1918, 1.342338
542.6739, 1.443935
543.1560, 1.493993
543.6381, 1.451765
544.1202, 1.205406
544.6024, 0.9471240
545.0845, 0.8002720
545.5666, 0.7564280
546.0487, 0.7363590
546.5308, 0.6871200
547.0129, 0.6376580
547.4951, 0.6565390
547.9772, 0.7411140
548.4593, 0.7937610
548.9414, 0.7843690
549.4235, 0.7077050
549.9056, 0.5212370
550.3878, 0.1957130
550.8699, 4.6351999E-02
551.3520, 0.1269430
551.8341, 0.1321000
552.3162, 0.1272570
552.7983, 0.1174330
553.2805, 5.3660002E-02
553.7626, 0.1064160
554.2447, 0.2860090
554.7268, 0.2432790
555.2089, 0.2431750
555.6910, 0.5569360
556.1732, 0.6242860
556.6553, 0.5883900
557.1374, 0.4818900
557.6195, 0.3488080
558.1016, 0.2747180
558.5837, 0.3253690
559.0659, 0.4532580
559.5480, 0.5473630
560.0301, 0.6013830
560.5122, 0.6655550
560.9943, 0.8111480
561.4764, 0.9130150
561.9586, 0.8150900
562.4407, 0.5329260
562.9228, 0.3093220
563.4049, 0.2851060
563.8870, 0.3271800
564.3691, 0.2687700
564.8513, 0.1348280
565.3334, 9.3740001E-02
565.8155, 0.2402500
566.2976, 0.4643200
566.7797, 0.5570230
567.2618, 0.4528180
567.7440, 0.3567880
568.2261, 0.2483420
568.7082, 0.1637280
569.1903, 0.1515400
569.6724, 0.1840570
570.1545, 0.1849120
570.6367, 0.1100030
571.1188, 9.0950001E-03
571.6009, 9.3870005E-03
572.0830, 0.1642030
572.5651, 0.2091460
573.0472, 5.3299998E-04
573.5294, 0.2051990
574.0115, 0.2629430
574.4936, 0.2065540
574.9757, 0.1373510
575.4578, 8.5605003E-02
575.9399, 5.3296000E-02
576.4221, 4.7076002E-02
576.9042, 6.4273998E-02
577.3863, 7.9254001E-02
577.8684, 7.1066000E-02
578.3505, 0.1045480
578.8326, 0.3068350
579.3148, 0.6989560
579.7969, 0.8560450
580.2790, 0.5186630
580.7611, 0.2021390
581.2432, 0.1779580
581.7253, 0.3360750
582.2075, 0.4977480
582.6896, 0.5982690
583.1717, 0.6447300
583.6538, 0.6305110
584.1359, 0.5405120
584.6180, 0.4949870
585.1002, 0.5256860
585.5823, 0.5660560
586.0643, 0.5836340
586.5464, 0.6026210
587.0286, 0.6509490
587.5107, 0.7357050
587.9928, 0.8626280
588.4749, 1.102102
588.9570, 1.397600
589.4391, 1.488766
589.9213, 1.302496
590.4034, 1.129658
590.8855, 1.202810
591.3676, 1.441172
591.8497, 1.534120
592.3318, 1.414669
592.8140, 1.268332
593.2961, 1.128602
593.7782, 1.005898
594.2603, 0.8801750
594.7424, 0.7704520
595.2245, 0.7837110
595.7067, 1.032507
596.1888, 1.453114
596.6709, 1.674589
597.1530, 1.614368
597.6351, 1.488505
598.1172, 1.222836
598.5994, 0.9904220
599.0815, 0.9475490
599.5636, 1.075744
600.0457, 1.217671
600.5278, 1.281211
601.0099, 1.282552
601.4921, 1.246936
601.9742, 1.175612
602.4563, 1.105247
602.9384, 1.024262
603.4205, 0.9780310
603.9026, 1.096642
604.3848, 1.394382
604.8669, 1.565520
605.3490, 1.451853
605.8311, 1.312485
606.3132, 1.305480
606.7953, 1.402332
607.2775, 1.544489
607.7596, 1.709792
608.2417, 1.801098
608.7238, 1.658533
609.2059, 1.198191
609.6880, 0.9457370
610.1702, 1.033937
610.6523, 1.192070
611.1344, 1.417374
611.6165, 1.627653
612.0986, 1.697295
612.5807, 1.584200
613.0629, 1.418523
613.5450, 1.279119
614.0271, 1.192760
614.5092, 1.251844
614.9913, 1.496111
615.4734, 1.691097
615.9556, 1.657741
616.4377, 1.458300
616.9198, 1.333709
617.4019, 1.310879
617.8840, 1.306520
618.3661, 1.311177
618.8483, 1.315306
619.3304, 1.336204
619.8125, 1.371558
620.2946, 1.382191
620.7767, 1.328039
621.2589, 1.221145
621.7410, 1.124995
622.2231, 1.045487
622.7052, 0.9870700
623.1873, 0.9468210
623.6694, 0.9098790
624.1516, 0.8924950
624.6337, 0.8811990
625.1158, 0.8205220
625.5979, 0.6259090
626.0800, 0.4560010
626.5621, 0.5206730
627.0443, 0.7452000
627.5264, 0.8832590
628.0085, 0.8767140
628.4906, 0.7870180
628.9727, 0.6367260
629.4548, 0.4202280
629.9370, 0.3682370
630.4191, 0.6754300
630.9012, 0.9053770
631.3833, 0.8744450
631.8654, 0.7546650
632.3475, 0.7394580
632.8297, 0.8492290
633.3118, 0.9667480
633.7939, 0.9884900
634.2760, 0.9398870
634.7581, 0.9287000
635.2402, 0.9743810
635.7224, 0.9742710
636.2045, 0.8406910
636.6866, 0.7094100
637.1687, 0.7339620
637.6508, 0.9016360
638.1329, 1.026417
638.6151, 1.074848
639.0972, 1.029591
639.5793, 0.7762650
640.0614, 0.4208820
640.5435, 0.2521110
641.0256, 0.3731810
641.5078, 0.6267620
641.9899, 0.8125980
642.4720, 0.9292290
642.9541, 0.9926180
643.4362, 0.9400660
643.9183, 0.9058330
644.4005, 0.9524770
644.8826, 1.015443
645.3647, 1.018182
645.8468, 0.9470270
646.3289, 0.8549960
646.8110, 0.7806210
647.2932, 0.7193370
647.7753, 0.6514830
648.2574, 0.5753160
648.7395, 0.5386090
649.2216, 0.5720130
649.7037, 0.6446520
650.1859, 0.7036640
650.6680, 0.7467120
651.1501, 0.7888480
651.6322, 0.8798560
652.1143, 0.9218150
652.5964, 0.8158000
653.0786, 0.6305890
653.5607, 0.4880180
654.0428, 0.4310800
654.5249, 0.4311540
655.0070, 0.4808990
655.4891, 0.5862800
655.9713, 0.5612050
656.4534, 0.3292900
656.9355, 0.1123210
657.4176, 9.7270003E-03
657.8997, 1.4191000E-02
658.3818, 2.7107000E-02
658.8640, 0.1473730
659.3461, 0.2202250
659.8282, 9.9002004E-02
660.3103, 4.0668000E-02
660.7924, 7.0150003E-02
661.2745, 0.3697080
661.7567, 0.5185010
662.2388, 0.3350340
662.7209, 2.1749999E-02
663.2030, 9.2770001E-03
663.6851, 0.4002220
664.1672, 0.5711550
664.6494, 0.1908740
665.1315, 8.9718997E-02
665.6136, 5.6290999E-02
666.0957, 0.3922290
666.5778, 0.5695720
667.0599, 0.4845070
667.5421, 0.3273430
668.0242, 0.2419120
668.5063, 0.2192190
668.9884, 0.2492470
669.4705, 0.3302230
669.9526, 0.4012100
670.4348, 0.4265140
670.9169, 0.4458980
671.3990, 0.5214520
671.8811, 0.7205460
672.3632, 0.8154250
672.8453, 0.7030720
673.3275, 0.5832430
673.8096, 0.5666860
674.2917, 0.6219260
674.7738, 0.6762810
675.2559, 0.7005410
675.7380, 0.7239230
676.2202, 0.8009980
676.7023, 0.9281290
677.1844, 1.039823
677.6665, 1.124106
678.1486, 1.234324
678.6307, 1.417023
679.1129, 1.617869
679.5950, 1.714754
680.0771, 1.678328
680.5592, 1.674846
681.0413, 1.756968
681.5234, 1.875659
682.0056, 2.024948
682.4877, 2.178133
682.9698, 2.270057
683.4519, 2.272594
683.9340, 2.251964
684.4161, 2.325270
684.8983, 2.507321
685.3804, 2.611386
685.8625, 2.581861
686.3446, 2.588979
686.8267, 2.665095
687.3088, 2.821460
687.7910, 3.082881
688.2731, 3.453591
688.7552, 3.923444
689.2373, 4.595541
689.7194, 5.303193
690.2015, 5.872151
690.6837, 6.311439
691.1658, 6.669240
691.6479, 6.963507
692.1300, 7.229599
692.6121, 7.530235
693.0942, 7.878128
693.5764, 8.192781
694.0585, 8.529749
694.5406, 8.752400
695.0227, 8.893365
695.5048, 8.875350
695.9869, 8.558793
696.4691, 7.943097
696.9512, 7.300026
697.4333, 6.847537
697.9154, 6.412524
698.3975, 5.650253
698.8796, 4.658756
699.3618, 3.950892
699.8439, 3.737200
700.3260, 3.706511
700.8081, 3.439253
701.2902, 2.891231
701.7723, 2.526529
702.2545, 2.559340
702.7366, 2.519024
703.2187, 2.210726
703.7008, 1.857817
704.1829, 1.687716
704.6650, 1.715431
705.1472, 1.788181
705.6293, 1.870164
706.1114, 1.890769
706.5935, 1.657913
707.0756, 1.225358
707.5577, 0.9580890
708.0399, 0.9801060
708.5220, 1.107091
709.0041, 1.147488
709.4862, 1.101096
709.9683, 1.075461
710.4504, 1.108350
710.9326, 1.111222
711.4147, 1.036867
711.8968, 0.9464150
712.3789, 0.9259520
712.8610, 0.9611210
713.3431, 0.9586870
713.8253, 0.8391560
714.3074, 0.6850840
714.7895, 0.6492180
715.2716, 0.7109390
715.7537, 0.6988900
716.2358, 0.5633270
716.7180, 0.4493480
717.2001, 0.5011300
717.6822, 0.6766620
718.1643, 0.7148590
718.6464, 0.5008350
719.1285, 0.3474150
719.6107, 0.2766030
720.0928, 0.2725840
720.5749, 0.3733010
721.0570, 0.5307250
721.5391, 0.6342640
722.0212, 0.6169800
722.5034, 0.5186440
722.9855, 0.3519110
723.4676, 0.1554480
723.9497, 6.8356000E-02
724.4318, 0.1118690
724.9139, 0.2003740
725.3961, 0.3045420
725.8782, 0.4009820
726.3603, 0.4207120
726.8424, 0.3504220
727.3245, 0.2395800
727.8066, 3.9730001E-02
728.2888, 0.2314300
728.7709, 9.8978996E-02
729.2530, 0.1983590
729.7351, 0.3738060
730.2172, 0.3283260
730.6993, 0.1948690
731.1815, 8.7305002E-02
731.6636, 8.4119998E-03
732.1457, 4.4872001E-02
732.6278, 7.6722004E-02
733.1099, 5.4699997E-04
733.5920, 0.2906520
734.0742, 0.5997620
734.5563, 0.5948050
735.0384, 0.1751720
735.5205, 4.6819001E-02
736.0026, 0.1022040
736.4847, 0.2427060
736.9669, 0.2209520
737.4490, 0.1282580
737.9311, 5.1729999E-02
738.4132, 2.0764999E-02
738.8953, 6.4961001E-02
739.3774, 0.2612600
739.8596, 0.5017370
740.3417, 0.5327430
740.8238, 0.3683170
741.3059, 0.2387890
741.7880, 0.2144330
742.2701, 0.1987810
742.7523, 8.5335001E-02
743.2344, 0.1150120
743.7165, 0.2274550
744.1986, 0.1880090
744.6807, 0.1562880
745.1628, 0.2006940
745.6450, 0.2193690
746.1271, 7.9581000E-02
746.6092, 0.1553570
747.0913, 0.2912660
747.5734, 0.2208800
748.0555, 6.7550004E-02
748.5377, 4.6096001E-02
749.0198, 0.1166580
749.5019, 0.1091120
749.9840, 1.4945000E-02
750.4661, 5.1426999E-02
750.9482, 1.9360000E-03
751.4304, 9.2280000E-02
751.9125, 4.1609999E-02
752.3946, 0.3043350
752.8767, 0.4344710
753.3588, 0.1487260
753.8409, 0.1139310
754.3231, 0.1464770
754.8052, 5.5507999E-02
755.2873, 9.2399999E-04
755.7694, 2.0554001E-02
756.2515, 3.7450999E-02
756.7336, 2.3736000E-02
757.2158, 0.1159270
757.6979, 0.1575040
758.1800, 0.1538490
758.6621, 0.1414110
759.1442, 0.1307220
759.6263, 0.1344120
760.1085, 0.1740530
760.5906, 0.2497270
761.0727, 0.2783910
761.5548, 0.1882720
762.0369, 0.1593000
762.5190, 0.2750530
763.0012, 0.4107250
763.4833, 0.4655450
763.9654, 0.4547330
764.4475, 0.4676020
764.9296, 0.5686080
765.4117, 0.6520780
765.8939, 0.6226150
766.3760, 0.5176340
766.8581, 0.3930030
767.3402, 0.2619590
767.8223, 0.1253230
768.3044, 3.0890999E-02
768.7866, 0.1349440
769.2687, 4.4326998E-02
769.7508, 0.6586630
770.2329, 0.9883670
770.7150, 0.8239760
771.1971, 0.6390880
771.6793, 0.6429740
772.1614, 0.7556620
772.6435, 0.8803220
773.1256, 1.006841
773.6077, 1.138707
774.0898, 1.300814
774.5720, 1.446856
775.0541, 1.497536
775.5362, 1.512456
776.0183, 1.628572
776.5004, 1.877461
776.9825, 2.154702
777.4647, 2.361943
777.9468, 2.503867
778.4289, 2.590180
778.9110, 2.607754
779.3931, 2.647167
779.8752, 2.754215
780.3574, 2.850054
780.8395, 2.801301
781.3216, 2.664185
781.8037, 2.731712
782.2858, 3.233499
782.7679, 3.629092
783.2501, 3.657687
783.7322, 3.635424
784.2143, 3.841525
784.6964, 4.226218
785.1785, 4.596322
785.6606, 4.861068
786.1428, 5.061239
786.6249, 5.196035
787.1070, 5.330606
787.5891, 5.796581
788.0712, 6.625399
788.5533, 7.354244
789.0355, 7.737045
789.5176, 7.991082
789.9997, 8.447696
790.4818, 9.138262
790.9639, 9.858102
791.4460, 10.50458
791.9282, 11.30248
792.4103, 12.63409
792.8924, 13.90320
793.3745, 14.43233
793.8566, 14.31971
794.3387, 14.35012
794.8209, 15.06019
795.3030, 15.83594
795.7851, 16.08439
796.2672, 15.94816
796.7493, 15.68656
797.2314, 15.35727
797.7136, 15.01178
798.1957, 14.66618
798.6778, 14.39167
799.1599, 14.38693
799.6420, 14.71737
800.1241, 15.04311
800.6063, 15.29301
801.0884, 15.63133
801.5705, 16.09758
802.0526, 16.72715
802.5347, 17.63742
803.0168, 18.86476
803.4990, 19.90774
803.9811, 20.73009
804.4632, 21.22865
804.9453, 21.34578
805.4274, 21.08590
805.9095, 20.36981
806.3917, 19.24406
806.8738, 17.98393
807.3559, 16.82657
807.8380, 15.67245
808.3201, 14.22875
808.8022, 12.51077
809.2844, 11.04817
809.7665, 9.950533
810.2486, 9.067602
810.7307, 8.364012
811.2128, 7.754284
811.6949, 6.986084
812.1771, 5.853069
812.6592, 5.021894
813.1413, 4.646173
813.6234, 4.390631
814.1055, 4.161527
814.5876, 3.948664
815.0698, 3.757739
815.5519, 3.587581
816.0340, 3.400969
816.5161, 3.136222
816.9982, 2.867914
817.4803, 2.712321
817.9625, 2.637981
818.4446, 2.566524
818.9267, 2.473967
819.4088, 2.325443
819.8909, 2.081300
820.3730, 1.779226
820.8552, 1.545058
821.3373, 1.369277
821.8194, 1.311151
822.3015, 1.447596
822.7836, 1.585968
823.2657, 1.576305
823.7479, 1.496638
824.2300, 1.530780
824.7121, 1.742775
825.1942, 1.837907
825.6763, 1.631600
826.1584, 1.425380
826.6406, 1.407109
827.1227, 1.498725
827.6048, 1.578064
828.0869, 1.608467
828.5690, 1.571848
829.0511, 1.416901
829.5333, 1.228012
830.0154, 1.160358
830.4975, 1.193449
830.9796, 1.229304
831.4617, 1.248894
831.9438, 1.269750
832.4260, 1.306954
832.9081, 1.350898
833.3902, 1.369599
833.8723, 1.341646
834.3544, 1.345607
834.8365, 1.422660
835.3187, 1.479033
835.8008, 1.482203
836.2829, 1.443624
836.7650, 1.366280
837.2471, 1.250019
837.7292, 1.146856
838.2114, 1.032138
838.6935, 0.9795800
839.1756, 1.113512
839.6577, 1.298622
840.1398, 1.333807
840.6219, 1.208592
841.1041, 1.036321
841.5862, 0.8659070
842.0683, 0.7809770
842.5504, 1.028244
843.0325, 1.532625
843.5146, 1.776065
843.9968, 1.692986
844.4789, 1.433583
844.9610, 1.014942
845.4431, 0.5901380
845.9252, 0.4627320
846.4073, 0.7016760
846.8895, 0.8893180
847.3716, 1.049990
847.8537, 1.123202
848.3358, 0.9980770
848.8179, 0.8572240
849.3000, 0.9190680
849.7822, 1.133810
850.2643, 1.191513
850.7464, 0.8420960
851.2285, 0.5670910
851.7106, 0.6969150
852.1927, 0.9906090
852.6749, 1.191970
853.1570, 1.283178
853.6391, 1.312185
854.1212, 1.301322
854.6033, 1.287275
855.0854, 1.327621
855.5676, 1.407297
856.0497, 1.482486
856.5318, 1.556200
857.0139, 1.458968
857.4960, 1.092276
857.9781, 0.7020240
858.4603, 0.5583030
858.9424, 0.6387110
859.4245, 0.6722110
859.9066, 0.5926490
860.3887, 0.5802750
860.8708, 0.7850840
861.3530, 0.9192100
861.8351, 0.7510580
862.3172, 0.4322200
862.7993, 0.2639290
863.2814, 0.3296280
863.7635, 0.3425070
864.2457, 4.7522001E-02
864.7278, 0.2194960
865.2099, 0.1330520
865.6920, 0.1500450
866.1741, 0.3861270
866.6563, 0.5005390
867.1384, 0.4573660
867.6205, 0.1661340
868.1026, 0.1742340
868.5847, 0.1064230
869.0668, 0.2910810
869.5490, 0.4765170
870.0311, 0.3649230
870.5132, 0.2966590
870.9953, 0.4999210
871.4774, 0.7946060
871.9595, 0.8052670
872.4417, 0.4694530
872.9238, 0.1824210
873.4059, 0.1094400
873.8880, 0.2688870
874.3701, 0.1509540
874.8522, 4.3535002E-02
875.3344, 0.1384700
875.8165, 0.1419320
876.2986, 0.1584600
876.7807, 0.2237320
877.2628, 0.2810050
877.7449, 0.3330310
878.2271, 0.3495830
878.7092, 0.2831530
879.1913, 0.1629760
879.6734, 3.8539000E-02
880.1555, 7.0254996E-02
880.6376, 0.1170830
881.1198, 3.1785998E-02
881.6019, 0.1324870
882.0840, 0.3059400
882.5661, 0.4729900
883.0482, 0.5574450
883.5303, 0.5472030
884.0125, 0.5445120
884.4946, 0.6294240
884.9767, 0.6199320
885.4588, 0.6280990
885.9409, 0.6870130
886.4230, 0.6493940
886.9052, 0.7129030
887.3873, 0.7863550
887.8694, 0.8213100
888.3515, 0.8431460
888.8336, 0.9041370
889.3157, 1.016330
889.7979, 1.073493
890.2800, 1.037583
890.7621, 0.9923940
891.2442, 0.9453650
891.7263, 0.9101880
892.2084, 0.9331390
892.6906, 0.9773760
893.1727, 0.9265730
893.6548, 0.7150000
894.1369, 0.4944650
894.6190, 0.3363970
895.1011, 0.2476180
895.5833, 0.2660780
896.0654, 0.3661020
896.5475, 0.5084210
897.0296, 0.6681740
897.5117, 0.7648120
897.9938, 0.7094700
898.4760, 0.5501790
898.9581, 0.3709860
899.4402, 0.1846630
899.9223, 0.2035370
900.4044, 0.4930410
900.8865, 0.6532250
901.3687, 0.3771920
901.8508, 7.0560001E-02
902.3329, 7.9824999E-02
902.8150, 0.5008600
903.2971, 0.7508420
903.7792, 0.4626610
904.2614, 0.1998610
904.7435, 0.1156810
905.2256, 0.1366430
905.7077, 0.2281310
906.1898, 0.3742120
906.6719, 0.4954640
907.1541, 0.6651380
907.6362, 0.6759680
908.1183, 0.1909450
908.6004, 0.1973900
909.0825, 0.1155190
909.5646, 0.7594470
910.0468, 1.049263
910.5289, 0.8190370
911.0110, 0.5201270
911.4931, 0.4304700
911.9752, 0.4496650
912.4573, 0.5407730
912.9395, 0.6455030
913.4216, 0.5768170
913.9037, 0.3522210
914.3858, 0.2539960
914.8679, 0.4717850
915.3500, 0.7902680
915.8321, 0.8119710
916.3142, 0.5765240
916.7963, 0.4101480
917.2784, 0.3215370
917.7606, 0.3863430
918.2427, 0.6658210
918.7248, 1.001467
919.2069, 1.212699
919.6890, 1.265447
920.1711, 1.172010
920.6533, 0.8144660
921.1354, 0.6494280
921.6175, 0.9105700
922.0996, 1.108835
922.5817, 0.8624560
923.0638, 0.4533600
923.5460, 0.3067070
924.0281, 0.4558120
924.5102, 0.5707820
924.9923, 0.6295320
925.4744, 0.6364870
925.9565, 0.5333090
926.4387, 0.4302620
926.9208, 0.4269690
927.4029, 0.4941910
927.8850, 0.5664310
928.3671, 0.6386280
928.8492, 0.6534610
929.3314, 0.5090240
929.8135, 0.3275410
930.2956, 0.2696980
930.7777, 0.2827630
931.2598, 0.2171440
931.7419, 4.6358000E-02
932.2241, 9.0876997E-02
932.7062, 7.9543002E-02
933.1883, 2.1183001E-02
933.6704, 9.8485999E-02
934.1525, 0.1614400
934.6346, 0.2734630
935.1168, 0.4362390
935.5989, 0.5454360
936.0810, 0.5488810
936.5631, 0.5019710
937.0452, 0.4752930
937.5273, 0.4676810
938.0095, 0.4822860
938.4916, 0.5355440
938.9737, 0.5515750
939.4558, 0.5215970
939.9379, 0.4275780
940.4200, 0.2074480
940.9022, 5.9886001E-02
941.3843, 0.1706380
941.8664, 8.0287002E-02
942.3485, 3.0157000E-02
942.8306, 0.2051110
943.3127, 0.3410170
943.7949, 0.4226640
944.2770, 0.4443490
944.7591, 0.3563980
945.2412, 0.1979530
945.7233, 0.1273950
946.2054, 0.2374940
946.6876, 0.3110110
947.1697, 0.1751810
947.6518, 6.4570002E-02
948.1339, 0.2404100
948.6160, 0.5225800
949.0981, 0.5964470
949.5803, 0.4218860
950.0624, 0.2493480
950.5445, 0.2001220
951.0266, 0.1834130
951.5087, 9.2358001E-02
951.9908, 1.5670001E-03
952.4730, 3.1369001E-02
952.9551, 0.1803070
953.4372, 0.3786940
953.9193, 0.5939250
954.4014, 0.7470230
954.8835, 0.7211440
955.3657, 0.5678380
955.8478, 0.4072840
956.3299, 0.2496910
956.8120, 0.1859480
957.2941, 0.2346430
957.7762, 0.2706930
958.2584, 0.2048030
958.7405, 0.2795480
959.2226, 0.1510050
959.7047, 0.3369700
960.1868, 0.4401460
960.6689, 0.4413430
961.1511, 0.4487110
961.6332, 0.4993310
962.1153, 0.5543030
962.5974, 0.5840590
963.0795, 0.5877870
963.5616, 0.5584000
964.0438, 0.4545060
964.5259, 0.4077240
965.0080, 0.5151140
965.4901, 0.5539150
965.9722, 0.3067690
966.4543, 4.8296001E-02
966.9365, 0.1569300
967.4186, 0.5814540
967.9007, 0.8354180
968.3828, 0.8163980
968.8649, 0.6757210
969.3470, 0.3037470
969.8292, 3.6635999E-02
970.3113, 0.1695780
970.7934, 0.1583480
971.2755, 8.7834999E-02
971.7576, 1.7483000E-02
972.2397, 8.9552999E-02
972.7219, 4.9403999E-02
973.2040, 1.9785000E-02
973.6861, 0.1167750
974.1682, 0.2402060
974.6503, 0.3030080
975.1324, 0.2835330
975.6146, 0.1008210
976.0967, 0.2632590
976.5788, 0.4817200
977.0609, 0.1138060
977.5430, 0.4474310
978.0251, 0.6447060
978.5073, 0.5995880
978.9894, 0.6271530
979.4715, 0.7457390
979.9536, 0.7094510
980.4357, 0.3752020
980.9178, 4.2849998E-03
981.4000, 2.6690001E-02
981.8821, 0.2034310
982.3642, 0.2936670
982.8463, 0.2515890
983.3284, 0.1477060
983.8105, 1.6780000E-03
984.2927, 8.6617999E-02
984.7748, 1.4269000E-02
985.2569, 0.1375890
985.7390, 0.1728290
986.2211, 8.0472998E-02
986.7032, 0.1303390
987.1854, 0.3732790
987.6675, 0.4683170
988.1496, 0.2637190
988.6317, 1.2754000E-02
989.1138, 4.3908000E-02
989.5959, 4.8749998E-02
990.0781, 8.2043998E-02
990.5602, 6.1530001E-03
991.0423, 7.0858002E-02
991.5244, 0.4511710
992.0065, 0.7340410
992.4886, 0.7427110
992.9708, 0.6134360
993.4529, 0.4540460
993.9350, 0.2753860
994.4171, 0.2063880
994.8992, 0.2904580
995.3813, 0.4161660
995.8635, 0.6770870
996.3456, 0.8684460
996.8277, 0.8518700
997.3098, 0.7444520
997.7919, 0.6994050
998.2740, 0.7188810
998.7562, 0.6754120
999.2383, 0.4397500
999.7204, 0.2952450
1000.203, 0.3862720
1000.685, 0.5130380
1001.167, 0.5618090
1001.649, 0.5452240
1002.131, 0.4873300
1002.613, 0.3958510
1003.095, 0.3097800
1003.577, 0.2152660
1004.059, 0.1685250
1004.542, 0.2300000
1005.024, 0.3300800
1005.506, 0.4652710
1005.988, 0.5637530
1006.470, 0.4359210
1006.952, 4.9922001E-02
1007.434, 0.2407240
1007.916, 0.1246140
1008.398, 0.1247320
1008.881, 0.2892490
1009.363, 0.3913990
1009.845, 0.4745590
1010.327, 0.5285610
1010.809, 0.4601980
1011.291, 0.2396890
1011.773, 5.6519002E-02
1012.255, 0.1335330
1012.738, 0.3210990
1013.220, 0.3931160
1013.702, 0.3850240
1014.184, 0.3672650
1014.666, 0.3579580
1015.148, 0.3911960
1015.630, 0.4834420
1016.112, 0.5506400
1016.594, 0.4324980
1017.077, 0.5577990
1017.559, 0.3319960
1018.041, 0.6376920
1018.523, 0.8081940
1019.005, 0.7902050
1019.487, 0.7260150
1019.969, 0.6925370
1020.451, 0.6894860
1020.934, 0.7337180
1021.416, 0.8075740
1021.898, 0.7964320
1022.380, 0.7029020
1022.862, 0.6307540
1023.344, 0.6025110
1023.826, 0.5426890
1024.308, 0.3901690
1024.791, 0.2276710
1025.273, 0.2042200
1025.755, 0.3144860
1026.237, 0.3500940
1026.719, 0.2865010
1027.201, 0.3734970
1027.683, 0.7051110
1028.165, 0.9614160
1028.647, 0.9153250
1029.130, 0.7120870
1029.612, 0.6569080
1030.094, 0.7640520
1030.576, 0.7603610
1031.058, 0.6047940
1031.540, 0.4834620
1032.022, 0.4337690
1032.504, 0.4215370
1032.986, 0.4203170
1033.469, 0.4438440
1033.951, 0.5299340
1034.433, 0.7277250
1034.915, 0.7489020
1035.397, 0.4127150
1035.879, 0.2596830
1036.361, 0.5596020
1036.843, 0.8412170
1037.326, 0.7021100
1037.808, 0.3459550
1038.290, 0.2673440
1038.772, 0.5527060
1039.254, 0.6946930
1039.736, 0.6218930
1040.218, 0.5332390
1040.700, 0.4319170
1041.182, 0.3622080
1041.665, 0.3290480
1042.147, 0.3524200
1042.629, 0.5231290
1043.111, 0.9184810
1043.593, 1.123429
1044.075, 0.9796570
1044.557, 0.8475260
1045.039, 0.7756710
1045.521, 0.7597150
1046.004, 0.8500930
1046.486, 0.9860150
1046.968, 0.9959820
1047.450, 0.8626120
1047.932, 0.7691680
1048.414, 0.7325980
1048.896, 0.7372290
1049.378, 0.7664440
1049.861, 0.8423010
1050.343, 1.045551
1050.825, 1.288376
1051.307, 1.355499
1051.789, 1.184011
1052.271, 1.192792
1052.753, 1.706853
1053.235, 2.087798
1053.718, 1.985341
1054.200, 1.806437
1054.682, 1.869132
1055.164, 2.072432
1055.646, 2.166969
1056.128, 2.106291
1056.610, 2.160837
1057.092, 2.521302
1057.574, 2.845748
1058.057, 2.957240
1058.539, 3.047571
1059.021, 3.253864
1059.503, 3.551437
1059.985, 3.893146
1060.467, 4.271548
1060.949, 4.624060
1061.431, 4.814190
1061.913, 5.133237
1062.396, 5.880365
1062.878, 6.623950
1063.360, 7.028144
1063.842, 7.191397
1064.324, 7.269444
1064.806, 7.294120
1065.288, 7.382669
1065.770, 7.742922
1066.253, 8.007702
1066.735, 7.952808
1067.217, 7.790277
1067.699, 7.687721
1068.181, 7.593985
1068.663, 7.374147
1069.145, 7.031603
1069.627, 6.771390
1070.109, 6.752162
1070.592, 6.700081
1071.074, 6.497675
1071.556, 6.207278
1072.038, 5.793922
1072.520, 5.366573
1073.002, 5.077290
1073.484, 4.932838
1073.966, 4.814473
1074.448, 4.659878
1074.931, 4.566091
1075.413, 4.594209
1075.895, 4.684501
1076.377, 4.798884
1076.859, 4.944813
1077.341, 5.151103
1077.823, 5.405492
1078.305, 5.649640
1078.788, 5.873901
1079.270, 6.054682
1079.752, 6.116386
1080.234, 6.200342
1080.716, 6.473353
1081.198, 6.773575
1081.680, 6.982825
1082.162, 7.033169
1082.644, 6.768387
1083.127, 6.079667
1083.609, 5.392709
1084.091, 4.932341
1084.573, 4.481733
1085.055, 3.825535
1085.537, 3.174702
1086.019, 2.779916
1086.501, 2.586596
1086.984, 2.378495
1087.466, 2.086688
1087.948, 1.930406
1088.430, 2.273949
1088.912, 2.437510
1089.394, 1.836879
1089.876, 1.095221
1090.358, 0.7739360
1090.840, 0.7804810
1091.323, 0.8513080
1091.805, 0.9313400
1092.287, 0.9769690
1092.769, 0.9122870
1093.251, 0.8897900
1093.733, 1.024144
1094.215, 1.175989
1094.697, 1.287998
1095.179, 1.315970
1095.662, 1.150550
1096.144, 0.8030890
1096.626, 0.5661770
1097.108, 0.6264060
1097.590, 0.6597720
1098.072, 0.4853860
1098.554, 0.3334150
1099.036, 0.3667020
1099.519, 0.4977510
1100.001, 0.6553020
1100.483, 0.8015340
1100.965, 0.8006430
1101.447, 0.5261940
1101.929, 0.3145630
1102.411, 0.3364020
1102.893, 0.3392500
1103.375, 7.5836003E-02
1103.858, 0.1670980
1104.340, 1.1310000E-02
1104.822, 0.4716140
1105.304, 0.6624780
1105.786, 0.4211870
1106.268, 0.2152590
1106.750, 0.1250380
1107.232, 8.5161999E-02
1107.714, 5.3427000E-02
1108.197, 8.2239002E-02
1108.679, 0.3205740
1109.161, 0.6223490
1109.643, 0.6031340
1110.125, 0.1539470
1110.607, 3.9416999E-02
1111.089, 0.3557150
1111.571, 0.6224070
1112.054, 0.5634940
1112.536, 0.4112130
1113.018, 0.2403970
1113.500, 8.8138998E-02
1113.982, 3.6539999E-03
1114.464, 1.2179000E-02
1114.946, 3.2488000E-02
1115.428, 0.2069810
1115.911, 0.3264510
1116.393, 0.3590610
1116.875, 0.3675220
1117.357, 0.3910240
1117.839, 0.3858980
1118.321, 0.2571340
1118.803, 5.1112998E-02
1119.285, 5.9620999E-02
1119.767, 0.4817160
1120.250, 0.6063480
1120.732, 0.2789100
1121.214, 3.4766998E-02
1121.696, 0.2182830
1122.178, 0.3178080
1122.660, 0.3661920
1123.142, 0.3599750
1123.624, 0.2795450
1124.106, 0.1082510
1124.589, 5.1960000E-03
1125.071, 4.5272000E-02
1125.553, 8.0031000E-02
1126.035, 0.1228350
1126.517, 0.1582400
1126.999, 0.1705060
1127.481, 0.1885240
1127.963, 0.2737100
1128.446, 0.2428720
1128.928, 0.4122570
1129.410, 0.2234190
1129.892, 0.1198770
1130.374, 0.1385390
1130.856, 0.1838590
1131.338, 0.2237830
1131.820, 0.2432630
1132.302, 0.2084880
1132.785, 0.1726520
1133.267, 0.3300990
1133.749, 0.6606810
1134.231, 0.8475350
1134.713, 0.8771360
1135.195, 0.7510100
1135.677, 0.4687190
1136.159, 0.2983460
1136.641, 0.4459050
1137.124, 0.7231800
1137.606, 0.8129970
1138.088, 0.7622590
1138.570, 0.7328080
1139.052, 0.7247670
1139.534, 0.7250440
1140.016, 0.7355250
1140.498, 0.8393520
1140.981, 1.073087
1141.463, 1.269745
1141.945, 1.215411
1142.427, 1.064351
1142.909, 1.099012
1143.391, 1.238204
1143.873, 1.295798
1144.355, 1.291845
1144.838, 1.347266
1145.320, 1.493076
1145.802, 1.687469
1146.284, 1.934855
1146.766, 2.116502
1147.248, 2.044226
1147.730, 1.895919
1148.212, 1.795397
1148.694, 1.825614
1149.177, 2.219069
1149.659, 2.868597
1150.141, 3.278739
1150.623, 3.233431
1151.105, 3.230594
1151.587, 3.658259
1152.069, 4.141437
1152.551, 4.434026
1153.033, 4.642706
1153.516, 4.765760
1153.998, 4.935390
1154.480, 5.437175
1154.962, 6.298986
1155.444, 7.084420
1155.926, 7.540924
1156.408, 8.056293
1156.890, 8.792947
1157.373, 9.567473
1157.855, 10.34834
1158.337, 11.06117
1158.819, 11.60410
1159.301, 12.00807
1159.783, 12.45642
1160.265, 13.13004
1160.747, 13.41209
1161.229, 13.10226
1161.712, 12.61541
1162.194, 12.06422
1162.676, 11.37113
1163.158, 10.43757
1163.640, 9.366824
1164.122, 8.330461
1164.604, 7.319711
1165.086, 6.399996
1165.568, 5.543914
1166.051, 4.874116
1166.533, 4.449453
1167.015, 4.084766
1167.497, 3.720528
1167.979, 3.340866
1168.461, 2.908633
1168.943, 2.476521
1169.425, 2.197018
1169.908, 2.076363
1170.390, 1.924884
1170.872, 1.738612
1171.354, 1.577075
1171.836, 1.454114
1172.318, 1.322530
1172.800, 1.154610
1173.282, 0.9716810
1173.765, 0.7881600
1174.247, 0.6256760
1174.729, 0.5793110
1175.211, 0.6090570
1175.693, 0.5302210
1176.175, 0.3728780
1176.657, 0.3925080
1177.139, 0.6509910
1177.621, 0.8914710
1178.104, 0.9321630
1178.586, 0.8484770
1179.068, 0.6089990
1179.550, 0.3811500
1180.032, 0.4921770
1180.514, 0.7681240
1180.996, 0.9156570
1181.478, 0.8943530
1181.960, 0.7297370
1182.443, 0.4174370
1182.925, 0.1816900
1183.407, 0.2242310
1183.889, 0.3011840
1184.371, 0.2987640
1184.853, 0.2326140
1185.335, 2.1385999E-02
1185.817, 0.1915230
1186.300, 0.1190880
1186.782, 0.2174510
1187.264, 0.3811680
1187.746, 0.1845650
1188.228, 1.8615000E-02
1188.710, 9.7543001E-02
1189.192, 0.1107310
1189.674, 0.1045370
1190.156, 0.3289660
1190.639, 0.4009920
1191.121, 0.3537470
1191.603, 0.2328910
1192.085, 2.2947000E-02
1192.567, 4.7315001E-02
1193.049, 6.7865998E-02
1193.531, 0.1987050
1194.013, 0.3465760
1194.495, 0.4529600
1194.978, 0.5022620
1195.460, 0.4628800
1195.942, 0.2793250
1196.424, 2.2692000E-02
1196.906, 8.5701004E-02
1197.388, 5.3360999E-02
1197.870, 4.0162999E-02
1198.352, 4.5558002E-02
1198.835, 6.1410000E-03
1199.317, 0.1245220
1199.799, 0.2156950
1200.281, 0.2298130
1200.763, 0.2183470
1201.245, 0.2415770
1201.727, 0.2755810
1202.209, 0.2604320
1202.692, 0.2313990
1203.174, 0.2576470
1203.656, 0.3370770
1204.138, 0.4995820
1204.620, 0.7062520
1205.102, 0.7229950
1205.584, 0.3815040
1206.066, 9.4207004E-02
1206.548, 0.2316030
1207.031, 0.4583080
1207.513, 0.5571070
1207.995, 0.5793860
1208.477, 0.5403660
1208.959, 0.4845610
1209.441, 0.4958770
1209.923, 0.5829630
1210.405, 0.6224750
1210.887, 0.5357450
1211.370, 0.4775240
1211.852, 0.4691240
1212.334, 0.4978260
1212.816, 0.6117630
1213.298, 0.7082970
1213.780, 0.6774560
1214.262, 0.5764620
1214.744, 0.5535660
1215.227, 0.6153740
1215.709, 0.6785610
1216.191, 0.7285920
1216.673, 0.8644690
1217.155, 1.133738
1217.637, 1.297753
1218.119, 1.237827
1218.601, 1.118981
1219.083, 1.096767
1219.566, 1.169757
1220.048, 1.408139
1220.530, 1.385885
1221.012, 1.751640
1221.494, 1.521820
1221.976, 1.429641
1222.458, 1.525004
1222.940, 1.644609
1223.422, 1.715286
1223.905, 1.804614
1224.387, 1.977495
1224.869, 2.189497
1225.351, 2.439075
1225.833, 2.656693
1226.315, 2.680877
1226.797, 2.660475
1227.279, 2.936673
1227.762, 3.430322
1228.244, 3.619304
1228.726, 3.263487
1229.208, 3.077636
1229.690, 3.448297
1230.172, 3.824855
1230.654, 4.037468
1231.136, 4.169228
1231.619, 4.291583
1232.101, 4.355028
1232.583, 4.303614
1233.065, 4.136554
1233.547, 3.822385
1234.029, 3.229489
1234.511, 2.960951
1234.993, 3.110107
1235.475, 3.233803
1235.958, 3.233592
1236.440, 3.178461
1236.922, 3.162592
1237.404, 3.072589
1237.886, 2.735307
1238.368, 2.278785
1238.850, 2.004055
1239.332, 1.896400
1239.814, 1.976350
1240.297, 2.166622
1240.779, 2.115613
1241.261, 1.787079
1241.743, 1.444301
1242.225, 1.224816
1242.707, 1.128280
1243.189, 1.267988
1243.671, 1.396846
1244.154, 1.218042
1244.636, 0.9770470
1245.118, 0.9469770
1245.600, 1.047476
1246.082, 1.119279
1246.564, 1.143404
1247.046, 1.170074
1247.528, 1.235218
1248.010, 1.229623
1248.493, 1.107182
1248.975, 0.9499870
1249.457, 0.7054020
1249.939, 0.5301290
1250.421, 0.5398090
1250.903, 0.6330780
1251.385, 0.6867160
1251.867, 0.6991840
1252.349, 0.6460620
1252.832, 0.5163370
1253.314, 0.4808300
1253.796, 0.5478390
1254.278, 0.5841200
1254.760, 0.5596700
1255.242, 0.4771760
1255.724, 0.3355390
1256.206, 0.2573240
1256.689, 0.4385730
1257.171, 0.6723380
1257.653, 0.5314390
1258.135, 0.6461740
1258.617, 0.6737270
1259.099, 0.5709550
1259.581, 0.6604250
1260.063, 0.5629490
1260.546, 0.4383570
1261.028, 0.3329570
1261.510, 0.3045500
1261.992, 0.4851650
1262.474, 0.5982140
1262.956, 0.4642460
1263.438, 0.3069630
1263.920, 0.2957480
1264.402, 0.3144400
1264.885, 0.1527190
1265.367, 9.0111002E-02
1265.849, 2.2691000E-02
1266.331, 0.4415420
1266.813, 0.6451180
1267.295, 0.5393200
1267.777, 0.3866820
1268.259, 0.2118150
1268.741, 0.1165580
1269.224, 0.1506310
1269.706, 0.1889670
1270.188, 0.1053120
1270.670, 1.2943000E-02
1271.152, 1.9619999E-02
1271.634, 7.1001999E-02
1272.116, 0.3047360
1272.598, 0.5778030
1273.081, 0.6291420
1273.563, 0.4918070
1274.045, 0.3465150
1274.527, 0.2557140
1275.009, 0.2411240
1275.491, 0.3527750
1275.973, 0.4327010
1276.455, 0.4448460
1276.938, 0.4377810
1277.420, 0.4379810
1277.902, 0.4375980
1278.384, 0.4658810
1278.866, 0.4598070
1279.348, 0.2839930
1279.830, 0.3140450
1280.312, 0.2964520
1280.794, 0.1809700
1281.276, 0.2861320
1281.759, 0.1241290
1282.241, 1.1100000E-03
1282.723, 1.1854000E-02
1283.205, 6.1728001E-02
1283.687, 0.2070750
1284.169, 0.3628160
1284.651, 0.3365840
1285.133, 0.3051360
1285.616, 0.1854550
1286.098, 0.0000000E+00
##END=



