##NAMES=Quenselite
##RRUFFID=R060439
##IDEAL CHEMISTRY=PbMn^3+^O_2_(OH)
##LOCALITY=Amerika Stope, Langban, Filipstad, Varmland, Sweden
##OWNER=RRUFF
##SOURCE=Michael Scott
##DESCRIPTION=Black micaceous flattened massive, associated with white calcite
##STATUS=The identification of this mineral has been confirmed only by single crystal X-ray diffraction.
##URL=rruff.info/R060439
188.7133, 0.0000000E+00
189.1954, 12.46527
189.6775, 17.92090
190.1596, 20.24854
190.6418, 18.87958
191.1239, 13.46637
191.6060, 26.29279
192.0881, 28.76080
192.5702, 38.14642
193.0524, 36.04956
193.5345, 19.61066
194.0166, 11.40924
194.4987, 13.47552
194.9808, 24.68384
195.4629, 37.39752
195.9451, 54.85736
196.4272, 55.67377
196.9093, 48.97083
197.3914, 41.05963
197.8735, 31.92999
198.3556, 19.74231
198.8378, 3.321045
199.3199, 8.826721
199.8020, 9.453491
200.2841, 2.484314
200.7662, 9.061523
201.2483, 8.575134
201.7305, 2.778076
202.2126, 6.323975
202.6947, 21.01709
203.1768, 30.48901
203.6589, 25.20490
204.1410, 2.383179
204.6232, 14.60681
205.1053, 23.39618
205.5874, 25.15955
206.0695, 22.50415
206.5516, 13.56390
207.0337, 5.087524
207.5159, 1.492371
207.9980, 3.048096
208.4801, 7.575562
208.9622, 13.73608
209.4443, 22.68091
209.9264, 42.87769
210.4086, 80.99304
210.8907, 117.0847
211.3728, 133.3787
211.8549, 123.6667
212.3370, 115.5381
212.8191, 111.2705
213.3013, 111.3989
213.7834, 122.3875
214.2655, 149.4434
214.7476, 179.1053
215.2297, 197.9513
215.7118, 200.3378
216.1940, 208.6533
216.6761, 229.2542
217.1582, 261.3961
217.6403, 284.3971
218.1224, 290.9810
218.6045, 297.6204
219.0867, 322.7061
219.5688, 376.7506
220.0509, 423.9244
220.5330, 455.3389
221.0151, 471.2133
221.4972, 482.1390
221.9794, 481.7223
222.4615, 483.6193
222.9436, 505.1608
223.4257, 559.5293
223.9078, 606.4030
224.3899, 631.9640
224.8721, 633.7386
225.3542, 652.0701
225.8363, 692.5559
226.3184, 744.4659
226.8005, 798.6760
227.2827, 863.9952
227.7648, 913.2784
228.2469, 933.3706
228.7290, 917.7104
229.2111, 923.8149
229.6932, 959.2968
230.1754, 1010.224
230.6575, 1060.670
231.1396, 1114.298
231.6217, 1160.202
232.1038, 1194.758
232.5859, 1216.570
233.0681, 1234.850
233.5502, 1251.826
234.0323, 1263.646
234.5144, 1263.759
234.9965, 1245.604
235.4786, 1226.842
235.9608, 1214.337
236.4429, 1211.892
236.9250, 1198.095
237.4071, 1167.754
237.8892, 1129.345
238.3713, 1096.788
238.8535, 1075.063
239.3356, 1050.824
239.8177, 1019.656
240.2998, 980.0009
240.7819, 938.4323
241.2640, 890.3120
241.7462, 842.3325
242.2283, 807.3594
242.7104, 795.9189
243.1925, 780.0942
243.6746, 749.6896
244.1567, 699.7405
244.6389, 650.1553
245.1210, 595.5417
245.6031, 544.5266
246.0852, 514.8647
246.5673, 517.4633
247.0494, 520.6254
247.5316, 511.1750
248.0137, 482.2611
248.4958, 464.5264
248.9779, 463.0057
249.4600, 469.8772
249.9421, 469.3083
250.4243, 452.7118
250.9064, 444.0692
251.3885, 454.2009
251.8706, 490.1385
252.3527, 519.9286
252.8348, 540.5229
253.3170, 557.1782
253.7991, 580.8575
254.2812, 614.5618
254.7633, 649.1733
255.2454, 682.2126
255.7275, 714.4050
256.2097, 739.7555
256.6918, 751.4904
257.1739, 759.9731
257.6560, 786.9780
258.1381, 839.6953
258.6202, 897.5820
259.1024, 956.2659
259.5845, 1018.380
260.0666, 1064.580
260.5487, 1081.468
261.0308, 1092.063
261.5129, 1144.909
261.9951, 1256.467
262.4772, 1370.574
262.9593, 1463.849
263.4414, 1532.417
263.9235, 1601.037
264.4056, 1667.038
264.8878, 1736.483
265.3699, 1824.226
265.8520, 1937.866
266.3341, 2050.358
266.8162, 2153.802
267.2983, 2247.320
267.7805, 2330.213
268.2626, 2398.057
268.7447, 2459.406
269.2268, 2531.654
269.7089, 2620.092
270.1910, 2700.154
270.6732, 2761.948
271.1553, 2803.615
271.6374, 2844.916
272.1195, 2892.746
272.6016, 2930.129
273.0837, 2922.591
273.5659, 2862.315
274.0480, 2797.547
274.5301, 2748.648
275.0122, 2716.816
275.4943, 2673.268
275.9764, 2619.692
276.4586, 2551.214
276.9407, 2454.557
277.4228, 2327.802
277.9049, 2200.435
278.3870, 2084.905
278.8691, 1980.734
279.3513, 1875.312
279.8334, 1766.300
280.3155, 1662.052
280.7976, 1576.884
281.2798, 1512.358
281.7619, 1447.264
282.2440, 1371.589
282.7261, 1287.513
283.2082, 1211.277
283.6903, 1143.080
284.1725, 1081.989
284.6546, 1028.903
285.1367, 984.0363
285.6188, 939.5970
286.1009, 889.3784
286.5830, 836.2158
287.0652, 794.2434
287.5473, 765.4056
288.0294, 743.6936
288.5115, 726.0602
288.9936, 710.3304
289.4757, 685.6699
289.9579, 638.2017
290.4400, 582.6643
290.9221, 563.1558
291.4042, 581.7524
291.8863, 606.0154
292.3684, 598.0251
292.8506, 565.8406
293.3327, 544.5911
293.8148, 549.9888
294.2969, 570.1040
294.7790, 583.0255
295.2611, 588.9391
295.7433, 591.7705
296.2254, 592.2013
296.7075, 591.4722
297.1896, 593.3770
297.6717, 595.6039
298.1538, 604.2131
298.6360, 629.8726
299.1181, 671.4771
299.6002, 718.2317
300.0823, 767.6211
300.5644, 816.6440
301.0465, 859.1475
301.5287, 888.8689
302.0108, 917.2324
302.4929, 954.1212
302.9750, 999.9053
303.4571, 1054.585
303.9392, 1126.654
304.4214, 1205.413
304.9035, 1277.331
305.3856, 1333.977
305.8677, 1388.771
306.3498, 1451.329
306.8319, 1520.476
307.3141, 1593.618
307.7962, 1668.485
308.2783, 1745.889
308.7604, 1828.990
309.2425, 1920.004
309.7246, 2009.504
310.2068, 2090.670
310.6889, 2165.771
311.1710, 2241.623
311.6531, 2328.108
312.1352, 2412.714
312.6173, 2486.247
313.0995, 2546.778
313.5816, 2595.194
314.0637, 2634.343
314.5458, 2661.680
315.0279, 2672.916
315.5100, 2667.342
315.9922, 2644.521
316.4743, 2602.938
316.9564, 2540.728
317.4385, 2466.780
317.9206, 2381.116
318.4027, 2286.121
318.8849, 2185.130
319.3670, 2075.278
319.8491, 1962.873
320.3312, 1847.551
320.8133, 1726.847
321.2954, 1616.100
321.7776, 1521.542
322.2597, 1436.260
322.7418, 1352.889
323.2239, 1272.274
323.7060, 1191.577
324.1881, 1107.734
324.6703, 1019.749
325.1524, 940.4307
325.6345, 877.2935
326.1166, 820.5812
326.5987, 761.8716
327.0808, 698.8467
327.5630, 636.4093
328.0451, 570.4493
328.5272, 501.8782
329.0093, 451.0110
329.4914, 430.5017
329.9735, 417.3300
330.4557, 397.0297
330.9378, 366.3287
331.4199, 333.5798
331.9020, 295.6122
332.3841, 255.3202
332.8662, 227.6451
333.3484, 218.2264
333.8305, 213.2991
334.3126, 206.4581
334.7947, 199.3722
335.2768, 184.6611
335.7589, 158.4016
336.2411, 126.3186
336.7232, 102.0378
337.2053, 86.89258
337.6874, 76.23535
338.1695, 68.41455
338.6516, 63.75806
339.1338, 59.97864
339.6159, 57.40405
340.0980, 55.20312
340.5801, 53.56079
341.0622, 53.04053
341.5443, 47.06360
342.0265, 28.08533
342.5086, 1.292358
342.9907, 15.75623
343.4728, 12.38855
343.9549, 5.028564
344.4370, 15.49158
344.9192, 41.02454
345.4013, 54.80237
345.8834, 38.56860
346.3655, 6.085938
346.8476, 3.960327
347.3297, 8.974731
347.8119, 28.02051
348.2940, 38.82898
348.7761, 43.23279
349.2582, 46.52026
349.7403, 50.75793
350.2225, 54.17944
350.7046, 52.69360
351.1867, 47.05945
351.6688, 43.08215
352.1509, 49.08398
352.6331, 58.36340
353.1152, 59.73792
353.5973, 46.81458
354.0794, 32.78308
354.5615, 33.31140
355.0436, 43.25366
355.5258, 46.94751
356.0079, 30.74487
356.4900, 7.319946
356.9721, 13.76343
357.4542, 32.39453
357.9363, 44.10986
358.4185, 38.44116
358.9006, 24.99329
359.3827, 20.38171
359.8648, 34.21484
360.3469, 56.06946
360.8290, 84.46619
361.3112, 121.4302
361.7933, 148.9797
362.2754, 150.0764
362.7575, 143.2878
363.2396, 148.8114
363.7217, 181.5396
364.2039, 216.6270
364.6860, 249.8065
365.1681, 280.9968
365.6502, 306.2649
366.1323, 318.5468
366.6144, 328.9780
367.0966, 345.3195
367.5787, 374.3933
368.0608, 401.2101
368.5429, 426.6987
369.0250, 449.8500
369.5071, 464.7087
369.9893, 466.3344
370.4714, 465.4109
370.9535, 467.1156
371.4356, 473.2804
371.9177, 478.3229
372.3998, 484.0970
372.8820, 487.7120
373.3641, 480.9471
373.8462, 458.8616
374.3283, 439.2753
374.8104, 429.6597
375.2925, 430.5802
375.7747, 435.4252
376.2568, 446.9148
376.7389, 456.9977
377.2210, 453.7339
377.7031, 436.4082
378.1852, 415.7736
378.6674, 392.6519
379.1495, 368.9525
379.6316, 351.6881
380.1137, 341.1251
380.5958, 336.0283
381.0779, 337.8848
381.5601, 345.2433
382.0422, 349.8448
382.5243, 346.4562
383.0064, 343.8694
383.4885, 363.7539
383.9706, 402.5161
384.4528, 432.4165
384.9349, 419.2533
385.4170, 388.9412
385.8991, 387.2880
386.3812, 427.2086
386.8633, 476.2502
387.3455, 504.6393
387.8276, 518.9180
388.3097, 534.4819
388.7918, 560.1044
389.2739, 589.2809
389.7560, 615.0297
390.2382, 636.0292
390.7203, 663.2028
391.2024, 708.8330
391.6845, 761.5510
392.1666, 808.8352
392.6487, 829.4884
393.1309, 860.1460
393.6130, 922.7914
394.0951, 1013.510
394.5772, 1092.034
395.0593, 1137.039
395.5414, 1174.050
396.0236, 1218.684
396.5057, 1281.752
396.9878, 1342.998
397.4699, 1397.276
397.9520, 1446.893
398.4341, 1500.193
398.9163, 1565.316
399.3984, 1626.477
399.8805, 1678.721
400.3626, 1723.082
400.8447, 1753.331
401.3268, 1765.509
401.8090, 1767.599
402.2911, 1771.082
402.7732, 1779.450
403.2553, 1777.114
403.7374, 1760.315
404.2195, 1730.742
404.7017, 1702.765
405.1838, 1678.772
405.6659, 1645.449
406.1480, 1586.545
406.6301, 1501.367
407.1122, 1421.694
407.5944, 1355.608
408.0765, 1295.112
408.5586, 1220.427
409.0407, 1132.305
409.5228, 1045.418
410.0049, 967.5854
410.4871, 898.5913
410.9692, 840.7372
411.4513, 797.6901
411.9334, 755.5319
412.4155, 694.3666
412.8976, 618.6145
413.3798, 544.4913
413.8619, 468.3096
414.3440, 403.6100
414.8261, 369.7450
415.3082, 365.9897
415.7903, 361.0020
416.2725, 327.1787
416.7546, 283.4897
417.2367, 250.4923
417.7188, 245.2230
418.2009, 241.3645
418.6830, 222.9287
419.1652, 194.8862
419.6473, 176.2374
420.1294, 183.8005
420.6115, 194.5215
421.0937, 195.8871
421.5758, 183.2986
422.0579, 167.6516
422.5400, 143.4213
423.0221, 118.3575
423.5042, 104.8022
423.9864, 111.9937
424.4685, 120.8402
424.9506, 126.8274
425.4327, 129.3949
425.9148, 136.0629
426.3969, 150.4584
426.8791, 164.8210
427.3612, 170.6280
427.8433, 162.6713
428.3254, 163.2837
428.8075, 179.0274
429.2896, 204.1204
429.7718, 218.0985
430.2539, 219.5829
430.7360, 217.6697
431.2181, 215.5925
431.7002, 213.7017
432.1823, 216.9901
432.6645, 225.6704
433.1466, 239.7209
433.6287, 262.9608
434.1108, 293.0078
434.5929, 318.0511
435.0750, 332.7772
435.5572, 339.3967
436.0393, 338.2762
436.5214, 329.9008
437.0035, 324.5347
437.4856, 334.9224
437.9677, 351.9583
438.4499, 362.6151
438.9320, 361.2081
439.4141, 356.7152
439.8962, 355.1832
440.3783, 355.5214
440.8604, 354.8476
441.3426, 355.0219
441.8247, 351.4752
442.3068, 341.3596
442.7889, 323.7999
443.2710, 302.3975
443.7531, 272.3279
444.2353, 241.2123
444.7174, 216.9440
445.1995, 209.2067
445.6816, 199.3875
446.1637, 182.1934
446.6458, 158.8314
447.1280, 140.7926
447.6101, 130.6017
448.0922, 122.9140
448.5743, 116.1236
449.0564, 113.9572
449.5385, 100.3351
450.0207, 66.93213
450.5028, 29.16254
450.9849, 21.62988
451.4670, 51.79840
451.9491, 74.51501
452.4312, 69.37494
452.9134, 40.32214
453.3955, 16.98248
453.8776, 0.5857540
454.3597, 12.53815
454.8418, 15.94739
455.3239, 12.92316
455.8061, 12.29211
456.2882, 16.99622
456.7703, 23.49976
457.2524, 27.25824
457.7345, 28.54700
458.2166, 28.53357
458.6988, 27.53998
459.1809, 25.76776
459.6630, 22.45764
460.1451, 16.92981
460.6272, 14.14954
461.1093, 19.41895
461.5915, 28.60132
462.0736, 36.47052
462.5557, 43.51288
463.0378, 46.80249
463.5199, 44.22174
464.0020, 36.33661
464.4842, 27.23456
464.9663, 14.59674
465.4484, 3.348083
465.9305, 3.609497
466.4126, 1.536133
466.8947, 3.658264
467.3769, 13.06317
467.8590, 25.29034
468.3411, 33.62317
468.8232, 38.79755
469.3053, 37.88000
469.7874, 26.51392
470.2696, 5.906311
470.7517, 0.5804440
471.2338, 14.36829
471.7159, 31.61060
472.1980, 39.25739
472.6801, 37.45984
473.1623, 31.43890
473.6444, 19.29584
474.1265, 8.356201
474.6086, 14.92200
475.0907, 36.28937
475.5728, 54.95972
476.0550, 58.55347
476.5371, 54.65765
477.0192, 53.89722
477.5013, 56.57666
477.9834, 64.57458
478.4655, 84.87524
478.9477, 109.7208
479.4298, 128.4533
479.9119, 133.5839
480.3940, 137.6736
480.8761, 149.7789
481.3582, 166.3269
481.8404, 176.8548
482.3225, 166.4702
482.8046, 158.7627
483.2867, 165.8961
483.7688, 193.6820
484.2509, 219.6752
484.7331, 237.3943
485.2152, 254.8133
485.6973, 280.6512
486.1794, 324.0044
486.6615, 359.8131
487.1436, 381.0599
487.6258, 392.0851
488.1079, 411.5467
488.5900, 436.9149
489.0721, 477.6738
489.5542, 548.9932
490.0363, 651.6667
490.5185, 722.8366
491.0006, 754.6878
491.4827, 773.7391
491.9648, 810.6898
492.4470, 863.8890
492.9291, 924.4866
493.4112, 989.3719
493.8933, 1058.804
494.3754, 1133.292
494.8575, 1212.619
495.3397, 1290.857
495.8218, 1361.974
496.3039, 1432.373
496.7860, 1509.506
497.2681, 1597.984
497.7502, 1683.907
498.2324, 1761.024
498.7145, 1831.354
499.1966, 1899.147
499.6787, 1968.760
500.1608, 2032.036
500.6429, 2083.925
501.1251, 2125.179
501.6072, 2168.130
502.0893, 2227.126
502.5714, 2276.727
503.0535, 2306.378
503.5356, 2318.642
504.0178, 2303.571
504.4999, 2254.011
504.9820, 2183.554
505.4641, 2114.657
505.9462, 2052.095
506.4283, 1965.684
506.9105, 1836.062
507.3926, 1678.964
507.8747, 1562.891
508.3568, 1489.074
508.8389, 1417.763
509.3210, 1308.603
509.8032, 1177.915
510.2853, 1072.176
510.7674, 999.5372
511.2495, 940.3046
511.7316, 872.6230
512.2137, 803.2488
512.6959, 747.3135
513.1780, 718.0551
513.6601, 698.1780
514.1422, 675.3623
514.6243, 650.7660
515.1064, 634.0791
515.5886, 634.2084
516.0707, 640.1300
516.5528, 645.0989
517.0349, 646.7261
517.5170, 650.9572
517.9991, 655.8240
518.4813, 664.5493
518.9634, 681.5729
519.4455, 711.6495
519.9276, 740.7820
520.4097, 762.8940
520.8918, 780.9025
521.3740, 819.0859
521.8561, 882.9797
522.3382, 950.2349
522.8203, 1004.322
523.3024, 1045.968
523.7845, 1097.088
524.2667, 1159.096
524.7488, 1228.962
525.2309, 1306.764
525.7130, 1391.522
526.1951, 1478.058
526.6772, 1565.297
527.1594, 1654.026
527.6415, 1743.203
528.1236, 1832.813
528.6057, 1926.668
529.0878, 2023.771
529.5699, 2127.895
530.0521, 2241.661
530.5342, 2368.298
531.0163, 2495.852
531.4984, 2626.919
531.9805, 2755.293
532.4626, 2875.372
532.9448, 2978.039
533.4269, 3082.055
533.9090, 3188.003
534.3911, 3296.643
534.8732, 3408.051
535.3553, 3529.333
535.8375, 3642.932
536.3196, 3744.702
536.8017, 3837.086
537.2838, 3889.624
537.7659, 3895.904
538.2480, 3885.053
538.7302, 3893.770
539.2123, 3916.700
539.6944, 3916.131
540.1765, 3882.476
540.6586, 3825.281
541.1407, 3755.745
541.6229, 3672.423
542.1050, 3570.868
542.5871, 3432.766
543.0692, 3285.876
543.5513, 3159.814
544.0334, 3056.872
544.5156, 2946.333
544.9977, 2807.302
545.4798, 2658.115
545.9619, 2514.386
546.4440, 2379.907
546.9261, 2249.789
547.4083, 2125.938
547.8904, 2005.778
548.3725, 1884.037
548.8546, 1744.912
549.3367, 1628.785
549.8188, 1554.334
550.3010, 1516.572
550.7831, 1455.180
551.2652, 1364.972
551.7473, 1268.061
552.2294, 1178.411
552.7115, 1095.682
553.1937, 1020.853
553.6758, 954.1063
554.1579, 894.1897
554.6400, 839.4762
555.1221, 790.0762
555.6042, 747.7327
556.0864, 718.7625
556.5685, 690.5886
557.0506, 647.5449
557.5327, 594.1136
558.0148, 547.6537
558.4969, 521.9113
558.9791, 501.6519
559.4612, 478.2502
559.9433, 450.4460
560.4254, 407.4147
560.9075, 411.5211
561.3896, 407.7861
561.8718, 396.6299
562.3539, 355.8138
562.8360, 353.3311
563.3181, 335.5017
563.8002, 317.0564
564.2823, 320.0009
564.7645, 283.5532
565.2466, 286.1827
565.7287, 273.2283
566.2108, 267.4261
566.6929, 246.1923
567.1750, 229.7429
567.6572, 228.7574
568.1393, 219.2294
568.6214, 196.2634
569.1035, 190.9982
569.5856, 154.1567
570.0677, 145.0620
570.5499, 147.9515
571.0320, 125.8750
571.5141, 121.0186
571.9962, 109.6477
572.4783, 110.1855
572.9604, 102.1156
573.4426, 87.93762
573.9247, 80.43713
574.4068, 93.41382
574.8889, 102.6288
575.3710, 96.86353
575.8531, 71.83435
576.3353, 55.20166
576.8174, 49.87573
577.2995, 48.87854
577.7816, 43.09619
578.2637, 30.99170
578.7458, 33.78491
579.2280, 59.52820
579.7101, 92.32788
580.1922, 101.7494
580.6743, 91.36621
581.1564, 81.39600
581.6385, 83.36975
582.1207, 89.87781
582.6028, 91.28870
583.0849, 88.10547
583.5670, 84.35730
584.0491, 80.91577
584.5313, 78.81873
585.0134, 79.51294
585.4955, 84.62708
585.9776, 87.87073
586.4597, 87.19727
586.9418, 83.98523
587.4240, 79.69141
587.9061, 72.57251
588.3882, 67.41064
588.8703, 66.51343
589.3524, 67.41455
589.8345, 61.38721
590.3167, 45.77124
590.7988, 33.48450
591.2809, 31.81042
591.7630, 38.41687
592.2451, 42.60168
592.7272, 44.42004
593.2094, 42.47534
593.6915, 32.78040
594.1736, 19.06641
594.6557, 8.339966
595.1378, 2.168091
595.6199, 1.848999
596.1021, 3.455200
596.5842, 4.512817
597.0663, 7.701660
597.5485, 21.03113
598.0306, 29.04797
598.5127, 21.28113
598.9948, 2.594116
599.4769, 5.730713
599.9590, 4.395874
600.4412, 16.63940
600.9233, 26.71802
601.4054, 34.84198
601.8875, 38.39148
602.3696, 36.88043
602.8517, 31.86432
603.3339, 21.34875
603.8160, 6.275269
604.2981, 3.120483
604.7802, 16.56799
605.2623, 32.16437
605.7444, 28.80157
606.2266, 12.31873
606.7087, 1.370239
607.1908, 3.015869
607.6729, 3.360229
608.1550, 15.38098
608.6371, 33.99512
609.1193, 43.04248
609.6014, 21.94409
610.0835, 1.773804
610.5656, 1.872437
611.0477, 14.21765
611.5298, 34.17004
612.0120, 63.63678
612.4941, 89.65027
612.9762, 102.5721
613.4583, 98.46649
613.9404, 96.31451
614.4225, 96.58282
614.9047, 99.46741
615.3868, 105.3262
615.8689, 114.1478
616.3510, 125.4230
616.8331, 139.5101
617.3152, 155.2485
617.7974, 172.8181
618.2795, 191.2715
618.7616, 207.7710
619.2437, 214.3814
619.7258, 223.3711
620.2079, 248.5701
620.6901, 289.6637
621.1722, 321.0931
621.6543, 322.7036
622.1364, 319.8010
622.6185, 329.0005
623.1006, 356.5078
623.5828, 385.1225
624.0649, 416.7094
624.5470, 446.6102
625.0291, 470.8665
625.5112, 487.7593
625.9933, 509.3074
626.4755, 537.8035
626.9576, 571.2361
627.4397, 612.7641
627.9218, 660.4650
628.4039, 697.0104
628.8860, 703.8712
629.3682, 698.1151
629.8503, 700.3331
630.3324, 709.9989
630.8145, 725.9609
631.2966, 758.7744
631.7787, 791.2125
632.2609, 811.9676
632.7430, 820.1675
633.2251, 814.6533
633.7072, 772.0021
634.1893, 728.5019
634.6714, 717.3032
635.1536, 761.1471
635.6357, 786.3629
636.1178, 782.4254
636.5999, 763.4196
637.0820, 756.2786
637.5641, 761.2766
638.0463, 756.4113
638.5284, 731.4539
639.0105, 694.6389
639.4926, 656.8577
639.9747, 619.2227
640.4568, 591.9524
640.9390, 599.2943
641.4211, 608.3404
641.9032, 581.5377
642.3853, 516.5601
642.8674, 460.4757
643.3495, 442.3347
643.8317, 432.8993
644.3138, 410.4823
644.7959, 357.7228
645.2780, 321.7828
645.7601, 308.6489
646.2422, 307.1987
646.7244, 306.4997
647.2065, 308.9246
647.6886, 303.5711
648.1707, 283.9298
648.6528, 258.6361
649.1349, 246.2883
649.6171, 245.7256
650.0992, 247.4926
650.5813, 251.8566
651.0634, 253.5095
651.5455, 241.8884
652.0276, 219.0241
652.5098, 198.4964
652.9919, 189.1641
653.4740, 183.5366
653.9561, 177.4711
654.4382, 170.5709
654.9203, 161.7339
655.4025, 148.0609
655.8846, 134.2803
656.3667, 123.7347
656.8488, 115.9022
657.3309, 115.0279
657.8130, 124.9265
658.2952, 134.9478
658.7773, 126.1104
659.2594, 100.0669
659.7415, 81.00037
660.2236, 76.59283
660.7057, 80.49054
661.1879, 89.50189
661.6700, 100.8741
662.1521, 104.2616
662.6342, 84.91608
663.1163, 61.10645
663.5984, 43.42981
664.0806, 32.47791
664.5627, 25.69092
665.0448, 22.09247
665.5269, 22.61804
666.0090, 30.60492
666.4911, 49.02069
666.9733, 50.85681
667.4554, 29.56580
667.9375, 4.761780
668.4196, 8.151855
668.9017, 9.302063
669.3839, 6.473389
669.8660, 0.2564700
670.3481, 7.929993
670.8302, 13.40704
671.3123, 17.14716
671.7944, 20.35931
672.2766, 24.42224
672.7587, 26.38531
673.2408, 21.53094
673.7229, 13.51324
674.2050, 9.356323
674.6871, 15.75116
675.1693, 21.16766
675.6514, 22.45093
676.1335, 20.11346
676.6156, 15.79932
677.0977, 6.132141
677.5798, 2.283081
678.0620, 11.55859
678.5441, 32.32245
679.0262, 49.98083
679.5083, 65.13147
679.9904, 69.39453
680.4725, 43.26605
680.9547, 5.574585
681.4368, 6.720642
681.9189, 13.36737
682.4010, 33.48193
682.8831, 28.61780
683.3652, 14.28760
683.8474, 6.555664
684.3295, 17.96930
684.8116, 21.79279
685.2937, 6.994690
685.7758, 14.27966
686.2579, 26.70325
686.7401, 29.32837
687.2222, 25.11530
687.7043, 12.83807
688.1864, 4.484985
688.6685, 23.36224
689.1506, 43.07501
689.6328, 51.54974
690.1149, 33.08740
690.5970, 6.990845
691.0791, 6.101929
691.5612, 25.57013
692.0433, 40.69824
692.5255, 34.90833
693.0076, 23.39716
693.4897, 12.37836
693.9718, 1.579468
694.4539, 3.182983
694.9360, 38.68567
695.4182, 68.43335
695.9003, 67.68799
696.3824, 25.18188
696.8645, 0.9296880
697.3466, 1.940613
697.8287, 5.213501
698.3109, 11.87927
698.7930, 18.29950
699.2751, 26.24884
699.7572, 36.87128
700.2393, 45.91602
700.7214, 48.41034
701.2036, 46.35883
701.6857, 43.09430
702.1678, 39.82141
702.6499, 35.51373
703.1320, 30.17554
703.6141, 23.50256
704.0963, 14.07080
704.5784, 8.075134
705.0605, 17.35358
705.5426, 2.212891
706.0247, 29.56409
706.5068, 41.59277
706.9890, 32.07635
707.4711, 18.51910
707.9532, 6.472473
708.4353, 2.201721
708.9174, 0.9907840
709.3995, 14.73499
709.8817, 26.06750
710.3638, 22.18738
710.8459, 14.40491
711.3280, 13.15295
711.8101, 20.28137
712.2922, 26.93536
712.7744, 30.91467
713.2565, 33.37250
713.7386, 35.59766
714.2207, 39.60980
714.7028, 36.87207
715.1849, 23.46014
715.6671, 10.06592
716.1492, 10.67981
716.6313, 23.93079
717.1134, 34.04816
717.5955, 38.98468
718.0776, 37.78424
718.5598, 21.10767
719.0419, 1.546814
719.5240, 11.39435
720.0061, 9.352234
720.4882, 30.70160
720.9703, 38.03961
721.4525, 36.09161
721.9346, 35.58020
722.4167, 35.12152
722.8988, 40.61523
723.3809, 58.83636
723.8630, 83.28809
724.3452, 82.81506
724.8273, 52.92126
725.3094, 30.75671
725.7915, 41.14569
726.2736, 68.44720
726.7557, 72.27411
727.2379, 55.47070
727.7200, 38.71521
728.2021, 34.28992
728.6842, 35.80493
729.1663, 39.25043
729.6484, 44.31445
730.1306, 49.74518
730.6127, 60.38550
731.0948, 66.75793
731.5769, 62.64716
732.0590, 44.00909
732.5411, 31.65125
733.0233, 26.76300
733.5054, 25.15674
733.9875, 21.62085
734.4696, 17.20190
734.9517, 20.93744
735.4338, 35.12994
735.9160, 51.00647
736.3981, 60.76898
736.8802, 65.08075
737.3623, 64.51001
737.8444, 56.32678
738.3266, 48.91034
738.8087, 44.21729
739.2908, 41.74261
739.7729, 43.16064
740.2551, 48.98315
740.7372, 55.25146
741.2193, 62.72339
741.7014, 69.02979
742.1835, 69.88196
742.6656, 64.92499
743.1478, 55.77325
743.6299, 37.55853
744.1120, 20.95483
744.5941, 29.29102
745.0762, 55.17407
745.5583, 75.15503
746.0405, 72.43640
746.5226, 65.46362
747.0047, 62.90759
747.4868, 62.99298
747.9689, 62.74280
748.4510, 62.21552
748.9332, 60.96222
749.4153, 58.71039
749.8974, 55.28052
750.3795, 54.44971
750.8616, 56.50867
751.3438, 58.16132
751.8259, 57.92114
752.3080, 56.04523
752.7901, 50.60687
753.2722, 41.27661
753.7543, 35.20154
754.2365, 43.21967
754.7186, 51.41553
755.2007, 46.24884
755.6828, 22.34222
756.1649, 12.35016
756.6470, 35.40430
757.1292, 61.58014
757.6113, 71.43866
758.0934, 58.94025
758.5755, 58.71332
759.0576, 73.94891
759.5397, 90.82495
760.0219, 94.12738
760.5040, 87.21313
760.9861, 79.47180
761.4682, 71.63989
761.9503, 67.03845
762.4324, 71.44794
762.9146, 78.57300
763.3967, 81.52985
763.8788, 71.48840
764.3609, 67.60864
764.8430, 85.54694
765.3251, 103.8470
765.8073, 93.35419
766.2894, 41.46643
766.7715, 12.79340
767.2536, 22.11316
767.7357, 47.89435
768.2178, 53.19354
768.7000, 43.01392
769.1821, 39.85052
769.6642, 58.10211
770.1463, 74.73364
770.6284, 62.90985
771.1105, 36.01898
771.5927, 19.98163
772.0748, 29.99231
772.5569, 43.62024
773.0390, 59.43481
773.5211, 74.09241
774.0032, 78.74817
774.4854, 71.37335
774.9675, 62.12994
775.4496, 51.84265
775.9317, 43.45905
776.4138, 47.30389
776.8959, 60.44464
777.3781, 70.53113
777.8602, 68.18396
778.3423, 64.67395
778.8244, 73.63403
779.3065, 90.93427
779.7886, 99.03857
780.2708, 86.33716
780.7529, 69.76801
781.2350, 52.21625
781.7171, 34.63898
782.1992, 27.88104
782.6813, 34.69049
783.1635, 41.60364
783.6456, 43.09412
784.1277, 39.39502
784.6098, 25.62817
785.0919, 3.853210
785.5740, 6.501526
786.0562, 16.29474
786.5383, 49.16010
787.0204, 78.02246
787.5025, 101.7591
787.9846, 107.5670
788.4667, 70.45624
788.9489, 35.94873
789.4310, 25.20819
789.9131, 40.10675
790.3952, 43.32220
790.8773, 32.29767
791.3594, 21.49597
791.8416, 24.83887
792.3237, 36.29327
792.8058, 40.03973
793.2879, 35.43091
793.7700, 27.25763
794.2521, 12.96857
794.7343, 0.4909060
795.2164, 1.978699
795.6985, 9.444092
796.1806, 17.03467
796.6627, 17.09888
797.1448, 14.99170
797.6270, 12.48779
798.1091, 8.481201
798.5912, 16.97882
799.0733, 41.46985
799.5554, 60.39624
800.0375, 41.51874
800.5197, 5.109436
801.0018, 6.409851
801.4839, 15.74072
801.9660, 37.10840
802.4481, 39.25903
802.9302, 30.13324
803.4124, 14.50702
803.8945, 17.49670
804.3766, 30.67291
804.8587, 16.59570
805.3408, 5.202393
805.8229, 16.75854
806.3051, 18.15125
806.7872, 21.83508
807.2693, 29.26178
807.7514, 36.63806
808.2335, 42.44086
808.7156, 44.88776
809.1978, 40.04437
809.6799, 24.47345
810.1620, 10.49707
810.6441, 2.402527
811.1262, 1.155396
811.6083, 1.431946
812.0905, 1.737915
812.5726, 7.280212
813.0547, 14.94324
813.5368, 25.29871
814.0189, 42.97839
814.5010, 65.39911
814.9832, 76.18085
815.4653, 72.00452
815.9474, 61.09064
816.4295, 43.45831
816.9116, 27.55615
817.3937, 25.25159
817.8759, 51.80664
818.3580, 67.62830
818.8401, 53.07275
819.3222, 31.80103
819.8043, 26.12109
820.2864, 39.25189
820.7686, 55.18890
821.2507, 74.84967
821.7328, 89.68347
822.2149, 80.86200
822.6970, 58.68530
823.1791, 51.46277
823.6613, 70.95129
824.1434, 88.26154
824.6255, 80.65546
825.1076, 62.08435
825.5897, 48.16455
826.0718, 39.78955
826.5540, 39.65869
827.0361, 51.29120
827.5182, 67.01038
828.0003, 78.60315
828.4824, 85.99615
828.9645, 89.73737
829.4467, 89.19727
829.9288, 87.81976
830.4109, 93.03979
830.8930, 98.90991
831.3751, 94.40887
831.8572, 68.57233
832.3394, 50.98224
832.8215, 62.68427
833.3036, 81.88208
833.7857, 82.97803
834.2678, 55.81177
834.7499, 40.88879
835.2321, 42.88934
835.7142, 52.49805
836.1963, 59.55847
836.6784, 64.52148
837.1605, 69.24237
837.6426, 74.52722
838.1248, 77.31842
838.6069, 74.82465
839.0890, 68.72272
839.5711, 60.25354
840.0532, 43.32697
840.5353, 36.55597
841.0175, 47.36084
841.4996, 61.75189
841.9817, 63.55798
842.4638, 52.01813
842.9459, 49.82465
843.4280, 61.12811
843.9102, 70.89172
844.3923, 55.80597
844.8744, 29.88837
845.3565, 16.97089
845.8386, 24.97211
846.3207, 33.61438
846.8029, 32.89020
847.2850, 30.44305
847.7671, 33.62311
848.2492, 47.25830
848.7313, 52.74493
849.2134, 47.66864
849.6956, 40.50903
850.1777, 39.29742
850.6598, 43.02051
851.1419, 50.60492
851.6240, 62.95020
852.1061, 68.42712
852.5883, 48.74963
853.0704, 23.93445
853.5525, 13.34570
854.0346, 25.97205
854.5167, 34.16858
854.9988, 33.52795
855.4810, 31.73651
855.9631, 35.37274
856.4452, 44.60052
856.9273, 47.96655
857.4094, 44.91418
857.8915, 39.98651
858.3737, 35.55432
858.8558, 32.35675
859.3379, 32.66608
859.8200, 36.95123
860.3021, 40.18097
860.7842, 37.66211
861.2664, 33.41168
861.7485, 31.18152
862.2306, 31.33350
862.7127, 27.00293
863.1948, 16.05383
863.6769, 7.758789
864.1591, 11.22791
864.6412, 21.91711
865.1233, 30.53802
865.6054, 36.62146
866.0875, 38.04022
866.5696, 26.89240
867.0518, 16.26697
867.5339, 17.19257
868.0160, 31.03503
868.4981, 34.19299
868.9802, 21.57831
869.4623, 8.796387
869.9445, 2.880493
870.4266, 2.847534
870.9087, 6.781433
871.3908, 13.94617
871.8729, 16.30359
872.3550, 0.7048340
872.8372, 16.73004
873.3193, 11.18329
873.8014, 12.37360
874.2835, 31.44104
874.7656, 40.77472
875.2477, 46.33478
875.7299, 45.99506
876.2120, 40.09961
876.6941, 37.29437
877.1762, 37.58740
877.6583, 34.64948
878.1404, 20.10339
878.6226, 3.153259
879.1047, 1.981506
879.5869, 1.261658
880.0690, 3.881836
880.5511, 0.5771480
881.0332, 2.553406
881.5153, 1.644043
881.9974, 9.806030
882.4796, 18.41064
882.9617, 27.96710
883.4438, 35.33862
883.9259, 40.23401
884.4080, 41.58075
884.8901, 34.77222
885.3723, 23.23083
885.8544, 14.92188
886.3365, 13.27283
886.8186, 14.39404
887.3007, 19.40973
887.7828, 25.04987
888.2650, 26.50775
888.7471, 21.58850
889.2292, 17.57819
889.7113, 13.78156
890.1934, 13.96478
890.6755, 28.94507
891.1577, 52.03870
891.6398, 60.56689
892.1219, 47.60181
892.6040, 33.60846
893.0861, 31.55652
893.5682, 36.01630
894.0504, 43.08752
894.5325, 57.92780
895.0146, 61.09772
895.4967, 49.30157
895.9788, 34.89819
896.4609, 29.84644
896.9431, 31.12958
897.4252, 28.47284
897.9073, 21.52386
898.3894, 15.80444
898.8715, 16.37036
899.3536, 20.38556
899.8358, 31.88031
900.3179, 52.40118
900.8000, 58.56012
901.2821, 34.67542
901.7642, 16.52759
902.2463, 23.91620
902.7285, 52.18439
903.2106, 66.58411
903.6927, 67.70856
904.1748, 64.48029
904.6569, 63.08301
905.1390, 60.24457
905.6212, 50.70471
906.1033, 36.29938
906.5854, 25.30475
907.0675, 16.90564
907.5496, 13.60046
908.0317, 16.72644
908.5139, 24.76208
908.9960, 35.21063
909.4781, 48.06085
909.9602, 54.84320
910.4423, 48.04437
910.9244, 39.15692
911.4066, 46.21741
911.8887, 61.18695
912.3708, 66.04425
912.8529, 40.62695
913.3350, 22.77301
913.8171, 24.65729
914.2993, 33.20074
914.7814, 29.28168
915.2635, 11.37335
915.7456, 2.926636
916.2277, 9.148071
916.7098, 17.06000
917.1920, 5.575562
917.6741, 11.65302
918.1562, 12.65802
918.6383, 12.04254
919.1204, 34.76678
919.6025, 52.08307
920.0847, 60.28430
920.5668, 54.26013
921.0489, 30.74048
921.5310, 16.26709
922.0131, 11.46631
922.4952, 11.50403
922.9774, 16.05328
923.4595, 21.28973
923.9416, 20.20959
924.4237, 12.89276
924.9058, 6.704590
925.3879, 3.269409
925.8701, 3.053711
926.3522, 6.475098
926.8343, 14.66571
927.3164, 23.87622
927.7985, 36.43658
928.2806, 42.47443
928.7628, 30.65912
929.2449, 16.05542
929.7270, 29.81177
930.2091, 60.52527
930.6912, 77.21332
931.1733, 59.60175
931.6555, 36.37341
932.1376, 5.734375
932.6197, 21.12994
933.1018, 19.05811
933.5839, 18.31274
934.0660, 34.75079
934.5482, 14.93042
935.0303, 12.30566
935.5124, 6.504639
935.9945, 17.13702
936.4766, 31.07178
936.9587, 24.52234
937.4409, 20.53601
937.9230, 33.59747
938.4051, 46.45856
938.8872, 43.36328
939.3693, 18.99103
939.8514, 14.93512
940.3336, 12.96985
940.8157, 39.88849
941.2978, 55.03040
941.7799, 59.02856
942.2620, 18.50928
942.7441, 35.47192
943.2263, 29.39636
943.7084, 22.37500
944.1905, 47.42389
944.6726, 13.40759
945.1547, 37.94513
945.6368, 39.09320
946.1190, 50.94391
946.6011, 39.61444
947.0832, 35.44653
947.5653, 54.45972
948.0474, 60.63300
948.5295, 46.62946
949.0117, 59.15192
949.4938, 24.27661
949.9759, 30.99091
950.4580, 55.64801
950.9401, 42.80249
951.4222, 55.74133
951.9044, 11.69971
952.3865, 15.26727
952.8686, 30.45728
953.3507, 34.50317
953.8328, 5.968567
954.3149, 11.03534
954.7971, 5.008301
955.2792, 1.941284
955.7613, 23.14307
956.2434, 10.87292
956.7255, 13.69098
957.2076, 14.86511
957.6898, 26.74121
958.1719, 15.43726
958.6540, 11.29108
959.1361, 30.33307
959.6182, 36.53894
960.1003, 22.56793
960.5825, 35.12256
961.0646, 0.2793580
961.5467, 7.024414
962.0288, 31.71497
962.5109, 18.90356
962.9930, 31.87683
963.4752, 35.02905
963.9573, 6.449890
964.4394, 29.68060
964.9215, 32.24237
965.4036, 37.73328
965.8857, 64.28296
966.3679, 48.40363
966.8500, 15.52698
967.3321, 0.4879760
967.8142, 23.00592
968.2963, 28.88641
968.7784, 8.922546
969.2606, 12.59479
969.7427, 8.629395
970.2248, 14.52014
970.7069, 38.14819
971.1890, 60.58392
971.6711, 71.10205
972.1533, 48.06360
972.6354, 22.67310
973.1175, 17.02557
973.5996, 31.61121
974.0817, 48.02228
974.5638, 69.15088
975.0460, 81.51233
975.5281, 76.45361
976.0102, 61.23889
976.4923, 46.43054
976.9744, 33.12213
977.4565, 26.96997
977.9387, 42.52686
978.4208, 51.51166
978.9029, 32.33972
979.3850, 6.649780
979.8671, 6.577637
980.3492, 38.40680
980.8314, 58.21423
981.3135, 59.78705
981.7956, 55.51221
982.2777, 64.50885
982.7598, 73.97296
983.2419, 58.78235
983.7241, 10.18042
984.2062, 18.67517
984.6883, 8.315918
985.1704, 38.35443
985.6525, 47.40930
986.1346, 37.88422
986.6168, 36.10944
987.0989, 41.79016
987.5810, 45.66241
988.0631, 41.72461
988.5452, 34.08972
989.0273, 20.27258
989.5095, 6.052917
989.9916, 6.949463
990.4737, 41.90552
990.9558, 64.60779
991.4379, 68.32159
991.9200, 60.61865
992.4022, 52.34735
992.8843, 43.33075
993.3664, 39.34711
993.8485, 42.62506
994.3306, 43.43750
994.8127, 27.19885
995.2949, 11.37616
995.7770, 14.84930
996.2591, 42.50140
996.7412, 55.09070
997.2233, 47.84613
997.7054, 42.62988
998.1876, 60.73822
998.6697, 86.90143
999.1518, 82.69232
999.6339, 55.06659
1000.116, 31.96094
1000.598, 30.06708
1001.080, 29.72467
1001.562, 19.45905
1002.044, 8.477722
1002.527, 19.12177
1003.009, 54.12360
1003.491, 66.32495
1003.973, 42.12823
1004.455, 14.05212
1004.937, 20.69623
1005.419, 43.72156
1005.901, 61.48962
1006.384, 70.75311
1006.866, 71.06183
1007.348, 55.37476
1007.830, 42.31696
1008.312, 45.46735
1008.794, 60.70392
1009.276, 61.96069
1009.758, 49.71716
1010.240, 38.85608
1010.723, 38.49213
1011.205, 38.19299
1011.687, 26.68579
1012.169, 11.31067
1012.651, 7.374573
1013.133, 17.64984
1013.615, 33.69836
1014.097, 56.47992
1014.580, 75.13702
1015.062, 61.45312
1015.544, 32.26764
1016.026, 20.99323
1016.508, 36.97906
1016.990, 56.40601
1017.472, 76.93237
1017.954, 90.34772
1018.436, 90.21808
1018.919, 77.33411
1019.401, 63.28839
1019.883, 47.01904
1020.365, 40.89435
1020.847, 61.72821
1021.329, 88.27130
1021.811, 98.96863
1022.293, 99.47900
1022.776, 98.82770
1023.258, 104.4980
1023.740, 97.32788
1024.222, 67.34833
1024.704, 37.69238
1025.186, 48.15143
1025.668, 86.41693
1026.150, 106.9013
1026.632, 102.2126
1027.115, 89.37140
1027.597, 72.85999
1028.079, 61.72931
1028.561, 61.79321
1029.043, 72.32758
1029.525, 80.05255
1030.007, 84.06580
1030.489, 91.92889
1030.972, 109.9612
1031.454, 130.5295
1031.936, 146.5952
1032.418, 156.6943
1032.900, 157.5275
1033.382, 135.2861
1033.864, 122.5573
1034.346, 128.3437
1034.828, 136.7986
1035.311, 121.8096
1035.793, 90.35309
1036.275, 96.73212
1036.757, 145.5474
1037.239, 190.8244
1037.721, 202.8064
1038.203, 197.6432
1038.685, 178.4059
1039.167, 148.6516
1039.650, 135.4871
1040.132, 142.6620
1040.614, 151.0103
1041.096, 155.2448
1041.578, 155.1588
1042.060, 143.5865
1042.542, 130.1643
1043.024, 127.2416
1043.507, 149.8306
1043.989, 160.6645
1044.471, 147.7408
1044.953, 127.9278
1045.435, 107.6197
1045.917, 88.86346
1046.399, 106.3206
1046.881, 158.0693
1047.364, 193.5270
1047.846, 163.8105
1048.328, 120.1424
1048.810, 90.82556
1049.292, 77.46405
1049.774, 77.77643
1050.256, 95.68890
1050.738, 114.7772
1051.220, 134.6224
1051.703, 147.0639
1052.185, 132.5155
1052.667, 103.5088
1053.149, 84.19763
1053.631, 83.23010
1054.113, 80.06531
1054.595, 62.75305
1055.077, 49.81683
1055.559, 53.05750
1056.042, 69.59351
1056.524, 80.30939
1057.006, 85.00616
1057.488, 85.17218
1057.970, 83.13800
1058.452, 76.37195
1058.934, 57.55237
1059.416, 34.56659
1059.899, 22.51257
1060.381, 24.34381
1060.863, 28.10986
1061.345, 33.33282
1061.827, 39.70392
1062.309, 49.75220
1062.791, 59.43530
1063.273, 61.73779
1063.755, 56.25879
1064.238, 50.32446
1064.720, 44.35992
1065.202, 40.28491
1065.684, 38.96729
1066.166, 39.76776
1066.648, 41.39984
1067.130, 43.65594
1067.612, 46.14935
1068.094, 50.26190
1068.577, 50.88672
1069.059, 38.12476
1069.541, 25.12915
1070.023, 26.10126
1070.505, 45.24548
1070.987, 54.05450
1071.469, 52.10846
1071.951, 44.88159
1072.434, 33.55640
1072.916, 20.91382
1073.398, 5.631958
1073.880, 8.735046
1074.362, 9.735413
1074.844, 23.08643
1075.326, 37.90765
1075.808, 22.53650
1076.291, 2.491943
1076.773, 7.452942
1077.255, 1.307678
1077.737, 4.775452
1078.219, 0.2201540
1078.701, 1.095276
1079.183, 15.46069
1079.665, 30.73578
1080.147, 35.77386
1080.630, 31.64960
1081.112, 23.59082
1081.594, 11.75409
1082.076, 0.7658080
1082.558, 8.387268
1083.040, 14.59839
1083.522, 19.83276
1084.004, 20.21201
1084.486, 9.039734
1084.969, 21.04877
1085.451, 44.45789
1085.933, 61.93152
1086.415, 69.21429
1086.897, 57.05542
1087.379, 35.44739
1087.861, 18.97021
1088.343, 8.396057
1088.826, 5.080383
1089.308, 15.78351
1089.790, 25.99335
1090.272, 33.92133
1090.754, 39.13550
1091.236, 40.90326
1091.718, 39.34741
1092.200, 32.53082
1092.682, 19.36823
1093.165, 13.22766
1093.647, 31.11761
1094.129, 50.91174
1094.611, 58.63477
1095.093, 55.68982
1095.575, 51.70917
1096.057, 46.67822
1096.539, 40.90039
1097.022, 34.51746
1097.504, 27.63043
1097.986, 16.96332
1098.468, 7.343933
1098.950, 5.870361
1099.432, 15.88165
1099.914, 30.73425
1100.396, 55.12286
1100.879, 68.38391
1101.361, 40.96588
1101.843, 1.273743
1102.325, 3.667847
1102.807, 24.77521
1103.289, 48.58234
1103.771, 53.52338
1104.253, 53.78522
1104.735, 52.01923
1105.218, 47.25714
1105.700, 35.80847
1106.182, 19.73663
1106.664, 9.885010
1107.146, 7.400085
1107.628, 6.732544
1108.110, 8.063965
1108.592, 6.372620
1109.074, 6.485413
1109.557, 24.49637
1110.039, 17.24109
1110.521, 15.83435
1111.003, 33.00763
1111.485, 17.27795
1111.967, 3.690002
1112.449, 1.903992
1112.931, 8.034973
1113.414, 8.248779
1113.896, 7.403442
1114.378, 7.332336
1114.860, 11.82269
1115.342, 32.32635
1115.824, 48.58118
1116.306, 56.43250
1116.788, 39.42102
1117.271, 10.01544
1117.753, 4.143555
1118.235, 24.72504
1118.717, 40.38593
1119.199, 35.15796
1119.681, 24.18451
1120.163, 23.13013
1120.645, 28.28186
1121.127, 27.32983
1121.609, 20.65637
1122.092, 17.33887
1122.574, 26.50427
1123.056, 34.15759
1123.538, 34.78442
1124.020, 31.91486
1124.502, 33.00555
1124.984, 37.42938
1125.466, 39.60480
1125.949, 38.28668
1126.431, 36.54639
1126.913, 34.52411
1127.395, 34.63214
1127.877, 40.52716
1128.359, 50.90063
1128.841, 53.88855
1129.323, 48.87256
1129.806, 48.63892
1130.288, 60.80792
1130.770, 73.18610
1131.252, 74.39435
1131.734, 67.00854
1132.216, 53.74597
1132.698, 29.83496
1133.180, 24.14026
1133.662, 39.57019
1134.145, 60.82343
1134.627, 86.19757
1135.109, 107.6999
1135.591, 106.0602
1136.073, 88.50995
1136.555, 74.43591
1137.037, 71.18506
1137.519, 69.65857
1138.001, 69.28162
1138.484, 70.61621
1138.966, 78.36865
1139.448, 87.20990
1139.930, 78.13824
1140.412, 52.86206
1140.894, 38.96136
1141.376, 62.00720
1141.858, 79.73883
1142.341, 79.72205
1142.823, 71.52753
1143.305, 73.72406
1143.787, 82.77612
1144.269, 80.50641
1144.751, 62.56982
1145.233, 48.24963
1145.715, 52.04199
1146.198, 59.21039
1146.680, 63.27924
1147.162, 63.63177
1147.644, 53.17346
1148.126, 33.29950
1148.608, 24.13837
1149.090, 35.27216
1149.572, 49.78821
1150.054, 53.28302
1150.536, 55.30670
1151.019, 66.91089
1151.501, 89.57867
1151.983, 101.3427
1152.465, 101.9406
1152.947, 99.72211
1153.429, 96.81042
1153.911, 95.78400
1154.393, 100.4296
1154.876, 108.2809
1155.358, 116.3388
1155.840, 130.7064
1156.322, 121.5187
1156.804, 82.64667
1157.286, 50.90387
1157.768, 71.87842
1158.250, 105.8758
1158.733, 92.76154
1159.215, 47.25629
1159.697, 31.69641
1160.179, 78.54095
1160.661, 101.9588
1161.143, 85.27832
1161.625, 61.24860
1162.107, 73.67346
1162.589, 101.8169
1163.072, 108.5146
1163.554, 92.35846
1164.036, 80.69934
1164.518, 77.73816
1165.000, 85.72705
1165.482, 110.9028
1165.964, 138.4328
1166.446, 140.1716
1166.928, 123.2863
1167.411, 100.7123
1167.893, 75.23462
1168.375, 57.93317
1168.857, 46.77838
1169.339, 50.56805
1169.821, 81.83997
1170.303, 124.0027
1170.785, 134.4530
1171.268, 119.7867
1171.750, 98.80127
1172.232, 70.71564
1172.714, 56.55798
1173.196, 78.55219
1173.678, 105.5260
1174.160, 121.5754
1174.642, 126.6425
1175.125, 111.3881
1175.607, 80.39948
1176.089, 61.41827
1176.571, 78.79309
1177.053, 95.03729
1177.535, 90.76758
1178.017, 79.82233
1178.499, 75.23553
1178.981, 76.84552
1179.464, 70.74475
1179.946, 56.77875
1180.428, 52.21564
1180.910, 85.00940
1181.392, 112.5906
1181.874, 107.5603
1182.356, 85.11975
1182.838, 66.79797
1183.320, 52.41711
1183.803, 43.79517
1184.285, 41.10773
1184.767, 42.45325
1185.249, 48.31110
1185.731, 55.81787
1186.213, 66.01917
1186.695, 75.72772
1187.177, 74.80347
1187.660, 62.26508
1188.142, 54.49573
1188.624, 54.54083
1189.106, 56.87146
1189.588, 56.12799
1190.070, 56.07312
1190.552, 63.85284
1191.034, 76.57562
1191.516, 71.68585
1191.999, 46.68225
1192.481, 26.85974
1192.963, 17.87054
1193.445, 17.88904
1193.927, 37.33783
1194.409, 56.57196
1194.891, 49.00568
1195.373, 12.48718
1195.855, 4.891846
1196.338, 30.12610
1196.820, 49.74316
1197.302, 46.86871
1197.784, 36.03687
1198.266, 29.70496
1198.748, 26.61560
1199.230, 24.80890
1199.712, 23.24646
1200.195, 29.92267
1200.677, 46.58429
1201.159, 58.88220
1201.641, 54.74335
1202.123, 47.78223
1202.605, 56.79553
1203.087, 72.52631
1203.569, 78.99664
1204.052, 68.98871
1204.534, 68.61365
1205.016, 79.93866
1205.498, 88.47534
1205.980, 80.57806
1206.462, 67.48859
1206.944, 62.51849
1207.426, 62.37659
1207.908, 59.12402
1208.391, 49.26324
1208.873, 44.05487
1209.355, 44.14581
1209.837, 47.69586
1210.319, 55.45215
1210.801, 63.98999
1211.283, 71.50476
1211.765, 76.42255
1212.247, 71.86700
1212.730, 50.77179
1213.212, 44.21802
1213.694, 58.08661
1214.176, 73.96515
1214.658, 75.26807
1215.140, 68.01978
1215.622, 56.53925
1216.104, 42.27484
1216.587, 30.11621
1217.069, 16.07751
1217.551, 22.46661
1218.033, 58.63556
1218.515, 91.08252
1218.997, 72.06000
1219.479, 35.79517
1219.961, 22.57690
1220.443, 33.87262
1220.926, 34.87762
1221.408, 18.70630
1221.890, 17.61188
1222.372, 44.57263
1222.854, 69.67352
1223.336, 47.01184
1223.818, 8.828491
1224.300, 7.638611
1224.782, 3.164429
1225.265, 15.93011
1225.747, 33.99017
1226.229, 33.73883
1226.711, 8.5022002E-02
1227.193, 33.04779
1227.675, 11.92303
1228.157, 25.96643
1228.639, 30.04211
1229.122, 9.444702
1229.604, 19.87860
1230.086, 3.103210
1230.568, 25.89294
1231.050, 36.14447
1231.532, 39.42950
1232.014, 40.85876
1232.496, 39.76733
1232.979, 34.25287
1233.461, 23.49823
1233.943, 15.81085
1234.425, 11.12653
1234.907, 11.60730
1235.389, 24.08795
1235.871, 32.71826
1236.353, 7.969910
1236.835, 22.51993
1237.318, 15.53378
1237.800, 38.61243
1238.282, 54.75574
1238.764, 30.87958
1239.246, 8.119385
1239.728, 10.59326
1240.210, 22.02942
1240.692, 37.22284
1241.175, 48.48077
1241.657, 42.68686
1242.139, 14.26965
1242.621, 8.841797
1243.103, 26.56070
1243.585, 43.88101
1244.067, 49.97736
1244.549, 47.03717
1245.031, 25.90527
1245.514, 2.728485
1245.996, 0.7342830
1246.478, 22.17560
1246.960, 37.73819
1247.442, 47.07217
1247.924, 53.28879
1248.406, 63.36978
1248.888, 65.38751
1249.370, 39.07373
1249.853, 9.048431
1250.335, 11.81891
1250.817, 45.89514
1251.299, 59.78650
1251.781, 52.84311
1252.263, 48.55063
1252.745, 74.90729
1253.227, 90.73441
1253.710, 65.61639
1254.192, 29.85211
1254.674, 22.67395
1255.156, 40.09320
1255.638, 54.61835
1256.120, 64.80560
1256.602, 73.54019
1257.084, 88.04358
1257.567, 93.46573
1258.049, 80.55133
1258.531, 63.21121
1259.013, 62.19547
1259.495, 73.22064
1259.977, 82.41287
1260.459, 88.34497
1260.941, 89.14532
1261.423, 80.81967
1261.906, 70.35480
1262.388, 56.07703
1262.870, 45.77634
1263.352, 56.62723
1263.834, 78.39575
1264.316, 89.67697
1264.798, 88.21124
1265.280, 73.82013
1265.762, 23.14359
1266.245, 1.206238
1266.727, 28.86172
1267.209, 67.47479
1267.691, 56.95111
1268.173, 24.69864
1268.655, 18.40829
1269.137, 40.53366
1269.619, 55.37671
1270.102, 58.81479
1270.584, 53.70261
1271.066, 38.02972
1271.548, 19.41010
1272.030, 11.32071
1272.512, 10.53604
1272.994, 24.19135
1273.476, 49.64841
1273.958, 65.38928
1274.441, 70.55667
1274.923, 64.80756
1275.405, 44.79263
1275.887, 28.94440
1276.369, 41.87595
1276.851, 64.42426
1277.333, 72.55701
1277.815, 67.35791
1278.297, 63.23026
1278.780, 60.28018
1279.262, 56.98215
1279.744, 53.11469
1280.226, 48.51923
1280.708, 39.40393
1281.190, 32.99213
1281.672, 36.17978
1282.154, 45.89877
1282.637, 52.47763
1283.119, 55.89819
1283.601, 56.61536
1284.083, 55.25427
1284.565, 47.33597
1285.047, 15.36487
1285.529, 6.200775
1286.011, 3.430054
1286.494, 31.12674
1286.976, 38.65921
1287.458, 32.15475
1287.940, 33.66296
1288.422, 49.31021
1288.904, 58.98859
1289.386, 45.94012
1289.868, 39.00906
1290.350, 50.69006
1290.833, 69.35229
1291.315, 72.44052
1291.797, 64.80756
1292.279, 54.71310
1292.761, 43.02673
1293.243, 34.34705
1293.725, 27.71039
1294.207, 28.67688
1294.689, 42.94141
1295.172, 56.36765
1295.654, 43.17886
1296.136, 19.36078
1296.618, 5.969910
1297.100, 7.052307
1297.582, 6.670441
1298.064, 3.279724
1298.546, 9.146393
1299.029, 31.09198
1299.511, 53.92133
1299.993, 62.95123
1300.475, 63.26559
1300.957, 58.64301
1301.439, 50.39316
1301.921, 50.89117
1302.403, 59.55634
1302.885, 57.90704
1303.368, 37.68500
1303.850, 20.08353
1304.332, 27.39691
1304.814, 34.27567
1305.296, 21.47083
1305.778, 2.205017
1306.260, 2.100159
1306.742, 15.29849
1307.224, 21.67236
1307.707, 6.759399
1308.189, 1.9226000E-02
1308.671, 20.94882
1309.153, 42.85706
1309.635, 58.39352
1310.117, 66.37076
1310.599, 57.21408
1311.081, 39.34006
1311.564, 30.76508
1312.046, 32.35379
1312.528, 28.07727
1313.010, 9.298950
1313.492, 9.3627997E-02
1313.974, 10.05643
1314.456, 12.66168
1314.938, 0.0000000E+00
##END=



