##NAMES=Rapidcreekite
##RRUFFID=R070287
##IDEAL CHEMISTRY=Ca_2_(SO_4_)(CO_3_)&#183;4H_2_O
##LOCALITY=Locality 1 (Crosscut Creek), Rapid Creek, Yukon Territory, Canada
##OWNER=RRUFF
##SOURCE=Mark Mauthner
##DESCRIPTION=Radiating aggregate of thin bladed to acicular colorless to white crystals on iron oxide stained quartz crystals.
##STATUS=The identification of this mineral has been confirmed by single-crystal X-ray diffraction.
##URL=rruff.info/R070287
155.9293, 0.0000000E+00
156.4115, 6.710938
156.8936, 11.71729
157.3757, 4.389893
157.8578, 1.200439
158.3399, 15.46338
158.8221, 30.79126
159.3042, 33.24902
159.7863, 17.55981
160.2684, 3.277588
160.7505, 4.983887
161.2326, 7.140137
161.7148, 2.395508
162.1969, 16.48853
162.6790, 39.84424
163.1611, 57.95898
163.6432, 64.88281
164.1253, 68.23145
164.6075, 69.04883
165.0896, 67.24634
165.5717, 71.45117
166.0538, 93.60742
166.5359, 123.5713
167.0180, 146.9185
167.5002, 153.3394
167.9823, 153.9014
168.4644, 154.8975
168.9465, 156.0312
169.4286, 162.7983
169.9107, 186.6997
170.3929, 219.4126
170.8750, 244.2671
171.3571, 242.5249
171.8392, 232.6094
172.3213, 234.6958
172.8034, 252.8359
173.2856, 277.5137
173.7677, 302.6245
174.2498, 327.7905
174.7319, 351.1021
175.2140, 371.8403
175.6961, 389.9702
176.1783, 404.9341
176.6604, 415.5249
177.1425, 424.4209
177.6246, 436.7026
178.1067, 451.1938
178.5888, 461.5786
179.0710, 458.9141
179.5531, 448.5220
180.0352, 441.5962
180.5173, 439.6523
180.9994, 443.6274
181.4815, 457.5259
181.9637, 481.2480
182.4458, 505.7622
182.9279, 521.7798
183.4100, 531.8662
183.8921, 546.5264
184.3742, 572.1016
184.8564, 602.7559
185.3385, 622.1411
185.8206, 629.6758
186.3027, 635.7578
186.7848, 651.7056
187.2669, 676.4097
187.7491, 702.2021
188.2312, 728.5244
188.7133, 753.8384
189.1954, 772.3926
189.6775, 783.3706
190.1596, 790.4580
190.6418, 796.5352
191.1239, 801.6587
191.6060, 809.7910
192.0881, 826.9170
192.5702, 850.8979
193.0524, 862.6733
193.5345, 861.3511
194.0166, 850.1538
194.4987, 830.6035
194.9808, 802.0054
195.4629, 775.4556
195.9451, 755.3394
196.4272, 741.4609
196.9093, 735.3862
197.3914, 739.1035
197.8735, 747.5723
198.3556, 751.4966
198.8378, 750.3945
199.3199, 747.6460
199.8020, 741.4463
200.2841, 730.6719
200.7662, 735.6753
201.2483, 764.0205
201.7305, 802.9150
202.2126, 817.4424
202.6947, 800.5508
203.1768, 785.6118
203.6589, 798.5366
204.1410, 845.4893
204.6232, 873.1553
205.1053, 869.5034
205.5874, 846.7476
206.0695, 849.4326
206.5516, 887.2246
207.0337, 925.0747
207.5159, 936.3804
207.9980, 914.3149
208.4801, 896.9873
208.9622, 889.9341
209.4443, 890.7163
209.9264, 890.6699
210.4086, 888.5435
210.8907, 887.4521
211.3728, 892.9961
211.8549, 911.7461
212.3370, 913.7451
212.8191, 886.8677
213.3013, 836.7588
213.7834, 810.7827
214.2655, 819.8140
214.7476, 838.2505
215.2297, 845.0708
215.7118, 839.2764
216.1940, 824.6240
216.6761, 798.8687
217.1582, 762.6763
217.6403, 732.2202
218.1224, 709.3950
218.6045, 689.9287
219.0867, 670.2563
219.5688, 650.4766
220.0509, 631.1528
220.5330, 613.1880
221.0151, 596.5078
221.4972, 576.8169
221.9794, 551.0874
222.4615, 525.5894
222.9436, 506.8306
223.4257, 496.2847
223.9078, 489.8237
224.3899, 489.2178
224.8721, 495.8315
225.3542, 489.7334
225.8363, 461.7925
226.3184, 429.7920
226.8005, 416.7139
227.2827, 435.9634
227.7648, 448.4077
228.2469, 441.3052
228.7290, 410.7935
229.2111, 390.9917
229.6932, 385.3291
230.1754, 387.7456
230.6575, 391.7305
231.1396, 401.8657
231.6217, 404.9951
232.1038, 394.2939
232.5859, 364.7930
233.0681, 349.1216
233.5502, 354.1616
234.0323, 368.0615
234.5144, 374.3564
234.9965, 372.3169
235.4786, 363.5352
235.9608, 346.8491
236.4429, 320.0059
236.9250, 296.6328
237.4071, 278.5239
237.8892, 262.9102
238.3713, 245.3711
238.8535, 224.9058
239.3356, 204.1787
239.8177, 183.9756
240.2998, 164.3003
240.7819, 144.6235
241.2640, 122.4731
241.7462, 101.5220
242.2283, 88.90723
242.7104, 90.61328
243.1925, 90.82471
243.6746, 84.26709
244.1567, 69.43652
244.6389, 51.94385
245.1210, 27.52881
245.6031, 2.980469
246.0852, 8.594727
246.5673, 0.6865230
247.0494, 9.130859
247.5316, 14.69336
248.0137, 14.48828
248.4958, 15.09277
248.9779, 16.33105
249.4600, 18.46045
249.9421, 22.55176
250.4243, 31.82227
250.9064, 37.38770
251.3885, 34.83057
251.8706, 20.43506
252.3527, 10.26318
252.8348, 4.790039
253.3170, 3.214844
253.7991, 4.895508
254.2812, 12.40381
254.7633, 18.07812
255.2454, 18.03125
255.7275, 9.427734
256.2097, 5.646973
256.6918, 8.033691
257.1739, 14.30273
257.6560, 21.23145
258.1381, 31.06104
258.6202, 36.92578
259.1024, 35.73633
259.5845, 25.82861
260.0666, 14.93896
260.5487, 1.369141
261.0308, 11.65137
261.5129, 18.09570
261.9951, 15.87842
262.4772, 12.61133
262.9593, 11.59717
263.4414, 13.57275
263.9235, 13.45801
264.4056, 10.89648
264.8878, 6.708984
265.3699, 3.263184
265.8520, 3.504395
266.3341, 1.371582
266.8162, 19.34082
267.2983, 55.25879
267.7805, 73.91943
268.2626, 68.28564
268.7447, 51.63232
269.2268, 46.09229
269.7089, 54.65771
270.1910, 64.29150
270.6732, 69.44971
271.1553, 69.18506
271.6374, 70.43311
272.1195, 70.03174
272.6016, 73.10986
273.0837, 86.14502
273.5659, 111.5361
274.0480, 135.3315
274.5301, 152.4858
275.0122, 161.8535
275.4943, 168.8198
275.9764, 172.8428
276.4586, 175.1797
276.9407, 178.0122
277.4228, 182.0303
277.9049, 181.4736
278.3870, 168.4517
278.8691, 144.5083
279.3513, 141.0767
279.8334, 163.4775
280.3155, 192.7109
280.7976, 201.4116
281.2798, 188.4414
281.7619, 175.6182
282.2440, 169.8926
282.7261, 170.9897
283.2082, 179.8989
283.6903, 199.2661
284.1725, 216.7544
284.6546, 213.0264
285.1367, 189.1479
285.6188, 170.6851
286.1009, 167.8481
286.5830, 178.3149
287.0652, 189.9805
287.5473, 203.8232
288.0294, 212.1655
288.5115, 200.0464
288.9936, 170.6177
289.4757, 150.6353
289.9579, 155.4937
290.4400, 174.5454
290.9221, 176.7012
291.4042, 161.0957
291.8863, 142.0420
292.3684, 134.4912
292.8506, 135.7749
293.3327, 134.6611
293.8148, 126.7124
294.2969, 114.8203
294.7790, 103.1167
295.2611, 92.04639
295.7433, 84.52100
296.2254, 86.70166
296.7075, 94.64844
297.1896, 94.17676
297.6717, 73.76318
298.1538, 49.37939
298.6360, 48.80420
299.1181, 70.27832
299.6002, 92.57129
300.0823, 102.5527
300.5644, 101.6494
301.0465, 90.80762
301.5287, 61.26123
302.0108, 33.21436
302.4929, 37.23340
302.9750, 67.75439
303.4571, 92.40283
303.9392, 80.97656
304.4214, 53.25049
304.9035, 36.18359
305.3856, 40.83545
305.8677, 50.82861
306.3498, 52.92871
306.8319, 48.72461
307.3141, 43.08496
307.7962, 34.96484
308.2783, 28.66602
308.7604, 29.96484
309.2425, 44.66650
309.7246, 56.61133
310.2068, 51.46533
310.6889, 34.98975
311.1710, 22.21387
311.6531, 22.00146
312.1352, 27.59668
312.6173, 35.14355
313.0995, 47.29150
313.5816, 53.63525
314.0637, 44.97900
314.5458, 27.94678
315.0279, 14.28271
315.5100, 8.393066
315.9922, 5.650391
316.4743, 4.062500
316.9564, 4.511719
317.4385, 4.657715
317.9206, 1.733398
318.4027, 1.464844
318.8849, 1.200684
319.3670, 11.45020
319.8491, 20.94727
320.3312, 19.86621
320.8133, 5.606445
321.2954, 6.834473
321.7776, 16.41064
322.2597, 22.00049
322.7418, 22.42480
323.2239, 9.195313
323.7060, 1.422852
324.1881, 2.448730
324.6703, 7.454590
325.1524, 10.50391
325.6345, 5.386230
326.1166, 22.94775
326.5987, 28.35547
327.0808, 9.177246
327.5630, 7.763672
328.0451, 23.66309
328.5272, 37.83057
329.0093, 33.30273
329.4914, 11.66748
329.9735, 55.44092
330.4557, 69.11133
330.9378, 29.34814
331.4199, 0.1137700
331.9020, 12.06055
332.3841, 9.874023
332.8662, 4.478027
333.3484, 7.621582
333.8305, 17.53564
334.3126, 18.62646
334.7947, 4.995605
335.2768, 1.796875
335.7589, 15.67041
336.2411, 37.66895
336.7232, 43.46484
337.2053, 27.07178
337.6874, 11.72900
338.1695, 9.507813
338.6516, 22.09424
339.1338, 34.02979
339.6159, 46.73340
340.0980, 55.84619
340.5801, 51.41602
341.0622, 31.96240
341.5443, 12.34570
342.0265, 5.397461
342.5086, 19.92041
342.9907, 15.97168
343.4728, 9.639648
343.9549, 40.94092
344.4370, 60.06055
344.9192, 67.36426
345.4013, 66.41748
345.8834, 53.89062
346.3655, 35.14453
346.8476, 25.76074
347.3297, 26.01562
347.8119, 27.84570
348.2940, 21.65234
348.7761, 10.68604
349.2582, 4.828125
349.7403, 8.272461
350.2225, 16.62402
350.7046, 26.99414
351.1867, 38.56201
351.6688, 43.93945
352.1509, 27.78662
352.6331, 4.635742
353.1152, 1.635254
353.5973, 21.66309
354.0794, 49.12354
354.5615, 57.81396
355.0436, 51.95068
355.5258, 44.38037
356.0079, 39.34912
356.4900, 37.25586
356.9721, 39.75732
357.4542, 49.16260
357.9363, 56.20703
358.4185, 52.46680
358.9006, 43.18848
359.3827, 37.44531
359.8648, 43.74756
360.3469, 50.55664
360.8290, 51.61279
361.3112, 45.75830
361.7933, 38.71973
362.2754, 25.95557
362.7575, 15.29932
363.2396, 15.28271
363.7217, 46.90381
364.2039, 70.23877
364.6860, 69.51709
365.1681, 44.25098
365.6502, 27.53223
366.1323, 29.27441
366.6144, 36.89795
367.0966, 41.83643
367.5787, 45.67383
368.0608, 44.19580
368.5429, 31.12500
369.0250, 10.60547
369.5071, 5.057617
369.9893, 29.37793
370.4714, 51.32910
370.9535, 53.77979
371.4356, 24.11865
371.9177, 3.352539
372.3998, 7.356934
372.8820, 9.235840
373.3641, 3.091797
373.8462, 15.19873
374.3283, 30.68018
374.8104, 36.04834
375.2925, 30.26221
375.7747, 27.13330
376.2568, 26.49072
376.7389, 28.87012
377.2210, 36.47461
377.7031, 49.54053
378.1852, 60.76807
378.6674, 70.18115
379.1495, 75.37598
379.6316, 64.58008
380.1137, 36.24561
380.5958, 8.679688
381.0779, 0.8564450
381.5601, 9.635742
382.0422, 20.23047
382.5243, 29.58154
383.0064, 38.43164
383.4885, 50.42236
383.9706, 64.11279
384.4528, 73.27100
384.9349, 71.90527
385.4170, 63.07959
385.8991, 52.05225
386.3812, 38.66699
386.8633, 27.72314
387.3455, 26.66260
387.8276, 30.50146
388.3097, 33.08740
388.7918, 23.13721
389.2739, 15.52588
389.7560, 27.03760
390.2382, 61.94922
390.7203, 91.13330
391.2024, 96.45117
391.6845, 87.96436
392.1666, 77.87402
392.6487, 60.25635
393.1309, 50.76953
393.6130, 65.00928
394.0951, 99.50879
394.5772, 117.7632
395.0593, 90.01416
395.5414, 56.05225
396.0236, 40.95117
396.5057, 65.35205
396.9878, 88.61133
397.4699, 104.6768
397.9520, 116.5952
398.4341, 133.7305
398.9163, 159.9976
399.3984, 188.3931
399.8805, 216.7197
400.3626, 248.2217
400.8447, 265.4297
401.3268, 260.1528
401.8090, 248.7192
402.2911, 255.8789
402.7732, 287.2959
403.2553, 322.3379
403.7374, 356.4878
404.2195, 389.7368
404.7017, 419.9497
405.1838, 444.3198
405.6659, 475.1719
406.1480, 527.2373
406.6301, 599.6201
407.1122, 656.5391
407.5944, 686.5352
408.0765, 703.5664
408.5586, 742.2036
409.0407, 802.1069
409.5228, 862.3726
410.0049, 904.0537
410.4871, 934.2437
410.9692, 977.0869
411.4513, 1038.705
411.9334, 1103.453
412.4155, 1159.158
412.8976, 1205.844
413.3798, 1241.596
413.8619, 1277.078
414.3440, 1295.664
414.8261, 1279.236
415.3082, 1227.247
415.7903, 1152.371
416.2725, 1047.142
416.7546, 929.2588
417.2367, 816.0947
417.7188, 708.6729
418.2009, 614.9189
418.6830, 544.8442
419.1652, 493.4429
419.6473, 444.9209
420.1294, 388.8169
420.6115, 337.3003
421.0937, 297.0864
421.5758, 273.9863
422.0579, 253.6665
422.5400, 235.7085
423.0221, 219.1221
423.5042, 201.8647
423.9864, 178.7959
424.4685, 161.1299
424.9506, 153.4512
425.4327, 157.0005
425.9148, 154.7803
426.3969, 144.3794
426.8791, 130.5732
427.3612, 117.5791
427.8433, 105.9971
428.3254, 95.15332
428.8075, 81.95703
429.2896, 70.54346
429.7718, 79.97119
430.2539, 115.1548
430.7360, 145.3086
431.2181, 150.0542
431.7002, 131.3911
432.1823, 109.7358
432.6645, 83.69434
433.1466, 61.79492
433.6287, 59.52197
434.1108, 73.47852
434.5929, 87.10107
435.0750, 96.64258
435.5572, 100.0933
436.0393, 87.28418
436.5214, 59.32178
437.0035, 39.63574
437.4856, 60.39941
437.9677, 96.84277
438.4499, 112.4111
438.9320, 88.15967
439.4141, 58.35693
439.8962, 44.12207
440.3783, 42.58301
440.8604, 46.25098
441.3426, 56.90039
441.8247, 67.85010
442.3068, 74.80908
442.7889, 76.35254
443.2710, 78.53760
443.7531, 88.84375
444.2353, 98.30322
444.7174, 97.23633
445.1995, 70.75391
445.6816, 48.38965
446.1637, 35.29688
446.6458, 30.90869
447.1280, 29.50391
447.6101, 32.01025
448.0922, 36.78760
448.5743, 43.26172
449.0564, 52.79883
449.5385, 60.58887
450.0207, 65.99951
450.5028, 70.03564
450.9849, 75.76758
451.4670, 84.45801
451.9491, 87.72168
452.4312, 79.52734
452.9134, 61.99414
453.3955, 52.63037
453.8776, 52.30127
454.3597, 53.94287
454.8418, 52.76611
455.3239, 48.22803
455.8061, 36.37793
456.2882, 11.62891
456.7703, 13.58105
457.2524, 25.82812
457.7345, 24.53027
458.2166, 6.983398
458.6988, 52.19775
459.1809, 116.4736
459.6630, 141.0425
460.1451, 117.9604
460.6272, 87.39502
461.1093, 75.70850
461.5915, 70.95508
462.0736, 58.50830
462.5557, 14.60352
463.0378, 19.29199
463.5199, 21.58838
464.0020, 3.547363
464.4842, 23.90283
464.9663, 24.08203
465.4484, 24.10400
465.9305, 38.44287
466.4126, 80.10840
466.8947, 102.0938
467.3769, 91.05029
467.8590, 68.30371
468.3411, 64.97217
468.8232, 95.92676
469.3053, 121.7632
469.7874, 130.4507
470.2696, 124.5898
470.7517, 114.3237
471.2338, 98.15186
471.7159, 86.54980
472.1980, 93.97705
472.6801, 119.7676
473.1623, 130.4810
473.6444, 116.4370
474.1265, 95.33203
474.6086, 101.1836
475.0907, 130.1763
475.5728, 156.3242
476.0550, 164.2896
476.5371, 162.3931
477.0192, 161.3423
477.5013, 161.4185
477.9834, 167.9790
478.4655, 194.1328
478.9477, 226.5615
479.4298, 247.0586
479.9119, 242.8716
480.3940, 235.2500
480.8761, 234.1855
481.3582, 238.2373
481.8404, 243.2998
482.3225, 242.2109
482.8046, 246.4971
483.2867, 267.0146
483.7688, 314.9878
484.2509, 343.0952
484.7331, 318.8823
485.2152, 287.7251
485.6973, 295.1294
486.1794, 381.6680
486.6615, 436.3799
487.1436, 435.2681
487.6258, 390.6113
488.1079, 360.5762
488.5900, 347.7041
489.0721, 342.8359
489.5542, 341.4902
490.0363, 343.6626
490.5185, 353.6973
491.0006, 372.0176
491.4827, 387.9097
491.9648, 388.1274
492.4470, 376.6582
492.9291, 367.5200
493.4112, 368.0278
493.8933, 371.2754
494.3754, 365.7339
494.8575, 352.5229
495.3397, 338.7275
495.8218, 332.0459
496.3039, 326.0132
496.7860, 310.7461
497.2681, 282.2388
497.7502, 256.4409
498.2324, 248.5034
498.7145, 246.3550
499.1966, 233.7520
499.6787, 185.0264
500.1608, 146.2397
500.6429, 136.9307
501.1251, 154.5977
501.6072, 166.7319
502.0893, 178.1313
502.5714, 177.4463
503.0535, 154.9712
503.5356, 86.89795
504.0178, 56.41016
504.4999, 79.08008
504.9820, 125.5049
505.4641, 153.2227
505.9462, 160.6206
506.4283, 156.6504
506.9105, 139.5327
507.3926, 113.8740
507.8747, 98.28320
508.3568, 93.19189
508.8389, 92.18799
509.3210, 91.92188
509.8032, 92.32666
510.2853, 93.98438
510.7674, 97.64795
511.2495, 99.64111
511.7316, 92.97803
512.2137, 82.01953
512.6959, 75.63379
513.1780, 79.38574
513.6601, 87.35938
514.1422, 101.4062
514.6243, 118.4492
515.1064, 122.0669
515.5886, 97.86719
516.0707, 66.66113
516.5528, 39.08203
517.0349, 12.36523
517.5170, 4.249512
517.9991, 5.374512
518.4813, 2.308594
518.9634, 12.04932
519.4455, 26.11523
519.9276, 38.74512
520.4097, 48.52246
520.8918, 54.18652
521.3740, 56.98486
521.8561, 58.76025
522.3382, 56.66309
522.8203, 43.84424
523.3024, 38.16455
523.7845, 1.048828
524.2667, 21.04297
524.7488, 28.91553
525.2309, 20.00928
525.7130, 4.396973
526.1951, 0.5898440
526.6772, 6.787109
527.1594, 27.93457
527.6415, 12.75195
528.1236, 39.81152
528.6057, 39.26318
529.0878, 35.99609
529.5699, 32.26416
530.0521, 30.56152
530.5342, 32.42090
531.0163, 30.86572
531.4984, 16.52100
531.9805, 0.7177730
532.4626, 4.554199
532.9448, 11.20068
533.4269, 27.18359
533.9090, 43.82617
534.3911, 59.31592
534.8732, 65.47266
535.3553, 59.89111
535.8375, 49.44775
536.3196, 34.36572
536.8017, 13.76270
537.2838, 6.835449
537.7659, 17.03467
538.2480, 29.47900
538.7302, 23.79980
539.2123, 3.642578
539.6944, 5.291992
540.1765, 4.373535
540.6586, 24.30859
541.1407, 50.58984
541.6229, 79.27637
542.1050, 96.83154
542.5871, 92.64795
543.0692, 76.30371
543.5513, 50.84375
544.0334, 16.88086
544.5156, 8.279297
544.9977, 13.03369
545.4798, 7.651367
545.9619, 0.7451170
546.4440, 22.55273
546.9261, 29.84521
547.4083, 1.963379
547.8904, 39.51270
548.3725, 54.65479
548.8546, 27.23145
549.3367, 7.0312999E-02
549.8188, 17.60840
550.3010, 26.16846
550.7831, 28.48096
551.2652, 22.81445
551.7473, 16.67236
552.2294, 15.44336
552.7115, 18.73340
553.1937, 21.04688
553.6758, 7.854492
554.1579, 26.33301
554.6400, 45.49902
555.1221, 50.45020
555.6042, 1.392578
556.0864, 20.10938
556.5685, 12.22168
557.0506, 3.130859
557.5327, 34.96387
558.0148, 8.604492
558.4969, 22.58301
558.9791, 23.93262
559.4612, 38.94238
559.9433, 24.38086
560.4254, 18.95703
560.9075, 43.12109
561.3896, 50.90723
561.8718, 32.95703
562.3539, 48.85449
562.8360, 4.282227
563.3181, 12.78125
563.8002, 44.17773
564.2823, 27.73047
564.7645, 44.18848
565.2466, 48.11719
565.7287, 4.892578
566.2108, 41.13184
566.6929, 44.33105
567.1750, 3.558594
567.6572, 46.20215
568.1393, 11.50098
568.6214, 4.412109
569.1035, 18.10547
569.5856, 10.14160
570.0677, 36.33301
570.5499, 29.62891
571.0320, 19.99023
571.5141, 23.18359
571.9962, 9.967773
572.4783, 24.31934
572.9604, 12.55762
573.4426, 23.70508
573.9247, 40.04785
574.4068, 16.65625
574.8889, 35.29199
575.3710, 11.98145
575.8531, 4.736328
576.3353, 2.924805
576.8174, 34.08887
577.2995, 12.13086
577.7816, 3.743164
578.2637, 5.043945
578.7458, 8.141602
579.2280, 10.52734
579.7101, 15.32520
580.1922, 31.71582
580.6743, 57.24023
581.1564, 75.40820
581.6385, 81.17480
582.1207, 80.88184
582.6028, 86.01367
583.0849, 93.76465
583.5670, 97.75098
584.0491, 82.04199
584.5313, 64.23145
585.0134, 61.69043
585.4955, 81.89941
585.9776, 95.10938
586.4597, 81.18750
586.9418, 59.57910
587.4240, 52.86035
587.9061, 75.00000
588.3882, 91.28809
588.8703, 98.21289
589.3524, 96.86914
589.8345, 87.27051
590.3167, 65.20996
590.7988, 51.90625
591.2809, 60.54980
591.7630, 85.46484
592.2451, 92.95020
592.7272, 82.12891
593.2094, 75.40820
593.6915, 99.82812
594.1736, 139.9062
594.6557, 165.0986
595.1378, 167.6064
595.6199, 165.0195
596.1021, 169.5049
596.5842, 177.3320
597.0663, 183.2109
597.5485, 181.5771
598.0306, 181.6230
598.5127, 184.0801
598.9948, 189.5488
599.4769, 184.6875
599.9590, 219.8809
600.4412, 241.5645
600.9233, 250.4570
601.4054, 208.2393
601.8875, 232.0371
602.3696, 228.8311
602.8517, 224.2910
603.3339, 256.8965
603.8160, 222.0918
604.2981, 254.6348
604.7802, 260.3291
605.2623, 278.3184
605.7444, 267.3926
606.2266, 263.8232
606.7087, 288.5000
607.1908, 299.9512
607.6729, 283.6748
608.1550, 294.2656
608.6371, 295.2773
609.1193, 293.1201
609.6014, 283.7871
610.0835, 277.4688
610.5656, 281.2549
611.0477, 297.5801
611.5298, 307.4873
612.0120, 311.2637
612.4941, 308.7139
612.9762, 298.4023
613.4583, 276.7979
613.9404, 260.0615
614.4225, 249.0576
614.9047, 242.6152
615.3868, 242.4131
615.8689, 247.1465
616.3510, 242.9229
616.8331, 218.4385
617.3152, 191.2324
617.7974, 198.7705
618.2795, 230.1768
618.7616, 243.9277
619.2437, 192.0996
619.7258, 132.5791
620.2079, 113.2637
620.6901, 136.4268
621.1722, 154.9561
621.6543, 151.2061
622.1364, 138.4219
622.6185, 123.7256
623.1006, 101.3037
623.5828, 91.46777
624.0649, 100.9199
624.5470, 117.1719
625.0291, 125.7500
625.5112, 125.6826
625.9933, 122.0156
626.4755, 112.9639
626.9576, 104.4287
627.4397, 114.1670
627.9218, 139.0938
628.4039, 155.6973
628.8860, 144.8408
629.3682, 122.9355
629.8503, 111.3350
630.3324, 109.6670
630.8145, 110.3613
631.2966, 108.2148
631.7787, 107.5137
632.2609, 114.3477
632.7430, 134.7998
633.2251, 141.2344
633.7072, 111.0615
634.1893, 75.96289
634.6714, 64.30664
635.1536, 95.16211
635.6357, 104.8721
636.1178, 79.73633
636.5999, 40.25195
637.0820, 25.65039
637.5641, 37.00781
638.0463, 48.52539
638.5284, 50.55566
639.0105, 48.83496
639.4926, 56.03711
639.9747, 70.80859
640.4568, 84.94824
640.9390, 95.63770
641.4211, 102.2148
641.9032, 103.3086
642.3853, 98.83594
642.8674, 92.77246
643.3495, 84.27441
643.8317, 76.37207
644.3138, 70.62500
644.7959, 62.25195
645.2780, 67.89844
645.7601, 95.97461
646.2422, 129.0391
646.7244, 145.5801
647.2065, 141.3711
647.6886, 143.5127
648.1707, 161.5771
648.6528, 181.3438
649.1349, 164.9727
649.6171, 118.7285
650.0992, 87.22949
650.5813, 100.6162
651.0634, 132.2627
651.5455, 152.7178
652.0276, 164.4189
652.5098, 177.3887
652.9919, 201.6689
653.4740, 225.2979
653.9561, 244.2217
654.4382, 261.2656
654.9203, 259.3467
655.4025, 201.1641
655.8846, 149.3008
656.3667, 150.7305
656.8488, 230.4727
657.3309, 288.4961
657.8130, 319.2656
658.2952, 332.1953
658.7773, 336.6221
659.2594, 333.3057
659.7415, 330.7891
660.2236, 332.0781
660.7057, 333.9170
661.1879, 327.2080
661.6700, 316.6807
662.1521, 315.6621
662.6342, 339.3975
663.1163, 367.3281
663.5984, 388.9229
664.0806, 403.8691
664.5627, 411.3701
665.0448, 401.4727
665.5269, 392.9043
666.0090, 395.5488
666.4911, 412.1357
666.9733, 418.7090
667.4554, 412.5117
667.9375, 401.7646
668.4196, 393.8086
668.9017, 388.3740
669.3839, 377.3369
669.8660, 359.2969
670.3481, 339.0195
670.8302, 318.3086
671.3123, 299.8955
671.7944, 291.7344
672.2766, 308.6797
672.7587, 316.3701
673.2408, 275.5723
673.7229, 212.3623
674.2050, 174.3037
674.6871, 184.1123
675.1693, 209.7393
675.6514, 261.1680
676.1335, 326.4922
676.6156, 337.0752
677.0977, 269.1055
677.5798, 200.3350
678.0620, 163.2461
678.5441, 155.6113
679.0262, 164.8174
679.5083, 192.3232
679.9904, 214.3057
680.4725, 201.1992
680.9547, 172.7588
681.4368, 166.1045
681.9189, 187.4072
682.4010, 212.3271
682.8831, 237.6279
683.3652, 251.7041
683.8474, 240.1602
684.3295, 166.5576
684.8116, 120.2070
685.2937, 142.2471
685.7758, 185.7617
686.2579, 185.6396
686.7401, 117.9561
687.2222, 73.88965
687.7043, 76.83594
688.1864, 107.9434
688.6685, 120.5312
689.1506, 116.9912
689.6328, 106.9775
690.1149, 91.59668
690.5970, 74.30078
691.0791, 55.74219
691.5612, 38.10352
692.0433, 32.63184
692.5255, 61.78027
693.0076, 91.72070
693.4897, 95.42773
693.9718, 67.55566
694.4539, 57.17773
694.9360, 97.52539
695.4182, 132.1953
695.9003, 125.4023
696.3824, 59.87793
696.8645, 30.59473
697.3466, 47.15723
697.8287, 74.74609
698.3109, 73.60059
698.7930, 49.39551
699.2751, 33.19043
699.7572, 32.24805
700.2393, 33.75977
700.7214, 23.46875
701.2036, 6.683594
701.6857, 7.864258
702.1678, 21.77734
702.6499, 27.43457
703.1320, 14.96680
703.6141, 7.735352
704.0963, 20.23145
704.5784, 9.099609
705.0605, 7.937500
705.5426, 33.74219
706.0247, 75.74512
706.5068, 74.15820
706.9890, 26.06055
707.4711, 16.66406
707.9532, 25.11133
708.4353, 8.863281
708.9174, 15.19141
709.3995, 45.33594
709.8817, 63.23633
710.3638, 47.98926
710.8459, 20.10547
711.3280, 7.030273
711.8101, 33.82715
712.2922, 43.36230
712.7744, 14.33105
713.2565, 21.43555
713.7386, 41.95410
714.2207, 38.63086
714.7028, 43.96777
715.1849, 63.94238
715.6671, 82.28906
716.1492, 77.31738
716.6313, 51.28027
717.1134, 30.48828
717.5955, 19.36914
718.0776, 15.32129
718.5598, 21.18457
719.0419, 31.14941
719.5240, 33.51660
720.0061, 12.39355
720.4882, 2.883789
720.9703, 5.896484
721.4525, 29.15527
721.9346, 50.66602
722.4167, 77.07227
722.8988, 90.46387
723.3809, 83.22949
723.8630, 60.90527
724.3452, 43.08301
724.8273, 26.42480
725.3094, 26.49707
725.7915, 65.86914
726.2736, 123.2119
726.7557, 137.7041
727.2379, 114.1768
727.7200, 90.72461
728.2021, 92.59375
728.6842, 104.5635
729.1663, 122.3076
729.6484, 145.9775
730.1306, 143.8975
730.6127, 58.68848
731.0948, 13.91797
731.5769, 15.97461
732.0590, 77.15332
732.5411, 136.8584
733.0233, 156.1670
733.5054, 157.6973
733.9875, 161.0127
734.4696, 165.1445
734.9517, 161.6982
735.4338, 148.8320
735.9160, 133.9482
736.3981, 124.4648
736.8802, 117.8535
737.3623, 110.3037
737.8444, 99.94824
738.3266, 90.15918
738.8087, 77.63867
739.2908, 67.93848
739.7729, 70.16699
740.2551, 95.78711
740.7372, 112.7129
741.2193, 116.6953
741.7014, 110.5830
742.1835, 97.58789
742.6656, 77.65234
743.1478, 61.99414
743.6299, 57.68262
744.1120, 55.56445
744.5941, 31.97656
745.0762, 4.598633
745.5583, 22.62500
746.0405, 18.60156
746.5226, 61.87207
747.0047, 70.52148
747.4868, 51.72070
747.9689, 44.66699
748.4510, 59.09375
748.9332, 75.89746
749.4153, 92.21289
749.8974, 106.8760
750.3795, 103.5771
750.8616, 79.71387
751.3438, 58.14746
751.8259, 55.36523
752.3080, 65.09668
752.7901, 71.01953
753.2722, 73.26074
753.7543, 81.85938
754.2365, 120.8311
754.7186, 156.9980
755.2007, 157.4033
755.6828, 110.2627
756.1649, 77.37793
756.6470, 81.12793
757.1292, 91.02539
757.6113, 87.33691
758.0934, 63.98242
758.5755, 56.32910
759.0576, 67.73145
759.5397, 83.31250
760.0219, 86.56543
760.5040, 81.35645
760.9861, 82.97754
761.4682, 96.66602
761.9503, 99.36230
762.4324, 50.44336
762.9146, 9.865234
763.3967, 32.90820
763.8788, 20.51758
764.3609, 67.05176
764.8430, 95.93652
765.3251, 108.6621
765.8073, 105.0166
766.2894, 81.21094
766.7715, 61.10547
767.2536, 46.98633
767.7357, 38.89844
768.2178, 38.33301
768.7000, 44.21289
769.1821, 51.86133
769.6642, 60.01465
770.1463, 67.30371
770.6284, 75.06348
771.1105, 81.63965
771.5927, 84.86816
772.0748, 78.23828
772.5569, 75.39453
773.0390, 83.85254
773.5211, 97.44434
774.0032, 100.0752
774.4854, 89.72168
774.9675, 75.18750
775.4496, 55.99512
775.9317, 37.03809
776.4138, 35.80078
776.8959, 48.26465
777.3781, 52.85254
777.8602, 19.49316
778.3423, 11.62988
778.8244, 4.493164
779.3065, 55.60645
779.7886, 89.53809
780.2708, 82.18848
780.7529, 62.41895
781.2350, 29.87988
781.7171, 10.52832
782.1992, 5.124023
782.6813, 60.15820
783.1635, 114.9375
783.6456, 116.1807
784.1277, 80.26953
784.6098, 59.65137
785.0919, 53.25879
785.5740, 49.46387
786.0562, 36.70020
786.5383, 26.21973
787.0204, 30.32031
787.5025, 49.57422
787.9846, 64.87207
788.4667, 74.32129
788.9489, 74.67578
789.4310, 60.38477
789.9131, 31.48340
790.3952, 31.42773
790.8773, 64.24805
791.3594, 101.6943
791.8416, 127.6475
792.3237, 140.4766
792.8058, 130.1904
793.2879, 96.69434
793.7700, 64.29004
794.2521, 45.02441
794.7343, 37.37500
795.2164, 41.20312
795.6985, 58.59570
796.1806, 80.10840
796.6627, 114.7607
797.1448, 142.2754
797.6270, 146.7041
798.1091, 124.4727
798.5912, 109.2412
799.0733, 102.2344
799.5554, 95.55957
800.0375, 82.90234
800.5197, 64.88672
801.0018, 38.35156
801.4839, 0.7558590
801.9660, 25.60156
802.4481, 17.65332
802.9302, 0.8027340
803.4124, 10.14453
803.8945, 7.432617
804.3766, 1.622070
804.8587, 16.75977
805.3408, 25.71191
805.8229, 5.480469
806.3051, 76.38379
806.7872, 112.3477
807.2693, 103.5117
807.7514, 81.42090
808.2335, 78.84766
808.7156, 84.33398
809.1978, 78.49219
809.6799, 52.14551
810.1620, 31.80176
810.6441, 33.36621
811.1262, 43.44727
811.6083, 48.56934
812.0905, 43.90723
812.5726, 45.42871
813.0547, 56.20508
813.5368, 67.75684
814.0189, 68.54785
814.5010, 60.55176
814.9832, 53.89453
815.4653, 49.07617
815.9474, 51.44629
816.4295, 81.48340
816.9116, 115.1113
817.3937, 119.3730
817.8759, 62.83691
818.3580, 23.07617
818.8401, 24.84277
819.3222, 45.56543
819.8043, 69.33105
820.2864, 101.3076
820.7686, 107.7725
821.2507, 80.40137
821.7328, 46.76855
822.2149, 36.45410
822.6970, 41.56934
823.1791, 40.37695
823.6613, 24.15234
824.1434, 13.93066
824.6255, 32.42969
825.1076, 61.32715
825.5897, 79.90234
826.0718, 75.90625
826.5540, 73.70801
827.0361, 73.89062
827.5182, 75.40918
828.0003, 78.29492
828.4824, 82.45312
828.9645, 81.50879
829.4467, 73.67480
829.9288, 64.20703
830.4109, 58.63867
830.8930, 55.59961
831.3751, 53.47656
831.8572, 53.78320
832.3394, 50.48828
832.8215, 33.40234
833.3036, 16.17383
833.7857, 15.26465
834.2678, 41.00293
834.7499, 51.67090
835.2321, 41.34570
835.7142, 23.32910
836.1963, 11.20117
836.6784, 6.181641
837.1605, 3.139648
837.6426, 0.9833980
838.1248, 5.312500
838.6069, 45.70410
839.0890, 94.49121
839.5711, 121.4512
840.0532, 114.5312
840.5353, 99.72070
841.0175, 68.16406
841.4996, 39.11328
841.9817, 38.00293
842.4638, 66.63184
842.9459, 75.21777
843.4280, 56.38477
843.9102, 31.33691
844.3923, 21.08105
844.8744, 20.97266
845.3565, 25.88281
845.8386, 38.33105
846.3207, 42.30664
846.8029, 15.87793
847.2850, 11.77637
847.7671, 13.85059
848.2492, 23.43457
848.7313, 50.22852
849.2134, 66.25195
849.6956, 71.93066
850.1777, 63.77148
850.6598, 45.43945
851.1419, 25.72754
851.6240, 4.073242
852.1061, 1.592773
852.5883, 45.15332
853.0704, 98.83789
853.5525, 117.7178
854.0346, 84.90137
854.5167, 55.58496
854.9988, 29.72559
855.4810, 12.38477
855.9631, 8.191406
856.4452, 17.32617
856.9273, 32.87793
857.4094, 55.52734
857.8915, 72.47754
858.3737, 65.47461
858.8558, 49.40918
859.3379, 41.39258
859.8200, 42.43750
860.3021, 52.09082
860.7842, 81.84473
861.2664, 109.3115
861.7485, 123.5752
862.2306, 124.8057
862.7127, 103.6631
863.1948, 53.43848
863.6769, 15.14648
864.1591, 20.29297
864.6412, 54.13379
865.1233, 86.26172
865.6054, 115.4092
866.0875, 137.1660
866.5696, 156.3428
867.0518, 161.4375
867.5339, 137.9707
868.0160, 83.24316
868.4981, 45.82617
868.9802, 27.68555
869.4623, 23.89453
869.9445, 34.68652
870.4266, 55.15430
870.9087, 71.19043
871.3908, 83.44531
871.8729, 97.18066
872.3550, 127.1650
872.8372, 147.9863
873.3193, 129.7178
873.8014, 79.07910
874.2835, 36.85059
874.7656, 6.702148
875.2477, 6.670898
875.7299, 4.429688
876.2120, 31.97461
876.6941, 43.45312
877.1762, 39.54883
877.6583, 37.36035
878.1404, 46.64453
878.6226, 56.67090
879.1047, 53.75879
879.5869, 41.42480
880.0690, 28.58008
880.5511, 6.044922
881.0332, 1.752930
881.5153, 22.92383
881.9974, 63.41699
882.4796, 87.56152
882.9617, 93.62598
883.4438, 92.15723
883.9259, 83.92871
884.4080, 72.73926
884.8901, 57.54688
885.3723, 44.59375
885.8544, 51.20996
886.3365, 107.1758
886.8186, 144.5186
887.3007, 110.2510
887.7828, 48.87305
888.2650, 23.96289
888.7471, 52.41211
889.2292, 75.72070
889.7113, 90.43652
890.1934, 95.96191
890.6755, 88.61621
891.1577, 71.50879
891.6398, 52.61426
892.1219, 32.08496
892.6040, 17.78613
893.0861, 20.27344
893.5682, 28.82031
894.0504, 33.68457
894.5325, 33.40234
895.0146, 28.54004
895.4967, 15.70605
895.9788, 4.541992
896.4609, 2.437500
896.9431, 8.732422
897.4252, 24.10156
897.9073, 49.67969
898.3894, 69.51562
898.8715, 58.90430
899.3536, 45.36719
899.8358, 61.03027
900.3179, 113.2148
900.8000, 136.2549
901.2821, 107.1055
901.7642, 73.00391
902.2463, 52.23242
902.7285, 44.61719
903.2106, 53.79102
903.6927, 78.66406
904.1748, 92.74512
904.6569, 59.68555
905.1390, 21.24805
905.6212, 28.08105
906.1033, 71.24609
906.5854, 103.4014
907.0675, 108.0146
907.5496, 103.7871
908.0317, 95.73828
908.5139, 81.87695
908.9960, 47.42480
909.4781, 7.724609
909.9602, 39.69043
910.4423, 26.35645
910.9244, 7.610352
911.4066, 43.99609
911.8887, 77.45996
912.3708, 98.61230
912.8529, 103.2539
913.3350, 94.84863
913.8171, 61.07910
914.2993, 24.55664
914.7814, 18.00293
915.2635, 43.83789
915.7456, 68.89160
916.2277, 89.41406
916.7098, 104.3848
917.1920, 110.3867
917.6741, 110.7666
918.1562, 111.4717
918.6383, 116.2373
919.1204, 111.9844
919.6025, 87.12695
920.0847, 57.83398
920.5668, 30.70801
921.0489, 2.202148
921.5310, 6.473633
922.0131, 46.58496
922.4952, 93.07617
922.9774, 136.7959
923.4595, 164.4961
923.9416, 142.8545
924.4237, 74.55176
924.9058, 23.07715
925.3879, 33.18164
925.8701, 45.13379
926.3522, 27.61621
926.8343, 12.90039
927.3164, 17.58496
927.7985, 18.46484
928.2806, 43.97266
928.7628, 22.75195
929.2449, 10.76270
929.7270, 9.554688
930.2091, 62.58984
930.6912, 91.69336
931.1733, 39.89648
931.6555, 0.1269530
932.1376, 14.34473
932.6197, 51.59570
933.1018, 58.99707
933.5839, 33.16797
934.0660, 9.020508
934.5482, 8.988281
935.0303, 18.15625
935.5124, 11.85645
935.9945, 4.744141
936.4766, 23.87109
936.9587, 47.82812
937.4409, 63.42188
937.9230, 62.38574
938.4051, 54.23633
938.8872, 44.84375
939.3693, 33.26172
939.8514, 29.57227
940.3336, 34.68164
940.8157, 41.04004
941.2978, 42.23633
941.7799, 40.87109
942.2620, 38.80957
942.7441, 36.64355
943.2263, 40.70703
943.7084, 61.32520
944.1905, 80.26270
944.6726, 89.65918
945.1547, 91.02441
945.6368, 95.11914
946.1190, 102.5029
946.6011, 103.4932
947.0832, 89.69434
947.5653, 71.67383
948.0474, 63.88184
948.5295, 62.90723
949.0117, 60.75293
949.4938, 47.34766
949.9759, 42.43066
950.4580, 54.62109
950.9401, 73.04102
951.4222, 79.82910
951.9044, 74.74707
952.3865, 76.69434
952.8686, 91.50000
953.3507, 100.3027
953.8328, 75.43555
954.3149, 36.11133
954.7971, 5.068359
955.2792, 13.48047
955.7613, 21.11230
956.2434, 16.52734
956.7255, 3.526367
957.2076, 18.70801
957.6898, 49.81152
958.1719, 74.55469
958.6540, 93.08594
959.1361, 102.3359
959.6182, 99.75488
960.1003, 87.53027
960.5825, 59.52539
961.0646, 20.69043
961.5467, 0.8085940
962.0288, 10.31055
962.5109, 23.88672
962.9930, 33.11621
963.4752, 40.14941
963.9573, 52.30957
964.4394, 67.87988
964.9215, 76.80762
965.4036, 74.14551
965.8857, 67.04102
966.3679, 59.97559
966.8500, 52.52734
967.3321, 43.12793
967.8142, 24.51465
968.2963, 17.18457
968.7784, 25.44922
969.2606, 37.58887
969.7427, 44.84668
970.2248, 47.38184
970.7069, 39.05762
971.1890, 19.78125
971.6711, 19.06543
972.1533, 89.75977
972.6354, 157.6719
973.1175, 160.6318
973.5996, 99.13184
974.0817, 73.95117
974.5638, 97.22852
975.0460, 111.5352
975.5281, 78.17188
976.0102, 34.65820
976.4923, 84.68262
976.9744, 195.4883
977.4565, 265.7363
977.9387, 204.8271
978.4208, 143.2578
978.9029, 125.8418
979.3850, 135.0244
979.8671, 148.7676
980.3492, 164.6611
980.8314, 194.3154
981.3135, 244.5264
981.7956, 283.5664
982.2777, 261.4551
982.7598, 213.3613
983.2419, 189.5986
983.7241, 199.4717
984.2062, 220.6025
984.6883, 244.7969
985.1704, 271.2295
985.6525, 305.5254
986.1346, 345.8223
986.6168, 367.1475
987.0989, 369.4990
987.5810, 381.4092
988.0631, 420.9404
988.5452, 473.5186
989.0273, 514.7158
989.5095, 557.7793
989.9916, 638.5186
990.4737, 792.4307
990.9558, 937.8350
991.4379, 1055.247
991.9200, 1172.478
992.4022, 1336.788
992.8843, 1538.111
993.3664, 1735.709
993.8485, 1916.127
994.3306, 2119.753
994.8127, 2409.097
995.2949, 2711.210
995.7770, 2946.601
996.2591, 3094.363
996.7412, 3317.704
997.2233, 3633.102
997.7054, 3949.760
998.1876, 4204.059
998.6697, 4424.243
999.1518, 4686.188
999.6339, 4978.435
1000.116, 5254.856
1000.598, 5565.751
1001.080, 5769.447
1001.562, 5833.977
1002.044, 5759.181
1002.527, 5515.906
1003.009, 5099.158
1003.491, 4598.881
1003.973, 4024.068
1004.455, 3437.495
1004.937, 2881.031
1005.419, 2377.325
1005.901, 1970.025
1006.384, 1683.797
1006.866, 1425.826
1007.348, 1172.774
1007.830, 961.9102
1008.312, 829.2832
1008.794, 759.4570
1009.276, 648.6973
1009.758, 504.3281
1010.240, 383.4463
1010.723, 328.2432
1011.205, 298.3184
1011.687, 274.5029
1012.169, 256.3682
1012.651, 242.9277
1013.133, 231.6797
1013.615, 232.1602
1014.097, 253.1475
1014.580, 269.6885
1015.062, 229.8652
1015.544, 163.7305
1016.026, 136.0840
1016.508, 167.6592
1016.990, 185.7500
1017.472, 138.7119
1017.954, 90.96289
1018.436, 83.10254
1018.919, 112.6416
1019.401, 122.5312
1019.883, 113.3389
1020.365, 96.77344
1020.847, 68.57031
1021.329, 45.53516
1021.811, 50.16895
1022.293, 72.76172
1022.776, 89.62402
1023.258, 95.93652
1023.740, 96.45801
1024.222, 90.93750
1024.704, 80.91699
1025.186, 65.60059
1025.668, 47.52344
1026.150, 35.79395
1026.632, 31.75488
1027.115, 32.09375
1027.597, 42.57324
1028.079, 50.05176
1028.561, 40.34082
1029.043, 14.93945
1029.525, 14.33789
1030.007, 41.85449
1030.489, 66.22168
1030.972, 69.55762
1031.454, 65.74414
1031.936, 81.71875
1032.418, 104.7852
1032.900, 107.6201
1033.382, 62.85547
1033.864, 21.41016
1034.346, 22.17480
1034.828, 46.83496
1035.311, 8.601563
1035.793, 77.52344
1036.275, 96.63867
1036.757, 39.33496
1037.239, 7.739258
1037.721, 42.45898
1038.203, 102.8486
1038.685, 104.3193
1039.167, 52.37793
1039.650, 30.76953
1040.132, 49.79883
1040.614, 52.21973
1041.096, 9.250000
1041.578, 43.80859
1042.060, 46.88379
1042.542, 19.04980
1043.024, 4.277344
1043.507, 10.85449
1043.989, 15.10156
1044.471, 13.02930
1044.953, 17.25195
1045.435, 45.46484
1045.917, 93.96875
1046.399, 108.7227
1046.881, 90.30664
1047.364, 73.05273
1047.846, 86.08008
1048.328, 102.7988
1048.810, 106.4062
1049.292, 97.74609
1049.774, 84.71582
1050.256, 65.11816
1050.738, 49.90918
1051.220, 42.10547
1051.703, 37.86328
1052.185, 34.94043
1052.667, 30.80078
1053.149, 18.46973
1053.631, 7.487305
1054.113, 21.83984
1054.595, 11.85254
1055.077, 5.078125
1055.559, 27.01074
1056.042, 49.44336
1056.524, 31.81934
1057.006, 19.97461
1057.488, 57.70703
1057.970, 44.23828
1058.452, 19.69043
1058.934, 6.413086
1059.416, 1.1719000E-02
1059.899, 8.338867
1060.381, 19.94727
1060.863, 30.73535
1061.345, 41.62598
1061.827, 46.29004
1062.309, 26.27441
1062.791, 1.871094
1063.273, 8.188477
1063.755, 47.37891
1064.238, 80.95996
1064.720, 102.9541
1065.202, 110.6504
1065.684, 96.07715
1066.166, 71.44629
1066.648, 76.62012
1067.130, 104.3936
1067.612, 121.1797
1068.094, 111.9277
1068.577, 99.76953
1069.059, 98.61328
1069.541, 101.3066
1070.023, 99.80566
1070.505, 91.87598
1070.987, 87.72363
1071.469, 85.20117
1071.951, 106.6572
1072.434, 186.4473
1072.916, 285.1211
1073.398, 356.5557
1073.880, 407.4932
1074.362, 462.5342
1074.844, 506.8174
1075.326, 593.1240
1075.808, 737.0420
1076.291, 911.3340
1076.773, 1087.388
1077.255, 1262.927
1077.737, 1419.168
1078.219, 1549.542
1078.701, 1704.229
1079.183, 1936.770
1079.665, 2168.563
1080.147, 2356.860
1080.630, 2511.109
1081.112, 2693.181
1081.594, 2902.366
1082.076, 3123.886
1082.558, 3381.146
1083.040, 3592.860
1083.522, 3710.629
1084.004, 3727.868
1084.486, 3628.688
1084.969, 3405.651
1085.451, 3077.678
1085.933, 2620.758
1086.415, 2160.330
1086.897, 1779.857
1087.379, 1467.446
1087.861, 1206.400
1088.343, 995.3008
1088.826, 829.8916
1089.308, 727.6631
1089.790, 652.4688
1090.272, 599.6494
1090.754, 566.9424
1091.236, 556.7490
1091.718, 564.6172
1092.200, 570.9785
1092.682, 574.0547
1093.165, 569.7607
1093.647, 539.7217
1094.129, 508.8496
1094.611, 497.3848
1095.093, 500.1631
1095.575, 484.0273
1096.057, 447.4473
1096.539, 408.5322
1097.022, 368.0117
1097.504, 341.2051
1097.986, 365.0420
1098.468, 403.7832
1098.950, 404.8584
1099.432, 334.7119
1099.914, 289.1025
1100.396, 275.3154
1100.879, 272.3799
1101.361, 265.6484
1101.843, 257.8506
1102.325, 256.9365
1102.807, 260.2080
1103.289, 257.4736
1103.771, 244.3750
1104.253, 225.0410
1104.735, 199.9307
1105.218, 169.7061
1105.700, 132.9961
1106.182, 91.59961
1106.664, 50.88867
1107.146, 10.80176
1107.628, 8.548828
1108.110, 20.54297
1108.592, 58.42188
1109.074, 86.13281
1109.557, 103.8584
1110.039, 111.3740
1110.521, 108.7148
1111.003, 96.55176
1111.485, 70.71582
1111.967, 46.74609
1112.449, 40.11816
1112.931, 46.04102
1113.414, 61.81934
1113.896, 91.46387
1114.378, 104.9629
1114.860, 98.45508
1115.342, 85.24414
1115.824, 76.90430
1116.306, 70.44629
1116.788, 50.68750
1117.271, 27.97949
1117.753, 26.01660
1118.235, 86.82910
1118.717, 113.7471
1119.199, 86.47754
1119.681, 52.18066
1120.163, 61.27734
1120.645, 100.3086
1121.127, 132.7373
1121.609, 156.8213
1122.092, 173.5596
1122.574, 167.9346
1123.056, 174.0234
1123.538, 204.8799
1124.020, 251.3809
1124.502, 300.6787
1124.984, 351.1113
1125.466, 389.1895
1125.949, 411.7432
1126.431, 422.3721
1126.913, 413.0078
1127.395, 401.3789
1127.877, 404.2744
1128.359, 418.5566
1128.841, 413.8838
1129.323, 389.0156
1129.806, 367.3955
1130.288, 359.3096
1130.770, 354.1797
1131.252, 344.9854
1131.734, 330.5459
1132.216, 307.9121
1132.698, 272.5840
1133.180, 244.2920
1133.662, 223.1250
1134.145, 209.2324
1134.627, 204.8047
1135.109, 206.1445
1135.591, 216.6680
1136.073, 227.8262
1136.555, 217.7119
1137.037, 153.2500
1137.519, 105.3848
1138.001, 75.44629
1138.484, 69.13184
1138.966, 115.9121
1139.448, 185.0986
1139.930, 186.9707
1140.412, 126.0068
1140.894, 86.18848
1141.376, 134.6035
1141.858, 168.4336
1142.341, 152.0625
1142.823, 113.6035
1143.305, 102.9404
1143.787, 112.9727
1144.269, 109.7500
1144.751, 86.28223
1145.233, 64.36719
1145.715, 55.29004
1146.198, 53.78613
1146.680, 61.33691
1147.162, 74.32227
1147.644, 69.29395
1148.126, 47.55859
1148.608, 27.27832
1149.090, 13.52246
1149.572, 3.991211
1150.054, 6.527344
1150.536, 10.95801
1151.019, 0.1220700
1151.501, 27.50098
1151.983, 45.64062
1152.465, 54.23828
1152.947, 62.43066
1153.429, 75.52539
1153.911, 89.48047
1154.393, 104.0098
1154.876, 115.8516
1155.358, 117.3096
1155.840, 99.92969
1156.322, 101.4238
1156.804, 126.9424
1157.286, 146.8271
1157.768, 133.3418
1158.250, 103.1572
1158.733, 62.81641
1159.215, 22.63086
1159.697, 20.85938
1160.179, 91.24902
1160.661, 133.5332
1161.143, 128.9717
1161.625, 114.6533
1162.107, 142.3496
1162.589, 185.7178
1163.072, 198.2197
1163.554, 177.9443
1164.036, 155.7061
1164.518, 124.6152
1165.000, 119.4766
1165.482, 158.6025
1165.964, 212.0195
1166.446, 221.1221
1166.928, 202.3945
1167.411, 196.8008
1167.893, 211.4395
1168.375, 219.0254
1168.857, 201.0498
1169.339, 191.4434
1169.821, 210.0215
1170.303, 240.2148
1170.785, 229.3330
1171.268, 189.3740
1171.750, 159.0771
1172.232, 151.4209
1172.714, 153.3438
1173.196, 181.4326
1173.678, 195.2168
1174.160, 158.8574
1174.642, 84.78125
1175.125, 62.70898
1175.607, 84.47852
1176.089, 106.4199
1176.571, 108.8047
1177.053, 107.6846
1177.535, 105.1279
1178.017, 102.0566
1178.499, 101.3770
1178.981, 103.1074
1179.464, 109.6709
1179.946, 120.3135
1180.428, 123.0078
1180.910, 91.92383
1181.392, 70.80078
1181.874, 104.4482
1182.356, 151.9678
1182.838, 144.2207
1183.320, 78.54395
1183.803, 36.61914
1184.285, 25.03320
1184.767, 28.60938
1185.249, 40.71582
1185.731, 59.14258
1186.213, 96.07129
1186.695, 135.6895
1187.177, 127.6885
1187.660, 67.48340
1188.142, 27.76074
1188.624, 20.93945
1189.106, 32.80566
1189.588, 72.01465
1190.070, 107.3115
1190.552, 108.1826
1191.034, 78.68945
1191.516, 54.24609
1191.999, 34.19629
1192.481, 28.06738
1192.963, 42.50098
1193.445, 54.93652
1193.927, 28.11621
1194.409, 2.075195
1194.891, 10.62695
1195.373, 69.99316
1195.855, 86.38184
1196.338, 54.43262
1196.820, 28.18555
1197.302, 34.07031
1197.784, 43.24609
1198.266, 12.92383
1198.748, 26.85742
1199.230, 34.11426
1199.712, 2.051758
1200.195, 24.09961
1200.677, 30.78613
1201.159, 32.18750
1201.641, 34.63965
1202.123, 33.17285
1202.605, 8.018555
1203.087, 19.90625
1203.569, 11.52441
1204.052, 62.60449
1204.534, 88.78027
1205.016, 60.05078
1205.498, 26.00391
1205.980, 23.04590
1206.462, 31.33984
1206.944, 28.61328
1207.426, 19.14941
1207.908, 13.44043
1208.391, 15.80176
1208.873, 10.65820
1209.355, 4.797852
1209.837, 16.92969
1210.319, 15.73926
1210.801, 3.713867
1211.283, 23.56934
1211.765, 59.74121
1212.247, 81.68164
1212.730, 83.98242
1213.212, 86.14746
1213.694, 90.97168
1214.176, 91.80273
1214.658, 71.34766
1215.140, 51.66602
1215.622, 65.96973
1216.104, 106.7471
1216.587, 121.9814
1217.069, 100.6641
1217.551, 83.29395
1218.033, 77.43262
1218.515, 72.55859
1218.997, 45.59082
1219.479, 20.82227
1219.961, 31.05957
1220.443, 76.21484
1220.926, 116.3398
1221.408, 157.5693
1221.890, 162.2734
1222.372, 107.4785
1222.854, 43.90332
1223.336, 37.31445
1223.818, 48.61328
1224.300, 24.92480
1224.782, 40.81250
1225.265, 62.32617
1225.747, 29.70508
1226.229, 0.6669920
1226.711, 4.554688
1227.193, 6.201172
1227.675, 35.18164
1228.157, 70.89746
1228.639, 87.01172
1229.122, 78.83008
1229.604, 73.19727
1230.086, 70.23145
1230.568, 69.08301
1231.050, 70.33105
1231.532, 71.32812
1232.014, 73.06152
1232.496, 70.47070
1232.979, 53.97754
1233.461, 20.49121
1233.943, 3.978516
1234.425, 20.93652
1234.907, 9.044922
1235.389, 64.16895
1235.871, 134.2354
1236.353, 124.2695
1236.835, 81.02734
1237.318, 69.62793
1237.800, 99.91309
1238.282, 100.5430
1238.764, 69.89160
1239.246, 45.03027
1239.728, 44.75098
1240.210, 58.09375
1240.692, 89.22070
1241.175, 120.4795
1241.657, 126.5186
1242.139, 102.8291
1242.621, 82.30273
1243.103, 64.78027
1243.585, 50.98438
1244.067, 36.64844
1244.549, 30.79688
1245.031, 42.80371
1245.514, 65.91113
1245.996, 94.95410
1246.478, 133.3857
1246.960, 126.4834
1247.442, 76.18066
1247.924, 39.91016
1248.406, 69.95020
1248.888, 107.5771
1249.370, 127.9551
1249.853, 132.0410
1250.335, 114.0439
1250.817, 75.67480
1251.299, 77.30469
1251.781, 118.3037
1252.263, 150.7783
1252.745, 135.5596
1253.227, 113.9072
1253.710, 105.0820
1254.192, 101.1035
1254.674, 90.63477
1255.156, 74.63184
1255.638, 92.07422
1256.120, 138.3740
1256.602, 164.8916
1257.084, 125.0557
1257.567, 84.90918
1258.049, 60.29688
1258.531, 49.25781
1259.013, 64.06641
1259.495, 95.30859
1259.977, 117.8877
1260.459, 129.2354
1260.941, 125.5098
1261.423, 77.78418
1261.906, 52.76758
1262.388, 68.12891
1262.870, 106.4883
1263.352, 160.9482
1263.834, 213.3936
1264.316, 205.5781
1264.798, 139.4053
1265.280, 103.2393
1265.762, 142.2842
1266.245, 172.6230
1266.727, 198.5459
1267.209, 206.8301
1267.691, 173.4326
1268.173, 122.9092
1268.655, 100.2490
1269.137, 107.2725
1269.619, 104.0791
1270.102, 79.93164
1270.584, 57.16309
1271.066, 51.20996
1271.548, 49.85059
1272.030, 27.48535
1272.512, 4.792969
1272.994, 8.545898
1273.476, 40.06250
1273.958, 74.37305
1274.441, 113.4385
1274.923, 139.7148
1275.405, 148.1592
1275.887, 146.7920
1276.369, 139.3047
1276.851, 130.1729
1277.333, 132.0293
1277.815, 138.5361
1278.297, 94.71973
1278.780, 4.153320
1279.262, 33.91797
1279.744, 45.97266
1280.226, 124.8613
1280.708, 99.39746
1281.190, 51.76270
1281.672, 37.15527
1282.154, 50.69238
1282.637, 82.32324
1283.119, 128.5488
1283.601, 151.9424
1284.083, 142.6396
1284.565, 127.4873
1285.047, 114.0283
1285.529, 110.2676
1286.011, 126.8975
1286.494, 150.0098
1286.976, 126.9951
1287.458, 75.66016
1287.940, 62.64941
1288.422, 107.2617
1288.904, 141.6973
1289.386, 133.0371
1289.868, 115.4922
1290.350, 103.7627
1290.833, 96.50781
1291.315, 100.0771
1291.797, 109.4385
1292.279, 116.6719
1292.761, 117.1836
1293.243, 92.78906
1293.725, 47.10547
1294.207, 32.36328
1294.689, 84.55859
1295.172, 142.8145
1295.654, 95.34766
1296.136, 12.24121
1296.618, 6.364258
1297.100, 61.09766
1297.582, 91.27832
1298.064, 77.72168
1298.546, 70.60059
1299.029, 90.03613
1299.511, 105.6719
1299.993, 73.92090
1300.475, 32.62305
1300.957, 21.14941
1301.439, 34.87891
1301.921, 40.18945
1302.403, 54.24902
1302.885, 58.68359
1303.368, 49.68066
1303.850, 35.45605
1304.332, 16.13770
1304.814, 2.213867
1305.296, 0.2705080
1305.778, 5.614258
1306.260, 0.0000000E+00
##END=



