##NAMES=Raygrantite
##RRUFFID=R120151
##IDEAL CHEMISTRY=Pb_10_Zn(SO_4_)_6_(SiO_4_)_2_(OH)_2_
##LOCALITY=Evening Star mine, Tiger Wash, Belmont Mountain, Tonopah, Osborn District, Big Horn Mts, Maricopa Co., Arizona, USA
##OWNER=RRUFF
##SOURCE=Ron Gibbs and Bob Jenkins
##DESCRIPTION=Colorless bladed crystals associated with anglesite and galena, type sample
##STATUS=The identification of this mineral is confirmed by single-crystal X-ray diffraction and chemical analysis.
##URL=rruff.info/R120151
##MEASURED CHEMISTRY=Pb_9.81_Zn_0.93_(S_1.00_O_4_)_6_(Si_1.05_O_4_)_2_(OH)_2_
160.6243, 0.0000000E+00
161.1065, 0.5853040
161.5886, 0.3881000
162.0707, 0.1214680
162.5528, 0.4049910
163.0349, 1.094353
163.5170, 1.409126
163.9991, 1.382660
164.4813, 1.413589
164.9634, 1.817924
165.4455, 2.427437
165.9276, 2.849991
166.4097, 2.908485
166.8918, 2.867607
167.3740, 3.043831
167.8561, 3.477768
168.3382, 3.924927
168.8203, 4.310921
169.3024, 4.608170
169.7845, 4.732094
170.2667, 4.520645
170.7488, 4.190613
171.2309, 4.329651
171.7130, 5.341980
172.1951, 6.065399
172.6772, 5.941887
173.1594, 5.322334
173.6415, 4.698860
174.1236, 4.377808
174.6057, 4.288933
175.0878, 3.997910
175.5699, 3.189178
176.0521, 2.530846
176.5342, 2.296158
177.0163, 2.330795
177.4984, 2.363396
177.9805, 2.195297
178.4626, 1.823647
178.9448, 1.449150
179.4269, 0.8641970
179.9090, 0.4756090
180.3911, 0.4670940
180.8732, 0.7737430
181.3553, 1.210541
181.8375, 1.614876
182.3196, 1.965004
182.8017, 2.518097
183.2838, 3.343651
183.7659, 4.256363
184.2480, 5.192139
184.7301, 6.135368
185.2123, 7.077682
185.6944, 8.007690
186.1765, 8.922829
186.6586, 9.832016
187.1407, 10.65240
187.6228, 11.51708
188.1050, 12.55594
188.5871, 13.77324
189.0692, 15.03030
189.5513, 16.18788
190.0334, 17.24558
190.5155, 18.34396
190.9977, 19.60610
191.4798, 20.86269
191.9619, 21.94276
192.4440, 22.82958
192.9261, 23.53283
193.4082, 23.87864
193.8904, 23.99584
194.3725, 24.31326
194.8546, 25.24231
195.3367, 26.41620
195.8188, 27.07616
196.3009, 27.02811
196.7831, 26.74415
197.2652, 26.59368
197.7473, 26.50767
198.2294, 26.30412
198.7115, 25.85399
199.1936, 25.19759
199.6758, 24.49960
200.1579, 23.68463
200.6400, 22.94357
201.1221, 22.45551
201.6042, 22.12536
202.0863, 21.73077
202.5685, 21.15781
203.0506, 20.40161
203.5327, 19.39129
204.0148, 17.83513
204.4969, 16.31872
204.9790, 15.07524
205.4612, 14.06078
205.9433, 13.13130
206.4254, 12.21037
206.9075, 11.30574
207.3896, 10.25194
207.8717, 8.678902
208.3539, 7.289680
208.8360, 6.373573
209.3181, 5.856979
209.8002, 5.508972
210.2823, 5.160156
210.7644, 4.842606
211.2466, 4.262398
211.7287, 2.979843
212.2108, 1.868706
212.6929, 1.356178
213.1750, 1.358864
213.6571, 1.496124
214.1393, 1.418457
214.6214, 1.075836
215.1035, 0.8712690
215.5856, 0.8849180
216.0677, 0.9330670
216.5498, 0.8492430
217.0320, 0.6780700
217.5141, 0.6352310
217.9962, 0.9312290
218.4783, 1.575050
218.9604, 2.253555
219.4425, 2.967621
219.9247, 3.692184
220.4068, 4.425583
220.8889, 5.164726
221.3710, 5.945976
221.8531, 6.774948
222.3352, 7.667038
222.8174, 8.786736
223.2995, 10.48811
223.7816, 12.15812
224.2637, 13.21727
224.7458, 13.66684
225.2279, 14.10571
225.7100, 15.03136
226.1922, 16.40600
226.6743, 17.75612
227.1564, 19.18207
227.6385, 20.48685
228.1206, 21.42820
228.6027, 21.98782
229.0849, 22.44314
229.5670, 22.97383
230.0491, 23.54995
230.5312, 24.08910
231.0133, 24.56015
231.4954, 24.99729
231.9776, 25.43842
232.4597, 25.88573
232.9418, 26.32247
233.4239, 26.73883
233.9060, 27.13761
234.3881, 27.49316
234.8703, 27.60922
235.3524, 27.84028
235.8345, 28.79722
236.3166, 30.67112
236.7987, 32.49526
237.2808, 33.61250
237.7630, 34.45883
238.2451, 35.55577
238.7272, 37.20613
239.2093, 38.98484
239.6914, 40.08319
240.1735, 40.21356
240.6557, 40.54329
241.1378, 41.51960
241.6199, 42.90517
242.1020, 44.56430
242.5841, 46.48128
243.0662, 48.46912
243.5484, 50.23317
244.0305, 51.75563
244.5126, 53.10506
244.9947, 54.23814
245.4768, 55.23633
245.9589, 56.22050
246.4410, 57.23999
246.9232, 58.15271
247.4053, 58.67813
247.8874, 58.62999
248.3695, 58.62447
248.8516, 58.98686
249.3337, 59.30873
249.8159, 59.25465
250.2980, 58.72364
250.7801, 57.88857
251.2622, 57.03258
251.7443, 56.23326
252.2264, 55.23200
252.7086, 54.11087
253.1907, 52.75545
253.6728, 50.96718
254.1549, 48.74017
254.6370, 46.36259
255.1191, 44.26882
255.6013, 42.62758
256.0834, 40.93481
256.5655, 39.17957
257.0476, 37.38396
257.5297, 35.52026
258.0118, 33.60445
258.4940, 31.70272
258.9761, 29.91685
259.4582, 28.32809
259.9403, 26.64725
260.4224, 24.61719
260.9045, 22.69030
261.3867, 21.26878
261.8688, 20.31721
262.3509, 19.42213
262.8330, 18.06844
263.3151, 16.04293
263.7972, 14.33872
264.2794, 13.00788
264.7615, 11.88753
265.2436, 10.98623
265.7257, 10.24965
266.2078, 9.518005
266.6899, 8.618095
267.1721, 7.497314
267.6542, 6.581047
268.1363, 5.875610
268.6184, 5.319061
269.1005, 5.070290
269.5826, 4.997925
270.0648, 4.659409
270.5469, 3.602791
271.0290, 1.786758
271.5111, 0.7834400
271.9932, 1.089104
272.4753, 1.530907
272.9575, 1.713257
273.4396, 1.631958
273.9217, 1.364464
274.4038, 0.9317930
274.8859, 0.3579100
275.3680, 3.7941001E-02
275.8501, 0.2523120
276.3322, 0.3391420
276.8144, 0.2706830
277.2965, 9.3193002E-02
277.7786, 0.1057660
278.2607, 0.2826390
278.7428, 0.4403840
279.2249, 0.5857850
279.7071, 0.6925510
280.1892, 0.8271330
280.6713, 1.005463
281.1534, 1.215080
281.6355, 1.456810
282.1176, 1.752197
282.5998, 2.034462
283.0819, 2.091606
283.5640, 1.700356
284.0461, 1.514084
284.5282, 1.750183
285.0103, 2.259048
285.4925, 2.855011
285.9746, 3.494858
286.4567, 4.130600
286.9388, 4.684967
287.4209, 5.176117
287.9030, 5.544327
288.3852, 5.715485
288.8673, 5.774788
289.3494, 5.834770
289.8315, 5.925095
290.3136, 5.989067
290.7957, 5.964428
291.2779, 5.850391
291.7600, 5.587849
292.2421, 5.023277
292.7242, 4.395725
293.2063, 3.994072
293.6884, 3.847298
294.1706, 3.667305
294.6527, 3.170929
295.1348, 2.344212
295.6169, 1.543659
296.0990, 0.7063180
296.5811, 4.7141999E-02
297.0633, 0.6103210
297.5454, 0.9836880
298.0275, 1.266438
298.5096, 1.545059
298.9917, 1.778698
299.4738, 1.814709
299.9560, 1.498314
300.4381, 1.125172
300.9202, 0.8825340
301.4023, 0.7384150
301.8844, 0.5267370
302.3665, 0.1565630
302.8487, 0.3153920
303.3308, 0.7167700
303.8129, 0.9615360
304.2950, 1.268108
304.7771, 1.711292
305.2592, 2.317646
305.7414, 3.141037
306.2235, 4.224491
306.7056, 5.425751
307.1877, 6.531826
307.6698, 7.609108
308.1519, 8.503551
308.6341, 8.866890
309.1162, 9.070412
309.5983, 9.826153
310.0804, 11.37667
310.5625, 13.18255
311.0446, 14.45698
311.5268, 15.16883
312.0089, 16.09068
312.4910, 17.58678
312.9731, 19.30706
313.4552, 20.78619
313.9373, 21.94441
314.4195, 23.11832
314.9016, 24.66003
315.3837, 26.55000
315.8658, 28.34506
316.3479, 30.02718
316.8300, 31.59103
317.3121, 32.95025
317.7943, 34.12980
318.2764, 35.38956
318.7585, 36.95679
319.2406, 38.74193
319.7227, 40.32820
320.2048, 41.97906
320.6870, 43.19309
321.1691, 43.58772
321.6512, 43.28968
322.1333, 42.76563
322.6154, 42.27467
323.0975, 41.62905
323.5797, 40.38055
324.0618, 38.47539
324.5439, 36.23892
325.0260, 33.53143
325.5081, 30.60250
325.9902, 27.92770
326.4724, 25.68250
326.9545, 23.61880
327.4366, 21.30580
327.9187, 18.67094
328.4008, 16.24440
328.8829, 14.08581
329.3651, 12.21012
329.8472, 10.62259
330.3293, 9.323315
330.8114, 8.393787
331.2935, 8.086716
331.7756, 8.460308
332.2578, 8.214279
332.7399, 6.698151
333.2220, 5.014698
333.7041, 3.928162
334.1862, 3.454681
334.6683, 3.273907
335.1505, 3.266251
335.6326, 3.358833
336.1147, 3.094776
336.5968, 2.011005
337.0789, 1.093220
337.5610, 0.9022670
338.0432, 1.196548
338.5253, 1.388237
339.0074, 1.190929
339.4895, 0.7618830
339.9716, 0.5226360
340.4537, 0.5046770
340.9359, 0.5794330
341.4180, 0.8593900
341.9001, 1.169159
342.3822, 1.246231
342.8643, 1.016304
343.3464, 0.6690100
343.8286, 0.4644890
344.3107, 0.4634400
344.7928, 0.4497030
345.2749, 0.3731350
345.7570, 0.3188020
346.2391, 0.3819050
346.7213, 0.5538560
347.2034, 0.7172810
347.6855, 0.7542460
348.1676, 0.6542510
348.6497, 0.6789510
349.1318, 0.9117620
349.6140, 1.162373
350.0961, 1.374931
350.5782, 1.541542
351.0603, 1.651730
351.5424, 1.693523
352.0245, 1.686470
352.5067, 1.712990
352.9888, 1.774532
353.4709, 1.862011
353.9530, 2.017776
354.4351, 2.165039
354.9172, 2.210064
355.3994, 2.138851
355.8815, 2.006630
356.3636, 1.908989
356.8457, 1.975220
357.3278, 1.812183
357.8099, 1.279465
358.2920, 0.6866570
358.7741, 0.1984020
359.2563, 0.1583820
359.7384, 0.3977930
360.2205, 0.5216980
360.7026, 0.5184290
361.1847, 0.4985350
361.6668, 0.3494030
362.1490, 0.3085560
362.6311, 0.5908930
363.1132, 1.030594
363.5953, 1.287506
364.0774, 1.137600
364.5595, 0.7049060
365.0417, 0.5071370
365.5238, 0.7166060
366.0059, 0.9427410
366.4880, 1.209248
366.9701, 1.434479
367.4522, 1.551792
367.9344, 1.536819
368.4165, 1.394901
368.8986, 1.103367
369.3807, 0.5727620
369.8628, 0.1374090
370.3449, 0.1649170
370.8271, 0.4007450
371.3092, 0.5591130
371.7913, 0.6704640
372.2734, 0.8255540
372.7555, 1.126301
373.2376, 1.565681
373.7198, 1.910416
374.2019, 2.002022
374.6840, 2.200439
375.1661, 2.666153
375.6482, 3.299095
376.1303, 3.957413
376.6125, 4.594158
377.0946, 5.174435
377.5767, 5.601444
378.0588, 5.814373
378.5409, 6.045097
379.0230, 6.324287
379.5052, 6.665325
379.9873, 7.110092
380.4694, 7.664757
380.9515, 8.229809
381.4336, 8.655609
381.9157, 8.948189
382.3979, 9.414776
382.8800, 10.26914
383.3621, 11.09656
383.8442, 11.55348
384.3263, 11.73410
384.8084, 11.99828
385.2906, 12.60324
385.7727, 13.41076
386.2548, 14.14328
386.7369, 14.81985
387.2190, 15.34273
387.7011, 15.55703
388.1833, 15.60556
388.6654, 15.70429
389.1475, 15.98436
389.6296, 16.15622
390.1117, 15.88874
390.5938, 15.23497
391.0760, 14.60952
391.5581, 14.13176
392.0402, 13.76160
392.5223, 13.46145
393.0044, 13.24137
393.4865, 12.97528
393.9687, 12.58046
394.4508, 12.11490
394.9329, 11.67970
395.4150, 11.29585
395.8971, 10.91671
396.3792, 10.44549
396.8614, 9.901222
397.3435, 9.511127
397.8256, 9.388470
398.3077, 9.339951
398.7898, 9.158836
399.2719, 8.929070
399.7540, 8.969173
400.2361, 9.483719
400.7183, 10.27953
401.2004, 10.78564
401.6825, 10.78311
402.1646, 10.93336
402.6467, 11.50815
403.1288, 12.21836
403.6110, 12.69403
404.0931, 12.86700
404.5752, 13.00697
405.0573, 13.45630
405.5394, 14.33269
406.0215, 14.85667
406.5037, 14.85372
406.9858, 14.72634
407.4679, 14.52902
407.9500, 14.36072
408.4321, 14.41928
408.9142, 14.84682
409.3964, 15.55675
409.8785, 16.15997
410.3606, 16.66557
410.8427, 17.03279
411.3248, 17.02079
411.8069, 17.00077
412.2891, 17.41808
412.7712, 18.34663
413.2533, 19.37701
413.7354, 19.83796
414.2175, 19.39680
414.6996, 19.74281
415.1818, 21.45697
415.6639, 23.43833
416.1460, 25.33055
416.6281, 27.15764
417.1102, 29.02595
417.5923, 31.02249
418.0745, 33.13839
418.5566, 35.35496
419.0387, 37.62907
419.5208, 40.09464
420.0029, 42.83306
420.4850, 45.69767
420.9672, 48.53196
421.4493, 51.30410
421.9314, 54.19056
422.4135, 57.31763
422.8956, 60.66984
423.3777, 64.34719
423.8599, 68.51501
424.3420, 72.81013
424.8241, 76.99258
425.3062, 81.08545
425.7883, 85.18969
426.2704, 89.50023
426.7526, 93.80378
427.2347, 97.65224
427.7168, 101.0271
428.1989, 104.4765
428.6810, 108.2582
429.1631, 112.3222
429.6453, 116.4527
430.1274, 120.5907
430.6095, 124.9383
431.0916, 129.6476
431.5737, 134.6072
432.0558, 139.7525
432.5380, 145.0981
433.0201, 150.2365
433.5022, 154.7058
433.9843, 158.4312
434.4664, 161.6550
434.9485, 164.3184
435.4307, 166.5366
435.9128, 168.4306
436.3949, 169.9455
436.8770, 171.0232
437.3591, 171.7322
437.8412, 171.7794
438.3234, 169.9990
438.8055, 166.1544
439.2876, 160.6973
439.7697, 152.7732
440.2518, 143.7625
440.7339, 134.5642
441.2160, 125.6041
441.6982, 117.3465
442.1803, 110.3243
442.6624, 104.4827
443.1445, 100.1717
443.6266, 97.85766
444.1087, 96.64262
444.5909, 96.48888
445.0730, 97.23619
445.5551, 98.78198
446.0372, 101.1202
446.5193, 103.9687
447.0014, 106.7445
447.4836, 109.4656
447.9657, 112.0527
448.4478, 114.8710
448.9299, 117.2792
449.4120, 119.0212
449.8941, 120.0077
450.3763, 120.0055
450.8584, 118.6141
451.3405, 116.0470
451.8226, 113.1595
452.3047, 109.9036
452.7868, 106.4536
453.2690, 102.8996
453.7511, 99.23660
454.2332, 95.37948
454.7153, 91.20068
455.1974, 87.03983
455.6795, 82.95723
456.1617, 79.06738
456.6438, 75.90325
457.1259, 73.78160
457.6080, 72.12917
458.0901, 70.15055
458.5722, 67.82477
459.0544, 65.78628
459.5365, 64.28879
460.0186, 63.06393
460.5007, 62.02709
460.9828, 61.08118
461.4649, 59.92474
461.9471, 58.39486
462.4292, 56.48672
462.9113, 54.11214
463.3934, 50.95828
463.8755, 47.78389
464.3576, 44.73693
464.8398, 41.64462
465.3219, 38.24162
465.8040, 34.51256
466.2861, 30.80905
466.7682, 27.49517
467.2503, 24.54556
467.7325, 21.99163
468.2146, 20.14589
468.6967, 18.36861
469.1788, 16.36309
469.6609, 14.36027
470.1430, 12.77328
470.6252, 11.79365
471.1073, 11.12074
471.5894, 10.16543
472.0715, 8.785625
472.5536, 7.761799
473.0357, 7.640324
473.5179, 7.543118
474.0000, 6.844597
474.4821, 5.682667
474.9642, 4.698456
475.4463, 4.370941
475.9284, 4.447681
476.4106, 4.385899
476.8927, 4.169312
477.3748, 3.918110
477.8569, 3.671532
478.3390, 3.430679
478.8211, 3.163708
479.3033, 2.816238
479.7854, 2.639515
480.2675, 2.936428
480.7496, 3.444885
481.2317, 3.651775
481.7138, 3.457878
482.1959, 3.179955
482.6780, 3.085072
483.1602, 3.177769
483.6423, 3.297070
484.1244, 3.437981
484.6065, 3.622814
485.0886, 3.909512
485.5707, 4.228943
486.0529, 4.415756
486.5350, 4.413322
487.0171, 4.404034
487.4992, 4.705891
487.9813, 5.510796
488.4634, 6.094826
488.9456, 6.357716
489.4277, 6.508102
489.9098, 6.654682
490.3919, 6.776131
490.8740, 6.769642
491.3561, 6.546333
491.8383, 6.230335
492.3204, 6.204910
492.8025, 6.607342
493.2846, 6.919697
493.7667, 7.063219
494.2488, 7.060154
494.7310, 6.850529
495.2131, 6.463104
495.6952, 6.095724
496.1773, 5.883595
496.6594, 5.795984
497.1415, 5.787441
497.6237, 5.888676
498.1058, 5.933764
498.5879, 5.802683
499.0700, 5.563763
499.5521, 5.362709
500.0342, 5.241413
500.5164, 5.069962
500.9985, 4.792278
501.4806, 4.417376
501.9627, 3.912037
502.4448, 3.268547
502.9269, 2.659969
503.4091, 2.287460
503.8912, 2.158453
504.3733, 1.797108
504.8554, 0.8667850
505.3375, 0.1079060
505.8196, 0.1019540
506.3018, 6.9710002E-03
506.7839, 3.4991998E-02
507.2660, 0.1076070
507.7481, 0.3583810
508.2302, 0.6220930
508.7123, 0.9418180
509.1945, 1.119629
509.6766, 0.9920010
510.1587, 0.8853260
510.6408, 0.9663810
511.1229, 1.154150
511.6050, 1.283379
512.0872, 1.271118
512.5693, 1.163950
513.0514, 1.011625
513.5335, 0.7940160
514.0156, 0.6946200
514.4977, 0.8825840
514.9799, 1.069958
515.4620, 0.9738010
515.9441, 0.6379780
516.4262, 0.3669320
516.9083, 0.3720660
517.3904, 0.4625260
517.8726, 0.3797780
518.3547, 0.1319750
518.8368, 0.1140380
519.3189, 0.2715380
519.8010, 0.3901210
520.2831, 0.5895370
520.7653, 0.9049380
521.2474, 1.182409
521.7295, 1.395533
522.2116, 1.560234
522.6937, 1.651802
523.1758, 1.694792
523.6580, 1.791386
524.1401, 2.025316
524.6222, 2.358639
525.1043, 2.591713
525.5864, 2.529968
526.0685, 2.651260
526.5507, 3.164146
527.0328, 3.750568
527.5149, 4.108089
527.9970, 4.233440
528.4791, 4.389898
528.9612, 4.872156
529.4434, 5.596354
529.9255, 6.042118
530.4076, 6.136841
530.8897, 6.117601
531.3718, 5.965073
531.8539, 5.807646
532.3361, 5.816584
532.8182, 6.047703
533.3003, 6.229980
533.7824, 6.223520
534.2645, 6.035706
534.7466, 5.636724
535.2288, 5.009493
535.7109, 4.344484
536.1930, 3.773960
536.6751, 3.289869
537.1572, 2.837036
537.6393, 2.362936
538.1215, 1.978151
538.6036, 1.776985
539.0857, 1.651384
539.5678, 1.469921
540.0499, 1.204920
540.5320, 0.8994480
541.0142, 0.5917360
541.4963, 0.2799280
541.9784, 2.4998000E-02
542.4604, 0.2181300
542.9426, 0.3390390
543.4247, 0.1795390
543.9068, 4.8161998E-02
544.3889, 6.9564998E-02
544.8710, 0.1783940
545.3531, 0.4561610
545.8353, 0.4843390
546.3174, 0.2844300
546.7995, 9.3431003E-02
547.2816, 0.1106090
547.7637, 0.2324490
548.2458, 0.1144980
548.7280, 0.1050530
549.2101, 0.1951790
549.6922, 7.0211001E-02
550.1743, 8.7159999E-02
550.6564, 0.1679250
551.1385, 0.1981050
551.6207, 0.2280830
552.1028, 0.2681900
552.5849, 0.3134290
553.0670, 0.3515910
553.5491, 0.3830570
554.0313, 0.4821380
554.5134, 0.7451530
554.9955, 0.9506260
555.4776, 1.022171
555.9597, 1.010771
556.4418, 0.9500890
556.9240, 0.8624040
557.4061, 0.8137780
557.8882, 0.9010120
558.3703, 1.131498
558.8524, 1.275227
559.3345, 1.304495
559.8167, 1.278439
560.2988, 1.144705
560.7809, 1.005775
561.2630, 1.017672
561.7451, 1.234474
562.2272, 1.437483
562.7094, 1.341564
563.1915, 1.071390
563.6736, 1.087088
564.1557, 1.495371
564.6378, 1.946373
565.1199, 2.217936
565.6021, 2.311827
566.0842, 2.311415
566.5663, 2.164772
567.0484, 1.993195
567.5305, 1.780199
568.0126, 1.616886
568.4948, 1.642618
568.9769, 1.857151
569.4590, 2.112207
569.9411, 2.278721
570.4232, 2.366266
570.9053, 2.428270
571.3875, 2.428913
571.8696, 2.454372
572.3517, 2.470247
572.8338, 2.517735
573.3159, 2.686226
573.7980, 2.984934
574.2802, 3.281450
574.7623, 3.440006
575.2444, 3.482563
575.7265, 3.467594
576.2086, 3.325634
576.6907, 3.476902
577.1729, 4.374863
577.6550, 5.530283
578.1371, 6.130428
578.6192, 6.052588
579.1013, 5.915499
579.5834, 5.728523
580.0656, 5.736555
580.5477, 6.371756
581.0298, 7.560036
581.5119, 8.715515
581.9940, 9.470888
582.4761, 9.914280
582.9583, 10.34483
583.4404, 10.66824
583.9225, 11.13196
584.4046, 11.83355
584.8867, 12.59081
585.3688, 13.24111
585.8510, 13.83283
586.3331, 14.56043
586.8152, 15.57709
587.2973, 16.74395
587.7794, 17.69150
588.2615, 18.36715
588.7437, 19.19418
589.2258, 20.29609
589.7079, 21.57212
590.1900, 22.96672
590.6721, 24.45557
591.1542, 25.86607
591.6364, 27.01229
592.1185, 28.17039
592.6006, 29.50675
593.0827, 31.03044
593.5648, 32.87739
594.0469, 35.12682
594.5291, 37.33856
595.0112, 38.87812
595.4933, 39.58476
595.9754, 40.35074
596.4575, 41.51176
596.9396, 42.35412
597.4218, 42.63920
597.9039, 42.44519
598.3860, 41.77080
598.8681, 40.63912
599.3502, 39.48865
599.8323, 38.94749
600.3145, 38.97921
600.7966, 38.64410
601.2787, 37.67947
601.7608, 36.88711
602.2429, 36.90340
602.7250, 37.28793
603.2072, 37.40212
603.6893, 37.09086
604.1714, 36.83976
604.6535, 36.97766
605.1356, 37.28233
605.6177, 37.42784
606.0999, 37.36766
606.5820, 37.19710
607.0641, 36.97203
607.5462, 36.74395
608.0283, 36.69226
608.5104, 37.06506
608.9926, 37.24275
609.4747, 36.98001
609.9568, 36.70339
610.4389, 36.78633
610.9210, 37.15247
611.4031, 37.45666
611.8853, 37.54327
612.3674, 37.36581
612.8495, 36.77981
613.3316, 35.76404
613.8137, 34.58722
614.2958, 33.25744
614.7780, 31.81075
615.2601, 30.23316
615.7422, 28.55184
616.2243, 26.93411
616.7064, 25.37409
617.1885, 23.92670
617.6707, 22.70085
618.1528, 21.59923
618.6349, 20.41480
619.1170, 19.09101
619.5991, 17.72969
620.0812, 16.43837
620.5634, 15.20869
621.0455, 14.12203
621.5276, 13.08881
622.0097, 12.34786
622.4918, 12.12041
622.9739, 12.10666
623.4561, 11.99810
623.9382, 11.74206
624.4203, 11.53330
624.9023, 11.48064
625.3845, 11.55969
625.8666, 11.79534
626.3487, 12.20430
626.8308, 12.77870
627.3129, 13.70939
627.7950, 14.62732
628.2772, 14.80411
628.7593, 14.15083
629.2414, 13.45628
629.7235, 12.98986
630.2056, 12.38005
630.6877, 11.20249
631.1699, 9.680216
631.6520, 8.326118
632.1341, 7.381721
632.6162, 6.736202
633.0983, 6.247103
633.5804, 5.939976
634.0626, 5.650267
634.5447, 5.365681
635.0268, 5.116928
635.5089, 4.884298
635.9910, 4.702963
636.4731, 4.635986
636.9553, 4.712370
637.4374, 4.840446
637.9195, 4.979218
638.4016, 5.116377
638.8837, 5.240278
639.3658, 5.347504
639.8480, 5.404573
640.3301, 5.380442
640.8122, 5.298651
641.2943, 5.242645
641.7764, 5.380314
642.2585, 5.286076
642.7407, 4.835247
643.2228, 4.265453
643.7049, 3.648258
644.1870, 3.040874
644.6691, 2.526520
645.1512, 2.152493
645.6334, 1.884640
646.1155, 1.683210
646.5976, 1.548386
647.0797, 1.464037
647.5618, 1.491812
648.0439, 1.431564
648.5261, 0.9743540
649.0082, 0.3149990
649.4903, 5.8033001E-02
649.9724, 0.5025580
650.4545, 0.9175910
650.9366, 1.038425
651.4188, 0.9831770
651.9009, 0.8564950
652.3830, 0.6904300
652.8651, 0.5119820
653.3472, 0.3083080
653.8293, 0.1035400
654.3115, 4.9170000E-03
654.7936, 2.9774001E-02
655.2757, 0.1226020
655.7578, 0.3840810
656.2399, 0.6204150
656.7220, 0.7451100
657.2042, 0.7538660
657.6863, 0.6464180
658.1684, 0.3599740
658.6505, 5.9142999E-02
659.1326, 0.1361050
659.6147, 0.2198490
660.0969, 0.1452850
660.5790, 0.1020160
661.0611, 0.3863960
661.5432, 0.6147610
662.0253, 0.7780230
662.5074, 0.7686690
662.9896, 0.3579790
663.4717, 6.8033002E-02
663.9538, 1.5171000E-02
664.4359, 8.3199999E-04
664.9180, 5.4026000E-02
665.4001, 0.1240290
665.8823, 0.1786230
666.3644, 0.2062850
666.8465, 0.1966670
667.3286, 8.9468002E-02
667.8107, 0.1116640
668.2928, 0.2030200
668.7750, 0.1017720
669.2571, 3.4462001E-02
669.7392, 7.0630997E-02
670.2213, 8.2630003E-03
670.7034, 9.9939004E-02
671.1855, 0.3915580
671.6677, 0.5586380
672.1498, 0.4507140
672.6319, 0.1985590
673.1140, 0.1296120
673.5961, 0.4721700
674.0782, 0.6641200
674.5604, 0.5394730
675.0425, 0.2427250
675.5246, 0.3239310
676.0067, 0.9421180
676.4888, 1.207586
676.9709, 0.6852280
677.4531, 5.9289999E-02
677.9352, 9.9733002E-02
678.4173, 9.2101999E-02
678.8994, 0.2212260
679.3815, 0.1421180
679.8636, 4.7024000E-02
680.3458, 9.4659999E-02
680.8279, 0.1809460
681.3100, 7.2769001E-02
681.7921, 0.2299020
682.2742, 0.4024980
682.7563, 0.1380500
683.2385, 0.4269330
683.7206, 0.5773580
684.2027, 3.4159001E-02
684.6848, 0.3123910
685.1669, 0.2029340
685.6490, 1.0885000E-02
686.1312, 0.1762100
686.6133, 0.2810330
687.0954, 0.3286690
687.5775, 0.3083840
688.0596, 0.2507950
688.5417, 0.1482940
689.0239, 3.4573000E-02
689.5060, 6.2239999E-03
689.9881, 4.1306999E-02
690.4702, 0.1353800
690.9523, 0.2532060
691.4344, 0.3839260
691.9166, 0.4716610
692.3987, 0.5077920
692.8808, 0.5110450
693.3629, 0.4603670
693.8450, 0.3997860
694.3271, 0.3410610
694.8093, 0.2946700
695.2914, 0.2846340
695.7735, 0.3321840
696.2556, 0.3851950
696.7377, 0.3563250
697.2198, 0.2821900
697.7020, 0.3241540
698.1841, 0.5159820
698.6662, 0.6665880
699.1483, 0.6360760
699.6304, 0.4689350
700.1125, 0.3330460
700.5947, 0.1942750
701.0768, 0.1444000
701.5589, 0.2317140
702.0410, 0.3648050
702.5231, 0.5334470
703.0052, 0.6965070
703.4874, 0.7877850
703.9695, 0.7776930
704.4516, 0.6953030
704.9337, 0.5592080
705.4158, 0.3782200
705.8979, 0.1658130
706.3801, 9.5236003E-02
706.8622, 0.2526000
707.3442, 0.1971000
707.8264, 1.0893000E-02
708.3085, 0.2340620
708.7906, 0.5627230
709.2727, 0.6743600
709.7548, 0.2774010
710.2369, 7.8708999E-02
710.7191, 7.1259998E-03
711.2012, 0.3202900
711.6833, 0.5848920
712.1654, 0.6702330
712.6475, 0.6359200
713.1296, 0.4813800
713.6118, 0.2514130
714.0939, 0.2142660
714.5760, 0.4053400
715.0581, 0.6130580
715.5402, 0.7654340
716.0223, 0.8550190
716.5045, 0.8589460
716.9866, 0.7646270
717.4687, 0.6535420
717.9508, 0.5433920
718.4329, 0.4263820
718.9150, 0.2686180
719.3972, 0.1118220
719.8793, 1.0223000E-02
720.3614, 7.7910997E-02
720.8435, 6.1494999E-02
721.3256, 8.8274002E-02
721.8077, 0.3484310
722.2899, 0.6616210
722.7720, 1.064842
723.2541, 1.231745
723.7362, 0.9098910
724.2183, 0.4652420
724.7004, 0.4193040
725.1826, 0.7761920
725.6647, 0.9908490
726.1468, 0.8698880
726.6289, 0.8124690
727.1110, 1.097784
727.5931, 1.435118
728.0753, 1.481300
728.5574, 1.230316
729.0395, 0.8939570
729.5216, 0.6019460
730.0037, 0.4001710
730.4858, 0.4319440
730.9680, 0.7056980
731.4501, 0.8336430
731.9322, 0.6645620
732.4143, 0.4855800
732.8964, 0.6157000
733.3785, 0.9773830
733.8607, 1.080803
734.3428, 0.6192860
734.8249, 0.3528790
735.3070, 0.6381840
735.7891, 1.007679
736.2712, 1.082542
736.7534, 0.9072530
737.2355, 0.7388250
737.7176, 0.6947250
738.1997, 0.6932350
738.6818, 0.5706750
739.1639, 0.3538110
739.6461, 0.3374060
740.1282, 0.6064050
740.6103, 0.8419650
741.0924, 0.8052200
741.5745, 0.6254920
742.0566, 0.6293300
742.5388, 0.8808270
743.0209, 1.025127
743.5030, 0.9811330
743.9851, 0.8769420
744.4672, 0.7252520
744.9493, 0.5837020
745.4315, 0.5603660
745.9136, 0.6716940
746.3957, 0.7643050
746.8778, 0.6192250
747.3599, 0.3497910
747.8420, 0.3707710
748.3242, 0.6903320
748.8063, 0.8793620
749.2884, 0.7420880
749.7705, 0.5536750
750.2526, 0.6691720
750.7347, 1.113605
751.2169, 1.364870
751.6990, 1.284224
752.1811, 1.207279
752.6632, 1.245178
753.1453, 1.290913
753.6274, 1.239775
754.1096, 1.097113
754.5917, 0.9099750
755.0738, 0.6315080
755.5559, 0.4777680
756.0380, 0.9484880
756.5201, 1.844660
757.0023, 2.195219
757.4844, 1.811228
757.9665, 1.405012
758.4486, 1.493244
758.9307, 1.925522
759.4128, 2.199671
759.8950, 2.262152
760.3771, 2.258400
760.8592, 2.169947
761.3413, 2.039118
761.8234, 1.852098
762.3055, 1.647358
762.7877, 1.459206
763.2698, 1.293879
763.7519, 1.231007
764.2340, 1.347265
764.7161, 1.580280
765.1982, 1.954937
765.6804, 2.410992
766.1625, 2.550854
766.6446, 2.207020
767.1267, 1.671148
767.6088, 1.307508
768.0909, 1.106121
768.5731, 1.043776
769.0552, 1.234417
769.5373, 1.379534
770.0194, 1.448282
770.5015, 1.422714
770.9836, 1.208820
771.4658, 0.8616980
771.9479, 0.6476140
772.4300, 0.7407510
772.9121, 0.8864570
773.3942, 0.9103160
773.8763, 0.8708230
774.3585, 0.8924370
774.8406, 0.9651510
775.3227, 0.9171450
775.8048, 0.6181760
776.2869, 0.2077050
776.7690, 3.7280999E-02
777.2512, 0.1506480
777.7333, 0.1982610
778.2154, 0.1475260
778.6975, 5.9615999E-02
779.1796, 3.8568001E-02
779.6617, 0.1500910
780.1439, 0.3082010
780.6260, 0.5662940
781.1081, 0.6165560
781.5902, 0.1721310
782.0723, 0.2877540
782.5544, 0.4980160
783.0366, 0.5009880
783.5187, 0.3303850
784.0008, 2.7674001E-02
784.4829, 0.2237470
784.9650, 0.2131270
785.4471, 4.7949001E-02
785.9293, 7.1929999E-02
786.4114, 0.2885130
786.8935, 0.4596440
787.3756, 0.5229190
787.8577, 0.5414660
788.3398, 0.5818560
788.8220, 0.6307390
789.3040, 0.5832250
789.7861, 0.3054330
790.2682, 0.1303830
790.7504, 0.1635020
791.2325, 0.2269900
791.7146, 0.2143210
792.1967, 0.1434670
792.6788, 5.7071999E-02
793.1609, 4.0957998E-02
793.6431, 0.1023830
794.1252, 2.2526000E-02
794.6073, 9.9082999E-02
795.0894, 4.9938001E-02
795.5715, 0.1579900
796.0536, 0.3636820
796.5358, 0.5029950
797.0179, 0.5864790
797.5000, 0.6297420
797.9821, 0.6347160
798.4642, 0.6302910
798.9464, 0.6312180
799.4285, 0.5921170
799.9106, 0.4258960
800.3927, 0.2786250
800.8748, 0.2565770
801.3569, 0.3508680
801.8391, 0.5058940
802.3212, 0.7929500
802.8033, 1.012333
803.2854, 1.028442
803.7675, 0.9396740
804.2496, 0.8044930
804.7318, 0.6718600
805.2139, 0.6711460
805.6960, 0.8834650
806.1781, 1.144817
806.6602, 1.144501
807.1423, 0.9091610
807.6245, 0.8315930
808.1066, 0.9462430
808.5887, 1.136688
809.0708, 1.365997
809.5529, 1.621548
810.0350, 1.888035
810.5172, 2.168705
810.9993, 2.438160
811.4814, 2.771030
811.9635, 2.997272
812.4456, 2.890945
812.9277, 2.784626
813.4099, 3.030502
813.8920, 3.596352
814.3741, 4.180008
814.8562, 4.638634
815.3383, 5.041695
815.8204, 5.466660
816.3026, 5.882847
816.7847, 6.151218
817.2668, 6.293121
817.7489, 6.610043
818.2310, 7.281307
818.7131, 8.183300
819.1953, 9.108364
819.6774, 10.08455
820.1595, 10.88170
820.6416, 11.31487
821.1237, 11.93309
821.6058, 13.05790
822.0880, 14.38776
822.5701, 15.62335
823.0522, 16.76101
823.5343, 17.78571
824.0164, 18.49820
824.4985, 19.32527
824.9807, 20.54518
825.4628, 21.92251
825.9449, 23.19522
826.4270, 24.35364
826.9091, 25.54918
827.3912, 26.89936
827.8734, 28.19703
828.3555, 29.20503
828.8376, 29.91566
829.3197, 30.27126
829.8018, 30.26511
830.2839, 30.02929
830.7661, 29.62545
831.2482, 29.02612
831.7303, 28.14815
832.2124, 26.94055
832.6945, 25.85793
833.1766, 24.97410
833.6588, 24.12152
834.1409, 23.15432
834.6230, 22.28968
835.1051, 21.79327
835.5872, 21.58783
836.0693, 21.26069
836.5515, 20.63861
837.0336, 19.94535
837.5157, 19.23983
837.9978, 18.56451
838.4799, 17.99504
838.9620, 17.51316
839.4442, 17.10373
839.9263, 16.73550
840.4084, 16.15046
840.8905, 14.88255
841.3726, 13.07265
841.8547, 11.52656
842.3369, 10.25665
842.8190, 9.193237
843.3011, 8.392368
843.7832, 7.583675
844.2653, 6.386837
844.7474, 4.821957
845.2296, 3.752605
845.7117, 3.577873
846.1938, 3.333298
846.6759, 2.845474
847.1580, 2.353504
847.6401, 2.008179
848.1223, 1.780437
848.6044, 1.590565
849.0865, 1.425858
849.5686, 1.274029
850.0507, 1.106102
850.5328, 0.9697230
851.0150, 0.9137040
851.4971, 0.9218860
851.9792, 0.9669190
852.4613, 1.031193
852.9434, 1.110306
853.4255, 1.228184
853.9077, 1.314411
854.3898, 1.035358
854.8719, 0.3908690
855.3540, 0.1598240
855.8361, 0.5671460
856.3182, 1.108967
856.8004, 1.435959
857.2825, 1.591167
857.7646, 1.716587
858.2467, 1.844444
858.7288, 1.868748
859.2109, 1.486389
859.6931, 1.356266
860.1752, 1.908005
860.6573, 2.733570
861.1394, 3.362801
861.6215, 3.764481
862.1036, 4.111927
862.5858, 4.415215
863.0679, 4.693924
863.5500, 4.935085
864.0321, 5.201580
864.5142, 5.588428
864.9963, 6.094116
865.4785, 6.621353
865.9606, 7.093464
866.4427, 7.551682
866.9248, 8.101715
867.4069, 8.717007
867.8890, 9.181267
868.3712, 9.462315
868.8533, 9.858238
869.3354, 10.52324
869.8175, 11.28266
870.2996, 11.87880
870.7817, 12.53679
871.2639, 13.19660
871.7459, 13.65677
872.2280, 14.34538
872.7101, 14.82407
873.1923, 15.21006
873.6744, 15.61644
874.1565, 15.94836
874.6386, 15.98996
875.1207, 15.63756
875.6028, 15.22276
876.0850, 14.94468
876.5671, 14.54464
877.0492, 13.77599
877.5313, 12.79826
878.0134, 11.83432
878.4955, 10.96303
878.9777, 10.23832
879.4598, 9.772846
879.9419, 9.395443
880.4240, 8.790421
880.9061, 8.025936
881.3882, 7.340260
881.8704, 6.773956
882.3525, 6.326008
882.8346, 6.009575
883.3167, 5.762337
883.7988, 5.459583
884.2809, 5.096203
884.7631, 4.690918
885.2452, 4.164204
885.7273, 3.801342
886.2094, 3.799400
886.6915, 3.900826
887.1736, 3.800262
887.6558, 3.514416
888.1379, 3.308739
888.6200, 3.139572
889.1021, 3.122402
889.5842, 3.403606
890.0663, 3.723961
890.5485, 3.889404
891.0306, 3.962711
891.5127, 4.072315
891.9948, 4.252022
892.4769, 4.530838
892.9590, 4.996147
893.4412, 5.513210
893.9233, 5.961136
894.4054, 6.341022
894.8875, 6.597393
895.3696, 6.758911
895.8517, 7.076214
896.3339, 7.773487
896.8160, 8.598392
897.2981, 8.976395
897.7802, 8.962566
898.2623, 9.089931
898.7444, 9.395340
899.2266, 10.02325
899.7087, 11.13333
900.1908, 12.34827
900.6729, 13.07967
901.1550, 13.29708
901.6371, 13.72671
902.1193, 14.58533
902.6014, 15.25501
903.0835, 15.46382
903.5656, 15.60359
904.0477, 15.93813
904.5298, 16.40813
905.0120, 16.89188
905.4941, 17.49934
905.9762, 17.76345
906.4583, 17.40459
906.9404, 16.84633
907.4225, 16.31374
907.9047, 15.75575
908.3868, 15.08098
908.8689, 14.27655
909.3510, 13.36062
909.8331, 12.25930
910.3152, 11.19396
910.7974, 10.49540
911.2795, 9.944874
911.7616, 9.107327
912.2437, 7.995792
912.7258, 6.889565
913.2079, 5.921230
913.6901, 5.045452
914.1722, 4.191246
914.6543, 3.373508
915.1364, 2.618450
915.6185, 1.919163
916.1006, 1.516056
916.5828, 1.530128
917.0649, 1.560734
917.5470, 1.275238
918.0291, 0.7443540
918.5112, 0.1999890
918.9933, 0.4927440
919.4755, 0.8510970
919.9576, 0.6412770
920.4397, 0.4317210
920.9218, 0.4341550
921.4039, 0.5550840
921.8860, 0.7520710
922.3682, 1.012684
922.8503, 1.123974
923.3324, 0.8370550
923.8145, 0.6945460
924.2966, 1.015015
924.7787, 1.387936
925.2609, 1.468754
925.7430, 1.351173
926.2251, 1.297989
926.7072, 1.389339
927.1893, 1.428696
927.6714, 1.288383
928.1536, 1.033699
928.6357, 0.5931050
929.1178, 0.1340940
929.5999, 3.9425001E-02
930.0820, 0.3025740
930.5641, 0.5145610
931.0463, 0.4047360
931.5284, 0.1710210
932.0105, 0.1636310
932.4926, 0.3040810
932.9747, 0.2794880
933.4568, 7.4230000E-02
933.9390, 0.2708660
934.4211, 0.7379880
934.9032, 1.365387
935.3853, 2.248219
935.8674, 2.681797
936.3495, 3.886269
936.8317, 3.855484
937.3138, 4.118874
937.7959, 4.808628
938.2780, 5.746017
938.7601, 6.895271
939.2422, 8.195660
939.7244, 9.546909
940.2065, 10.93941
940.6886, 12.42194
941.1707, 13.97586
941.6528, 15.64562
942.1349, 17.40072
942.6171, 19.30907
943.0992, 21.43979
943.5813, 23.76391
944.0634, 26.19696
944.5455, 28.75449
945.0276, 31.31345
945.5098, 33.46686
945.9919, 36.00999
946.4740, 39.60196
946.9561, 43.80783
947.4382, 47.90613
947.9203, 51.90631
948.4025, 56.51778
948.8846, 62.15521
949.3667, 68.44795
949.8488, 75.43213
950.3309, 82.65202
950.8130, 89.28712
951.2952, 95.54149
951.7773, 102.3127
952.2594, 109.8854
952.7415, 117.7457
953.2236, 125.4360
953.7057, 133.0919
954.1878, 140.9570
954.6699, 149.0853
955.1520, 157.8384
955.6342, 167.3173
956.1163, 177.2032
956.5984, 187.3128
957.0805, 198.0914
957.5626, 210.1791
958.0447, 223.6523
958.5269, 237.9076
959.0090, 253.1791
959.4911, 268.5646
959.9732, 284.0814
960.4553, 299.1560
960.9374, 313.2642
961.4196, 326.4945
961.9017, 339.2770
962.3838, 352.5275
962.8659, 362.4502
963.3480, 367.9732
963.8301, 371.5094
964.3123, 372.8564
964.7944, 373.2206
965.2765, 372.9355
965.7586, 372.4580
966.2407, 373.6365
966.7228, 376.9510
967.2050, 381.4088
967.6871, 387.5251
968.1692, 393.9568
968.6513, 399.7135
969.1334, 405.4324
969.6155, 412.9848
970.0977, 421.9145
970.5798, 427.8060
971.0619, 428.4945
971.5440, 426.0015
972.0261, 420.6396
972.5082, 413.4976
972.9904, 405.3713
973.4725, 396.5605
973.9546, 387.2178
974.4367, 377.4826
974.9188, 367.9370
975.4009, 359.2856
975.8831, 350.8740
976.3652, 342.5045
976.8473, 333.4545
977.3294, 322.1909
977.8115, 308.5765
978.2936, 293.1495
978.7758, 276.0735
979.2579, 257.9136
979.7400, 239.0354
980.2221, 219.6814
980.7042, 201.0454
981.1863, 183.2057
981.6685, 166.0981
982.1506, 149.7612
982.6327, 134.8880
983.1148, 122.0358
983.5969, 110.9513
984.0790, 101.2643
984.5612, 92.98486
985.0433, 85.23190
985.5254, 77.98463
986.0075, 71.57866
986.4896, 66.21584
986.9717, 61.30018
987.4539, 56.25514
987.9360, 51.31555
988.4181, 47.30350
988.9002, 44.42191
989.3823, 41.91889
989.8644, 39.83231
990.3466, 38.00605
990.8287, 36.45213
991.3108, 35.09489
991.7929, 33.81417
992.2750, 32.63577
992.7571, 31.81001
993.2393, 31.56487
993.7214, 31.26494
994.2035, 30.79458
994.6856, 30.39489
995.1677, 30.33372
995.6498, 30.26985
996.1320, 29.76608
996.6141, 28.87177
997.0962, 28.09340
997.5783, 27.51150
998.0604, 27.07759
998.5425, 26.78415
999.0247, 26.63196
999.5068, 26.66672
999.9889, 26.82178
1000.471, 26.97182
1000.953, 27.12144
1001.435, 27.46828
1001.917, 28.25962
1002.399, 29.01180
1002.882, 29.37879
1003.364, 29.65710
1003.846, 30.17995
1004.328, 30.81801
1004.810, 31.27690
1005.292, 31.49345
1005.774, 31.64277
1006.256, 31.76875
1006.739, 31.96656
1007.221, 32.45592
1007.703, 32.99129
1008.185, 33.19715
1008.667, 33.12550
1009.149, 33.03480
1009.631, 33.01389
1010.113, 32.95379
1010.595, 32.79736
1011.078, 32.50415
1011.560, 31.99053
1012.042, 31.29739
1012.524, 30.49938
1013.006, 29.61631
1013.488, 28.64297
1013.970, 27.57771
1014.452, 26.57860
1014.935, 25.91213
1015.417, 24.81763
1015.899, 24.33794
1016.381, 22.93853
1016.863, 21.76607
1017.345, 20.90224
1017.827, 20.14864
1018.309, 19.41115
1018.791, 18.62282
1019.274, 17.66265
1019.756, 16.58176
1020.238, 15.64596
1020.720, 14.84869
1021.202, 13.85725
1021.684, 12.59516
1022.166, 11.48826
1022.648, 10.79211
1023.130, 10.33097
1023.613, 9.831051
1024.095, 9.294991
1024.577, 8.818680
1025.059, 8.433098
1025.541, 7.834232
1026.023, 6.925552
1026.505, 5.960052
1026.987, 5.082645
1027.469, 4.263260
1027.952, 3.430058
1028.434, 2.566189
1028.916, 1.976456
1029.398, 1.692238
1029.880, 1.601784
1030.362, 1.812634
1030.844, 1.906452
1031.326, 1.580994
1031.809, 0.9862520
1032.291, 0.3720590
1032.773, 0.3145140
1033.255, 0.5339780
1033.737, 4.5399999E-04
1034.219, 0.3738860
1034.701, 0.3617250
1035.183, 0.2398990
1035.666, 0.1669540
1036.148, 0.1202510
1036.630, 3.7632000E-02
1037.112, 0.1120340
1037.594, 0.1172710
1038.076, 0.2507440
1038.558, 0.3872220
1039.040, 0.1533850
1039.522, 0.5822030
1040.005, 0.1991460
1040.487, 0.5921590
1040.969, 0.9270060
1041.451, 0.7215080
1041.933, 0.5114940
1042.415, 0.2357480
1042.897, 0.1216320
1043.379, 0.3883090
1043.861, 0.5817720
1044.344, 0.2758940
1044.826, 0.2425380
1045.308, 0.3887520
1045.790, 6.7753002E-02
1046.272, 0.2092360
1046.754, 0.3542980
1047.236, 0.4642910
1047.718, 0.5673370
1048.201, 0.6936910
1048.683, 0.8470610
1049.165, 1.006142
1049.647, 1.136528
1050.129, 1.236431
1050.611, 1.384769
1051.093, 1.652893
1051.575, 1.929462
1052.057, 2.059982
1052.540, 2.250378
1053.022, 2.673115
1053.504, 3.274109
1053.986, 3.935509
1054.468, 4.637009
1054.950, 5.159714
1055.432, 5.279518
1055.914, 5.452160
1056.396, 5.889114
1056.879, 6.358795
1057.361, 6.618244
1057.843, 6.830898
1058.325, 7.314243
1058.807, 8.108631
1059.289, 8.879772
1059.771, 9.491081
1060.253, 10.11679
1060.736, 10.83147
1061.218, 11.56250
1061.700, 12.27048
1062.182, 12.96116
1062.664, 13.67459
1063.146, 14.39423
1063.628, 14.98075
1064.110, 15.24871
1064.593, 15.63272
1065.075, 16.46312
1065.557, 17.32509
1066.039, 17.90834
1066.521, 18.30515
1067.003, 18.68494
1067.485, 19.06927
1067.967, 19.37147
1068.449, 19.39938
1068.932, 19.61936
1069.414, 20.55697
1069.896, 21.44343
1070.378, 21.67413
1070.860, 21.49973
1071.342, 21.21105
1071.824, 20.91785
1072.306, 20.86505
1072.788, 21.32109
1073.271, 21.61666
1073.753, 21.13587
1074.235, 20.70010
1074.717, 21.15439
1075.199, 21.86191
1075.681, 21.89666
1076.163, 21.28485
1076.645, 20.73808
1077.127, 20.50417
1077.610, 20.33838
1078.092, 20.24842
1078.574, 20.05266
1079.056, 19.53128
1079.538, 18.90081
1080.020, 18.44726
1080.502, 18.13313
1080.984, 17.72325
1081.467, 17.14455
1081.949, 16.47913
1082.431, 15.68658
1082.913, 14.90364
1083.395, 14.26130
1083.877, 13.63851
1084.359, 12.92550
1084.841, 12.11331
1085.323, 11.18110
1085.806, 10.10427
1086.288, 9.128471
1086.770, 8.424927
1087.252, 7.765369
1087.734, 7.007824
1088.216, 6.248940
1088.698, 5.565243
1089.180, 4.960651
1089.662, 4.401482
1090.145, 3.875549
1090.627, 3.555794
1091.109, 3.829109
1091.591, 3.899246
1092.073, 3.261292
1092.555, 2.432686
1093.037, 1.633686
1093.519, 1.028271
1094.002, 0.9724010
1094.484, 1.448246
1094.966, 1.602825
1095.448, 0.8155780
1095.930, 0.1935460
1096.412, 0.2206460
1096.894, 0.3900790
1097.376, 0.4292220
1097.859, 0.3858530
1098.341, 0.3638150
1098.823, 0.3452950
1099.305, 0.1463010
1099.787, 0.4761010
1100.269, 0.8596310
1100.751, 0.6425930
1101.233, 0.3742490
1101.715, 0.2947270
1102.198, 0.3224530
1102.680, 0.4327960
1103.162, 0.5656510
1103.644, 0.5014460
1104.126, 8.0661997E-02
1104.608, 0.1115230
1105.090, 0.2974930
1105.572, 0.5991020
1106.054, 0.4870410
1106.537, 0.2284130
1107.019, 6.9274999E-02
1107.501, 0.3168720
1107.983, 0.2632710
1108.465, 0.2153970
1108.947, 0.3792500
1109.429, 0.2710340
1109.911, 0.6207700
1110.394, 0.1507870
1110.876, 0.3685760
1111.358, 0.4363020
1111.840, 0.2753940
1112.322, 0.2735100
1112.804, 0.4481660
1113.286, 0.4972310
1113.768, 0.2603110
1114.250, 0.1679420
1114.733, 0.4268230
1115.215, 0.5869980
1115.697, 0.3503270
1116.179, 2.0587999E-02
1116.661, 2.6066000E-02
1117.143, 0.1614720
1117.625, 0.2153630
1118.107, 3.6072001E-02
1118.589, 3.2749001E-02
1119.072, 0.1038590
1119.554, 0.1747550
1120.036, 0.1577220
1120.518, 7.4173003E-02
1121.000, 0.7513920
1121.482, 1.641098
1121.964, 2.004520
1122.446, 2.403721
1122.929, 2.728195
1123.411, 2.538795
1123.893, 2.844135
1124.375, 2.296795
1124.857, 1.872692
1125.339, 2.220066
1125.821, 2.989670
1126.303, 3.600773
1126.786, 4.061775
1127.268, 4.527397
1127.750, 5.004211
1128.232, 5.422611
1128.714, 5.756260
1129.196, 6.126995
1129.678, 6.615211
1130.160, 7.046234
1130.642, 7.156559
1131.125, 7.085651
1131.607, 7.350765
1132.089, 7.930500
1132.571, 8.386242
1133.053, 8.701191
1133.535, 9.140144
1134.017, 9.791538
1134.499, 10.32131
1134.981, 10.42549
1135.464, 10.33200
1135.946, 10.50014
1136.428, 10.83204
1136.910, 10.94807
1137.392, 10.87999
1137.874, 10.74623
1138.356, 10.58679
1138.838, 10.40722
1139.321, 10.20419
1139.803, 9.968758
1140.285, 9.723854
1140.767, 9.406059
1141.249, 8.717720
1141.731, 7.937080
1142.213, 7.782490
1142.695, 8.136887
1143.177, 8.395996
1143.660, 8.360199
1144.142, 8.143036
1144.624, 7.749611
1145.106, 7.389256
1145.588, 7.306789
1146.070, 7.361244
1146.552, 7.439301
1147.034, 7.490398
1147.516, 7.334885
1147.999, 7.061508
1148.481, 7.149658
1148.963, 7.858398
1149.445, 8.568241
1149.927, 8.981388
1150.409, 9.161568
1150.891, 8.964783
1151.373, 8.714478
1151.856, 8.862545
1152.338, 9.218967
1152.820, 9.223927
1153.302, 8.761219
1153.784, 8.443501
1154.266, 8.582027
1154.748, 8.755894
1155.230, 8.838764
1155.713, 8.903423
1156.195, 9.032207
1156.677, 9.144787
1157.159, 9.112938
1157.641, 8.923275
1158.123, 8.745781
1158.605, 8.635384
1159.087, 8.566635
1159.569, 8.554504
1160.052, 8.525200
1160.534, 8.432957
1161.016, 8.345497
1161.498, 8.372265
1161.980, 8.211517
1162.462, 8.320160
1162.944, 7.943726
1163.426, 7.651806
1163.908, 7.464088
1164.391, 7.445244
1164.873, 7.719559
1165.355, 7.773037
1165.837, 7.222607
1166.319, 6.674931
1166.801, 6.960434
1167.283, 7.856071
1167.765, 8.212715
1168.247, 7.992729
1168.730, 7.815022
1169.212, 7.737835
1169.694, 7.499004
1170.176, 7.010979
1170.658, 6.506268
1171.140, 6.159531
1171.622, 5.920200
1172.104, 5.651268
1172.587, 5.374001
1173.069, 5.319191
1173.551, 5.412766
1174.033, 5.252705
1174.515, 4.819283
1174.997, 4.368210
1175.479, 4.010948
1175.961, 3.694599
1176.443, 3.314999
1176.926, 3.016830
1177.408, 3.162128
1177.890, 3.403709
1178.372, 3.167522
1178.854, 2.676208
1179.336, 2.398426
1179.818, 2.354954
1180.300, 2.245880
1180.782, 1.942215
1181.265, 1.605831
1181.747, 1.239204
1182.229, 0.9903640
1182.711, 1.005997
1183.193, 1.143036
1183.675, 1.390892
1184.157, 1.600758
1184.639, 1.465641
1185.122, 0.9685330
1185.604, 0.6097790
1186.086, 0.6378290
1186.568, 0.5907360
1187.050, 0.1861720
1187.532, 5.2372001E-02
1188.014, 0.2362100
1188.496, 0.6680410
1188.979, 0.9340710
1189.461, 1.049931
1189.943, 1.056492
1190.425, 0.9582600
1190.907, 0.6994780
1191.389, 0.1469760
1191.871, 0.1763990
1192.353, 0.1345180
1192.835, 1.5761999E-02
1193.318, 2.7020000E-02
1193.800, 0.1209490
1194.282, 0.4697570
1194.764, 0.3925130
1195.246, 0.9254000
1195.728, 0.4530640
1196.210, 0.2493820
1196.692, 0.3373950
1197.174, 0.4749640
1197.657, 0.5962680
1198.139, 0.6735880
1198.621, 0.6874690
1199.103, 0.6777040
1199.585, 0.6730380
1200.067, 0.6998290
1200.549, 0.8813820
1201.031, 1.107147
1201.514, 1.101078
1201.996, 0.9119260
1202.478, 0.7736470
1202.960, 0.7410740
1203.442, 0.6807980
1203.924, 0.4983630
1204.406, 0.3175350
1204.888, 0.2330170
1205.370, 0.1891020
1205.853, 7.9273000E-02
1206.335, 3.0376000E-02
1206.817, 0.2848660
1207.299, 0.7137760
1207.781, 0.9728700
1208.263, 0.9920200
1208.745, 0.8636670
1209.227, 0.3877680
1209.709, 9.9349998E-02
1210.192, 0.1356050
1210.674, 0.3515780
1211.156, 0.9136160
1211.638, 1.411068
1212.120, 1.338448
1212.602, 0.8765030
1213.084, 0.7267650
1213.566, 0.9668660
1214.049, 1.128086
1214.531, 1.193970
1215.013, 1.267265
1215.495, 1.401333
1215.977, 1.322746
1216.459, 0.8236470
1216.941, 0.4004020
1217.423, 0.7321240
1217.906, 1.507633
1218.388, 1.728550
1218.870, 1.497181
1219.352, 1.257324
1219.834, 1.070316
1220.316, 1.121704
1220.798, 1.416592
1221.280, 1.738594
1221.762, 1.978127
1222.245, 2.044170
1222.727, 1.733318
1223.209, 1.314503
1223.691, 0.9794430
1224.173, 0.8100890
1224.655, 1.060188
1225.137, 1.504887
1225.619, 1.679829
1226.101, 1.544426
1226.584, 1.392933
1227.066, 1.310905
1227.548, 1.316612
1228.030, 1.509277
1228.512, 1.675987
1228.994, 1.750206
1229.476, 1.742519
1229.958, 1.630566
1230.441, 1.459198
1230.923, 1.282677
1231.405, 1.104221
1231.887, 1.056782
1232.369, 1.181965
1232.851, 1.307465
1233.333, 1.411713
1233.815, 1.578854
1234.297, 1.886326
1234.780, 2.011440
1235.262, 1.673843
1235.744, 1.195557
1236.226, 1.143208
1236.708, 1.459587
1237.190, 1.615738
1237.672, 1.644848
1238.154, 1.734688
1238.636, 1.910599
1239.119, 1.992767
1239.601, 1.926361
1240.083, 1.750237
1240.565, 1.449570
1241.047, 1.192337
1241.529, 1.139557
1242.011, 1.003372
1242.493, 1.083920
1242.975, 1.029873
1243.458, 1.146729
1243.940, 1.357384
1244.422, 1.437382
1244.904, 1.369751
1245.386, 1.414604
1245.868, 1.834419
1246.350, 2.095379
1246.832, 2.097858
1247.315, 1.873749
1247.797, 1.214878
1248.279, 0.6978420
1248.761, 0.8194620
1249.243, 1.228252
1249.725, 1.248936
1250.207, 0.9087940
1250.689, 0.7184070
1251.172, 0.7057760
1251.654, 0.7471810
1252.136, 0.8265040
1252.618, 1.097263
1253.100, 1.602966
1253.582, 1.885590
1254.064, 1.610069
1254.546, 1.150852
1255.028, 1.012268
1255.510, 1.069035
1255.993, 1.178337
1256.475, 1.265022
1256.957, 1.114807
1257.439, 0.8371930
1257.921, 0.7630040
1258.403, 0.9133340
1258.885, 0.9506230
1259.367, 0.6839290
1259.850, 0.4741590
1260.332, 0.5495610
1260.814, 0.6434590
1261.296, 0.6468320
1261.778, 0.6050450
1262.260, 0.5334430
1262.742, 0.4497950
1263.224, 0.3781510
1263.707, 0.3172760
1264.189, 0.2523690
1264.671, 0.2912330
1265.153, 0.1891140
1265.635, 0.4381640
1266.117, 0.6647530
1266.599, 0.8329320
1267.081, 0.8382990
1267.563, 0.6038250
1268.046, 0.3535650
1268.528, 0.3693200
1269.010, 0.5312810
1269.492, 0.5643420
1269.974, 0.5200000
1270.456, 0.5076790
1270.938, 0.5399250
1271.420, 0.6405300
1271.902, 0.7957150
1272.385, 0.9687810
1272.867, 1.145714
1273.349, 1.218361
1273.831, 1.130932
1274.313, 0.9088100
1274.795, 0.3620830
1275.277, 7.2975002E-02
1275.759, 4.1676000E-02
1276.242, 0.1895290
1276.724, 0.3445090
1277.206, 0.4272580
1277.688, 0.4914930
1278.170, 0.5313000
1278.652, 0.6276780
1279.134, 0.5954360
1279.616, 0.8561250
1280.099, 0.4938770
1280.581, 0.2793240
1281.063, 0.3121720
1281.545, 0.3419340
1282.027, 0.1501350
1282.509, 1.1414000E-02
1282.991, 0.4597630
1283.473, 0.5853960
1283.955, 0.0000000E+00
##END=



