##NAMES=Reichenbachite
##RRUFFID=R060867
##IDEAL CHEMISTRY=Cu_5_(PO_4_)_2_(OH)_4_
##LOCALITY=Old Gunnislake mine, Gunnislake, Cornwall, England
##OWNER=RRUFF
##SOURCE=Michael Scott
##DESCRIPTION=Green spherical aggregates forming a coating on quartz
##STATUS=The identification of this mineral is not yet confirmed.
##URL=rruff.info/R060867
131.1651, 0.0000000E+00
131.6472, 2.753906
132.1293, 0.1055910
132.6114, 1.048462
133.0935, 0.8062740
133.5757, 5.278442
134.0578, 11.87402
134.5399, 20.45300
135.0220, 31.40686
135.5041, 41.33801
135.9862, 46.43750
136.4683, 46.06848
136.9505, 50.11926
137.4326, 64.45337
137.9147, 85.22583
138.3968, 84.95154
138.8789, 54.77332
139.3610, 21.55127
139.8432, 14.90857
140.3253, 43.92615
140.8074, 70.03577
141.2895, 80.80176
141.7716, 73.08740
142.2537, 79.92200
142.7359, 110.9875
143.2180, 149.0747
143.7001, 164.1055
144.1822, 139.5601
144.6643, 118.2788
145.1464, 117.5923
145.6286, 153.6665
146.1107, 174.7812
146.5928, 169.8497
147.0749, 149.3074
147.5570, 149.2759
148.0391, 192.5831
148.5213, 235.3639
149.0034, 256.3940
149.4855, 228.8409
149.9676, 212.5448
150.4497, 216.0382
150.9318, 237.8451
151.4140, 253.0132
151.8961, 259.0897
152.3782, 260.3135
152.8603, 259.7408
153.3424, 253.1888
153.8245, 249.4917
154.3067, 254.2450
154.7888, 269.6887
155.2709, 273.8875
155.7530, 258.2429
156.2351, 231.5762
156.7172, 203.5393
157.1993, 162.5564
157.6815, 131.2655
158.1636, 122.3903
158.6457, 145.2446
159.1278, 161.0083
159.6099, 156.1823
160.0920, 134.5193
160.5742, 114.8969
161.0563, 99.36414
161.5384, 89.91296
162.0205, 89.74487
162.5026, 108.5641
162.9847, 120.3340
163.4669, 105.7449
163.9490, 73.20605
164.4311, 48.94482
164.9132, 51.92920
165.3953, 64.99402
165.8774, 73.72754
166.3596, 70.08826
166.8417, 65.45642
167.3238, 68.99817
167.8059, 79.35083
168.2880, 85.63452
168.7701, 75.75305
169.2523, 59.61072
169.7344, 49.48389
170.2165, 56.43909
170.6986, 67.28088
171.1807, 69.45776
171.6628, 62.53320
172.1450, 57.71912
172.6271, 68.34241
173.1092, 86.93689
173.5913, 99.60999
174.0734, 96.16345
174.5555, 84.94983
175.0377, 73.77319
175.5198, 61.99756
176.0019, 55.97266
176.4840, 67.18457
176.9661, 90.40942
177.4482, 109.8629
177.9303, 115.8813
178.4125, 112.4838
178.8946, 106.0692
179.3767, 96.74780
179.8588, 86.07227
180.3409, 75.06580
180.8230, 63.83557
181.3052, 53.42175
181.7873, 44.45020
182.2694, 36.77222
182.7515, 29.80225
183.2336, 23.60986
183.7157, 17.91260
184.1979, 8.436646
184.6800, 4.447021
185.1621, 7.801392
185.6442, 24.23376
186.1263, 80.03638
186.6084, 104.5269
187.0906, 65.54114
187.5727, 6.665894
188.0548, 31.06433
188.5369, 6.168701
189.0190, 35.01196
189.5011, 66.32251
189.9833, 87.72205
190.4654, 103.2643
190.9475, 113.3137
191.4296, 120.0093
191.9117, 123.3517
192.3938, 120.8561
192.8760, 125.1013
193.3581, 162.8245
193.8402, 233.9041
194.3223, 287.0656
194.8044, 294.3872
195.2865, 259.4305
195.7687, 229.9398
196.2508, 205.4752
196.7329, 186.7520
197.2150, 176.1392
197.6971, 174.4674
198.1792, 173.1462
198.6613, 167.9850
199.1435, 158.8221
199.6256, 149.8633
200.1077, 140.9713
200.5898, 132.6456
201.0719, 126.9192
201.5540, 124.8684
202.0362, 120.1913
202.5183, 107.9783
203.0004, 87.12488
203.4825, 67.48779
203.9646, 47.64990
204.4467, 30.67065
204.9289, 28.09204
205.4110, 43.58691
205.8931, 61.66614
206.3752, 71.51562
206.8573, 71.25220
207.3394, 73.20068
207.8216, 81.16602
208.3037, 92.34717
208.7858, 90.58215
209.2679, 69.99951
209.7500, 49.70520
210.2321, 45.96460
210.7143, 63.31128
211.1964, 80.50305
211.6785, 94.57922
212.1606, 105.7935
212.6427, 116.4548
213.1248, 128.7162
213.6070, 137.1552
214.0891, 134.8594
214.5712, 116.2284
215.0533, 103.1350
215.5354, 102.7216
216.0175, 114.9387
216.4997, 117.2942
216.9818, 105.2434
217.4639, 88.91101
217.9460, 78.97217
218.4281, 76.20093
218.9102, 78.22021
219.3923, 86.14478
219.8745, 100.7990
220.3566, 111.4420
220.8387, 118.6630
221.3208, 121.2238
221.8029, 116.1528
222.2850, 98.48352
222.7672, 83.54858
223.2493, 75.34192
223.7314, 73.92529
224.2135, 79.93872
224.6956, 99.00488
225.1777, 121.4829
225.6599, 133.0537
226.1420, 131.2046
226.6241, 122.5602
227.1062, 106.0583
227.5883, 74.32166
228.0704, 61.50220
228.5526, 78.34302
229.0347, 108.3911
229.5168, 120.3501
229.9989, 104.6660
230.4810, 86.29919
230.9632, 73.87646
231.4453, 67.73022
231.9274, 67.32922
232.4095, 78.28528
232.8916, 93.01440
233.3737, 92.81982
233.8559, 67.82495
234.3380, 42.90125
234.8201, 28.42346
235.3022, 29.07959
235.7843, 30.74377
236.2664, 35.65161
236.7486, 41.21399
237.2307, 39.02991
237.7128, 24.16040
238.1949, 8.602783
238.6770, 1.807129
239.1591, 4.486328
239.6412, 7.598633
240.1234, 12.23193
240.6055, 17.42578
241.0876, 19.85120
241.5697, 19.28992
242.0518, 16.30811
242.5339, 10.34338
243.0161, 3.042358
243.4982, 9.774658
243.9803, 6.000122
244.4624, 5.442749
244.9445, 11.75781
245.4266, 9.377441
245.9088, 8.031372
246.3909, 12.03894
246.8730, 31.89612
247.3551, 37.44873
247.8372, 19.34412
248.3193, 16.30920
248.8015, 35.03345
249.2836, 27.71997
249.7657, 15.40723
250.2478, 11.65796
250.7299, 21.82471
251.2120, 28.50696
251.6942, 26.85986
252.1763, 19.61609
252.6584, 25.30212
253.1405, 53.08313
253.6226, 81.07190
254.1047, 93.50732
254.5869, 82.47827
255.0690, 74.69397
255.5511, 74.74023
256.0332, 80.95703
256.5153, 80.80017
256.9974, 68.66284
257.4796, 57.95972
257.9617, 59.95081
258.4438, 82.87036
258.9259, 97.18823
259.4080, 96.01318
259.8901, 81.92029
260.3723, 75.67590
260.8544, 78.96228
261.3365, 86.89160
261.8186, 97.10388
262.3007, 112.2592
262.7828, 121.8284
263.2650, 122.5275
263.7471, 115.8174
264.2292, 113.3092
264.7113, 117.0341
265.1934, 121.5195
265.6755, 122.7717
266.1577, 120.9908
266.6398, 114.6687
267.1219, 99.89893
267.6040, 79.41797
268.0861, 75.50171
268.5682, 93.98828
269.0503, 117.5731
269.5324, 133.0897
270.0146, 140.5259
270.4967, 140.5985
270.9788, 130.7637
271.4609, 113.3033
271.9430, 102.5745
272.4251, 99.15686
272.9073, 101.0881
273.3894, 108.0834
273.8715, 121.2373
274.3536, 132.8334
274.8357, 141.0029
275.3178, 146.6661
275.8000, 154.3954
276.2821, 164.0549
276.7642, 176.1183
277.2463, 192.4856
277.7284, 213.7253
278.2105, 231.5483
278.6927, 243.3140
279.1748, 250.8677
279.6569, 261.5605
280.1390, 275.7167
280.6211, 291.8406
281.1032, 312.2809
281.5854, 336.6722
282.0675, 347.0917
282.5496, 333.6797
283.0317, 307.5068
283.5138, 307.6667
283.9959, 337.4642
284.4781, 371.7676
284.9602, 391.6044
285.4423, 397.4075
285.9244, 395.8997
286.4065, 385.3837
286.8886, 372.2036
287.3708, 372.0704
287.8529, 384.9785
288.3350, 396.2424
288.8171, 393.8167
289.2992, 379.3939
289.7813, 360.4756
290.2635, 334.7549
290.7456, 308.1124
291.2277, 296.7777
291.7098, 300.6061
292.1919, 301.6294
292.6740, 281.1058
293.1562, 245.2242
293.6383, 218.9965
294.1204, 209.2852
294.6025, 208.2386
295.0846, 202.1095
295.5667, 191.7382
296.0489, 182.2505
296.5310, 177.7754
297.0131, 176.8861
297.4952, 176.2747
297.9773, 176.2415
298.4594, 175.1458
298.9416, 168.6672
299.4237, 157.8046
299.9058, 145.1909
300.3879, 128.2565
300.8700, 111.7723
301.3521, 104.9412
301.8343, 111.5929
302.3164, 121.2800
302.7985, 126.3182
303.2806, 126.4597
303.7627, 119.2762
304.2448, 90.82568
304.7270, 56.84888
305.2091, 45.12976
305.6912, 67.82031
306.1733, 92.21973
306.6554, 81.92346
307.1375, 48.31836
307.6197, 21.37012
308.1018, 21.29297
308.5839, 33.07812
309.0660, 43.13037
309.5481, 50.21057
310.0302, 54.03772
310.5123, 52.16699
310.9944, 47.00427
311.4766, 43.16235
311.9587, 45.31946
312.4408, 47.93750
312.9229, 46.40417
313.4050, 39.49097
313.8871, 32.66968
314.3693, 27.43726
314.8514, 24.28662
315.3335, 23.91675
315.8156, 33.47485
316.2977, 40.45166
316.7798, 33.96619
317.2620, 10.29260
317.7441, 3.091431
318.2262, 13.23010
318.7083, 42.69409
319.1904, 65.66785
319.6725, 73.16248
320.1547, 76.28662
320.6368, 78.87744
321.1189, 81.28088
321.6010, 81.09009
322.0831, 72.29590
322.5652, 63.03040
323.0474, 60.75354
323.5295, 78.12329
324.0116, 91.03369
324.4937, 91.74451
324.9758, 79.96716
325.4579, 70.71631
325.9401, 67.70312
326.4222, 66.64343
326.9043, 64.50940
327.3864, 56.61084
327.8685, 52.69104
328.3506, 58.39758
328.8328, 72.08496
329.3149, 74.51062
329.7970, 53.72705
330.2791, 31.57593
330.7612, 21.32959
331.2433, 34.59167
331.7255, 41.70032
332.2076, 39.18445
332.6897, 28.91321
333.1718, 19.36230
333.6539, 6.695801
334.1360, 0.5922850
334.6182, 8.338989
335.1003, 39.08643
335.5824, 56.36462
336.0645, 55.66858
336.5466, 42.66711
337.0287, 29.87048
337.5109, 15.04211
337.9930, 3.939331
338.4751, 0.7916260
338.9572, 8.140259
339.4393, 12.07593
339.9214, 11.04236
340.4036, 7.724243
340.8857, 6.272583
341.3678, 5.866455
341.8499, 6.902344
342.3320, 15.25854
342.8141, 30.88831
343.2963, 31.55859
343.7784, 13.30054
344.2605, 7.444946
344.7426, 5.506348
345.2247, 17.47119
345.7068, 33.14417
346.1890, 26.59497
346.6711, 6.414551
347.1532, 1.138794
347.6353, 11.84412
348.1174, 28.58716
348.5995, 45.28027
349.0817, 60.49524
349.5638, 68.82483
350.0459, 66.72498
350.5280, 57.80188
351.0101, 42.85229
351.4922, 22.78662
351.9743, 12.28979
352.4565, 35.54944
352.9386, 75.32397
353.4207, 99.14355
353.9028, 94.60962
354.3849, 76.25696
354.8670, 50.64600
355.3492, 21.18359
355.8313, 2.805176
356.3134, 16.22656
356.7955, 40.56836
357.2776, 52.63098
357.7597, 43.54150
358.2419, 30.40283
358.7240, 22.32922
359.2061, 18.41174
359.6882, 16.49231
360.1703, 15.97534
360.6524, 16.84412
361.1346, 19.11951
361.6167, 22.79028
362.0988, 27.68396
362.5809, 32.01697
363.0630, 37.84082
363.5451, 48.18164
364.0273, 71.84106
364.5094, 93.04004
364.9915, 105.8834
365.4736, 109.3625
365.9557, 108.8102
366.4378, 100.7004
366.9200, 91.01733
367.4021, 85.53809
367.8842, 80.50061
368.3663, 84.30188
368.8484, 104.8730
369.3305, 142.5149
369.8127, 165.1451
370.2948, 163.8229
370.7769, 155.3527
371.2590, 150.5765
371.7411, 148.8564
372.2232, 152.2616
372.7054, 163.5078
373.1875, 180.3021
373.6696, 191.8169
374.1517, 196.3229
374.6338, 198.4620
375.1159, 200.6138
375.5981, 202.9286
376.0802, 204.3271
376.5623, 204.9062
377.0444, 204.1257
377.5265, 201.1510
378.0086, 196.2130
378.4908, 188.0896
378.9729, 174.3761
379.4550, 155.3293
379.9371, 141.7236
380.4192, 134.4227
380.9013, 129.6499
381.3835, 121.7484
381.8656, 111.2048
382.3477, 103.2957
382.8298, 102.0249
383.3119, 104.1898
383.7940, 100.8052
384.2762, 91.78113
384.7583, 81.75989
385.2404, 75.39746
385.7225, 71.26489
386.2046, 65.99829
386.6867, 58.72083
387.1689, 49.68140
387.6510, 37.35840
388.1331, 22.74963
388.6152, 10.76843
389.0973, 8.096558
389.5794, 8.392334
390.0616, 4.319580
390.5437, 6.742065
391.0258, 19.27429
391.5079, 33.89941
391.9900, 47.31689
392.4721, 52.57690
392.9542, 36.04956
393.4363, 18.16724
393.9185, 12.93738
394.4006, 24.49414
394.8827, 32.85925
395.3648, 26.17700
395.8469, 14.76965
396.3290, 10.51050
396.8112, 24.28479
397.2933, 36.59875
397.7754, 44.36682
398.2575, 47.78943
398.7396, 41.84216
399.2217, 10.70898
399.7039, 20.06775
400.1860, 33.82166
400.6681, 18.52075
401.1502, 2.882813
401.6323, 15.63782
402.1144, 34.49854
402.5966, 37.87549
403.0787, 16.31799
403.5608, 7.422852
404.0429, 22.02979
404.5250, 24.00928
405.0071, 27.76501
405.4893, 35.51123
405.9714, 44.36450
406.4535, 49.45825
406.9356, 50.37195
407.4177, 49.69934
407.8998, 46.52673
408.3820, 41.81702
408.8641, 45.00647
409.3462, 57.26147
409.8283, 71.21082
410.3104, 80.66089
410.7925, 85.55652
411.2747, 87.78748
411.7568, 86.69604
412.2389, 84.26733
412.7210, 82.51233
413.2031, 81.71167
413.6852, 84.81140
414.1674, 102.1162
414.6495, 124.1688
415.1316, 134.5535
415.6137, 126.9480
416.0958, 116.1953
416.5779, 115.2426
417.0601, 121.0409
417.5422, 126.1129
418.0243, 124.4805
418.5064, 122.6364
418.9885, 124.6921
419.4706, 131.0111
419.9528, 141.1794
420.4349, 156.9089
420.9170, 175.7100
421.3991, 194.6301
421.8812, 217.2693
422.3633, 235.6145
422.8455, 245.2389
423.3276, 246.9768
423.8097, 251.0237
424.2918, 267.3842
424.7739, 280.2860
425.2560, 280.3324
425.7382, 248.0835
426.2203, 231.8743
426.7024, 238.8199
427.1845, 260.8684
427.6666, 278.5408
428.1487, 292.9431
428.6309, 300.7476
429.1130, 298.8403
429.5951, 285.4321
430.0772, 276.2733
430.5593, 271.5011
431.0414, 270.6622
431.5236, 277.0679
432.0057, 292.2162
432.4878, 295.1011
432.9699, 273.1313
433.4520, 237.5325
433.9341, 228.4255
434.4162, 246.6626
434.8983, 271.1995
435.3805, 285.1309
435.8626, 292.0662
436.3447, 303.9353
436.8268, 324.3247
437.3089, 346.2645
437.7910, 361.4823
438.2732, 371.3864
438.7553, 380.4437
439.2374, 383.8328
439.7195, 391.5449
440.2016, 417.7097
440.6837, 464.5681
441.1659, 509.6582
441.6480, 536.6050
442.1301, 554.3538
442.6122, 573.0437
443.0943, 591.0308
443.5764, 615.3845
444.0586, 651.0698
444.5407, 696.6453
445.0228, 743.3989
445.5049, 781.3042
445.9870, 825.3213
446.4691, 884.2461
446.9513, 977.5771
447.4334, 1055.147
447.9155, 1106.806
448.3976, 1144.259
448.8797, 1188.481
449.3618, 1243.880
449.8440, 1298.386
450.3261, 1347.129
450.8082, 1391.105
451.2903, 1446.414
451.7724, 1518.381
452.2545, 1587.181
452.7367, 1628.845
453.2188, 1639.535
453.7009, 1669.062
454.1830, 1731.935
454.6651, 1810.949
455.1472, 1874.534
455.6294, 1922.394
456.1115, 1947.633
456.5936, 1934.039
457.0757, 1895.871
457.5578, 1872.321
458.0399, 1868.123
458.5221, 1860.929
459.0042, 1824.585
459.4863, 1767.222
459.9684, 1706.649
460.4505, 1658.499
460.9326, 1607.860
461.4148, 1536.558
461.8969, 1446.938
462.3790, 1359.694
462.8611, 1290.011
463.3432, 1225.684
463.8253, 1156.924
464.3075, 1076.097
464.7896, 1000.559
465.2717, 936.4822
465.7538, 881.9578
466.2359, 834.1274
466.7180, 793.7161
467.2002, 758.2449
467.6823, 729.1018
468.1644, 708.1438
468.6465, 680.0200
469.1286, 636.0251
469.6107, 592.8962
470.0929, 567.5137
470.5750, 572.5259
471.0571, 558.8618
471.5392, 511.4619
472.0213, 444.8645
472.5034, 407.0408
472.9856, 401.2454
473.4677, 407.7114
473.9498, 422.0662
474.4319, 442.2512
474.9140, 449.7229
475.3961, 443.6946
475.8782, 426.5845
476.3604, 392.8059
476.8425, 348.3748
477.3246, 315.5693
477.8067, 305.0496
478.2888, 307.0571
478.7709, 311.8901
479.2531, 319.2375
479.7352, 327.0637
480.2173, 340.8486
480.6994, 350.9578
481.1815, 344.1345
481.6636, 309.4534
482.1458, 283.6541
482.6279, 293.2607
483.1100, 320.5945
483.5921, 339.1882
484.0742, 333.9714
484.5563, 326.5181
485.0385, 323.0168
485.5206, 323.6597
486.0027, 325.5630
486.4848, 335.4695
486.9669, 340.8940
487.4490, 333.1987
487.9312, 302.5012
488.4133, 279.7180
488.8954, 267.7756
489.3775, 263.6650
489.8596, 261.3181
490.3417, 260.7781
490.8239, 262.7002
491.3060, 269.3923
491.7881, 279.6797
492.2702, 283.3425
492.7523, 279.6755
493.2344, 274.1482
493.7166, 274.1619
494.1987, 276.9373
494.6808, 274.3413
495.1629, 263.3579
495.6450, 251.4634
496.1271, 247.7952
496.6093, 251.0247
497.0914, 256.4773
497.5735, 256.2449
498.0556, 258.7361
498.5377, 275.0977
499.0198, 307.1824
499.5020, 334.2593
499.9841, 346.0605
500.4662, 350.3193
500.9483, 354.0193
501.4304, 355.3276
501.9125, 352.3157
502.3947, 342.1287
502.8768, 329.4485
503.3589, 325.1262
503.8410, 334.9910
504.3231, 344.0413
504.8052, 347.2058
505.2874, 343.2920
505.7695, 346.0625
506.2516, 357.2603
506.7337, 369.0769
507.2158, 375.2056
507.6979, 375.2935
508.1801, 375.2349
508.6622, 375.4951
509.1443, 377.0171
509.6264, 382.5762
510.1085, 392.1025
510.5906, 403.2693
511.0728, 412.5139
511.5549, 421.8589
512.0370, 442.2646
512.5191, 475.9658
513.0012, 500.5276
513.4833, 480.6870
513.9655, 442.9563
514.4476, 427.6018
514.9297, 474.3877
515.4118, 518.1482
515.8939, 511.3689
516.3760, 469.7419
516.8582, 446.1035
517.3403, 476.2915
517.8224, 512.9766
518.3045, 533.5217
518.7866, 530.7886
519.2687, 529.9644
519.7509, 542.7974
520.2330, 551.5042
520.7151, 536.2666
521.1972, 479.4451
521.6793, 437.4690
522.1614, 422.6104
522.6436, 426.6755
523.1257, 422.1460
523.6078, 408.4573
524.0899, 389.0278
524.5720, 360.8774
525.0541, 326.6548
525.5363, 306.3479
526.0184, 301.3560
526.5005, 302.3926
526.9826, 305.3008
527.4647, 306.6785
527.9468, 296.5437
528.4290, 266.6707
528.9111, 232.3838
529.3932, 204.4475
529.8753, 183.8938
530.3574, 174.2622
530.8395, 190.5615
531.3217, 208.5254
531.8038, 211.0569
532.2859, 194.6350
532.7680, 179.8711
533.2501, 121.1799
533.7322, 158.9517
534.2144, 179.7939
534.6965, 184.6206
535.1786, 125.4385
535.6607, 148.9238
536.1428, 139.2864
536.6249, 128.2971
537.1070, 163.4324
537.5891, 113.5876
538.0712, 148.0022
538.5533, 148.7888
539.0355, 164.9741
539.5176, 147.8335
539.9997, 140.9932
540.4818, 167.5015
540.9639, 142.4543
541.4460, 145.1753
541.9282, 144.1628
542.4103, 140.8076
542.8924, 136.0356
543.3745, 130.1445
543.8566, 124.2881
544.3387, 120.1516
544.8209, 115.3257
545.3030, 109.9219
545.7851, 103.5454
546.2672, 89.86377
546.7493, 52.79761
547.2314, 16.23682
547.7136, 2.921631
548.1957, 8.608154
548.6778, 19.86670
549.1599, 34.67822
549.6420, 45.65625
550.1241, 39.83032
550.6063, 3.305664
551.0884, 23.03076
551.5705, 26.41211
552.0526, 11.16931
552.5347, 6.391724
553.0168, 13.50525
553.4990, 24.53113
553.9811, 37.95801
554.4632, 52.08752
554.9453, 54.66882
555.4274, 43.65454
555.9095, 27.24670
556.3917, 5.527466
556.8738, 14.66895
557.3559, 16.22595
557.8380, 25.40930
558.3201, 66.45752
558.8022, 62.94238
559.2844, 26.91736
559.7665, 0.5640870
560.2486, 7.889526
560.7307, 21.16553
561.2128, 20.95056
561.6949, 1.439453
562.1771, 9.122192
562.6592, 5.251831
563.1413, 22.37537
563.6234, 24.25098
564.1055, 1.434570
564.5876, 17.12329
565.0698, 29.23376
565.5519, 35.87561
566.0340, 39.14294
566.5161, 39.16492
566.9982, 34.38354
567.4803, 19.62805
567.9625, 9.0088002E-02
568.4446, 2.309692
568.9267, 12.46411
569.4088, 29.89050
569.8909, 37.27820
570.3730, 39.65405
570.8552, 44.70312
571.3373, 53.02405
571.8194, 66.68494
572.3015, 96.39563
572.7836, 130.1150
573.2657, 150.7832
573.7479, 135.0979
574.2300, 122.9352
574.7121, 134.1205
575.1942, 163.4199
575.6763, 179.1270
576.1584, 158.9532
576.6406, 145.1226
577.1227, 157.5309
577.6048, 204.5756
578.0869, 222.7261
578.5690, 167.9845
579.0511, 211.9081
579.5333, 238.8992
580.0154, 249.8629
580.4975, 196.8125
580.9796, 226.4218
581.4617, 222.9026
581.9438, 218.0242
582.4260, 259.2653
582.9081, 215.5178
583.3902, 256.0231
583.8723, 262.8948
584.3544, 285.1570
584.8365, 296.0493
585.3187, 329.2358
585.8008, 329.6039
586.2829, 320.7087
586.7650, 320.7266
587.2471, 337.7129
587.7292, 348.8721
588.2114, 346.3035
588.6935, 337.3888
589.1756, 330.5068
589.6577, 325.7908
590.1398, 323.2366
590.6219, 324.6390
591.1041, 327.6409
591.5862, 325.6929
592.0683, 319.3053
592.5504, 305.6572
593.0325, 279.5853
593.5146, 244.6757
593.9968, 216.1185
594.4789, 194.0459
594.9610, 179.5208
595.4431, 179.7275
595.9252, 186.2377
596.4073, 184.3197
596.8895, 168.8445
597.3716, 152.2034
597.8537, 142.8171
598.3358, 137.6033
598.8179, 133.1190
599.3000, 126.8174
599.7822, 118.4222
600.2643, 106.9329
600.7464, 94.12549
601.2285, 89.82373
601.7106, 104.7075
602.1927, 113.7684
602.6749, 104.1437
603.1570, 73.64478
603.6391, 55.70593
604.1212, 51.53125
604.6033, 56.72473
605.0854, 73.22913
605.5676, 98.26819
606.0497, 110.0393
606.5318, 102.4646
607.0139, 89.27673
607.4960, 90.29993
607.9781, 98.86377
608.4603, 99.72522
608.9424, 76.22693
609.4245, 50.64124
609.9066, 37.56982
610.3887, 35.20557
610.8708, 36.26904
611.3530, 43.62085
611.8351, 49.05933
612.3172, 48.40833
612.7993, 40.75562
613.2814, 34.10718
613.7635, 28.58740
614.2457, 24.97937
614.7278, 21.73376
615.2099, 16.80505
615.6920, 21.09131
616.1741, 39.74768
616.6563, 60.27222
617.1384, 54.13782
617.6205, 24.96021
618.1026, 3.405273
618.5847, 4.254028
619.0668, 16.90247
619.5489, 28.21692
620.0310, 37.96460
620.5131, 47.88660
620.9952, 66.09314
621.4774, 80.00610
621.9595, 77.22375
622.4416, 54.01416
622.9237, 38.13855
623.4058, 46.19641
623.8879, 58.81677
624.3701, 62.10669
624.8522, 48.35608
625.3343, 38.93494
625.8164, 35.38806
626.2985, 34.33997
626.7806, 30.12781
627.2628, 21.18872
627.7449, 17.17090
628.2270, 21.82434
628.7091, 31.42029
629.1912, 40.10449
629.6733, 47.29102
630.1555, 48.29968
630.6376, 31.75354
631.1197, 13.30945
631.6018, 15.02344
632.0839, 34.25891
632.5660, 48.45654
633.0482, 40.58105
633.5303, 26.42676
634.0124, 17.49646
634.4945, 15.98987
634.9766, 18.04541
635.4587, 27.80469
635.9409, 38.21448
636.4230, 41.51831
636.9051, 33.44153
637.3872, 28.46277
637.8693, 29.26526
638.3514, 33.70862
638.8336, 38.48169
639.3157, 43.49854
639.7978, 44.42578
640.2799, 36.12646
640.7620, 24.14160
641.2441, 20.38416
641.7263, 23.73047
642.2084, 26.26050
642.6905, 20.83289
643.1726, 13.79089
643.6547, 9.032349
644.1368, 6.427368
644.6190, 11.57678
645.1011, 38.94104
645.5832, 66.89795
646.0653, 76.99365
646.5474, 54.36682
647.0295, 39.15808
647.5117, 35.27478
647.9938, 36.01794
648.4759, 28.85852
648.9580, 11.89917
649.4401, 2.298462
649.9222, 5.522583
650.4044, 15.94189
650.8865, 26.67029
651.3686, 37.04089
651.8507, 42.21240
652.3328, 35.29846
652.8149, 23.45154
653.2971, 14.24548
653.7792, 8.842773
654.2613, 7.078491
654.7434, 11.29346
655.2255, 13.79565
655.7076, 8.356323
656.1898, 15.06726
656.6719, 18.70398
657.1540, 13.15051
657.6361, 54.12476
658.1182, 78.30359
658.6003, 81.49316
659.0825, 77.27710
659.5646, 65.26147
660.0467, 50.58105
660.5288, 39.69006
661.0109, 33.08508
661.4930, 35.97522
661.9752, 60.03479
662.4573, 84.58374
662.9394, 78.27319
663.4215, 48.16052
663.9036, 19.39099
664.3857, 1.945679
664.8679, 7.750244
665.3500, 10.23779
665.8321, 5.445190
666.3142, 0.1361080
666.7963, 4.264282
667.2784, 8.917725
667.7606, 14.79272
668.2427, 23.06335
668.7248, 26.42712
669.2069, 21.54492
669.6890, 18.55847
670.1711, 33.64929
670.6533, 63.99072
671.1354, 80.18750
671.6175, 74.19653
672.0996, 61.01892
672.5817, 60.75964
673.0638, 67.50977
673.5460, 68.88477
674.0281, 52.12256
674.5102, 36.17786
674.9923, 31.47278
675.4744, 35.80896
675.9565, 42.12427
676.4387, 50.73572
676.9208, 60.03052
677.4029, 73.40491
677.8850, 90.08130
678.3671, 83.99158
678.8492, 45.38416
679.3314, 9.092651
679.8135, 3.363892
680.2956, 6.468872
680.7777, 25.96521
681.2598, 56.10327
681.7419, 83.10229
682.2241, 96.54834
682.7062, 97.76880
683.1883, 85.32446
683.6704, 52.26819
684.1525, 27.99548
684.6346, 38.97620
685.1168, 65.02100
685.5989, 81.41797
686.0810, 77.12024
686.5631, 69.95581
687.0452, 62.90942
687.5273, 54.17944
688.0095, 36.43066
688.4916, 1.927734
688.9737, 13.58777
689.4558, 6.700562
689.9379, 50.05530
690.4200, 79.77759
690.9022, 96.27600
691.3843, 102.1056
691.8664, 95.50061
692.3485, 80.92358
692.8306, 58.47510
693.3127, 29.58752
693.7949, 11.07397
694.2770, 19.08655
694.7591, 35.08020
695.2412, 48.49573
695.7233, 59.26868
696.2054, 61.79993
696.6876, 49.66333
697.1697, 35.68518
697.6518, 30.83289
698.1339, 37.31360
698.6160, 41.48035
699.0981, 41.70850
699.5803, 41.25574
700.0624, 48.22021
700.5444, 59.21204
701.0266, 58.89551
701.5087, 36.23010
701.9908, 13.35193
702.4729, 16.56580
702.9550, 35.45593
703.4371, 48.55737
703.9193, 40.82507
704.4014, 33.29626
704.8835, 37.60852
705.3656, 49.94714
705.8477, 48.30701
706.3298, 21.15759
706.8120, 0.8714600
707.2941, 5.052979
707.7762, 6.310303
708.2583, 9.729492
708.7404, 4.418701
709.2225, 1.503906
709.7047, 0.4809570
710.1868, 5.216309
710.6689, 3.114746
711.1510, 25.37988
711.6331, 38.80774
712.1152, 16.86133
712.5974, 15.02319
713.0795, 34.56506
713.5616, 36.02441
714.0437, 29.04810
714.5258, 4.800659
715.0079, 16.91150
715.4901, 21.11548
715.9722, 2.349243
716.4543, 18.51160
716.9364, 42.69360
717.4185, 63.92773
717.9006, 71.36206
718.3828, 66.26062
718.8649, 57.92590
719.3470, 47.30713
719.8291, 39.11023
720.3112, 34.52002
720.7933, 34.57288
721.2755, 39.01782
721.7576, 58.90015
722.2397, 71.60205
722.7218, 60.22974
723.2039, 31.22083
723.6860, 16.83557
724.1682, 27.65686
724.6503, 38.54944
725.1324, 39.02100
725.6145, 31.36609
726.0966, 43.28894
726.5787, 77.42407
727.0609, 102.8163
727.5430, 88.53320
728.0251, 53.12903
728.5072, 39.00403
728.9893, 46.93164
729.4714, 57.38098
729.9536, 59.09729
730.4357, 56.00610
730.9178, 50.23694
731.3999, 40.42969
731.8820, 34.82507
732.3641, 42.18933
732.8463, 49.05286
733.3284, 44.28381
733.8105, 21.43384
734.2926, 8.980835
734.7747, 9.408691
735.2568, 17.20862
735.7390, 26.21899
736.2211, 36.84460
736.7032, 52.08264
737.1853, 75.90894
737.6674, 96.66370
738.1495, 97.10242
738.6317, 85.06006
739.1138, 75.95813
739.5959, 79.06567
740.0780, 85.16492
740.5601, 94.23975
741.0422, 104.2393
741.5244, 110.9762
742.0065, 116.3267
742.4886, 113.3511
742.9707, 97.73315
743.4528, 75.82202
743.9349, 67.54858
744.4171, 72.62244
744.8992, 83.72229
745.3813, 102.9375
745.8634, 122.2645
746.3455, 126.3655
746.8276, 118.1143
747.3098, 116.1577
747.7919, 102.5140
748.2740, 142.1440
748.7561, 164.8367
749.2382, 171.5028
749.7203, 114.1508
750.2025, 139.4584
750.6846, 131.6338
751.1667, 122.3912
751.6488, 159.0833
752.1309, 110.8835
752.6130, 147.0416
753.0952, 149.5999
753.5773, 167.5471
754.0594, 152.1593
754.5415, 147.0637
755.0236, 175.2753
755.5057, 184.9994
755.9879, 165.7366
756.4700, 184.6353
756.9521, 135.3738
757.4342, 145.9170
757.9163, 182.2747
758.3984, 164.7009
758.8806, 184.2053
759.3627, 125.9290
759.8448, 94.06409
760.3269, 82.02112
760.8090, 96.70178
761.2911, 119.3267
761.7733, 124.7672
762.2554, 118.5068
762.7375, 114.6733
763.2196, 117.7823
763.7017, 122.8032
764.1838, 128.2802
764.6660, 132.2965
765.1481, 132.6027
765.6302, 121.9543
766.1123, 117.7190
766.5944, 127.1400
767.0765, 141.1624
767.5587, 140.6699
768.0408, 122.0826
768.5229, 108.1168
769.0050, 104.8390
769.4871, 107.6981
769.9692, 111.5852
770.4514, 115.9410
770.9335, 117.1997
771.4156, 112.3412
771.8977, 105.4265
772.3798, 98.41003
772.8619, 90.49402
773.3441, 83.33716
773.8262, 81.17957
774.3083, 77.71790
774.7904, 70.86523
775.2725, 61.03992
775.7546, 48.84937
776.2368, 32.02136
776.7189, 23.52136
777.2010, 22.18115
777.6831, 20.36084
778.1652, 45.95422
778.6473, 55.52356
779.1295, 1.095093
779.6116, 29.32593
780.0937, 24.43274
780.5758, 18.18494
781.0579, 58.04822
781.5400, 45.05750
782.0222, 41.03552
782.5043, 36.51208
782.9863, 29.09668
783.4684, 18.55750
783.9506, 13.71851
784.4327, 15.66309
784.9148, 18.03235
785.3969, 13.72058
785.8790, 6.813965
786.3611, 10.43982
786.8433, 24.98315
787.3254, 36.03003
787.8075, 30.45142
788.2896, 19.41736
788.7717, 10.35168
789.2538, 2.891846
789.7360, 4.209473
790.2181, 27.02490
790.7002, 45.98718
791.1823, 41.78430
791.6644, 9.431885
792.1465, 7.675293
792.6287, 7.197510
793.1108, 1.399658
793.5929, 1.012939
794.0750, 0.7351070
794.5571, 12.38562
795.0392, 37.41846
795.5214, 51.89490
796.0035, 35.57751
796.4856, 4.882568
796.9677, 28.16235
797.4498, 77.75342
797.9319, 91.96167
798.4141, 47.53516
798.8962, 6.527100
799.3783, 20.28979
799.8604, 7.887207
800.3425, 29.83984
800.8246, 41.43481
801.3068, 44.76904
801.7889, 33.14404
802.2710, 17.00317
802.7531, 17.51050
803.2352, 46.32666
803.7173, 70.87598
804.1995, 72.25220
804.6816, 62.69824
805.1637, 55.50464
805.6458, 52.03638
806.1279, 49.72314
806.6100, 47.35596
807.0922, 47.78931
807.5743, 57.74536
808.0564, 75.81055
808.5385, 84.66382
809.0206, 77.93140
809.5027, 73.68750
809.9849, 104.9856
810.4670, 147.7078
810.9491, 165.3608
811.4312, 132.6875
811.9133, 98.58472
812.3954, 62.82935
812.8776, 39.95557
813.3597, 52.42163
813.8418, 120.7739
814.3239, 161.3857
814.8060, 158.2449
815.2881, 136.8076
815.7703, 134.6917
816.2524, 147.8350
816.7345, 161.2056
817.2166, 171.8306
817.6987, 179.1372
818.1808, 184.2341
818.6630, 185.0933
819.1451, 178.7241
819.6272, 145.5686
820.1093, 130.9226
820.5914, 149.9983
821.0735, 181.5237
821.5557, 192.5654
822.0378, 180.4568
822.5199, 169.3860
823.0020, 162.5132
823.4841, 161.5569
823.9662, 174.0947
824.4484, 194.1543
824.9305, 208.1768
825.4126, 210.4985
825.8947, 207.3413
826.3768, 194.0273
826.8589, 179.4219
827.3411, 178.9148
827.8232, 204.4026
828.3053, 223.0251
828.7874, 230.9775
829.2695, 232.0608
829.7516, 230.5645
830.2338, 227.0679
830.7159, 228.8462
831.1980, 240.9871
831.6801, 250.5696
832.1622, 241.3264
832.6443, 220.6355
833.1265, 200.2080
833.6086, 173.4546
834.0907, 160.7649
834.5728, 179.5964
835.0549, 207.8853
835.5370, 219.9114
836.0192, 208.9688
836.5013, 204.3271
836.9834, 212.1235
837.4655, 223.0579
837.9476, 221.4453
838.4297, 211.5986
838.9119, 206.2432
839.3940, 212.7944
839.8761, 216.3152
840.3582, 196.3645
840.8403, 171.3503
841.3224, 166.9087
841.8046, 215.1038
842.2867, 240.1768
842.7688, 232.8806
843.2509, 208.7041
843.7330, 181.3909
844.2151, 152.0232
844.6973, 151.8635
845.1794, 191.7700
845.6615, 242.1812
846.1436, 281.4458
846.6257, 306.1965
847.1078, 308.8032
847.5900, 269.0105
848.0721, 241.4387
848.5542, 250.8271
849.0363, 274.9241
849.5184, 292.7583
850.0005, 304.0942
850.4827, 306.5886
850.9648, 296.1562
851.4469, 289.0557
851.9290, 312.0232
852.4111, 353.8494
852.8932, 386.5557
853.3754, 405.5811
853.8575, 416.1809
854.3396, 419.1687
854.8217, 414.9912
855.3038, 404.3906
855.7859, 377.6414
856.2681, 366.2156
856.7502, 373.7603
857.2323, 385.7263
857.7144, 392.6721
858.1965, 394.5771
858.6786, 404.5786
859.1608, 422.0540
859.6429, 432.6628
860.1250, 425.3538
860.6071, 408.5754
861.0892, 391.9236
861.5714, 376.2866
862.0535, 360.9167
862.5356, 342.4143
863.0177, 325.9500
863.4998, 316.1221
863.9819, 313.5557
864.4641, 314.2944
864.9462, 319.1533
865.4282, 322.3486
865.9103, 319.7112
866.3925, 311.7664
866.8746, 299.2676
867.3567, 282.1506
867.8388, 261.3528
868.3209, 227.2239
868.8030, 197.6431
869.2852, 189.3611
869.7673, 204.7170
870.2494, 202.0918
870.7315, 173.4817
871.2136, 150.7107
871.6957, 154.2466
872.1779, 173.9126
872.6600, 191.8975
873.1421, 206.6736
873.6242, 204.1406
874.1063, 152.4790
874.5884, 98.12744
875.0706, 78.52026
875.5527, 93.14062
876.0348, 103.2617
876.5169, 106.2454
876.9990, 103.2095
877.4811, 91.57788
877.9633, 74.62231
878.4454, 71.57495
878.9275, 81.33032
879.4096, 84.65625
879.8917, 58.54736
880.3738, 30.89429
880.8560, 34.83862
881.3381, 61.53540
881.8202, 83.05054
882.3023, 89.54639
882.7844, 90.90527
883.2665, 88.17456
883.7487, 82.74365
884.2308, 80.41064
884.7129, 81.95996
885.1950, 72.97974
885.6771, 42.55444
886.1592, 10.47144
886.6414, 5.571777
887.1235, 21.02710
887.6056, 42.91968
888.0877, 83.38745
888.5698, 108.9370
889.0519, 94.34277
889.5341, 65.86279
890.0162, 63.36548
890.4983, 94.48560
890.9804, 119.9363
891.4625, 135.1699
891.9446, 141.3169
892.4268, 134.7156
892.9089, 120.7754
893.3910, 112.0127
893.8731, 112.4507
894.3552, 115.3604
894.8373, 116.8623
895.3195, 119.2910
895.8016, 126.0425
896.2837, 142.8472
896.7658, 148.0134
897.2479, 138.5396
897.7300, 124.8328
898.2122, 119.4587
898.6943, 118.2993
899.1764, 106.1709
899.6585, 81.58936
900.1406, 56.78979
900.6227, 32.97144
901.1049, 17.37988
901.5870, 19.77856
902.0691, 45.85327
902.5512, 56.46802
903.0333, 43.61694
903.5154, 30.00903
903.9976, 30.07642
904.4797, 40.06079
904.9618, 35.91846
905.4439, 19.24048
905.9260, 7.318115
906.4081, 15.54541
906.8903, 29.18359
907.3724, 40.22827
907.8545, 47.38428
908.3366, 44.87378
908.8187, 24.02539
909.3008, 5.877686
909.7830, 4.468506
910.2651, 8.283203
910.7472, 8.426270
911.2293, 5.160156
911.7114, 0.4218750
912.1935, 8.170654
912.6757, 13.50879
913.1578, 0.9130860
913.6399, 18.22949
914.1220, 22.73438
914.6041, 21.78296
915.0862, 39.64844
915.5684, 7.669189
916.0505, 38.43652
916.5326, 38.20630
917.0147, 5.315186
917.4968, 26.41064
917.9789, 10.41724
918.4611, 14.08081
918.9432, 24.64697
919.4253, 23.62305
919.9074, 11.59912
920.3895, 18.43896
920.8716, 38.83228
921.3538, 43.15771
921.8359, 39.68140
922.3180, 30.79321
922.8001, 15.93604
923.2822, 14.94409
923.7643, 28.84424
924.2465, 43.21680
924.7286, 40.76978
925.2107, 36.58740
925.6928, 53.08691
926.1749, 89.94043
926.6570, 113.5952
927.1392, 118.1028
927.6213, 101.1362
928.1034, 47.68408
928.5855, 28.56421
929.0676, 40.04736
929.5497, 13.09448
930.0319, 71.77930
930.5140, 118.0022
930.9961, 144.6958
931.4782, 127.1348
931.9603, 83.68506
932.4424, 58.62402
932.9246, 90.60669
933.4067, 110.9170
933.8888, 101.8013
934.3709, 78.85864
934.8530, 67.64380
935.3351, 68.10889
935.8173, 80.18481
936.2994, 106.1838
936.7815, 135.2324
937.2636, 161.0659
937.7457, 180.5547
938.2278, 187.2009
938.7100, 170.0684
939.1921, 166.2378
939.6742, 189.6567
940.1563, 218.7068
940.6384, 237.7075
941.1205, 246.4170
941.6027, 255.4402
942.0848, 264.9304
942.5669, 273.7986
943.0490, 278.1343
943.5311, 283.3279
944.0132, 298.3606
944.4954, 322.5300
944.9775, 338.0408
945.4596, 325.3425
945.9417, 322.8853
946.4238, 347.6948
946.9059, 390.7578
947.3881, 412.3521
947.8701, 414.1970
948.3522, 421.9773
948.8344, 451.0618
949.3165, 485.3643
949.7986, 513.4629
950.2807, 535.0237
950.7628, 549.3542
951.2449, 539.6074
951.7271, 548.2786
952.2092, 591.1252
952.6913, 639.2197
953.1734, 644.0474
953.6555, 611.7097
954.1376, 603.1746
954.6198, 630.5781
955.1019, 660.1067
955.5840, 660.9189
956.0661, 650.7336
956.5482, 646.1123
957.0303, 650.4482
957.5125, 657.0491
957.9946, 668.7759
958.4767, 676.7556
958.9588, 677.8867
959.4409, 671.3774
959.9230, 644.0940
960.4052, 598.8066
960.8873, 561.4585
961.3694, 554.6626
961.8515, 557.8630
962.3336, 556.4460
962.8157, 549.9443
963.2979, 546.1880
963.7800, 552.8779
964.2621, 549.0718
964.7442, 526.8228
965.2263, 496.8479
965.7084, 478.9146
966.1906, 471.0535
966.6727, 465.7881
967.1548, 462.1201
967.6369, 452.5498
968.1190, 424.5063
968.6011, 395.0176
969.0833, 381.5735
969.5654, 387.1631
970.0475, 403.2119
970.5296, 432.5552
971.0117, 458.6562
971.4938, 468.7556
971.9760, 465.8115
972.4581, 449.0710
972.9402, 419.3142
973.4223, 400.5093
973.9044, 419.1353
974.3865, 434.0830
974.8687, 417.6934
975.3508, 379.3347
975.8329, 382.9883
976.3150, 434.1104
976.7971, 471.5234
977.2792, 469.2241
977.7614, 452.2886
978.2435, 456.0457
978.7256, 470.2905
979.2077, 477.0276
979.6898, 460.7273
980.1719, 450.1589
980.6541, 449.0762
981.1362, 456.5188
981.6183, 477.7131
982.1004, 512.7151
982.5825, 523.3804
983.0646, 505.6458
983.5468, 483.4402
984.0289, 478.0215
984.5110, 478.9475
984.9931, 473.9580
985.4752, 461.6367
985.9573, 461.1267
986.4395, 478.9436
986.9216, 496.7646
987.4037, 513.1084
987.8858, 523.5667
988.3679, 519.4412
988.8500, 502.6812
989.3322, 483.1172
989.8143, 459.1060
990.2964, 441.1921
990.7785, 440.8362
991.2606, 449.8403
991.7427, 455.5679
992.2249, 463.0281
992.7070, 450.1494
993.1891, 409.4871
993.6712, 364.5220
994.1533, 337.1990
994.6354, 326.1667
995.1176, 336.8901
995.5997, 371.1646
996.0818, 387.7222
996.5639, 353.3271
997.0460, 307.1682
997.5281, 266.8232
998.0103, 233.1091
998.4924, 219.3303
998.9745, 227.4165
999.4566, 234.7720
999.9387, 232.2861
1000.421, 222.1477
1000.903, 204.0088
1001.385, 180.7358
1001.867, 158.8499
1002.349, 133.3438
1002.831, 120.0706
1003.314, 127.0447
1003.796, 138.5261
1004.278, 134.1899
1004.760, 115.7805
1005.242, 99.87231
1005.724, 88.41821
1006.206, 77.98315
1006.688, 63.56958
1007.170, 51.07080
1007.653, 47.00830
1008.135, 52.69946
1008.617, 52.69556
1009.099, 44.84180
1009.581, 36.47656
1010.063, 29.70117
1010.545, 25.04150
1011.027, 24.83936
1011.510, 27.67285
1011.992, 29.12769
1012.474, 20.67554
1012.956, 19.28174
1013.438, 44.88477
1013.920, 72.94263
1014.402, 70.77344
1014.884, 32.85962
1015.366, 8.336670
1015.849, 1.701416
1016.331, 0.7375490
1016.813, 6.091309
1017.295, 13.76514
1017.777, 13.61792
1018.259, 5.365234
1018.741, 5.086670
1019.223, 29.75586
1019.706, 41.88330
1020.188, 24.28589
1020.670, 11.33765
1021.152, 29.24878
1021.634, 31.16504
1022.116, 26.93311
1022.598, 19.10303
1023.080, 7.985352
1023.562, 13.88867
1024.045, 35.25708
1024.527, 41.10767
1025.009, 25.98877
1025.491, 8.649902
1025.973, 13.20947
1026.455, 27.53760
1026.937, 15.14893
1027.419, 8.442139
1027.901, 13.54907
1028.384, 0.8107910
1028.866, 11.40039
1029.348, 18.76929
1029.830, 20.69092
1030.312, 14.43188
1030.794, 4.436279
1031.276, 2.672852
1031.758, 8.948242
1032.240, 20.21777
1032.723, 38.68091
1033.205, 52.53003
1033.687, 45.60522
1034.169, 30.89258
1034.651, 21.75244
1035.133, 17.73608
1035.615, 29.90796
1036.097, 65.95435
1036.580, 97.30200
1037.062, 98.94702
1037.544, 82.70361
1038.026, 78.60669
1038.508, 84.40454
1038.990, 88.91772
1039.472, 82.01270
1039.954, 78.50122
1040.437, 81.11011
1040.919, 91.27563
1041.401, 118.0662
1041.883, 161.9949
1042.365, 183.1733
1042.847, 171.8394
1043.329, 156.3591
1043.811, 166.4280
1044.293, 184.9624
1044.776, 190.4478
1045.258, 176.4121
1045.740, 189.5906
1046.222, 248.1938
1046.704, 293.6335
1047.186, 293.0684
1047.668, 264.7976
1048.150, 251.1594
1048.632, 249.7029
1049.115, 253.2627
1049.597, 256.7346
1050.079, 267.3528
1050.561, 294.8250
1051.043, 326.2676
1051.525, 348.7451
1052.007, 362.3008
1052.489, 367.4553
1052.972, 364.0725
1053.454, 354.3542
1053.936, 331.9385
1054.418, 310.0715
1054.900, 303.8967
1055.382, 312.2175
1055.864, 317.4504
1056.346, 323.0679
1056.828, 312.6699
1057.311, 275.6013
1057.793, 231.1050
1058.275, 221.4932
1058.757, 231.9270
1059.239, 223.2307
1059.721, 175.8896
1060.203, 140.2698
1060.685, 144.4011
1061.167, 160.6467
1061.650, 174.5474
1062.132, 186.0610
1062.614, 180.4163
1063.096, 158.1943
1063.578, 135.9827
1064.060, 125.9915
1064.542, 118.4670
1065.024, 101.7668
1065.507, 81.94312
1065.989, 75.42358
1066.471, 88.83740
1066.953, 98.74707
1067.435, 102.0005
1067.917, 104.3220
1068.399, 118.6863
1068.881, 134.5291
1069.364, 126.8210
1069.846, 93.13110
1070.328, 70.01758
1070.810, 79.24927
1071.292, 92.25098
1071.774, 101.0420
1072.256, 105.3071
1072.738, 103.7478
1073.220, 96.48926
1073.703, 83.39014
1074.185, 58.48462
1074.667, 41.75122
1075.149, 59.11206
1075.631, 85.38452
1076.113, 90.05762
1076.595, 63.27905
1077.077, 61.22827
1077.559, 88.39600
1078.042, 118.2004
1078.524, 136.0378
1079.006, 141.5603
1079.488, 128.2681
1079.970, 103.3975
1080.452, 87.95117
1080.934, 95.19116
1081.416, 102.2979
1081.898, 106.0657
1082.381, 110.3694
1082.863, 120.8306
1083.345, 136.3496
1083.827, 154.0452
1084.309, 172.8191
1084.791, 187.1572
1085.273, 191.7615
1085.755, 191.9336
1086.238, 189.6187
1086.720, 185.6904
1087.202, 189.0393
1087.684, 199.4634
1088.166, 195.3870
1088.648, 162.7388
1089.130, 203.1333
1089.612, 226.5981
1090.094, 234.0442
1090.577, 177.4856
1091.059, 203.7075
1091.541, 196.8486
1092.023, 188.4717
1092.505, 226.2190
1092.987, 178.9844
1093.469, 216.7185
1093.951, 176.2871
1094.433, 197.9316
1094.916, 225.1680
1095.398, 264.3635
1095.880, 291.8569
1096.362, 302.2341
1096.844, 304.0327
1097.326, 302.1936
1097.808, 300.0193
1098.290, 315.8867
1098.773, 351.0535
1099.255, 384.6558
1099.737, 403.7615
1100.219, 419.4258
1100.701, 439.3235
1101.183, 460.0950
1101.665, 467.7246
1102.147, 461.6958
1102.630, 470.2332
1103.112, 505.4001
1103.594, 536.8113
1104.076, 519.1804
1104.558, 491.8516
1105.040, 502.3562
1105.522, 565.5725
1106.004, 595.3357
1106.486, 585.5107
1106.969, 568.2869
1107.451, 560.3665
1107.933, 554.4829
1108.415, 534.6604
1108.897, 508.0444
1109.379, 488.4412
1109.861, 487.5728
1110.343, 482.0901
1110.825, 467.0605
1111.308, 452.6106
1111.790, 454.8682
1112.272, 467.2229
1112.754, 449.4038
1113.236, 402.5657
1113.718, 361.2827
1114.200, 350.0176
1114.682, 339.5200
1115.165, 318.2664
1115.647, 291.5259
1116.129, 267.2349
1116.611, 245.4700
1117.093, 229.7231
1117.575, 220.9749
1118.057, 211.7246
1118.539, 186.3076
1119.021, 166.2791
1119.504, 178.2515
1119.986, 215.4529
1120.468, 222.5557
1120.950, 196.5605
1121.432, 157.1326
1121.914, 101.5308
1122.396, 56.43628
1122.878, 64.74658
1123.360, 97.80640
1123.843, 120.0583
1124.325, 124.7004
1124.807, 115.0220
1125.289, 83.62646
1125.771, 60.56860
1126.253, 69.59595
1126.735, 92.45410
1127.217, 91.46118
1127.700, 73.90649
1128.182, 57.81616
1128.664, 52.73291
1129.146, 43.81860
1129.628, 21.57593
1130.110, 7.328857
1130.592, 33.52563
1131.074, 84.92090
1131.557, 91.09351
1132.039, 55.45459
1132.521, 24.67896
1133.003, 30.07935
1133.485, 35.75732
1133.967, 24.59351
1134.449, 8.606445
1134.931, 9.182617
1135.413, 25.06934
1135.896, 38.01270
1136.378, 46.25732
1136.860, 48.27637
1137.342, 31.67993
1137.824, 16.66406
1138.306, 23.91235
1138.788, 46.17554
1139.270, 49.29517
1139.752, 31.91284
1140.235, 15.02124
1140.717, 3.120605
1141.199, 2.335693
1141.681, 3.914307
1142.163, 15.23560
1142.645, 25.04517
1143.127, 32.75391
1143.609, 36.93091
1144.092, 36.10034
1144.574, 40.20996
1145.056, 60.83081
1145.538, 79.87109
1146.020, 64.16382
1146.502, 29.94238
1146.984, 5.613525
1147.466, 3.015381
1147.948, 0.1206050
1148.431, 5.109131
1148.913, 6.242188
1149.395, 9.172363
1149.877, 28.98730
1150.359, 16.76685
1150.841, 15.97681
1151.323, 31.97021
1151.805, 2.538574
1152.287, 26.72998
1152.770, 29.77271
1153.252, 24.38110
1153.734, 23.85693
1154.216, 26.58276
1154.698, 27.43237
1155.180, 26.08228
1155.662, 22.55701
1156.144, 11.37085
1156.626, 5.380249
1157.109, 11.13989
1157.591, 21.53223
1158.073, 20.42371
1158.555, 11.26282
1159.037, 16.99280
1159.519, 42.18005
1160.001, 57.75146
1160.483, 31.20239
1160.966, 4.934204
1161.448, 6.496582
1161.930, 26.14624
1162.412, 30.71155
1162.894, 15.06079
1163.376, 0.6855470
1163.858, 6.413330
1164.340, 8.973389
1164.823, 17.80151
1165.305, 20.52673
1165.787, 1.670044
1166.269, 36.71436
1166.751, 43.80347
1167.233, 19.25513
1167.715, 1.695435
1168.197, 14.00281
1168.679, 26.60840
1169.161, 0.8226320
1169.644, 34.01965
1170.126, 37.75317
1170.608, 3.101685
1171.090, 25.17163
1171.572, 47.36475
1172.054, 62.00037
1172.536, 61.03516
1173.018, 52.88867
1173.501, 47.97180
1173.983, 45.42261
1174.465, 43.28601
1174.947, 39.38306
1175.429, 42.75476
1175.911, 55.60730
1176.393, 65.89917
1176.875, 61.10168
1177.358, 50.14270
1177.840, 42.03503
1178.322, 37.38843
1178.804, 38.34766
1179.286, 52.40771
1179.768, 52.70154
1180.250, 32.39099
1180.732, 12.94312
1181.214, 23.13013
1181.697, 45.82947
1182.179, 54.89282
1182.661, 50.76990
1183.143, 52.87390
1183.625, 74.59082
1184.107, 80.52625
1184.589, 59.18225
1185.071, 32.22131
1185.553, 31.47913
1186.036, 45.25659
1186.518, 54.58887
1187.000, 57.12720
1187.482, 57.27649
1187.964, 56.89465
1188.446, 52.12073
1188.928, 39.23865
1189.410, 25.75757
1189.893, 24.57312
1190.375, 33.33215
1190.857, 50.75952
1191.339, 79.91663
1191.821, 93.79919
1192.303, 81.92236
1192.785, 61.17114
1193.267, 32.97827
1193.750, 5.151978
1194.232, 3.289551
1194.714, 3.768066
1195.196, 18.88696
1195.678, 45.64185
1196.160, 61.55688
1196.642, 54.34631
1197.124, 46.42261
1197.606, 49.84521
1198.089, 61.08862
1198.571, 70.58533
1199.053, 77.85791
1199.535, 81.67322
1200.017, 79.70728
1200.499, 78.21643
1200.981, 83.10071
1201.463, 82.32385
1201.945, 60.96204
1202.428, 28.08911
1202.910, 21.23828
1203.392, 35.81531
1203.874, 54.81616
1204.356, 87.46497
1204.838, 98.66248
1205.320, 67.28479
1205.802, 33.14990
1206.285, 37.91504
1206.767, 69.71045
1207.249, 73.51562
1207.731, 54.25073
1208.213, 40.84985
1208.695, 51.26819
1209.177, 62.52393
1209.659, 73.74182
1210.141, 81.88477
1210.624, 83.07605
1211.106, 79.74670
1211.588, 83.45166
1212.070, 93.27600
1212.552, 98.55322
1213.034, 86.29382
1213.516, 79.25464
1213.998, 85.27246
1214.480, 95.84717
1214.963, 100.3550
1215.445, 99.59082
1215.927, 94.19470
1216.409, 84.99377
1216.891, 81.31201
1217.373, 103.2080
1217.855, 109.4122
1218.337, 82.26257
1218.820, 42.82275
1219.302, 9.374023
1219.784, 50.99634
1220.266, 4.185303
1220.748, 25.68640
1221.230, 39.50012
1221.712, 11.14685
1222.194, 20.65869
1222.677, 18.78748
1223.159, 15.35889
1223.641, 59.22083
1224.123, 67.61072
1224.605, 68.65405
1225.087, 49.56787
1225.569, 44.53894
1226.051, 87.08081
1226.533, 121.9760
1227.016, 134.2037
1227.498, 123.9796
1227.980, 88.06042
1228.462, 40.04968
1228.944, 2.846680
1229.426, 20.86255
1229.908, 18.74988
1230.390, 39.96204
1230.872, 85.23779
1231.355, 85.22339
1231.837, 63.51318
1232.319, 77.54578
1232.801, 110.3828
1233.283, 119.4397
1233.765, 88.62622
1234.247, 69.17639
1234.729, 75.86267
1235.212, 87.97400
1235.694, 94.71875
1236.176, 98.74512
1236.658, 106.4064
1237.140, 112.9823
1237.622, 105.8551
1238.104, 74.07166
1238.586, 56.36597
1239.068, 57.46741
1239.551, 70.20874
1240.033, 99.75281
1240.515, 128.8441
1240.997, 118.3409
1241.479, 84.05103
1241.961, 54.65747
1242.443, 33.68188
1242.925, 32.37659
1243.407, 57.80139
1243.890, 82.20886
1244.372, 86.19128
1244.854, 82.66162
1245.336, 100.7490
1245.818, 124.8455
1246.300, 124.6616
1246.782, 73.03308
1247.264, 54.08484
1247.746, 74.67969
1248.229, 94.73096
1248.711, 83.40039
1249.193, 63.34082
1249.675, 64.37646
1250.157, 78.72681
1250.639, 94.75232
1251.121, 117.0101
1251.603, 115.9546
1252.086, 87.14722
1252.568, 64.73035
1253.050, 80.24963
1253.532, 101.7527
1254.014, 94.98718
1254.496, 71.71484
1254.978, 49.74963
1255.460, 26.99500
1255.943, 21.55505
1256.425, 34.14893
1256.907, 48.86841
1257.389, 58.40588
1257.871, 63.19604
1258.353, 58.09912
1258.835, 51.30884
1259.317, 56.14844
1259.799, 75.20105
1260.281, 86.27002
1260.764, 83.20215
1261.246, 80.66064
1261.728, 64.25269
1262.210, 51.19885
1262.692, 50.21130
1263.174, 53.76636
1263.656, 53.32397
1264.138, 49.02893
1264.621, 47.09265
1265.103, 46.66003
1265.585, 38.47375
1266.067, 20.19995
1266.549, 11.34985
1267.031, 31.58984
1267.513, 57.59204
1267.995, 64.25964
1268.478, 55.79858
1268.960, 63.85730
1269.442, 85.55212
1269.924, 98.45984
1270.406, 82.83716
1270.888, 68.46753
1271.370, 58.58496
1271.852, 57.04138
1272.334, 78.08301
1272.817, 108.5374
1273.299, 102.1494
1273.781, 66.84802
1274.263, 40.74719
1274.745, 45.55261
1275.227, 51.01758
1275.709, 54.77710
1276.191, 57.02576
1276.673, 55.47656
1277.156, 54.01038
1277.638, 61.90820
1278.120, 76.22534
1278.602, 86.05359
1279.084, 90.58093
1279.566, 89.07898
1280.048, 79.95447
1280.530, 70.95715
1281.013, 68.02661
1281.495, 69.76379
1281.977, 81.03406
1282.459, 94.47766
1282.941, 87.52124
1283.423, 50.26978
1283.905, 33.81372
1284.387, 43.16150
1284.870, 60.48071
1285.352, 78.00977
1285.834, 91.76294
1286.316, 102.0282
1286.798, 104.3208
1287.280, 86.67395
1287.762, 46.57190
1288.244, 0.6599120
1288.726, 37.44910
1289.208, 57.31982
1289.691, 61.18335
1290.173, 1.085571
1290.655, 23.68799
1291.137, 13.20544
1291.619, 1.399414
1292.101, 35.74841
1292.583, 14.88586
1293.065, 18.83289
1293.548, 18.95398
1294.030, 34.52112
1294.512, 16.81287
1294.994, 7.018066
1295.476, 32.87683
1295.958, 9.602783
1296.440, 38.14563
1296.922, 37.19946
1297.405, 36.67542
1297.887, 35.62439
1298.369, 47.94080
1298.851, 48.41357
1299.333, 44.11670
1299.815, 31.17859
1300.297, 16.33777
1300.779, 0.0000000E+00
##END=



