##NAMES=Renierite
##RRUFFID=R050433
##IDEAL CHEMISTRY=(Cu^1+^,Zn)_11_Fe_4_(Ge^4+^,As^5+^)_2_S_16_
##LOCALITY=Tsumeb mine, Tsumeb, Otavi District, Oshikoto, Namibia
##OWNER=RRUFF
##SOURCE=University of Arizona Mineral Museum
##DESCRIPTION=Bronze metallic massive
##STATUS=The identification of this mineral has been confirmed by X-ray diffraction and chemical analysis
##URL=rruff.info/R050433
##MEASURED CHEMISTRY=(Cu_10.51_Zn_0.49_)_Σ=11_Fe_4.00_(Ge_1.67_As_0.33_)_Σ=2_S_16_
102.5786, 0.0000000E+00
103.0607, 0.5980680
103.5428, 0.6143100
104.0250, 0.5563570
104.5071, 0.7106490
104.9892, 0.3150240
105.4713, 2.0636000E-02
105.9534, 0.2738670
106.4355, 0.2615020
106.9177, 0.1491290
107.3998, 0.8614550
107.8819, 1.625002
108.3640, 2.619117
108.8461, 3.499245
109.3282, 4.118620
109.8104, 4.143356
110.2925, 4.262249
110.7746, 4.542440
111.2567, 4.958176
111.7388, 5.343023
112.2209, 5.436760
112.7031, 5.614120
113.1852, 6.140781
113.6673, 7.588968
114.1494, 8.885990
114.6315, 9.629118
115.1136, 9.794662
115.5958, 10.12396
116.0779, 10.93109
116.5600, 12.00078
117.0421, 13.08615
117.5242, 14.26428
118.0063, 15.33132
118.4885, 16.07728
118.9706, 16.38566
119.4527, 16.92064
119.9348, 17.97622
120.4169, 19.50504
120.8990, 21.44925
121.3812, 24.53499
121.8633, 27.66252
122.3454, 29.72935
122.8275, 30.46043
123.3096, 30.44212
123.7917, 29.93731
124.2739, 29.03212
124.7560, 28.04340
125.2381, 26.82447
125.7202, 25.70615
126.2023, 25.31151
126.6844, 25.96849
127.1666, 27.14711
127.6487, 28.24848
128.1308, 29.27178
128.6129, 30.12193
129.0950, 30.61449
129.5771, 30.84978
130.0593, 31.21320
130.5414, 31.95749
131.0235, 32.84676
131.5056, 32.98557
131.9877, 32.04535
132.4698, 30.99306
132.9520, 31.40490
133.4341, 33.18941
133.9162, 34.79044
134.3983, 35.62211
134.8804, 35.79003
135.3625, 35.97641
135.8447, 36.11028
136.3268, 36.43019
136.8089, 37.42410
137.2910, 39.23246
137.7731, 40.89299
138.2552, 42.09348
138.7374, 42.82702
139.2195, 43.16512
139.7016, 43.10253
140.1837, 42.67423
140.6658, 41.82838
141.1479, 40.27192
141.6301, 38.94663
142.1122, 38.33410
142.5943, 38.72452
143.0764, 39.01377
143.5585, 39.14526
144.0406, 39.15867
144.5228, 39.21034
145.0049, 39.34852
145.4870, 39.46248
145.9691, 39.50813
146.4512, 39.63698
146.9333, 39.44296
147.4155, 38.66209
147.8976, 37.39968
148.3797, 36.71134
148.8618, 36.85845
149.3439, 37.37913
149.8260, 37.97342
150.3082, 39.07329
150.7903, 39.77527
151.2724, 39.83248
151.7545, 39.22178
152.2366, 38.86793
152.7188, 39.07218
153.2009, 39.40955
153.6830, 39.53516
154.1651, 39.49528
154.6472, 39.16607
155.1293, 38.34896
155.6115, 36.94265
156.0936, 35.88614
156.5757, 35.55183
157.0578, 35.56852
157.5399, 35.54219
158.0220, 35.47956
158.5042, 35.29848
158.9863, 35.09900
159.4684, 34.84832
159.9505, 34.73695
160.4326, 35.13023
160.9147, 35.72614
161.3969, 35.91702
161.8790, 35.29464
162.3611, 34.40709
162.8432, 33.40170
163.3253, 32.12925
163.8074, 31.27721
164.2896, 31.73869
164.7717, 32.86698
165.2538, 33.36308
165.7359, 31.83368
166.2180, 29.91740
166.7001, 28.95303
167.1823, 29.57369
167.6644, 30.27448
168.1465, 29.97018
168.6286, 28.96198
169.1107, 28.08267
169.5928, 28.18309
170.0750, 28.49908
170.5571, 28.17749
171.0392, 26.67303
171.5213, 25.00829
172.0034, 24.07638
172.4855, 23.77024
172.9677, 23.47926
173.4498, 22.75007
173.9319, 21.80504
174.4140, 20.94110
174.8961, 20.23226
175.3782, 19.69212
175.8604, 19.39069
176.3425, 19.28954
176.8246, 19.22834
177.3067, 19.22429
177.7888, 19.13992
178.2709, 18.67048
178.7531, 17.51610
179.2352, 16.19043
179.7173, 15.49037
180.1994, 15.39040
180.6815, 15.35408
181.1636, 14.79752
181.6458, 13.90249
182.1279, 13.24658
182.6100, 13.16558
183.0921, 13.36712
183.5742, 13.21319
184.0563, 12.71812
184.5385, 12.21244
185.0206, 12.09090
185.5027, 12.27265
185.9848, 12.37685
186.4669, 12.32302
186.9490, 12.08347
187.4312, 11.44898
187.9133, 10.35815
188.3954, 9.343258
188.8775, 9.301250
189.3596, 10.10218
189.8417, 10.49139
190.3239, 9.681717
190.8060, 7.976818
191.2881, 6.961422
191.7702, 6.707947
192.2523, 6.885303
192.7344, 7.162296
193.2166, 7.537624
193.6987, 7.929428
194.1808, 8.526485
194.6629, 9.248913
195.1450, 8.950542
195.6271, 7.316864
196.1093, 5.463985
196.5914, 5.297989
197.0735, 6.972561
197.5556, 8.417313
198.0377, 8.541363
198.5198, 7.334618
199.0020, 6.754402
199.4841, 7.025272
199.9662, 7.524002
200.4483, 7.048752
200.9304, 5.393559
201.4125, 4.015453
201.8947, 3.733780
202.3768, 4.665119
202.8589, 5.204865
203.3410, 5.305664
203.8231, 5.066513
204.3052, 4.544235
204.7874, 3.610794
205.2695, 2.920197
205.7516, 2.932228
206.2337, 3.825478
206.7158, 4.161366
207.1979, 3.774254
207.6801, 2.973034
208.1622, 2.388809
208.6443, 2.061665
209.1264, 1.815918
209.6085, 1.550217
210.0906, 1.221153
210.5728, 1.121593
211.0549, 1.419903
211.5370, 1.831425
212.0191, 1.590546
212.5012, 0.3797680
212.9833, 0.7023960
213.4655, 1.036026
213.9476, 0.3330080
214.4297, 1.3302000E-02
214.9118, 0.1665760
215.3939, 0.6432270
215.8760, 0.8533130
216.3581, 0.7443390
216.8403, 0.4746700
217.3224, 3.6449000E-02
217.8045, 0.7803040
218.2866, 1.088791
218.7687, 0.6571200
219.2508, 0.2162740
219.7330, 0.7069510
220.2151, 0.6715580
220.6972, 0.5220990
221.1793, 0.4498290
221.6614, 0.4796370
222.1435, 0.5185050
222.6257, 0.5625530
223.1078, 0.6156460
223.5899, 0.7014430
224.0720, 0.8847350
224.5541, 0.9953770
225.0362, 0.9223590
225.5184, 0.5240360
226.0005, 0.2916410
226.4826, 0.2382160
226.9647, 0.3509250
227.4468, 0.6550670
227.9289, 1.431011
228.4111, 1.962841
228.8932, 1.810528
229.3753, 0.4089430
229.8574, 0.2958490
230.3395, 5.1295999E-02
230.8216, 1.039131
231.3038, 1.496460
231.7859, 1.026608
232.2680, 0.6067390
232.7501, 0.7403260
233.2322, 1.872238
233.7143, 2.558430
234.1965, 2.744812
234.6786, 2.494358
235.1607, 1.920460
235.6428, 0.6902850
236.1249, 0.3788110
236.6070, 0.8865010
237.0892, 0.5117680
237.5713, 0.2942430
238.0534, 0.3541760
238.5355, 0.5393680
239.0176, 0.4150090
239.4997, 0.3365290
239.9819, 0.9410710
240.4640, 1.013691
240.9461, 0.2117000
241.4282, 0.3052100
241.9103, 0.4549900
242.3924, 0.3466490
242.8746, 0.2087290
243.3567, 8.7977998E-02
243.8388, 0.2160190
244.3209, 1.3836000E-02
244.8030, 0.8382800
245.2851, 1.363453
245.7673, 1.429062
246.2494, 1.261963
246.7315, 1.348564
247.2136, 1.755512
247.6957, 2.313725
248.1778, 3.033794
248.6600, 4.104939
249.1421, 4.718555
249.6242, 4.682018
250.1063, 4.296612
250.5884, 4.127522
251.0705, 4.183693
251.5527, 4.444401
252.0348, 4.942135
252.5169, 5.780708
252.9990, 6.503174
253.4811, 7.128342
253.9632, 7.633202
254.4454, 7.921440
254.9275, 7.801193
255.4096, 7.832428
255.8917, 8.202961
256.3738, 8.944351
256.8560, 9.949097
257.3381, 11.56184
257.8202, 13.15800
258.3023, 13.61224
258.7844, 12.14368
259.2665, 11.23728
259.7487, 11.86648
260.2308, 14.33929
260.7129, 16.18410
261.1950, 17.25415
261.6771, 17.85437
262.1592, 18.32623
262.6414, 18.56123
263.1235, 18.93594
263.6056, 19.60254
264.0877, 20.59716
264.5698, 21.42112
265.0519, 22.00719
265.5341, 22.51180
266.0162, 23.07450
266.4983, 23.61441
266.9804, 24.48518
267.4625, 26.00803
267.9446, 28.14859
268.4268, 29.32991
268.9089, 29.20250
269.3910, 28.69216
269.8731, 28.74886
270.3552, 29.48387
270.8373, 30.26102
271.3195, 31.01868
271.8016, 31.80692
272.2837, 32.61434
272.7658, 33.47528
273.2479, 34.19889
273.7300, 34.56634
274.2122, 34.50695
274.6943, 34.68311
275.1764, 35.34256
275.6585, 36.34662
276.1406, 36.91742
276.6227, 36.99082
277.1049, 36.81736
277.5870, 36.60297
278.0691, 36.37566
278.5512, 36.09475
279.0333, 35.64321
279.5154, 35.17804
279.9976, 35.37939
280.4797, 36.38077
280.9618, 37.36273
281.4439, 37.74728
281.9260, 37.52088
282.4081, 37.15088
282.8903, 36.67636
283.3724, 36.14767
283.8545, 35.63882
284.3366, 35.14312
284.8187, 34.62193
285.3008, 34.04152
285.7830, 33.37728
286.2651, 32.72013
286.7472, 32.14599
287.2293, 31.61650
287.7114, 30.85474
288.1935, 29.82244
288.6757, 28.72630
289.1578, 27.73847
289.6399, 26.88038
290.1220, 26.07534
290.6041, 25.29894
291.0862, 24.45341
291.5684, 23.45383
292.0505, 22.34142
292.5326, 21.31052
293.0147, 20.55310
293.4968, 19.99120
293.9789, 19.21445
294.4611, 18.16320
294.9432, 17.01007
295.4253, 15.83124
295.9074, 14.67880
296.3895, 13.80101
296.8716, 13.52127
297.3538, 13.51723
297.8359, 13.08306
298.3180, 12.22337
298.8001, 11.35440
299.2822, 10.81187
299.7643, 10.49760
300.2465, 10.17550
300.7286, 9.709465
301.2107, 9.224670
301.6928, 8.889908
302.1749, 8.709648
302.6570, 8.607117
303.1392, 8.545639
303.6213, 8.520554
304.1034, 8.526077
304.5855, 8.562630
305.0676, 8.626854
305.5497, 8.728722
306.0319, 8.860985
306.5140, 8.990715
306.9961, 9.051483
307.4782, 9.112045
307.9603, 9.285179
308.4424, 9.694962
308.9246, 10.03236
309.4067, 9.999863
309.8888, 9.690125
310.3709, 9.365410
310.8530, 8.993301
311.3351, 8.766022
311.8173, 8.924217
312.2994, 9.650742
312.7815, 10.31507
313.2636, 10.38743
313.7457, 10.14651
314.2278, 10.09311
314.7100, 10.58070
315.1921, 11.22133
315.6742, 11.84913
316.1563, 12.47807
316.6384, 12.89127
317.1205, 12.68221
317.6027, 12.28239
318.0848, 12.24046
318.5669, 13.16782
319.0490, 14.09230
319.5311, 14.56572
320.0132, 14.54761
320.4954, 14.60485
320.9775, 14.97735
321.4596, 15.45296
321.9417, 15.84741
322.4238, 15.80780
322.9059, 16.01017
323.3881, 16.69492
323.8702, 17.82274
324.3523, 18.95184
324.8344, 20.42439
325.3165, 21.61421
325.7986, 22.16628
326.2808, 20.77092
326.7629, 20.24835
327.2450, 21.07696
327.7271, 22.99165
328.2092, 24.94743
328.6913, 27.20596
329.1735, 29.26298
329.6556, 30.89053
330.1377, 31.55006
330.6198, 32.81851
331.1019, 35.05688
331.5840, 37.79022
332.0662, 40.16201
332.5483, 41.99005
333.0304, 43.71587
333.5125, 45.30317
333.9946, 46.57988
334.4767, 48.76740
334.9589, 52.28349
335.4410, 56.27202
335.9231, 59.55431
336.4052, 61.67264
336.8873, 64.23845
337.3694, 67.76790
337.8516, 72.17574
338.3336, 76.20173
338.8158, 79.73756
339.2979, 83.14381
339.7800, 86.80322
340.2621, 90.71619
340.7442, 94.68987
341.2263, 98.57808
341.7085, 102.5061
342.1906, 106.8492
342.6727, 111.7518
343.1548, 116.3996
343.6369, 120.2267
344.1190, 123.2430
344.6012, 126.0937
345.0833, 128.7626
345.5654, 131.4093
346.0475, 134.6060
346.5296, 138.2925
347.0117, 141.4263
347.4939, 143.2527
347.9760, 143.9541
348.4581, 144.3098
348.9402, 144.4310
349.4223, 144.0515
349.9044, 142.7296
350.3866, 140.5482
350.8687, 137.8678
351.3508, 134.7571
351.8329, 131.2572
352.3150, 127.4826
352.7971, 123.4459
353.2793, 119.0194
353.7614, 113.4822
354.2435, 107.4119
354.7256, 101.8058
355.2077, 97.28908
355.6898, 93.01102
356.1720, 87.98332
356.6541, 82.40366
357.1362, 77.20441
357.6183, 72.98109
358.1004, 69.31924
358.5826, 65.75912
359.0647, 61.99940
359.5468, 58.79389
360.0289, 56.93673
360.5110, 55.88750
360.9931, 54.63602
361.4753, 52.51381
361.9574, 50.38387
362.4395, 48.67382
362.9216, 47.43151
363.4037, 46.29234
363.8858, 45.20684
364.3680, 44.18157
364.8501, 43.20326
365.3322, 41.93518
365.8143, 41.06742
366.2964, 41.10675
366.7785, 42.03254
367.2607, 42.30066
367.7428, 41.14210
368.2249, 39.64581
368.7070, 38.49133
369.1891, 37.93879
369.6712, 37.43949
370.1534, 36.86213
370.6355, 36.31748
371.1176, 36.18942
371.5997, 36.94791
372.0818, 37.46344
372.5639, 37.22224
373.0461, 35.89048
373.5282, 35.00658
374.0103, 34.77884
374.4924, 34.70676
374.9745, 33.96216
375.4566, 32.21775
375.9388, 30.86926
376.4209, 30.53848
376.9030, 31.12628
377.3851, 30.87756
377.8672, 29.55380
378.3493, 28.09886
378.8315, 27.50425
379.3136, 27.78212
379.7957, 28.03777
380.2778, 28.15362
380.7599, 28.10710
381.2420, 27.77757
381.7242, 27.17253
382.2063, 26.50129
382.6884, 25.82870
383.1705, 25.19970
383.6526, 24.80695
384.1347, 24.67537
384.6169, 24.65860
385.0990, 24.79940
385.5811, 24.96248
386.0632, 24.69031
386.5453, 23.40811
387.0274, 21.71954
387.5096, 20.41327
387.9917, 19.50693
388.4738, 18.81099
388.9559, 18.47756
389.4380, 18.20620
389.9201, 17.57192
390.4023, 16.17451
390.8844, 14.69753
391.3665, 13.57306
391.8486, 12.74116
392.3307, 12.01309
392.8128, 11.31392
393.2950, 10.66422
393.7771, 10.08963
394.2592, 9.647034
394.7413, 9.166500
395.2234, 8.516808
395.7055, 7.801960
396.1877, 7.189873
396.6698, 6.946159
397.1519, 6.597355
397.6340, 5.883633
398.1161, 4.731461
398.5982, 3.917149
399.0804, 3.842434
399.5625, 3.898170
400.0446, 3.641514
400.5267, 2.815765
401.0088, 2.052303
401.4909, 1.419041
401.9731, 0.8909110
402.4552, 0.3890190
402.9373, 6.5948002E-02
403.4194, 0.5292470
403.9015, 1.101456
404.3836, 1.937901
404.8658, 2.176521
405.3479, 1.578045
405.8300, 0.7199170
406.3121, 0.5537190
406.7942, 1.198658
407.2763, 1.699394
407.7585, 1.704136
408.2406, 1.305710
408.7227, 0.9473000
409.2048, 0.6057850
409.6869, 0.4690740
410.1690, 0.9677160
410.6512, 1.908504
411.1333, 2.314709
411.6154, 1.868553
412.0975, 1.053970
412.5796, 0.5581860
413.0617, 0.3405300
413.5439, 0.1920280
414.0260, 0.1000250
414.5081, 0.3576850
414.9902, 0.2468300
415.4723, 0.2898710
415.9544, 0.8125230
416.4366, 0.9681190
416.9187, 0.8756600
417.4008, 0.7128220
417.8829, 0.3853660
418.3650, 0.1452960
418.8471, 0.2623770
419.3293, 0.6578430
419.8114, 0.8717840
420.2935, 0.5281810
420.7756, 4.2419001E-02
421.2577, 0.2995380
421.7398, 0.3866310
422.2220, 0.4648550
422.7041, 0.6735520
423.1862, 0.8944320
423.6683, 0.9154190
424.1504, 0.3857960
424.6325, 2.6587000E-02
425.1147, 7.6165996E-02
425.5968, 0.2971360
426.0789, 0.4722400
426.5610, 0.3427070
427.0431, 0.1130790
427.5252, 7.0320003E-02
428.0074, 0.2537400
428.4895, 0.2618940
428.9716, 2.2743000E-02
429.4537, 0.4641110
429.9358, 0.5611380
430.4179, 0.1830920
430.9001, 8.0178998E-02
431.3822, 0.1340120
431.8643, 0.8340470
432.3464, 1.495359
432.8285, 2.166380
433.3106, 2.638632
433.7928, 2.472921
434.2749, 1.760738
434.7570, 1.282211
435.2391, 1.358490
435.7212, 1.751705
436.2033, 2.063305
436.6855, 2.288641
437.1676, 2.397348
437.6497, 2.308531
438.1318, 2.115484
438.6139, 1.968285
439.0960, 1.914314
439.5782, 1.849112
440.0603, 1.524891
440.5424, 1.140642
441.0245, 1.070009
441.5066, 1.906624
441.9887, 2.740507
442.4709, 2.937843
442.9530, 2.507622
443.4351, 2.176977
443.9172, 2.310265
444.3993, 2.598448
444.8814, 2.819576
445.3636, 2.912775
445.8457, 2.966536
446.3278, 3.010954
446.8099, 3.024689
447.2920, 2.952572
447.7741, 2.731583
448.2563, 2.486267
448.7384, 2.198042
449.2205, 1.817417
449.7026, 1.817356
450.1847, 2.464890
450.6668, 3.161034
451.1490, 3.265787
451.6311, 2.551382
452.1132, 2.123116
452.5953, 2.176552
453.0774, 2.589369
453.5595, 3.170212
454.0417, 3.974520
454.5238, 4.449610
455.0059, 3.925743
455.4880, 2.701996
455.9701, 2.523218
456.4522, 3.572208
456.9344, 4.796257
457.4165, 4.995771
457.8986, 4.451420
458.3807, 3.932234
458.8628, 3.630617
459.3449, 3.519291
459.8271, 3.733007
460.3092, 4.166765
460.7913, 4.376200
461.2734, 3.665499
461.7555, 2.837873
462.2376, 2.675968
462.7198, 3.492132
463.2019, 4.281206
463.6840, 4.502972
464.1661, 4.416279
464.6482, 4.335829
465.1303, 4.617624
465.6125, 4.688931
466.0946, 4.262421
466.5767, 3.404732
467.0588, 2.817329
467.5409, 2.465456
468.0230, 2.416029
468.5052, 2.786829
468.9873, 4.073927
469.4694, 4.656410
469.9515, 4.220863
470.4336, 3.379892
470.9157, 3.050251
471.3979, 3.412909
471.8800, 3.656376
472.3621, 3.508190
472.8442, 3.063881
473.3263, 2.791821
473.8084, 2.706169
474.2906, 2.666914
474.7727, 2.570389
475.2548, 2.437874
475.7369, 2.327545
476.2190, 2.207848
476.7011, 2.205719
477.1833, 2.723104
477.6654, 3.528397
478.1475, 3.986555
478.6296, 3.580873
479.1117, 2.863388
479.5938, 2.294073
480.0760, 1.875433
480.5581, 1.645948
481.0402, 1.693424
481.5223, 1.886387
482.0044, 2.149790
482.4865, 2.558676
482.9687, 2.789404
483.4508, 2.576534
483.9329, 2.163355
484.4150, 1.923712
484.8971, 2.146637
485.3792, 2.304844
485.8614, 2.217758
486.3435, 1.920536
486.8256, 1.800060
487.3077, 1.934887
487.7898, 2.146246
488.2719, 2.355013
488.7541, 2.612099
489.2362, 2.716841
489.7183, 2.648880
490.2004, 2.476789
490.6825, 2.295444
491.1646, 2.092581
491.6468, 1.940739
492.1289, 1.879297
492.6110, 1.857954
493.0931, 1.639175
493.5752, 1.233208
494.0573, 1.054420
494.5395, 1.825638
495.0216, 2.965611
495.5037, 3.088541
495.9858, 1.863518
496.4679, 0.5643710
496.9500, 0.4660760
497.4322, 1.068047
497.9143, 1.539524
498.3964, 1.403215
498.8785, 1.178970
499.3606, 1.176380
499.8427, 1.349659
500.3249, 1.510664
500.8070, 1.649416
501.2891, 1.710262
501.7712, 1.641680
502.2533, 1.353628
502.7354, 1.179493
503.2176, 1.254204
503.6997, 1.397661
504.1818, 1.411259
504.6639, 1.134399
505.1460, 1.040699
505.6281, 1.305061
506.1103, 1.785131
506.5924, 1.879612
507.0745, 1.488041
507.5566, 1.058788
508.0387, 0.7776180
508.5208, 0.6447750
509.0030, 0.7932780
509.4851, 1.267538
509.9672, 1.720673
510.4493, 1.774031
510.9314, 1.507429
511.4135, 1.142309
511.8957, 0.6492100
512.3778, 0.2310430
512.8599, 0.1799390
513.3420, 0.4026990
513.8242, 0.6597120
514.3063, 0.8411160
514.7884, 1.013723
515.2705, 1.279343
515.7526, 1.650034
516.2347, 1.940649
516.7169, 1.924469
517.1990, 1.686563
517.6811, 1.330856
518.1632, 0.5509720
518.6453, 8.6034998E-02
519.1274, 0.1763250
519.6096, 0.6149960
520.0917, 1.027138
520.5738, 1.470711
521.0559, 1.789074
521.5380, 1.934189
522.0201, 1.907261
522.5023, 1.671480
522.9844, 1.122740
523.4665, 0.6608890
523.9486, 0.6948970
524.4307, 1.185640
524.9128, 1.314474
525.3950, 0.9436130
525.8771, 0.4957940
526.3592, 0.6178420
526.8413, 1.160460
527.3234, 1.568419
527.8055, 1.552061
528.2877, 1.382296
528.7698, 1.335154
529.2519, 1.402014
529.7340, 1.531015
530.2161, 1.798889
530.6982, 2.044422
531.1804, 2.171532
531.6625, 2.174183
532.1446, 2.012440
532.6267, 1.398729
533.1088, 0.7488980
533.5909, 0.4555090
534.0731, 1.050434
534.5552, 1.400270
535.0373, 1.263235
535.5194, 0.8587950
536.0015, 0.7475260
536.4836, 1.036545
536.9658, 1.412981
537.4479, 1.850573
537.9300, 2.330297
538.4121, 2.388273
538.8942, 1.965441
539.3763, 1.373772
539.8585, 0.7391050
540.3406, 0.1175730
540.8227, 0.1122340
541.3048, 0.1601940
541.7869, 0.5855920
542.2690, 0.7425940
542.7512, 0.7143360
543.2333, 0.7046260
543.7154, 0.8638380
544.1975, 1.038555
544.6796, 1.078415
545.1617, 1.020792
545.6439, 0.9263000
546.1260, 0.7241360
546.6081, 0.5682720
547.0902, 0.6005270
547.5723, 0.9228550
548.0544, 1.060324
548.5366, 0.5774480
549.0187, 9.4802998E-02
549.5008, 0.2027360
549.9829, 1.546251
550.4650, 2.283195
550.9471, 2.060228
551.4293, 1.249222
551.9114, 0.6580850
552.3935, 0.2777920
552.8756, 0.2137930
553.3577, 0.7081580
553.8398, 1.549940
554.3220, 1.605112
554.8041, 0.8539700
555.2862, 0.1393930
555.7683, 0.2314640
556.2504, 0.7962570
556.7325, 1.199780
557.2147, 1.366199
557.6968, 1.332556
558.1789, 0.9486980
558.6610, 0.4270970
559.1431, 8.4735997E-02
559.6252, 0.2002890
560.1074, 0.3440190
560.5895, 0.2802030
561.0716, 0.1155030
561.5537, 0.1149560
562.0358, 0.6286490
562.5179, 1.064575
563.0001, 1.176264
563.4822, 0.9259150
563.9643, 0.7808800
564.4464, 0.7696910
564.9285, 0.8188300
565.4106, 0.8878270
565.8928, 0.9861090
566.3749, 1.045710
566.8570, 1.064857
567.3391, 1.046646
567.8212, 0.9653170
568.3033, 0.8322680
568.7855, 0.7517700
569.2676, 0.7970790
569.7497, 0.8705690
570.2318, 0.7331450
570.7139, 0.4647330
571.1960, 0.3949070
571.6782, 1.233700
572.1603, 2.001404
572.6424, 1.614290
573.1245, 0.1179280
573.6066, 1.326733
574.0887, 0.7836930
574.5709, 0.2530170
575.0530, 0.7998750
575.5351, 0.3525140
576.0172, 5.4249000E-02
576.4993, 0.5491960
576.9814, 0.9111750
577.4636, 0.6932110
577.9457, 0.4249000
578.4278, 1.261238
578.9099, 1.484430
579.3920, 1.222025
579.8741, 0.8784640
580.3563, 0.4443110
580.8384, 7.8436002E-02
581.3205, 0.1650540
581.8026, 0.2656020
582.2847, 9.4269000E-02
582.7668, 0.3552130
583.2490, 0.8072190
583.7311, 1.051476
584.2132, 1.153849
584.6953, 1.181604
585.1774, 1.099455
585.6595, 1.056295
586.1416, 1.274292
586.6237, 1.544561
587.1058, 1.554770
587.5880, 0.7743490
588.0701, 0.2285100
588.5522, 0.3464150
589.0343, 0.9448050
589.5164, 1.162275
589.9985, 0.7986680
590.4807, 0.3852730
590.9628, 8.5805997E-02
591.4449, 0.1031440
591.9270, 3.9021000E-02
592.4091, 0.5852930
592.8912, 1.138950
593.3734, 1.306686
593.8555, 1.160872
594.3376, 1.024145
594.8197, 0.9283140
595.3018, 0.9013000
595.7839, 1.061258
596.2661, 1.303646
596.7482, 1.424706
597.2303, 1.208118
597.7124, 0.9905970
598.1945, 1.040268
598.6766, 1.251135
599.1588, 1.329210
599.6409, 1.137159
600.1230, 0.8341310
600.6051, 0.3514480
601.0872, 0.3407420
601.5693, 0.5336190
602.0515, 0.1235640
602.5336, 0.8045620
603.0157, 0.9262240
603.4978, 0.3339880
603.9799, 0.2015270
604.4620, 0.6678910
604.9442, 1.270210
605.4263, 1.346249
605.9084, 0.9888320
606.3905, 0.7296620
606.8726, 0.6910630
607.3547, 0.8018820
607.8369, 1.053127
608.3190, 1.384066
608.8011, 1.650480
609.2832, 1.842682
609.7653, 1.893805
610.2474, 1.686951
610.7296, 1.258518
611.2117, 0.8993190
611.6938, 0.6662750
612.1759, 0.5349040
612.6580, 0.5174790
613.1401, 0.6499370
613.6223, 0.7194140
614.1044, 0.7010990
614.5865, 0.6524120
615.0686, 0.5955700
615.5507, 0.5142650
616.0328, 0.6263850
616.5150, 1.048801
616.9971, 1.437202
617.4792, 1.035723
617.9613, 6.5113001E-02
618.4434, 0.4156280
618.9255, 0.2140730
619.4077, 1.174683
619.8898, 1.641550
620.3719, 1.702343
620.8540, 1.644793
621.3361, 1.472965
621.8182, 1.342705
622.3004, 1.411396
622.7825, 1.678812
623.2646, 1.772493
623.7467, 1.488602
624.2288, 1.117943
624.7109, 0.7609290
625.1931, 0.3211350
625.6752, 0.2832320
626.1573, 0.8465560
626.6394, 1.478821
627.1215, 1.474115
627.6036, 0.8162000
628.0858, 0.7403340
628.5679, 1.617035
629.0500, 2.676899
629.5321, 2.534946
630.0142, 1.564030
630.4963, 0.9652540
630.9785, 1.526052
631.4606, 2.266922
631.9427, 2.556147
632.4248, 2.492958
632.9069, 2.323116
633.3890, 1.986334
633.8712, 1.731850
634.3533, 1.659058
634.8354, 1.788176
635.3175, 1.995613
635.7996, 2.381697
636.2817, 2.734144
636.7639, 2.982100
637.2460, 3.141428
637.7281, 3.046915
638.2102, 2.610167
638.6923, 2.166775
639.1744, 2.115364
639.6566, 2.399771
640.1387, 2.740404
640.6208, 3.139978
641.1029, 3.366497
641.5850, 2.875834
642.0671, 2.038286
642.5493, 1.585527
643.0314, 2.279297
643.5135, 2.992741
643.9956, 3.001795
644.4777, 2.546722
644.9598, 2.381010
645.4420, 3.118031
645.9241, 3.706209
646.4062, 3.782261
646.8883, 3.371767
647.3704, 3.036110
647.8525, 2.782429
648.3347, 2.593245
648.8168, 2.509432
649.2989, 2.519312
649.7810, 2.298359
650.2631, 1.796965
650.7452, 1.442043
651.2274, 1.941236
651.7095, 2.843517
652.1916, 3.116106
652.6737, 2.391891
653.1558, 1.706072
653.6379, 1.990843
654.1201, 2.708925
654.6022, 3.152958
655.0843, 2.959435
655.5664, 2.650696
656.0485, 2.257774
656.5306, 1.837967
657.0128, 1.509365
657.4949, 1.287340
657.9770, 1.140041
658.4591, 1.122078
658.9412, 1.152418
659.4233, 0.8586430
659.9055, 0.2333430
660.3876, 0.2862400
660.8697, 0.4982490
661.3518, 0.4145550
661.8339, 7.3082000E-02
662.3160, 0.9331760
662.7982, 1.693590
663.2803, 2.059288
663.7624, 2.139725
664.2445, 1.967278
664.7266, 1.493162
665.2087, 1.114746
665.6909, 1.049757
666.1730, 1.085613
666.6551, 1.039736
667.1372, 0.7590540
667.6193, 0.6683860
668.1014, 0.8888740
668.5836, 1.176802
669.0657, 1.156593
669.5478, 0.7955670
670.0299, 0.5065690
670.5120, 0.3618340
670.9941, 0.3507750
671.4763, 0.5022220
671.9584, 0.7838330
672.4405, 1.071207
672.9226, 1.427343
673.4047, 1.670454
673.8868, 1.507792
674.3690, 1.068893
674.8511, 0.8086620
675.3332, 1.078976
675.8153, 1.401157
676.2974, 1.520605
676.7795, 1.454023
677.2617, 1.565758
677.7438, 2.041029
678.2259, 2.445072
678.7080, 2.443588
679.1901, 1.975430
679.6722, 1.943424
680.1544, 2.424694
680.6365, 2.956238
681.1186, 3.007696
681.6007, 2.785002
682.0828, 2.902229
682.5649, 3.522116
683.0471, 4.027504
683.5292, 3.703823
684.0113, 3.046726
684.4934, 2.659409
684.9755, 2.859276
685.4576, 3.113220
685.9398, 3.308594
686.4219, 3.436987
686.9040, 3.484886
687.3861, 3.365339
687.8682, 3.321585
688.3503, 3.436724
688.8325, 3.629330
689.3146, 3.642605
689.7967, 3.472443
690.2788, 3.411776
690.7609, 3.588202
691.2430, 3.942221
691.7252, 4.538376
692.2073, 5.280436
692.6894, 5.707582
693.1715, 5.338503
693.6536, 4.738773
694.1357, 4.248158
694.6179, 3.906469
695.1000, 3.791958
695.5821, 4.173435
696.0642, 4.564186
696.5463, 4.739134
697.0284, 4.671087
697.5106, 4.537306
697.9927, 4.274347
698.4748, 4.094456
698.9569, 4.313656
699.4390, 4.847626
699.9211, 4.862484
700.4033, 4.230953
700.8854, 3.630426
701.3675, 3.971422
701.8496, 4.728258
702.3317, 5.054068
702.8138, 4.631443
703.2960, 4.096399
703.7781, 3.691998
704.2602, 3.374035
704.7423, 3.103683
705.2244, 2.819307
705.7065, 2.651892
706.1887, 2.595484
706.6708, 2.668432
707.1529, 2.978552
707.6350, 3.601496
708.1171, 3.992102
708.5992, 3.956949
709.0814, 3.666410
709.5635, 3.439264
710.0456, 3.267685
710.5277, 3.118895
711.0098, 3.040483
711.4919, 2.927950
711.9741, 2.640654
712.4562, 2.228798
712.9383, 1.883116
713.4204, 1.623621
713.9025, 1.491444
714.3846, 1.546150
714.8668, 1.775246
715.3489, 1.993303
715.8310, 2.227236
716.3131, 2.404505
716.7952, 2.478050
717.2773, 2.455553
717.7595, 2.429895
718.2416, 2.399149
718.7237, 2.269917
719.2058, 1.853706
719.6879, 1.357306
720.1700, 1.102619
720.6522, 1.128109
721.1343, 1.257511
721.6164, 1.613100
722.0985, 1.886305
722.5806, 1.801306
723.0627, 1.038954
723.5449, 0.5143640
724.0270, 0.3166030
724.5091, 0.3596500
724.9912, 0.6737980
725.4733, 1.358507
725.9554, 1.520901
726.4376, 0.9572870
726.9197, 0.2943550
727.4018, 0.5931050
727.8839, 1.518600
728.3660, 1.964148
728.8481, 1.477005
729.3303, 0.8420540
729.8124, 0.7712570
730.2945, 0.9846290
730.7766, 1.055984
731.2587, 0.5944790
731.7408, 0.2877010
732.2230, 0.4185920
732.7051, 0.7716350
733.1872, 0.9742450
733.6693, 1.034594
734.1514, 0.8903870
734.6335, 0.4344060
735.1157, 0.1497210
735.5978, 0.4298650
736.0799, 0.4132860
736.5620, 0.1509270
737.0441, 0.6155190
737.5262, 1.388662
738.0084, 1.551306
738.4905, 1.230158
738.9726, 0.8563650
739.4547, 0.3264140
739.9368, 6.2029000E-02
740.4189, 0.5221560
740.9011, 1.623859
741.3832, 1.937107
741.8653, 1.033005
742.3474, 0.1159460
742.8295, 0.3240810
743.3116, 0.3375660
743.7938, 0.3225080
744.2759, 0.2836480
744.7580, 6.3555002E-02
745.2401, 0.7469690
745.7222, 1.672754
746.2043, 1.837959
746.6865, 1.251339
747.1686, 0.7906760
747.6507, 1.140232
748.1328, 1.629135
748.6149, 1.847458
749.0970, 1.710541
749.5792, 1.341801
750.0613, 0.3854270
750.5434, 0.3407080
751.0255, 0.1465800
751.5076, 1.098335
751.9897, 1.644909
752.4719, 1.398285
752.9540, 0.8998180
753.4361, 0.5447480
753.9182, 0.3300670
754.4003, 0.3040710
754.8824, 0.4967080
755.3646, 0.6745820
755.8467, 0.5929200
756.3288, 0.4734130
756.8109, 0.5462280
757.2930, 1.044031
757.7751, 1.327902
758.2573, 1.360039
758.7394, 1.178110
759.2215, 0.7234230
759.7036, 9.7221002E-02
760.1857, 0.5442430
760.6678, 0.5226690
761.1500, 0.2062230
761.6321, 0.4369660
762.1142, 1.188076
762.5963, 1.451998
763.0784, 0.9258540
763.5605, 0.3322930
764.0427, 0.1794640
764.5248, 0.2585560
765.0069, 0.3080330
765.4890, 8.3214000E-02
765.9711, 9.2083000E-02
766.4532, 0.5773770
766.9354, 1.165968
767.4175, 1.267378
767.8996, 0.7885490
768.3817, 0.3999540
768.8638, 0.2061710
769.3459, 0.1706200
769.8281, 0.2762090
770.3102, 0.4979080
770.7923, 0.7868880
771.2744, 1.287472
771.7565, 1.594776
772.2386, 1.231924
772.7208, 0.5295520
773.2029, 6.3323997E-02
773.6850, 3.5737999E-02
774.1671, 0.1913830
774.6492, 0.6673160
775.1313, 1.216530
775.6135, 1.220560
776.0956, 0.5761180
776.5777, 0.1307980
777.0598, 0.1281740
777.5419, 0.4172360
778.0240, 0.9670390
778.5062, 1.609671
778.9883, 1.816257
779.4704, 0.8448750
779.9525, 0.1253990
780.4346, 0.2478680
780.9167, 0.1801550
781.3989, 0.4160390
781.8810, 4.7398001E-02
782.3631, 0.1982860
782.8452, 0.1697040
783.3273, 5.9671000E-02
783.8094, 0.2886200
784.2916, 0.5181270
784.7737, 0.7532940
785.2558, 1.029568
785.7379, 1.280087
786.2200, 1.368097
786.7021, 1.319767
787.1843, 1.220686
787.6664, 1.048428
788.1485, 0.8980460
788.6306, 0.7747440
789.1127, 0.7084290
789.5948, 0.8296570
790.0770, 1.448725
790.5591, 1.802174
791.0412, 1.627062
791.5233, 1.084852
792.0054, 0.7056310
792.4875, 0.4916440
792.9697, 0.4645790
793.4518, 0.7387160
793.9339, 1.127937
794.4160, 1.284445
794.8981, 1.277763
795.3802, 1.346275
795.8624, 1.810474
796.3445, 2.176779
796.8266, 2.192667
797.3087, 1.895212
797.7908, 1.515604
798.2729, 0.9591710
798.7551, 0.5149840
799.2372, 0.2367940
799.7193, 0.1392840
800.2014, 0.4113900
800.6835, 0.9896240
801.1656, 1.324589
801.6478, 0.8060930
802.1299, 0.1370370
802.6120, 0.2642120
803.0941, 0.9564930
803.5762, 1.492260
804.0583, 1.618824
804.5405, 1.494297
805.0226, 0.9480800
805.5047, 0.1631320
805.9868, 0.1451090
806.4689, 9.6809000E-02
806.9510, 0.6242200
807.4332, 1.482843
807.9153, 2.470806
808.3974, 3.074175
808.8795, 3.310883
809.3616, 3.069408
809.8438, 1.665833
810.3259, 0.2698730
810.8080, 0.1162240
811.2901, 0.3071860
811.7722, 0.8451520
812.2543, 1.643951
812.7365, 2.138535
813.2186, 2.054632
813.7007, 1.588968
814.1828, 1.531128
814.6649, 1.960922
815.1470, 2.130920
815.6292, 1.573467
816.1113, 0.7967190
816.5934, 0.8843730
817.0755, 1.597513
817.5576, 2.129606
818.0397, 1.903551
818.5219, 1.584164
819.0040, 1.577801
819.4861, 1.759371
819.9682, 1.674480
820.4503, 1.013500
820.9324, 0.6024610
821.4146, 0.6984040
821.8967, 1.092981
822.3788, 1.220764
822.8609, 1.103354
823.3430, 1.099379
823.8251, 1.429768
824.3073, 1.820435
824.7894, 1.960293
825.2715, 1.906574
825.7536, 1.790205
826.2357, 1.516449
826.7178, 1.349926
827.2000, 1.525320
827.6821, 1.811338
828.1642, 1.768492
828.6463, 1.244329
829.1284, 0.9534550
829.6105, 1.097137
830.0927, 1.442812
830.5748, 1.562469
831.0569, 1.519642
831.5390, 1.552265
832.0211, 1.822573
832.5032, 2.065132
832.9854, 2.056704
833.4675, 1.910276
833.9496, 1.796553
834.4317, 1.614357
834.9138, 1.685873
835.3959, 2.214685
835.8781, 2.831440
836.3602, 2.934086
836.8423, 2.522358
837.3244, 2.082500
837.8065, 1.666750
838.2886, 1.336981
838.7708, 1.226599
839.2529, 1.232691
839.7350, 1.255537
840.2171, 1.176828
840.6992, 1.272209
841.1813, 1.938850
841.6635, 2.645123
842.1456, 2.812408
842.6277, 2.200874
843.1098, 1.791452
843.5919, 1.646673
844.0740, 1.719170
844.5562, 2.171900
845.0383, 2.791595
845.5204, 2.852297
846.0025, 2.174297
846.4846, 1.438377
846.9667, 0.9678880
847.4489, 0.7722070
847.9310, 0.9063320
848.4131, 1.551674
848.8952, 2.061068
849.3773, 2.427868
849.8594, 2.645039
850.3416, 2.712627
850.8237, 2.629997
851.3058, 2.257414
851.7879, 1.556320
852.2700, 1.049635
852.7521, 1.419228
853.2343, 2.079390
853.7164, 2.300142
854.1985, 1.989681
854.6806, 1.716871
855.1627, 1.680508
855.6448, 1.721991
856.1270, 1.752769
856.6091, 1.770752
857.0912, 1.921120
857.5733, 2.234016
858.0554, 2.455074
858.5375, 2.369577
859.0197, 2.128294
859.5018, 2.108967
859.9839, 2.270000
860.4660, 2.340979
860.9481, 2.081598
861.4302, 1.784874
861.9124, 1.597809
862.3945, 1.501604
862.8766, 1.440636
863.3587, 1.419695
863.8408, 1.448547
864.3229, 1.589096
864.8051, 1.776415
865.2872, 1.791571
865.7693, 1.666119
866.2514, 1.605803
866.7335, 1.911205
867.2156, 2.091583
867.6978, 1.413557
868.1799, 0.3638020
868.6620, 2.3241000E-02
869.1441, 1.430166
869.6262, 2.331686
870.1083, 2.163910
870.5905, 1.439243
871.0726, 1.154491
871.5547, 1.296946
872.0368, 1.593067
872.5189, 2.059858
873.0010, 2.422020
873.4832, 2.250244
873.9653, 1.788975
874.4474, 1.435234
874.9295, 1.304216
875.4116, 1.278816
875.8937, 1.421227
876.3759, 1.599543
876.8580, 1.699574
877.3401, 1.742836
877.8222, 1.666925
878.3043, 1.373125
878.7864, 1.177399
879.2686, 1.583397
879.7507, 2.237064
880.2328, 2.436857
880.7149, 2.039694
881.1970, 1.639498
881.6791, 1.576029
882.1613, 1.577713
882.6434, 1.458370
883.1255, 1.207764
883.6076, 0.8360390
884.0897, 0.2269800
884.5718, 0.1288360
885.0540, 0.3420350
885.5361, 1.308128
886.0182, 1.629560
886.5003, 1.373703
886.9824, 1.142616
887.4645, 1.439747
887.9467, 1.760254
888.4288, 1.735514
888.9109, 1.393782
889.3930, 1.188828
889.8751, 1.170887
890.3572, 1.225615
890.8394, 1.355612
891.3215, 1.504433
891.8036, 1.458298
892.2857, 1.261930
892.7678, 1.162125
893.2499, 1.400675
893.7321, 1.615318
894.2142, 1.537640
894.6963, 1.244534
895.1784, 0.8791640
895.6605, 0.1407790
896.1426, 0.1586880
896.6248, 0.1954360
897.1069, 0.8444060
897.5890, 1.365826
898.0711, 1.738340
898.5532, 1.613214
899.0353, 0.8238530
899.5175, 3.6522001E-02
899.9996, 0.1645770
900.4817, 1.2405000E-02
900.9638, 0.3946400
901.4459, 1.172260
901.9280, 1.475889
902.4102, 0.8643760
902.8923, 0.2013490
903.3744, 0.1332780
903.8565, 0.6739580
904.3386, 1.072796
904.8207, 1.322372
905.3029, 1.435703
905.7850, 1.355080
906.2671, 1.172295
906.7492, 0.9349040
907.2313, 0.6605110
907.7134, 0.4854320
908.1956, 0.4831010
908.6777, 0.5598740
909.1598, 0.7225020
909.6419, 0.9378130
910.1240, 1.035095
910.6061, 1.013195
911.0883, 0.9399870
911.5704, 0.7493650
912.0525, 0.6378020
912.5346, 1.125515
913.0167, 1.860769
913.4988, 2.080608
913.9810, 0.8256000
914.4631, 9.3826003E-02
914.9452, 0.1985300
915.4273, 0.1350100
915.9094, 0.4266260
916.3915, 0.6766760
916.8737, 0.8733880
917.3558, 1.036654
917.8379, 1.046011
918.3200, 0.5800420
918.8021, 5.4177999E-02
919.2842, 0.3894810
919.7664, 0.2839410
920.2485, 0.1194310
920.7306, 8.2438000E-02
921.2127, 5.1104002E-02
921.6948, 0.5358280
922.1769, 1.441973
922.6591, 1.509111
923.1412, 0.6537610
923.6233, 0.2150590
924.1054, 0.5423300
924.5875, 0.4556830
925.0696, 8.2314998E-02
925.5518, 0.9425700
926.0339, 1.474846
926.5160, 1.132318
926.9981, 0.7264060
927.4802, 0.4856430
927.9623, 0.3943370
928.4445, 0.4199070
928.9266, 0.5697020
929.4087, 0.7663460
929.8908, 1.027702
930.3729, 1.245602
930.8550, 1.222973
931.3372, 1.064486
931.8193, 0.9573520
932.3014, 0.9787290
932.7835, 1.023149
933.2656, 1.236019
933.7477, 1.331814
934.2299, 0.8761370
934.7120, 0.2681690
935.1941, 0.4403530
935.6762, 0.5447730
936.1583, 1.594572
936.6404, 1.629259
937.1226, 1.144228
937.6047, 0.6711200
938.0868, 0.2666320
938.5689, 0.1497670
939.0510, 0.8462070
939.5331, 1.344177
940.0153, 1.121973
940.4974, 0.3384460
940.9795, 0.2006550
941.4616, 0.7197630
941.9437, 1.073162
942.4258, 0.7486590
942.9080, 0.2148950
943.3901, 8.0351003E-02
943.8722, 0.1573160
944.3543, 7.2022997E-02
944.8364, 0.4610610
945.3185, 0.7362310
945.8007, 0.4470600
946.2828, 5.6522001E-02
946.7649, 0.3084340
947.2470, 1.177668
947.7291, 1.649685
948.2112, 1.569153
948.6934, 1.251198
949.1755, 0.7414650
949.6576, 0.3019640
950.1397, 0.3191280
950.6218, 0.9713780
951.1039, 1.230911
951.5861, 0.6525880
952.0682, 0.1282630
952.5503, 0.1317440
953.0324, 0.5779710
953.5145, 0.9392110
953.9966, 1.196386
954.4788, 1.310648
954.9609, 1.131968
955.4430, 0.8780040
955.9251, 0.6254390
956.4072, 0.4367280
956.8893, 0.4962040
957.3715, 1.151741
957.8536, 1.436317
958.3357, 1.095427
958.8178, 0.5780830
959.2999, 0.7146590
959.7820, 1.339231
960.2642, 1.700747
960.7463, 1.651169
961.2284, 1.378864
961.7105, 0.6798360
962.1926, 4.9520001E-02
962.6747, 1.5545000E-02
963.1569, 0.6653210
963.6390, 1.224859
964.1211, 1.684286
964.6032, 1.974695
965.0853, 1.972624
965.5674, 1.786549
966.0496, 1.743073
966.5317, 1.810034
967.0138, 1.830475
967.4959, 1.588364
967.9780, 1.420467
968.4601, 1.607388
968.9423, 1.964140
969.4244, 2.035385
969.9065, 1.719727
970.3886, 1.592031
970.8707, 1.819033
971.3528, 2.055628
971.8350, 1.687456
972.3171, 1.031214
972.7992, 0.7142960
973.2813, 0.9537640
973.7634, 1.172709
974.2455, 1.185320
974.7277, 1.086283
975.2098, 0.8612420
975.6919, 0.5085720
976.1740, 0.5394170
976.6561, 0.9601140
977.1382, 1.424395
977.6204, 1.928839
978.1025, 2.274004
978.5846, 2.054216
979.0667, 1.461781
979.5488, 1.039993
980.0309, 1.020384
980.5131, 1.130829
980.9952, 1.415318
981.4773, 1.696375
981.9594, 1.680496
982.4415, 1.424402
982.9236, 1.193918
983.4058, 0.9966140
983.8879, 0.8440530
984.3700, 0.7728690
984.8521, 0.7361070
985.3342, 0.6811680
985.8163, 0.5867020
986.2985, 0.5685520
986.7806, 0.6474230
987.2627, 0.7619780
987.7448, 0.9354210
988.2269, 1.099695
988.7090, 0.9926660
989.1912, 0.6722220
989.6733, 0.3793410
990.1554, 0.1190070
990.6375, 4.1721001E-02
991.1196, 0.3660180
991.6017, 0.8729800
992.0839, 1.212593
992.5660, 1.383331
993.0481, 1.210531
993.5302, 0.6262360
994.0123, 6.9481000E-02
994.4944, 0.1690690
994.9766, 0.6056060
995.4587, 0.9393250
995.9408, 1.112036
996.4229, 1.114592
996.9050, 0.7726230
997.3871, 0.4338800
997.8693, 0.2319470
998.3514, 0.1568600
998.8335, 0.2214240
999.3156, 0.4117010
999.7977, 0.4607930
1000.280, 0.1275650
1000.762, 0.2287120
1001.244, 0.3636090
1001.726, 0.2636090
1002.208, 7.8544997E-02
1002.690, 1.181877
1003.173, 1.598499
1003.655, 1.048649
1004.137, 0.2827470
1004.619, 9.0782002E-02
1005.101, 0.3283900
1005.583, 0.5411510
1006.065, 0.6992320
1006.547, 0.8123510
1007.029, 0.8417610
1007.512, 0.8710230
1007.994, 1.018614
1008.476, 1.219978
1008.958, 1.127333
1009.440, 0.6769960
1009.922, 0.3323820
1010.404, 0.2559530
1010.886, 0.2988640
1011.369, 0.2379760
1011.851, 0.1537130
1012.333, 0.1822340
1012.815, 0.3779450
1013.297, 0.6565760
1013.779, 1.165701
1014.261, 1.557606
1014.743, 1.526022
1015.225, 1.099691
1015.708, 0.8442670
1016.190, 0.7528930
1016.672, 0.7124580
1017.154, 0.6008150
1017.636, 0.5584220
1018.118, 0.8128550
1018.600, 1.221914
1019.082, 1.307447
1019.565, 0.8998110
1020.047, 0.5661810
1020.529, 0.3922160
1021.011, 0.3257160
1021.493, 0.2797570
1021.975, 0.2728140
1022.457, 0.3545950
1022.939, 0.5406930
1023.421, 0.7477250
1023.904, 1.101841
1024.386, 1.290905
1024.868, 1.073977
1025.350, 0.5259550
1025.832, 0.3517000
1026.314, 0.5487190
1026.796, 0.9211160
1027.278, 1.581470
1027.760, 2.110249
1028.243, 1.870775
1028.725, 1.277027
1029.207, 1.030533
1029.689, 1.831379
1030.171, 2.007973
1030.653, 1.291813
1031.135, 0.3854790
1031.617, 8.7456003E-02
1032.100, 0.1390210
1032.582, 0.3539750
1033.064, 1.331577
1033.546, 2.062983
1034.028, 1.946129
1034.510, 1.718277
1034.992, 1.763931
1035.474, 1.959730
1035.957, 1.919945
1036.439, 1.629692
1036.921, 1.357033
1037.403, 1.162317
1037.885, 1.009806
1038.367, 0.8427830
1038.849, 0.7038780
1039.331, 0.6704540
1039.813, 0.7999630
1040.296, 0.8202670
1040.778, 0.6140270
1041.260, 0.5112570
1041.742, 0.7789610
1042.224, 1.264418
1042.706, 1.397987
1043.188, 1.263838
1043.670, 1.196646
1044.152, 1.374926
1044.635, 1.632292
1045.117, 2.080568
1045.599, 2.467548
1046.081, 2.405764
1046.563, 1.805698
1047.045, 1.522188
1047.527, 1.637691
1048.009, 1.745506
1048.492, 1.343254
1048.974, 0.8456760
1049.456, 0.7689290
1049.938, 1.090305
1050.420, 1.172520
1050.902, 0.7527640
1051.384, 0.5003320
1051.866, 0.6328220
1052.349, 0.9349840
1052.831, 0.9055560
1053.313, 0.7116240
1053.795, 0.9073510
1054.277, 1.791071
1054.759, 2.372923
1055.241, 1.857639
1055.723, 1.177301
1056.205, 0.9801220
1056.688, 1.247786
1057.170, 1.224148
1057.652, 0.9082050
1058.134, 0.5360340
1058.616, 5.8913998E-02
1059.098, 0.2497060
1059.580, 8.0390997E-02
1060.062, 0.7294980
1060.544, 1.067190
1061.027, 0.8148610
1061.509, 0.6877900
1061.991, 0.7363720
1062.473, 0.8374770
1062.955, 0.8443910
1063.437, 0.8147870
1063.919, 0.9252300
1064.401, 1.154755
1064.884, 1.260727
1065.366, 0.9688190
1065.848, 0.7349050
1066.330, 0.7100140
1066.812, 0.8542750
1067.294, 1.032671
1067.776, 1.232773
1068.258, 1.567396
1068.740, 2.118372
1069.223, 2.437744
1069.705, 1.898861
1070.187, 1.172842
1070.669, 0.8704990
1071.151, 1.043785
1071.633, 1.116991
1072.115, 1.074516
1072.597, 1.000481
1073.079, 0.8773080
1073.562, 0.8155330
1074.044, 1.092604
1074.526, 1.528732
1075.008, 1.804949
1075.490, 1.787912
1075.972, 1.595867
1076.454, 1.111210
1076.936, 0.6851750
1077.419, 0.6182040
1077.901, 0.8494030
1078.383, 1.167297
1078.865, 1.540579
1079.347, 1.772905
1079.829, 1.765400
1080.311, 1.582626
1080.793, 1.079287
1081.275, 0.4938580
1081.758, 0.2059330
1082.240, 0.2356090
1082.722, 0.3919850
1083.204, 0.6309050
1083.686, 0.8706610
1084.168, 1.063456
1084.650, 1.201048
1085.132, 1.340792
1085.615, 1.459221
1086.097, 1.189522
1086.579, 0.3353820
1087.061, 0.3188880
1087.543, 0.5497680
1088.025, 0.4639280
1088.507, 3.9572001E-02
1088.989, 0.5300430
1089.471, 0.8960400
1089.953, 0.9608690
1090.436, 0.8866880
1090.918, 0.4330710
1091.400, 0.2256580
1091.882, 0.7285460
1092.364, 1.719074
1092.846, 2.196053
1093.328, 2.219131
1093.810, 2.087112
1094.293, 1.808931
1094.775, 1.577158
1095.257, 1.558006
1095.739, 1.578512
1096.221, 1.455219
1096.703, 1.174503
1097.185, 0.7833060
1097.667, 0.2715280
1098.150, 5.4970002E-03
1098.632, 0.4249990
1099.114, 0.9541700
1099.596, 0.9302940
1100.078, 0.5565050
1100.560, 0.5702230
1101.042, 1.238192
1101.524, 1.577860
1102.006, 1.409082
1102.489, 1.074980
1102.971, 0.8680920
1103.453, 0.7984580
1103.935, 0.9927770
1104.417, 1.443462
1104.899, 1.597101
1105.381, 1.020790
1105.863, 0.5818270
1106.345, 0.5159150
1106.828, 0.7045650
1107.310, 1.003199
1107.792, 1.344257
1108.274, 1.506807
1108.756, 1.426050
1109.238, 1.238188
1109.720, 0.7825810
1110.202, 0.4786150
1110.685, 0.6521470
1111.167, 1.202799
1111.649, 1.327860
1112.131, 1.051668
1112.613, 0.7411940
1113.095, 0.4689770
1113.577, 0.3630140
1114.059, 0.5950410
1114.542, 1.007164
1115.024, 1.428675
1115.506, 1.883299
1115.988, 2.279781
1116.470, 2.655930
1116.952, 2.642614
1117.434, 1.536873
1117.916, 0.2478290
1118.398, 0.2449970
1118.880, 0.1460510
1119.363, 5.1229000E-02
1119.845, 0.3574730
1120.327, 0.5825900
1120.809, 0.7278800
1121.291, 0.7439840
1121.773, 0.4597130
1122.255, 6.8265997E-02
1122.737, 5.1405001E-02
1123.220, 7.5842001E-02
1123.702, 0.1499860
1124.184, 0.2154460
1124.666, 0.1884400
1125.148, 0.5884250
1125.630, 1.512049
1126.112, 1.486044
1126.594, 0.8121450
1127.077, 0.3922770
1127.559, 0.3556190
1128.041, 0.4746090
1128.523, 0.8622860
1129.005, 1.118210
1129.487, 0.9938470
1129.969, 0.6562310
1130.451, 0.7203730
1130.933, 1.105534
1131.416, 1.124502
1131.898, 0.4728760
1132.380, 6.3565999E-02
1132.862, 0.1491410
1133.344, 0.6129820
1133.826, 0.9454710
1134.308, 1.143402
1134.790, 1.417728
1135.272, 1.775564
1135.755, 1.890171
1136.237, 1.542517
1136.719, 1.058598
1137.201, 0.6399670
1137.683, 0.3223250
1138.165, 0.1944220
1138.647, 0.3326760
1139.129, 0.2501950
1139.612, 0.1097600
1140.094, 0.3118100
1140.576, 3.8510000E-03
1141.058, 0.5592780
1141.540, 1.235739
1142.022, 1.851263
1142.504, 1.966852
1142.986, 1.083769
1143.469, 0.5243780
1143.951, 0.3293130
1144.433, 0.4171770
1144.915, 0.9423470
1145.397, 1.565765
1145.879, 1.571709
1146.361, 1.120052
1146.843, 0.8284090
1147.325, 1.145811
1147.807, 1.236460
1148.290, 0.8527260
1148.772, 0.4809060
1149.254, 1.000416
1149.736, 1.941137
1150.218, 1.919247
1150.700, 0.9272770
1151.182, 0.1701150
1151.664, 0.3168850
1152.147, 0.6116940
1152.629, 0.8808250
1153.111, 1.119238
1153.593, 1.414711
1154.075, 1.676119
1154.557, 1.365152
1155.039, 0.3505330
1155.521, 0.2604080
1156.004, 0.6990740
1156.486, 1.599152
1156.968, 1.635412
1157.450, 1.066057
1157.932, 0.5844690
1158.414, 0.2129380
1158.896, 0.1638620
1159.378, 0.5132960
1159.860, 0.8627700
1160.343, 0.9122940
1160.825, 0.9166660
1161.307, 1.092855
1161.789, 1.400675
1162.271, 1.474358
1162.753, 1.326107
1163.235, 1.255720
1163.717, 1.423429
1164.199, 1.565546
1164.682, 1.455215
1165.164, 1.217295
1165.646, 0.9315590
1166.128, 0.5893820
1166.610, 0.5546110
1167.092, 0.8442230
1167.574, 0.9654250
1168.056, 0.5327530
1168.539, 4.1237000E-02
1169.021, 8.6411998E-02
1169.503, 1.8681999E-02
1169.985, 0.1783410
1170.467, 0.3512460
1170.949, 0.7368470
1171.431, 1.375628
1171.913, 1.839281
1172.396, 1.839003
1172.878, 1.535444
1173.360, 0.8137040
1173.842, 1.2432000E-02
1174.324, 0.3136580
1174.806, 9.5284998E-02
1175.288, 0.6908470
1175.770, 1.541914
1176.252, 2.125254
1176.734, 1.892626
1177.217, 1.327055
1177.699, 0.8337120
1178.181, 0.4913060
1178.663, 0.5554260
1179.145, 1.364452
1179.627, 1.776121
1180.109, 1.651604
1180.591, 1.348228
1181.074, 1.230457
1181.556, 1.154047
1182.038, 0.7653600
1182.520, 0.2015820
1183.002, 0.1262090
1183.484, 1.034658
1183.966, 1.465050
1184.448, 1.121464
1184.931, 0.6291140
1185.413, 0.8349380
1185.895, 1.295401
1186.377, 1.219194
1186.859, 0.6319540
1187.341, 0.2225130
1187.823, 0.1904600
1188.305, 0.1804490
1188.787, 8.0747999E-02
1189.270, 9.6511997E-02
1189.752, 0.6970540
1190.234, 1.519300
1190.716, 1.962414
1191.198, 1.962788
1191.680, 1.900940
1192.162, 1.952242
1192.644, 1.733622
1193.126, 1.024170
1193.609, 0.2604560
1194.091, 0.2844450
1194.573, 0.7200760
1195.055, 0.8307020
1195.537, 0.4865860
1196.019, 0.3397540
1196.501, 0.6993180
1196.983, 0.9644030
1197.466, 0.9481700
1197.948, 0.7287450
1198.430, 0.3461380
1198.912, 7.1710996E-02
1199.394, 0.2367780
1199.876, 7.7597000E-02
1200.358, 0.2293320
1200.840, 0.7224430
1201.323, 1.241602
1201.805, 1.823717
1202.287, 2.266438
1202.769, 1.963736
1203.251, 1.237234
1203.733, 0.7936100
1204.215, 0.8565350
1204.697, 0.8639830
1205.179, 0.6831800
1205.661, 0.4905800
1206.144, 0.3485790
1206.626, 0.2630730
1207.108, 0.2023330
1207.590, 0.2183700
1208.072, 0.4510150
1208.554, 1.012194
1209.036, 1.536766
1209.518, 2.024261
1210.001, 2.364767
1210.483, 2.509687
1210.965, 2.457333
1211.447, 2.034752
1211.929, 1.443111
1212.411, 1.128683
1212.893, 1.346416
1213.375, 1.536980
1213.858, 1.787979
1214.340, 1.810152
1214.822, 1.338684
1215.304, 0.6127610
1215.786, 1.8204000E-02
1216.268, 0.3425560
1216.750, 0.1605510
1217.232, 1.176483
1217.714, 1.874380
1218.197, 1.609385
1218.679, 1.154757
1219.161, 0.9678670
1219.643, 0.9641170
1220.125, 1.000711
1220.607, 1.035561
1221.089, 0.9335690
1221.571, 0.3530640
1222.053, 0.2881160
1222.536, 1.010330
1223.018, 1.671059
1223.500, 1.661982
1223.982, 1.243073
1224.464, 0.7396260
1224.946, 0.2651160
1225.428, 3.1143000E-02
1225.910, 0.1451740
1226.393, 0.4983840
1226.875, 1.185299
1227.357, 1.768412
1227.839, 2.056536
1228.321, 2.020994
1228.803, 1.421532
1229.285, 0.5342010
1229.767, 4.7019999E-03
1230.250, 1.0118000E-02
1230.732, 0.3705540
1231.214, 1.214737
1231.696, 1.864809
1232.178, 1.511793
1232.660, 0.8635810
1233.142, 1.058159
1233.624, 1.703632
1234.106, 1.829336
1234.589, 0.9759120
1235.071, 0.4852120
1235.553, 0.4253620
1236.035, 0.5109880
1236.517, 0.4952140
1236.999, 0.5276970
1237.481, 0.9235440
1237.963, 1.472204
1238.445, 1.677412
1238.928, 1.421314
1239.410, 1.101320
1239.892, 0.6839470
1240.374, 0.4858400
1240.856, 0.9134410
1241.338, 1.413502
1241.820, 1.361179
1242.302, 1.046545
1242.785, 1.134813
1243.267, 1.797838
1243.749, 1.995106
1244.231, 1.671782
1244.713, 1.341969
1245.195, 1.431158
1245.677, 1.603823
1246.159, 1.673187
1246.641, 1.620392
1247.124, 1.390654
1247.606, 0.9462700
1248.088, 0.7582450
1248.570, 0.9113790
1249.052, 1.153475
1249.534, 1.475199
1250.016, 1.629871
1250.498, 1.294312
1250.980, 0.8037470
1251.463, 0.6379990
1251.945, 0.7887020
1252.427, 0.6754860
1252.909, 0.3059520
1253.391, 9.6468002E-02
1253.873, 0.3940530
1254.355, 0.7828580
1254.837, 1.223125
1255.320, 1.538280
1255.802, 1.426430
1256.284, 0.9742970
1256.766, 0.7335260
1257.248, 0.7200360
1257.730, 0.8611320
1258.212, 1.253510
1258.694, 1.637865
1259.177, 2.099136
1259.659, 2.316730
1260.141, 1.633617
1260.623, 0.4670850
1261.105, 0.4444850
1261.587, 1.355192
1262.069, 1.954613
1262.551, 1.437687
1263.033, 0.9601920
1263.516, 0.6150990
1263.998, 0.4668900
1264.480, 0.7549950
1264.962, 1.204617
1265.444, 1.139145
1265.926, 0.7095010
1266.408, 0.5229970
1266.890, 1.023417
1267.372, 1.237276
1267.855, 1.047874
1268.337, 0.7472860
1268.819, 0.5710810
1269.301, 0.4485230
1269.783, 0.1414620
1270.265, 0.1813560
1270.747, 3.7163001E-02
1271.229, 1.176941
1271.712, 1.668749
1272.194, 1.369579
1272.676, 0.9761580
1273.158, 1.057085
1273.640, 1.254074
1274.122, 1.133989
1274.604, 0.8985330
1275.086, 0.8144680
1275.568, 1.431404
1276.051, 1.378630
1276.533, 0.5446150
1277.015, 2.5347000E-02
1277.497, 0.7857650
1277.979, 1.664314
1278.461, 1.291224
1278.943, 0.6511400
1279.425, 0.0000000E+00
##END=



