##NAMES=Rhodonite
##RRUFFID=R040041
##IDEAL CHEMISTRY=Mn^2+^SiO_3_
##LOCALITY=Franklin, Sussex County, New Jersey, USA
##OWNER=RRUFF
##SOURCE=University of Arizona Mineral Museum
##DESCRIPTION=Pink prismatic crystals
##STATUS=The identification of this mineral has been confirmed by X-ray diffraction and chemical analysis
##URL=rruff.info/R040041
##MEASURED CHEMISTRY=(Mn_0.63_Ca_0.21_Zn_0.12_Mg_0.02_Fe_0.02_)_Î£=1_Si_1.00_O_3_
120.0758, 0.0000000E+00
120.5579, 5.403931
121.0400, 35.69104
121.5221, 144.1783
122.0042, 297.0067
122.4864, 447.5479
122.9685, 583.3030
123.4506, 693.3611
123.9327, 763.4648
124.4148, 777.0286
124.8969, 759.0640
125.3791, 728.2124
125.8612, 685.0332
126.3433, 644.0889
126.8254, 614.4934
127.3075, 595.8567
127.7896, 587.6755
128.2718, 593.7646
128.7539, 609.3801
129.2360, 629.1953
129.7181, 655.6299
130.2002, 673.7791
130.6823, 663.0447
131.1645, 625.0200
131.6466, 576.1165
132.1287, 511.8713
132.6108, 437.7878
133.0929, 392.5828
133.5750, 380.2378
134.0572, 395.9382
134.5393, 432.5198
135.0214, 490.7029
135.5035, 561.3325
135.9856, 637.1189
136.4677, 717.9404
136.9498, 814.1946
137.4320, 941.4241
137.9141, 1089.094
138.3962, 1183.422
138.8783, 1224.838
139.3604, 1219.040
139.8425, 1165.421
140.3247, 1053.054
140.8068, 925.1436
141.2889, 784.1111
141.7710, 623.6426
142.2531, 486.7729
142.7352, 371.8525
143.2174, 279.1814
143.6995, 207.6140
144.1816, 161.2107
144.6637, 130.4829
145.1458, 113.7549
145.6279, 115.9504
146.1101, 120.6667
146.5922, 124.2136
147.0743, 130.0376
147.5564, 149.8584
148.0385, 188.7629
148.5206, 236.9910
149.0028, 289.5220
149.4849, 347.7742
149.9670, 408.9829
150.4491, 476.8418
150.9312, 550.4219
151.4133, 613.1184
151.8955, 666.7373
152.3776, 708.2727
152.8597, 736.1853
153.3418, 753.4480
153.8239, 754.0654
154.3060, 734.7097
154.7882, 694.0544
155.2703, 645.2073
155.7524, 580.0198
156.2345, 510.2651
156.7166, 452.9260
157.1987, 414.3154
157.6808, 394.4998
158.1630, 397.9097
158.6451, 427.4697
159.1272, 460.8226
159.6093, 491.9777
160.0914, 521.0654
160.5735, 548.0558
161.0557, 561.8325
161.5378, 574.0841
162.0199, 595.3965
162.5020, 644.1411
162.9841, 689.3071
163.4662, 717.6042
163.9484, 735.8721
164.4305, 754.8245
164.9126, 776.4236
165.3947, 800.5282
165.8768, 827.3737
166.3589, 865.7351
166.8411, 898.8707
167.3232, 912.2151
167.8053, 908.0251
168.2874, 907.8810
168.7695, 932.8289
169.2516, 967.5887
169.7338, 992.4021
170.2159, 1002.730
170.6980, 998.1224
171.1801, 973.6758
171.6622, 928.5786
172.1443, 880.3722
172.6265, 840.0044
173.1086, 806.0420
173.5907, 776.1653
174.0728, 745.0881
174.5549, 718.7316
175.0370, 706.3000
175.5192, 710.1978
176.0013, 719.9053
176.4834, 729.2129
176.9655, 736.9485
177.4476, 738.9948
177.9297, 740.5386
178.4118, 734.3157
178.8940, 706.0027
179.3761, 648.6750
179.8582, 577.8154
180.3403, 508.1129
180.8224, 440.1047
181.3046, 382.5474
181.7867, 345.5642
182.2688, 323.5402
182.7509, 299.7983
183.2330, 264.3252
183.7151, 231.7468
184.1973, 234.6523
184.6794, 272.7482
185.1615, 311.6367
185.6436, 313.8628
186.1257, 287.7800
186.6078, 273.4436
187.0900, 286.6692
187.5721, 317.6471
188.0542, 343.2090
188.5363, 364.0265
189.0184, 375.7815
189.5005, 372.6746
189.9827, 355.3127
190.4648, 331.3743
190.9469, 303.8121
191.4290, 272.0883
191.9111, 228.4712
192.3932, 169.5248
192.8754, 109.2644
193.3575, 68.16296
193.8396, 46.20337
194.3217, 26.01050
194.8038, 0.6983640
195.2859, 29.53101
195.7681, 62.99011
196.2502, 102.0952
196.7323, 139.8015
197.2144, 162.7614
197.6965, 169.8149
198.1786, 172.0651
198.6607, 175.0220
199.1429, 178.8356
199.6250, 179.7073
200.1071, 177.3192
200.5892, 172.0514
201.0713, 165.7902
201.5534, 159.5957
202.0356, 148.1317
202.5177, 124.8169
202.9998, 87.17957
203.4819, 58.24670
203.9640, 43.76855
204.4461, 38.79443
204.9283, 26.50732
205.4104, 6.896851
205.8925, 19.90674
206.3746, 55.64502
206.8567, 102.4586
207.3388, 148.3323
207.8210, 190.2023
208.3031, 229.1786
208.7852, 270.0764
209.2673, 314.2256
209.7494, 357.8672
210.2315, 398.6979
210.7137, 438.0157
211.1958, 471.0956
211.6779, 498.4447
212.1600, 519.9592
212.6421, 522.9111
213.1242, 501.1815
213.6064, 469.6899
214.0885, 444.6094
214.5706, 427.7556
215.0527, 411.4713
215.5348, 392.9595
216.0169, 372.0050
216.4991, 355.5713
216.9812, 345.3118
217.4633, 337.6097
217.9454, 327.8326
218.4275, 315.5403
218.9096, 302.0118
219.3917, 287.0256
219.8739, 270.1256
220.3560, 255.6228
220.8381, 244.5344
221.3202, 235.1492
221.8023, 223.9651
222.2844, 208.0940
222.7666, 196.2125
223.2487, 193.5900
223.7308, 206.0332
224.2129, 204.6509
224.6950, 179.7988
225.1771, 146.5084
225.6593, 136.3079
226.1414, 162.0603
226.6235, 190.2483
227.1056, 207.1624
227.5877, 205.4592
228.0698, 210.2562
228.5520, 221.5372
229.0341, 239.4919
229.5162, 265.5625
229.9983, 303.5657
230.4804, 340.6548
230.9625, 371.5187
231.4447, 392.5261
231.9268, 416.7605
232.4089, 442.3738
232.8910, 471.9203
233.3731, 514.9094
233.8552, 576.7268
234.3374, 644.3485
234.8195, 710.6003
235.3016, 773.2957
235.7837, 839.4976
236.2658, 910.9819
236.7479, 986.3779
237.2301, 1059.984
237.7122, 1132.413
238.1943, 1202.048
238.6764, 1270.784
239.1585, 1348.705
239.6406, 1403.920
240.1227, 1426.563
240.6049, 1422.641
241.0870, 1424.423
241.5691, 1433.411
242.0512, 1446.196
242.5333, 1460.462
243.0154, 1475.120
243.4976, 1493.164
243.9797, 1514.952
244.4618, 1540.104
244.9439, 1568.453
245.4260, 1601.176
245.9081, 1635.388
246.3903, 1670.752
246.8724, 1715.018
247.3545, 1743.417
247.8366, 1744.560
248.3187, 1722.333
248.8008, 1721.577
249.2830, 1745.691
249.7651, 1787.665
250.2472, 1842.193
250.7293, 1911.067
251.2114, 1988.205
251.6935, 2074.516
252.1757, 2169.021
252.6578, 2267.892
253.1399, 2368.543
253.6220, 2474.251
254.1041, 2588.514
254.5862, 2717.700
255.0684, 2843.898
255.5505, 2964.830
256.0326, 3082.236
256.5147, 3204.097
256.9968, 3336.187
257.4789, 3468.646
257.9611, 3595.066
258.4432, 3728.659
258.9253, 3826.908
259.4074, 3876.474
259.8895, 3878.798
260.3716, 3872.096
260.8538, 3867.522
261.3359, 3840.095
261.8180, 3763.468
262.3001, 3626.268
262.7822, 3465.570
263.2643, 3282.630
263.7465, 3079.951
264.2286, 2875.430
264.7107, 2667.113
265.1928, 2464.943
265.6749, 2283.730
266.1570, 2125.406
266.6392, 1977.684
267.1213, 1835.486
267.6034, 1699.823
268.0855, 1580.629
268.5676, 1480.421
269.0497, 1392.812
269.5318, 1308.260
270.0139, 1223.417
270.4961, 1157.209
270.9782, 1116.702
271.4603, 1100.751
271.9424, 1088.036
272.4245, 1081.558
272.9066, 1072.263
273.3888, 1047.865
273.8709, 1004.806
274.3530, 966.3064
274.8351, 940.6589
275.3172, 925.9546
275.7993, 903.8735
276.2815, 875.3086
276.7636, 836.9016
277.2457, 784.1277
277.7278, 716.1108
278.2099, 639.0520
278.6920, 548.0413
279.1742, 447.6277
279.6563, 373.4866
280.1384, 330.2297
280.6205, 296.0151
281.1026, 246.5034
281.5847, 180.7847
282.0669, 118.0798
282.5490, 62.02173
283.0311, 12.98218
283.5132, 27.04468
283.9953, 57.74170
284.4774, 80.77905
284.9596, 95.53076
285.4417, 102.2783
285.9238, 109.2937
286.4059, 123.8562
286.8880, 139.1604
287.3701, 126.1191
287.8523, 82.18042
288.3344, 30.64380
288.8165, 1.088135
289.2986, 16.72778
289.7807, 45.77637
290.2628, 100.1248
290.7450, 171.1221
291.2271, 233.3459
291.7092, 286.5642
292.1913, 341.7815
292.6734, 410.6296
293.1555, 490.6597
293.6377, 570.6877
294.1198, 644.9565
294.6019, 721.0542
295.0840, 815.6333
295.5661, 928.8235
296.0482, 1046.388
296.5304, 1160.784
297.0125, 1269.625
297.4946, 1372.418
297.9767, 1466.062
298.4588, 1554.960
298.9409, 1650.573
299.4231, 1750.469
299.9052, 1838.165
300.3873, 1890.627
300.8694, 1920.951
301.3515, 1954.355
301.8336, 2000.630
302.3158, 2046.654
302.7979, 2074.715
303.2800, 2086.613
303.7621, 2092.379
304.2442, 2093.497
304.7263, 2094.209
305.2085, 2101.841
305.6906, 2121.516
306.1727, 2142.682
306.6548, 2157.678
307.1369, 2166.569
307.6190, 2169.972
308.1012, 2166.758
308.5833, 2159.027
309.0654, 2148.060
309.5475, 2131.828
310.0296, 2117.411
310.5117, 2111.106
310.9938, 2110.898
311.4760, 2110.723
311.9581, 2092.988
312.4402, 2081.950
312.9223, 2099.961
313.4044, 2157.268
313.8865, 2226.878
314.3687, 2297.418
314.8508, 2369.431
315.3329, 2444.085
315.8150, 2513.356
316.2971, 2591.744
316.7792, 2689.230
317.2614, 2813.723
317.7435, 2939.508
318.2256, 3059.282
318.7077, 3173.884
319.1898, 3284.224
319.6719, 3408.960
320.1541, 3516.548
320.6362, 3591.714
321.1183, 3631.266
321.6004, 3646.779
322.0825, 3638.231
322.5646, 3607.596
323.0468, 3557.659
323.5289, 3478.271
324.0110, 3389.190
324.4931, 3296.628
324.9752, 3203.307
325.4573, 3099.290
325.9395, 2964.568
326.4216, 2826.067
326.9037, 2711.437
327.3858, 2644.852
327.8679, 2579.255
328.3500, 2502.985
328.8322, 2414.396
329.3143, 2336.329
329.7964, 2271.622
330.2785, 2216.463
330.7606, 2167.671
331.2427, 2122.494
331.7249, 2087.828
332.2070, 2067.554
332.6891, 2061.222
333.1712, 2054.920
333.6533, 2050.158
334.1354, 2043.808
334.6176, 2031.709
335.0997, 2006.712
335.5818, 1993.264
336.0639, 1999.295
336.5460, 2020.019
337.0281, 2027.036
337.5103, 2017.592
337.9924, 2000.123
338.4745, 1977.874
338.9566, 1948.024
339.4387, 1927.364
339.9208, 1921.447
340.4030, 1924.483
340.8851, 1918.167
341.3672, 1899.863
341.8493, 1882.968
342.3314, 1874.771
342.8135, 1875.229
343.2957, 1880.239
343.7778, 1890.261
344.2599, 1902.719
344.7420, 1916.353
345.2241, 1931.612
345.7062, 1939.260
346.1884, 1936.355
346.6705, 1922.234
347.1526, 1891.431
347.6347, 1841.049
348.1168, 1783.185
348.5989, 1730.525
349.0811, 1684.365
349.5632, 1646.590
350.0453, 1623.584
350.5274, 1607.501
351.0095, 1580.100
351.4916, 1540.486
351.9737, 1505.346
352.4558, 1489.051
352.9380, 1489.592
353.4201, 1502.180
353.9022, 1532.042
354.3843, 1569.517
354.8664, 1602.408
355.3485, 1630.051
355.8307, 1661.008
356.3128, 1707.235
356.7949, 1760.295
357.2770, 1808.697
357.7591, 1840.195
358.2412, 1875.344
358.7234, 1934.093
359.2055, 2010.893
359.6876, 2079.818
360.1697, 2127.585
360.6518, 2162.158
361.1339, 2189.951
361.6161, 2208.320
362.0982, 2225.812
362.5803, 2251.524
363.0624, 2279.233
363.5445, 2292.703
364.0266, 2273.990
364.5088, 2249.790
364.9909, 2233.792
365.4730, 2231.599
365.9551, 2227.994
366.4372, 2227.678
366.9193, 2223.459
367.4015, 2203.318
367.8836, 2153.047
368.3657, 2099.092
368.8478, 2051.924
369.3299, 2017.352
369.8120, 1964.317
370.2942, 1883.418
370.7763, 1789.909
371.2584, 1700.475
371.7405, 1617.909
372.2226, 1534.433
372.7047, 1445.679
373.1869, 1352.557
373.6690, 1266.978
374.1511, 1190.429
374.6332, 1120.588
375.1153, 1057.929
375.5974, 1007.118
376.0796, 947.1353
376.5617, 866.7705
377.0438, 777.9021
377.5259, 723.7463
378.0080, 711.4817
378.4901, 706.7246
378.9723, 687.3416
379.4544, 653.4275
379.9365, 619.5454
380.4186, 585.6274
380.9007, 555.4810
381.3828, 537.9375
381.8650, 532.4841
382.3471, 533.6626
382.8292, 540.9531
383.3113, 552.6943
383.7934, 563.8640
384.2755, 574.3796
384.7577, 583.5056
385.2398, 588.1165
385.7219, 590.1453
386.2040, 595.6326
386.6861, 610.1909
387.1682, 628.1094
387.6504, 644.8958
388.1325, 660.3960
388.6146, 666.8916
389.0967, 656.4446
389.5788, 634.2715
390.0609, 607.7661
390.5431, 581.6548
391.0252, 549.6926
391.5073, 505.0706
391.9894, 449.9998
392.4715, 393.2056
392.9536, 333.5200
393.4357, 277.9985
393.9178, 232.2354
394.4000, 203.6687
394.8821, 173.9045
395.3642, 133.6335
395.8463, 88.13989
396.3284, 48.31201
396.8105, 19.08057
397.2927, 5.703125
397.7748, 27.55493
398.2569, 45.41577
398.7390, 64.16431
399.2211, 87.89307
399.7032, 111.1161
400.1854, 127.4487
400.6675, 135.1324
401.1496, 138.1808
401.6317, 137.5836
402.1138, 133.3131
402.5959, 122.0505
403.0781, 97.29480
403.5602, 73.79846
404.0423, 64.45813
404.5244, 74.41345
405.0065, 81.92798
405.4886, 83.99658
405.9708, 82.13062
406.4529, 82.83484
406.9350, 87.93445
407.4171, 87.35999
407.8992, 71.64709
408.3813, 41.29346
408.8635, 17.23108
409.3456, 0.9553220
409.8277, 9.664795
410.3098, 17.03467
410.7919, 21.22656
411.2740, 22.80554
411.7562, 14.56030
412.2383, 4.866333
412.7204, 18.35083
413.2025, 55.79517
413.6846, 95.19995
414.1667, 113.4968
414.6489, 119.2646
415.1310, 128.9307
415.6131, 150.2828
416.0952, 175.1809
416.5773, 195.6658
417.0594, 212.6567
417.5416, 229.2933
418.0237, 245.7401
418.5058, 263.7267
418.9879, 286.1931
419.4700, 319.3960
419.9521, 344.9521
420.4343, 351.9567
420.9164, 346.2285
421.3985, 339.3993
421.8806, 329.6466
422.3627, 323.9109
422.8448, 326.0664
423.3270, 338.1726
423.8091, 349.3103
424.2912, 351.2223
424.7733, 354.8359
425.2554, 371.2000
425.7375, 413.5724
426.2197, 450.8521
426.7018, 475.7166
427.1839, 490.0461
427.6660, 513.9148
428.1481, 549.5442
428.6302, 591.9609
429.1124, 639.9421
429.5945, 695.4580
430.0766, 747.1787
430.5587, 791.6152
431.0408, 834.3271
431.5229, 887.0771
432.0051, 950.5532
432.4872, 1018.964
432.9693, 1093.058
433.4514, 1171.252
433.9335, 1242.876
434.4156, 1308.384
434.8977, 1364.995
435.3799, 1413.885
435.8620, 1452.445
436.3441, 1469.035
436.8262, 1450.823
437.3083, 1417.087
437.7904, 1400.341
438.2726, 1396.498
438.7547, 1378.824
439.2368, 1323.242
439.7189, 1246.121
440.2010, 1164.024
440.6831, 1077.033
441.1653, 995.9634
441.6474, 930.4451
442.1295, 875.6837
442.6116, 822.5010
443.0937, 761.4995
443.5758, 706.0540
444.0580, 662.8041
444.5401, 633.0851
445.0222, 610.6744
445.5043, 600.2227
445.9864, 593.1857
446.4685, 582.2218
446.9507, 561.9878
447.4328, 543.0708
447.9149, 523.7634
448.3970, 505.8467
448.8791, 497.9283
449.3612, 506.2938
449.8434, 516.3835
450.3255, 520.5105
450.8076, 514.8315
451.2897, 516.5081
451.7718, 528.6437
452.2539, 544.4790
452.7361, 552.4755
453.2182, 551.3730
453.7003, 551.5134
454.1824, 556.7150
454.6645, 565.5183
455.1466, 574.3638
455.6288, 583.9263
456.1109, 586.8622
456.5930, 576.6918
457.0751, 554.1624
457.5572, 520.4242
458.0393, 472.1764
458.5215, 422.1050
459.0036, 388.7063
459.4857, 368.2216
459.9678, 347.5505
460.4499, 316.6416
460.9320, 284.9915
461.4142, 260.2532
461.8963, 241.9775
462.3784, 229.3918
462.8605, 225.0764
463.3426, 226.2781
463.8247, 229.6091
464.3069, 237.4548
464.7890, 243.1135
465.2711, 243.9868
465.7532, 241.6360
466.2353, 241.6130
466.7174, 241.5854
467.1996, 245.2029
467.6817, 254.1873
468.1638, 269.9949
468.6459, 288.3064
469.1280, 315.6218
469.6101, 341.5327
470.0923, 347.2778
470.5744, 322.0767
471.0565, 305.7883
471.5386, 309.6873
472.0207, 331.6287
472.5028, 354.6355
472.9850, 380.7493
473.4671, 402.1731
473.9492, 408.9043
474.4313, 402.2241
474.9134, 400.3828
475.3955, 407.8171
475.8776, 418.5481
476.3597, 424.2117
476.8419, 424.7881
477.3240, 419.4917
477.8061, 402.6360
478.2882, 381.7805
478.7703, 369.7385
479.2524, 367.5479
479.7346, 363.5796
480.2167, 349.3726
480.6988, 328.1360
481.1809, 303.4963
481.6630, 265.2722
482.1451, 236.0105
482.6273, 230.2925
483.1094, 242.9521
483.5915, 255.8486
484.0736, 264.2109
484.5557, 270.8967
485.0378, 275.4287
485.5200, 272.4897
486.0021, 282.0229
486.4842, 316.7583
486.9663, 357.8044
487.4484, 382.9453
487.9305, 381.8333
488.4127, 383.2905
488.8948, 389.4380
489.3769, 401.8210
489.8590, 434.5283
490.3411, 495.3315
490.8232, 553.4106
491.3054, 585.2148
491.7875, 591.2969
492.2696, 611.3506
492.7517, 652.1348
493.2338, 694.7749
493.7159, 715.1887
494.1981, 714.9941
494.6802, 702.9614
495.1623, 676.9902
495.6444, 644.5146
496.1265, 619.3020
496.6086, 599.6523
497.0908, 572.6279
497.5729, 519.5098
498.0550, 459.0964
498.5371, 411.0923
499.0192, 384.1755
499.5013, 360.0591
499.9835, 329.6416
500.4656, 296.7727
500.9477, 267.5229
501.4298, 242.2141
501.9119, 222.5032
502.3940, 209.6377
502.8762, 204.0398
503.3583, 200.2739
503.8404, 197.2590
504.3225, 196.6448
504.8046, 199.6052
505.2867, 207.1270
505.7689, 215.8323
506.2510, 225.9368
506.7331, 236.7744
507.2152, 246.1599
507.6973, 253.2688
508.1794, 263.7236
508.6616, 279.3796
509.1437, 300.1812
509.6258, 328.9636
510.1079, 366.6355
510.5900, 400.6084
511.0721, 416.1409
511.5543, 419.3347
512.0364, 425.9761
512.5185, 440.5122
513.0006, 456.5527
513.4827, 467.5381
513.9648, 474.8591
514.4470, 481.8877
514.9291, 497.6514
515.4112, 507.8105
515.8933, 499.3694
516.3754, 471.5781
516.8575, 446.6279
517.3397, 437.5503
517.8218, 431.0786
518.3039, 417.3489
518.7860, 388.8745
519.2681, 360.6077
519.7502, 335.4946
520.2324, 311.1084
520.7145, 281.3210
521.1966, 240.6174
521.6787, 202.1382
522.1608, 170.5701
522.6429, 145.8176
523.1251, 115.6499
523.6072, 77.28906
524.0893, 44.71484
524.5714, 33.52954
525.0535, 40.98486
525.5356, 40.07739
526.0178, 25.38647
526.4999, 4.812012
526.9820, 12.24878
527.4641, 25.26831
527.9462, 34.18970
528.4283, 39.86658
528.9105, 42.22375
529.3926, 38.23169
529.8747, 25.67676
530.3568, 12.67749
530.8389, 6.284424
531.3210, 4.044189
531.8032, 2.456299
532.2853, 1.040405
532.7674, 2.092041
533.2495, 7.019287
533.7316, 14.71899
534.2137, 25.78162
534.6959, 42.50293
535.1780, 58.35840
535.6601, 71.14062
536.1422, 81.05249
536.6243, 96.17126
537.1064, 118.6837
537.5885, 144.6956
538.0706, 173.1144
538.5527, 204.3809
539.0349, 228.5938
539.5170, 243.5751
539.9991, 256.4756
540.4812, 277.7555
540.9633, 306.0698
541.4454, 334.6660
541.9276, 362.2408
542.4097, 388.3062
542.8918, 411.9432
543.3739, 432.1891
543.8560, 449.8323
544.3381, 464.8545
544.8203, 477.9701
545.3024, 490.9563
545.7845, 506.0660
546.2666, 512.4260
546.7487, 499.7668
547.2308, 477.3900
547.7130, 456.4888
548.1951, 439.0883
548.6772, 424.6398
549.1593, 413.8535
549.6414, 406.1432
550.1235, 398.6790
550.6057, 390.1436
551.0878, 383.9524
551.5699, 381.9479
552.0520, 384.5505
552.5341, 387.0381
553.0162, 389.0208
553.4984, 391.9341
553.9805, 397.6266
554.4626, 405.9038
554.9447, 415.3741
555.4268, 426.6935
555.9089, 437.2977
556.3911, 441.6930
556.8732, 441.4937
557.3553, 442.7997
557.8374, 460.9708
558.3195, 474.4313
558.8016, 458.0570
559.2838, 411.0747
559.7659, 364.4611
560.2480, 332.6278
560.7301, 308.0260
561.2122, 284.9075
561.6943, 260.6375
562.1765, 240.0129
562.6586, 224.1030
563.1407, 212.0331
563.6228, 203.0071
564.1049, 199.0942
564.5870, 194.5101
565.0692, 186.4510
565.5513, 176.0011
566.0334, 172.8892
566.5155, 178.4661
566.9976, 186.2402
567.4797, 194.3492
567.9619, 201.7764
568.4440, 201.1836
568.9261, 191.2050
569.4082, 177.8193
569.8903, 163.6567
570.3724, 151.4952
570.8546, 147.4797
571.3367, 160.2795
571.8188, 174.4769
572.3009, 179.8593
572.7830, 176.9272
573.2651, 167.0209
573.7473, 140.7919
574.2294, 115.9797
574.7115, 104.3827
575.1936, 109.6348
575.6757, 108.3801
576.1578, 95.78088
576.6400, 78.08313
577.1221, 57.58362
577.6042, 25.33179
578.0863, 14.48218
578.5684, 36.51514
579.0505, 71.60010
579.5327, 81.93079
580.0148, 65.75891
580.4969, 44.39746
580.9790, 22.45752
581.4611, 2.003418
581.9432, 9.641846
582.4254, 12.83093
582.9075, 13.46899
583.3896, 14.79492
583.8717, 16.46631
584.3538, 18.82019
584.8359, 22.66333
585.3181, 23.81921
585.8002, 10.53638
586.2823, 3.262695
586.7644, 2.060181
587.2465, 41.71948
587.7286, 73.04663
588.2108, 74.02588
588.6929, 53.69067
589.1750, 40.58789
589.6571, 36.87634
590.1392, 37.47888
590.6213, 43.12170
591.1035, 53.70386
591.5856, 54.51965
592.0677, 43.84106
592.5498, 29.31506
593.0319, 14.26367
593.5140, 0.3094480
593.9962, 6.048340
594.4783, 0.7515870
594.9604, 8.486572
595.4425, 13.28027
595.9246, 15.56384
596.4067, 19.94409
596.8889, 32.20581
597.3710, 43.22803
597.8531, 45.00232
598.3352, 39.72192
598.8173, 34.93274
599.2994, 37.61597
599.7816, 37.73108
600.2637, 27.99609
600.7458, 4.247559
601.2279, 8.486084
601.7100, 4.098755
602.1921, 5.772827
602.6743, 13.86804
603.1564, 21.08643
603.6385, 22.89429
604.1206, 18.76318
604.6027, 9.425415
605.0848, 8.451416
605.5670, 33.73608
606.0491, 49.29077
606.5312, 44.74280
607.0133, 31.27698
607.4954, 26.64087
607.9775, 29.79114
608.4597, 35.34839
608.9418, 44.15063
609.4239, 51.16406
609.9060, 49.52087
610.3881, 37.51794
610.8702, 31.30286
611.3524, 40.07642
611.8345, 55.05286
612.3166, 69.32031
612.7987, 84.25928
613.2808, 95.60022
613.7629, 100.1438
614.2451, 102.9821
614.7272, 114.1544
615.2093, 137.5193
615.6914, 153.6136
616.1735, 154.5441
616.6556, 145.9059
617.1378, 145.4384
617.6199, 152.9773
618.1020, 163.2344
618.5840, 174.0573
619.0662, 184.9506
619.5483, 194.7678
620.0304, 203.3286
620.5125, 213.0200
620.9946, 227.6863
621.4767, 243.0122
621.9589, 254.5884
622.4410, 260.1118
622.9231, 264.6660
623.4052, 267.7454
623.8873, 271.1497
624.3694, 277.8030
624.8516, 289.8052
625.3337, 301.5615
625.8158, 310.5488
626.2979, 318.9121
626.7800, 337.9412
627.2621, 370.7109
627.7443, 398.3271
628.2264, 407.7051
628.7085, 403.5022
629.1906, 406.1750
629.6727, 415.7505
630.1548, 429.3623
630.6370, 449.5076
631.1191, 470.5791
631.6012, 482.1077
632.0833, 478.7222
632.5654, 479.5759
633.0475, 497.3457
633.5297, 524.9019
634.0118, 553.6165
634.4939, 588.9468
634.9760, 615.9009
635.4581, 626.3403
635.9402, 626.6772
636.4224, 635.1963
636.9045, 653.5669
637.3866, 673.8804
637.8687, 692.4021
638.3508, 710.0686
638.8329, 735.4246
639.3151, 768.1301
639.7972, 806.5764
640.2793, 852.3989
640.7614, 903.7815
641.2435, 957.7986
641.7256, 1015.026
642.2078, 1069.446
642.6899, 1106.524
643.1720, 1141.554
643.6541, 1193.855
644.1362, 1280.959
644.6183, 1366.150
645.1005, 1421.911
645.5826, 1469.725
646.0647, 1553.404
646.5468, 1692.182
647.0289, 1841.955
647.5110, 1994.096
647.9932, 2150.328
648.4753, 2306.448
648.9574, 2459.413
649.4395, 2626.487
649.9216, 2810.500
650.4037, 3015.537
650.8859, 3256.518
651.3680, 3532.415
651.8501, 3823.921
652.3322, 4096.697
652.8143, 4374.535
653.2964, 4693.469
653.7786, 5063.101
654.2607, 5454.360
654.7428, 5851.439
655.2249, 6263.005
655.7070, 6695.804
656.1891, 7134.761
656.6713, 7611.511
657.1534, 8127.464
657.6355, 8682.365
658.1176, 9266.066
658.5997, 9882.233
659.0818, 10516.53
659.5640, 11159.73
660.0461, 11821.70
660.5282, 12527.85
661.0103, 13277.21
661.4924, 14055.25
661.9745, 14854.06
662.4567, 15668.07
662.9388, 16501.37
663.4209, 17357.26
663.9030, 18177.87
664.3851, 18984.19
664.8672, 19716.18
665.3494, 20327.18
665.8315, 20817.33
666.3136, 21167.10
666.7957, 21383.23
667.2778, 21442.51
667.7599, 21315.62
668.2421, 21006.67
668.7242, 20484.65
669.2063, 19709.23
669.6884, 18755.75
670.1705, 17753.95
670.6526, 16713.99
671.1348, 15676.59
671.6169, 14643.37
672.0990, 13638.57
672.5811, 12671.61
673.0632, 11753.80
673.5453, 10894.78
674.0275, 10082.22
674.5096, 9348.251
674.9917, 8711.521
675.4738, 8180.903
675.9559, 7704.628
676.4380, 7302.813
676.9202, 6933.933
677.4023, 6572.752
677.8844, 6215.935
678.3665, 5885.294
678.8486, 5587.691
679.3307, 5307.897
679.8129, 5036.944
680.2950, 4775.094
680.7771, 4508.447
681.2592, 4236.154
681.7413, 3960.469
682.2234, 3686.793
682.7056, 3413.436
683.1877, 3148.685
683.6698, 2885.219
684.1519, 2635.383
684.6340, 2403.357
685.1161, 2189.070
685.5983, 1989.493
686.0804, 1793.906
686.5625, 1622.116
687.0446, 1485.708
687.5267, 1382.488
688.0089, 1268.128
688.4910, 1133.151
688.9731, 1007.747
689.4552, 912.3655
689.9373, 844.6885
690.4194, 774.3223
690.9016, 699.8481
691.3837, 636.6577
691.8658, 609.0212
692.3479, 597.0049
692.8300, 566.0828
693.3121, 505.4443
693.7943, 444.8525
694.2764, 395.2549
694.7585, 357.0007
695.2406, 330.4758
695.7227, 321.0559
696.2048, 313.6375
696.6870, 306.9104
697.1691, 301.5725
697.6512, 296.9961
698.1333, 291.1868
698.6154, 295.0344
699.0975, 314.6270
699.5797, 342.3931
700.0618, 356.5911
700.5438, 360.0193
701.0259, 368.5063
701.5081, 396.2896
701.9902, 430.9084
702.4723, 457.3042
702.9544, 476.3538
703.4365, 495.4839
703.9186, 507.0493
704.4008, 528.3503
704.8829, 573.0776
705.3650, 648.6533
705.8471, 713.2964
706.3292, 758.2021
706.8113, 801.7153
707.2935, 854.5244
707.7756, 917.0974
708.2577, 991.8359
708.7398, 1081.864
709.2219, 1169.777
709.7040, 1225.876
710.1862, 1264.497
710.6683, 1325.783
711.1504, 1428.624
711.6325, 1528.099
712.1146, 1590.100
712.5967, 1625.579
713.0789, 1650.997
713.5610, 1692.271
714.0431, 1702.928
714.5252, 1659.804
715.0073, 1580.953
715.4894, 1503.731
715.9716, 1432.452
716.4537, 1349.424
716.9358, 1245.437
717.4179, 1128.580
717.9000, 1033.540
718.3821, 959.0847
718.8643, 884.1665
719.3464, 789.5952
719.8285, 692.2219
720.3106, 612.6484
720.7927, 551.3506
721.2748, 501.7947
721.7570, 466.1111
722.2391, 438.1001
722.7212, 413.8801
723.2033, 393.1882
723.6854, 378.8804
724.1675, 379.5483
724.6497, 377.1079
725.1318, 355.1511
725.6139, 307.7546
726.0960, 282.2703
726.5781, 283.3035
727.0602, 293.6448
727.5424, 294.3337
728.0245, 289.3499
728.5066, 289.4370
728.9887, 296.6177
729.4708, 306.2161
729.9529, 316.5669
730.4351, 327.8062
730.9172, 339.9917
731.3993, 355.8774
731.8814, 368.3955
732.3635, 373.0264
732.8456, 375.2998
733.3278, 385.3291
733.8099, 401.8579
734.2920, 418.5859
734.7741, 433.6785
735.2562, 449.7473
735.7383, 470.7542
736.2205, 496.8057
736.7026, 523.0833
737.1847, 548.3052
737.6668, 571.6560
738.1489, 593.4358
738.6310, 611.8760
739.1132, 617.9131
739.5953, 599.1750
740.0774, 575.0376
740.5595, 555.3628
741.0416, 540.8979
741.5237, 517.1838
742.0059, 474.8628
742.4880, 438.7109
742.9701, 426.6543
743.4522, 437.4641
743.9343, 421.7632
744.4164, 377.7778
744.8986, 327.2656
745.3807, 283.9885
745.8628, 247.9238
746.3449, 222.7188
746.8270, 209.3867
747.3091, 195.2876
747.7913, 172.2693
748.2734, 145.7097
748.7555, 120.6711
749.2376, 99.62720
749.7197, 76.42920
750.2018, 53.91235
750.6840, 13.04028
751.1661, 21.26392
751.6482, 22.10547
752.1303, 16.23950
752.6124, 31.38757
753.0945, 13.54260
753.5767, 14.87878
754.0588, 12.17078
754.5409, 17.47522
755.0230, 16.31042
755.5051, 13.81848
755.9872, 19.71838
756.4694, 27.91504
756.9515, 28.54492
757.4336, 5.549438
757.9157, 7.796509
758.3978, 4.004272
758.8799, 10.80017
759.3621, 23.98718
759.8442, 35.65186
760.3263, 44.49719
760.8084, 50.18982
761.2905, 52.92505
761.7726, 51.90527
762.2548, 47.95935
762.7369, 44.95715
763.2190, 47.03259
763.7011, 49.08728
764.1832, 45.89709
764.6653, 38.82422
765.1475, 33.94885
765.6296, 40.24780
766.1117, 41.10950
766.5938, 27.97583
767.0759, 2.859741
767.5580, 11.79199
768.0402, 14.77832
768.5223, 11.15222
769.0044, 2.258423
769.4865, 20.13501
769.9686, 18.28210
770.4507, 1.791626
770.9329, 18.49561
771.4150, 12.30725
771.8971, 1.246826
772.3792, 8.790894
772.8613, 8.818115
773.3434, 8.186035
773.8256, 8.284058
774.3077, 8.463623
774.7898, 8.990112
775.2719, 10.65283
775.7540, 6.128174
776.2361, 7.084229
776.7183, 18.50439
777.2004, 16.70874
777.6825, 5.403564
778.1646, 1.628174
778.6467, 3.042358
779.1288, 2.153442
779.6110, 0.3217770
780.0931, 1.675171
780.5752, 2.965210
781.0573, 3.075317
781.5394, 3.264526
782.0215, 0.3780520
782.5037, 5.3833000E-02
782.9857, 8.939697
783.4678, 31.98901
783.9500, 43.38086
784.4321, 39.89124
784.9142, 29.59595
785.3963, 17.47510
785.8784, 6.355591
786.3605, 8.779541
786.8427, 31.76331
787.3248, 52.63098
787.8069, 46.65759
788.2890, 29.82812
788.7711, 22.26672
789.2532, 42.56421
789.7354, 53.63770
790.2175, 43.35156
790.6996, 0.2990720
791.1817, 39.47412
791.6638, 63.74194
792.1459, 73.33618
792.6281, 24.40088
793.1102, 50.97754
793.5923, 47.24780
794.0744, 42.24658
794.5565, 79.36426
795.0386, 38.78418
795.5208, 75.17505
796.0029, 80.80835
796.4850, 100.5906
796.9671, 89.82812
797.4492, 88.38354
797.9313, 117.3835
798.4135, 87.73486
798.8956, 81.33350
799.3777, 79.89746
799.8598, 83.63354
800.3419, 86.80591
800.8240, 87.85425
801.3062, 87.65723
801.7883, 85.53589
802.2704, 83.20068
802.7525, 85.00537
803.2346, 99.17114
803.7167, 111.3884
804.1989, 112.4973
804.6810, 106.0718
805.1631, 102.2668
805.6452, 102.2534
806.1273, 104.6104
806.6094, 110.2974
807.0916, 117.8481
807.5737, 122.3152
808.0558, 124.1511
808.5379, 128.7200
809.0200, 138.9998
809.5021, 152.1223
809.9843, 166.5859
810.4664, 179.9797
810.9485, 190.0376
811.4306, 194.0364
811.9127, 194.0408
812.3948, 185.8259
812.8770, 173.3508
813.3591, 173.1794
813.8412, 191.5076
814.3233, 204.3762
814.8054, 201.3137
815.2875, 191.0881
815.7697, 198.5188
816.2518, 221.4731
816.7339, 243.9600
817.2160, 258.9849
817.6981, 268.2886
818.1802, 271.3979
818.6624, 270.0552
819.1445, 270.1782
819.6266, 273.3679
820.1087, 279.4919
820.5908, 290.5039
821.0729, 304.1060
821.5551, 309.6396
822.0372, 306.4067
822.5193, 300.7017
823.0014, 289.5344
823.4835, 280.3916
823.9656, 298.2244
824.4478, 337.8059
824.9299, 373.2078
825.4120, 386.7104
825.8941, 394.3203
826.3762, 403.8496
826.8583, 413.3657
827.3405, 419.8335
827.8226, 423.8296
828.3047, 430.2366
828.7868, 439.8152
829.2689, 451.5474
829.7510, 460.0134
830.2332, 465.0039
830.7153, 476.2786
831.1974, 506.3472
831.6795, 542.1675
832.1616, 566.1555
832.6437, 580.4692
833.1259, 593.7048
833.6080, 604.3870
834.0901, 619.3396
834.5722, 644.0374
835.0543, 675.2463
835.5364, 699.0608
836.0186, 713.1101
836.5007, 726.8123
836.9828, 746.7214
837.4649, 768.3230
837.9470, 777.5735
838.4291, 775.9937
838.9113, 771.1514
839.3934, 776.9082
839.8755, 771.6455
840.3576, 733.7268
840.8397, 672.1179
841.3218, 616.1423
841.8040, 571.0427
842.2861, 532.1184
842.7682, 500.2190
843.2503, 472.6279
843.7324, 440.5532
844.2145, 404.8298
844.6967, 370.8328
845.1788, 340.4075
845.6609, 311.5017
846.1430, 278.1875
846.6251, 244.0552
847.1072, 219.3894
847.5894, 216.5972
848.0715, 214.1152
848.5536, 201.5056
849.0357, 185.1453
849.5178, 173.4666
849.9999, 168.9282
850.4821, 159.2349
850.9642, 141.1257
851.4463, 119.2759
851.9284, 106.2017
852.4105, 100.3403
852.8926, 92.59619
853.3748, 76.15454
853.8569, 62.77710
854.3390, 66.97412
854.8211, 79.42236
855.3032, 80.65430
855.7853, 54.00195
856.2675, 35.07178
856.7496, 28.80176
857.2317, 32.02686
857.7138, 42.43115
858.1959, 59.33765
858.6780, 67.21265
859.1602, 58.93506
859.6423, 46.20215
860.1244, 41.07910
860.6065, 41.46191
861.0886, 43.85693
861.5707, 50.98096
862.0529, 54.74731
862.5350, 53.39551
863.0171, 47.42896
863.4992, 33.67261
863.9813, 6.831299
864.4634, 0.5703130
864.9456, 23.96289
865.4276, 55.89868
865.9097, 67.41846
866.3918, 65.46338
866.8740, 66.33252
867.3561, 74.54858
867.8382, 84.58740
868.3203, 96.86816
868.8024, 107.9395
869.2845, 113.4834
869.7667, 108.7246
870.2488, 108.6106
870.7309, 113.9189
871.2130, 122.4302
871.6951, 134.5120
872.1772, 148.2668
872.6594, 152.7971
873.1415, 146.0339
873.6236, 137.1648
874.1057, 130.5981
874.5878, 127.7007
875.0699, 132.2920
875.5521, 151.1880
876.0342, 155.1567
876.5163, 134.0747
876.9984, 107.9607
877.4805, 89.99316
877.9626, 80.34497
878.4448, 71.38916
878.9269, 62.94458
879.4090, 57.04883
879.8911, 58.49756
880.3732, 61.76343
880.8553, 61.04761
881.3375, 55.82104
881.8196, 45.36353
882.3017, 26.21826
882.7838, 4.381348
883.2659, 21.68457
883.7480, 51.64844
884.2302, 53.80762
884.7123, 23.42969
885.1944, 5.055908
885.6765, 7.177734
886.1586, 5.307129
886.6407, 13.74170
887.1229, 17.26831
887.6050, 13.17041
888.0871, 10.50146
888.5692, 30.18921
889.0513, 33.56519
889.5334, 24.03003
890.0156, 13.16992
890.4977, 2.385010
890.9798, 12.31592
891.4619, 9.829346
891.9440, 0.1562500
892.4261, 1.910156
892.9083, 1.983643
893.3904, 2.385742
893.8725, 14.03003
894.3546, 27.09009
894.8367, 21.87305
895.3188, 6.063965
895.8010, 3.142578
896.2831, 3.318115
896.7652, 0.5200200
897.2473, 9.399414
897.7294, 19.53320
898.2115, 24.91968
898.6937, 26.07983
899.1758, 24.78320
899.6579, 19.99658
900.1400, 17.43726
900.6221, 20.29468
901.1042, 28.70532
901.5864, 42.97681
902.0685, 69.77051
902.5506, 91.03271
903.0327, 102.8774
903.5148, 113.8796
903.9969, 132.9771
904.4791, 159.4480
904.9612, 184.7754
905.4433, 207.7729
905.9254, 235.5891
906.4075, 282.4485
906.8896, 332.7915
907.3718, 370.7437
907.8539, 392.9304
908.3360, 410.2061
908.8181, 412.1831
909.3002, 425.3174
909.7823, 469.4922
910.2645, 541.7803
910.7466, 593.3857
911.2287, 624.0220
911.7108, 645.2253
912.1929, 665.6191
912.6750, 680.8264
913.1572, 687.1208
913.6393, 683.9404
914.1214, 670.2117
914.6035, 636.6011
915.0856, 603.5762
915.5677, 578.9609
916.0499, 559.3176
916.5320, 528.7681
917.0141, 487.0366
917.4962, 448.2898
917.9783, 420.5388
918.4604, 395.7234
918.9426, 363.4841
919.4247, 326.7610
919.9068, 290.8547
920.3889, 253.5449
920.8710, 222.1465
921.3531, 196.5972
921.8353, 177.2051
922.3174, 170.8162
922.7995, 180.6477
923.2816, 168.9651
923.7637, 124.4805
924.2458, 79.82617
924.7280, 79.31665
925.2101, 100.1868
925.6922, 109.8230
926.1743, 100.2380
926.6564, 84.19678
927.1385, 46.09814
927.6207, 19.88477
928.1028, 33.18115
928.5849, 92.10083
929.0670, 127.9585
929.5491, 139.1418
930.0313, 144.3706
930.5134, 154.9929
930.9955, 170.4644
931.4776, 192.0454
931.9597, 218.9819
932.4418, 245.8872
932.9240, 269.9583
933.4061, 294.6602
933.8882, 324.0210
934.3703, 355.4629
934.8524, 374.0874
935.3345, 379.1216
935.8167, 384.6470
936.2988, 401.6038
936.7809, 415.5347
937.2630, 411.0034
937.7451, 387.7090
938.2272, 345.2622
938.7094, 255.2488
939.1915, 182.5674
939.6736, 148.1936
940.1557, 131.2937
940.6378, 101.7473
941.1199, 57.03516
941.6021, 17.72900
942.0842, 11.09302
942.5663, 32.28418
943.0484, 50.23511
943.5305, 66.17456
944.0126, 81.26733
944.4948, 96.91260
944.9769, 105.1619
945.4590, 94.07471
945.9411, 82.61182
946.4232, 86.27124
946.9053, 105.9966
947.3875, 102.3225
947.8695, 74.38745
948.3516, 50.32910
948.8337, 59.88965
949.3159, 76.24585
949.7980, 68.14062
950.2801, 38.20312
950.7622, 6.465820
951.2443, 28.43481
951.7264, 56.34229
952.2086, 67.88403
952.6907, 72.25806
953.1728, 100.8687
953.6549, 152.5403
954.1370, 209.2961
954.6191, 267.8276
955.1013, 324.3408
955.5834, 364.3779
956.0655, 402.4448
956.5476, 461.9885
957.0297, 570.6929
957.5118, 666.4443
957.9940, 733.8616
958.4761, 805.4009
958.9582, 919.9863
959.4403, 1072.538
959.9224, 1210.235
960.4045, 1328.196
960.8867, 1459.344
961.3688, 1639.447
961.8509, 1841.006
962.3330, 2041.758
962.8151, 2237.070
963.2972, 2442.242
963.7794, 2659.569
964.2615, 2883.851
964.7436, 3107.801
965.2257, 3339.911
965.7078, 3605.511
966.1899, 3902.923
966.6721, 4209.938
967.1542, 4519.522
967.6363, 4834.983
968.1184, 5169.054
968.6005, 5511.565
969.0826, 5845.885
969.5648, 6192.424
970.0469, 6485.624
970.5290, 6713.391
971.0111, 6894.932
971.4932, 7060.375
971.9753, 7197.384
972.4575, 7271.569
972.9396, 7274.293
973.4217, 7233.848
973.9038, 7147.338
974.3859, 7036.915
974.8680, 6917.269
975.3502, 6788.302
975.8323, 6651.743
976.3144, 6500.360
976.7965, 6380.283
977.2786, 6331.168
977.7607, 6326.519
978.2429, 6312.137
978.7250, 6297.102
979.2071, 6318.740
979.6892, 6388.962
980.1713, 6505.526
980.6534, 6680.533
981.1356, 6892.751
981.6177, 7092.533
982.0998, 7279.044
982.5819, 7507.348
983.0640, 7792.989
983.5461, 8116.218
984.0283, 8475.591
984.5104, 8853.781
984.9925, 9224.831
985.4746, 9570.896
985.9567, 9947.065
986.4388, 10355.05
986.9210, 10799.96
987.4031, 11297.16
987.8852, 11841.37
988.3673, 12347.36
988.8494, 12814.95
989.3315, 13242.01
989.8137, 13652.35
990.2958, 14001.07
990.7779, 14255.01
991.2600, 14414.32
991.7421, 14478.75
992.2242, 14426.64
992.7064, 14335.13
993.1885, 14199.95
993.6706, 14067.00
994.1527, 14011.78
994.6348, 14030.08
995.1169, 14108.39
995.5991, 14247.74
996.0812, 14433.87
996.5633, 14641.17
997.0454, 14905.02
997.5275, 15267.28
998.0096, 15752.50
998.4918, 16195.50
998.9739, 16599.26
999.4560, 16962.27
999.9381, 17305.10
1000.420, 17600.27
1000.902, 17832.09
1001.384, 17985.81
1001.867, 17974.67
1002.349, 17754.78
1002.831, 17370.05
1003.313, 16831.01
1003.795, 16154.22
1004.277, 15381.46
1004.759, 14508.24
1005.241, 13574.88
1005.724, 12577.96
1006.206, 11571.27
1006.688, 10566.53
1007.170, 9597.199
1007.652, 8717.119
1008.134, 7929.779
1008.616, 7243.408
1009.098, 6670.181
1009.580, 6168.574
1010.063, 5720.442
1010.545, 5321.154
1011.027, 4944.986
1011.509, 4594.339
1011.991, 4277.297
1012.473, 3997.940
1012.955, 3748.063
1013.437, 3531.748
1013.919, 3342.398
1014.402, 3170.538
1014.884, 3017.105
1015.366, 2868.287
1015.848, 2720.850
1016.330, 2577.821
1016.812, 2445.000
1017.294, 2320.717
1017.776, 2200.002
1018.259, 2079.486
1018.741, 1976.393
1019.223, 1905.057
1019.705, 1839.367
1020.187, 1764.000
1020.669, 1681.136
1021.151, 1605.552
1021.633, 1537.287
1022.115, 1477.422
1022.598, 1434.322
1023.080, 1392.390
1023.562, 1335.691
1024.044, 1272.871
1024.526, 1227.571
1025.008, 1207.961
1025.490, 1182.524
1025.972, 1146.874
1026.454, 1106.825
1026.937, 1071.932
1027.419, 1038.421
1027.901, 993.4580
1028.383, 932.7603
1028.865, 884.2446
1029.347, 870.0586
1029.829, 861.0493
1030.311, 844.3599
1030.794, 819.9575
1031.276, 780.2815
1031.758, 725.1567
1032.240, 684.0894
1032.722, 681.6431
1033.204, 688.0486
1033.686, 668.2026
1034.168, 636.5425
1034.651, 620.3452
1035.133, 638.4583
1035.615, 650.8140
1036.097, 655.0203
1036.579, 655.9724
1037.061, 656.2424
1037.543, 657.4814
1038.025, 665.8523
1038.507, 681.9934
1038.990, 700.3408
1039.472, 715.7141
1039.954, 734.0569
1040.436, 756.2231
1040.918, 784.2852
1041.400, 830.1128
1041.882, 896.3708
1042.364, 946.3960
1042.846, 959.7415
1043.329, 971.2998
1043.811, 1024.453
1044.293, 1100.123
1044.775, 1172.174
1045.257, 1228.631
1045.739, 1295.757
1046.221, 1384.930
1046.703, 1468.054
1047.186, 1522.191
1047.668, 1552.510
1048.150, 1579.069
1048.632, 1603.196
1049.114, 1624.450
1049.596, 1644.275
1050.078, 1659.354
1050.560, 1672.667
1051.042, 1678.429
1051.525, 1663.982
1052.007, 1628.398
1052.489, 1576.870
1052.971, 1510.663
1053.453, 1429.185
1053.935, 1325.981
1054.417, 1210.270
1054.899, 1091.667
1055.381, 971.1333
1055.864, 849.0806
1056.346, 716.0403
1056.828, 600.1877
1057.310, 517.2903
1057.792, 459.2581
1058.274, 405.0210
1058.756, 353.4578
1059.238, 298.3984
1059.721, 225.4509
1060.203, 165.0737
1060.685, 133.8223
1061.167, 119.3845
1061.649, 111.0979
1062.131, 110.1741
1062.613, 99.91650
1063.095, 79.02832
1063.578, 59.27881
1064.060, 50.29761
1064.542, 46.46069
1065.024, 43.09326
1065.506, 40.40820
1065.988, 41.65259
1066.470, 48.51904
1066.952, 56.19019
1067.434, 65.91479
1067.917, 71.57324
1068.399, 54.86841
1068.881, 27.36060
1069.363, 17.46777
1069.845, 35.08594
1070.327, 51.43652
1070.809, 48.87524
1071.291, 47.98755
1071.773, 62.49976
1072.255, 90.76123
1072.738, 109.8467
1073.220, 119.3823
1073.702, 119.1396
1074.184, 106.9998
1074.666, 88.41919
1075.148, 54.54150
1075.630, 21.07080
1076.112, 19.19336
1076.595, 67.70508
1077.077, 91.31616
1077.559, 83.14502
1078.041, 62.47974
1078.523, 41.80078
1079.005, 23.58716
1079.487, 15.17944
1079.969, 15.21851
1080.452, 7.305176
1080.934, 30.92188
1081.416, 54.96021
1081.898, 51.34375
1082.380, 31.34790
1082.862, 14.39429
1083.344, 2.202148
1083.826, 5.627930
1084.308, 32.68408
1084.791, 50.78467
1085.273, 29.31812
1085.755, 0.5083010
1086.237, 11.60693
1086.719, 6.974121
1087.201, 0.1535640
1087.683, 9.917480
1088.165, 15.32910
1088.647, 7.653564
1089.130, 0.1723630
1089.612, 5.506348
1090.094, 20.45801
1090.576, 37.96606
1091.058, 66.88770
1091.540, 75.15503
1092.022, 55.82788
1092.504, 32.96460
1092.987, 32.45630
1093.469, 43.83008
1093.951, 45.74536
1094.433, 38.11011
1094.915, 28.38428
1095.397, 14.37036
1095.879, 5.652344
1096.361, 7.291016
1096.844, 12.90430
1097.326, 7.100098
1097.808, 7.116699
1098.290, 10.68262
1098.772, 1.116699
1099.254, 13.44849
1099.736, 15.97510
1100.218, 15.39551
1100.700, 16.61572
1101.182, 19.45972
1101.665, 19.86133
1102.147, 17.83447
1102.629, 13.38232
1103.111, 4.661377
1103.593, 3.131592
1104.075, 1.963867
1104.557, 9.246338
1105.039, 2.033447
1105.522, 34.08984
1106.004, 57.41626
1106.486, 66.65723
1106.968, 67.36133
1107.450, 59.15527
1107.932, 47.02319
1108.414, 37.56738
1108.896, 32.78760
1109.379, 39.64941
1109.861, 78.86035
1110.343, 104.6296
1110.825, 106.4131
1111.307, 96.40527
1111.789, 87.39795
1112.271, 80.26709
1112.753, 81.12695
1113.235, 90.76733
1113.718, 100.0139
1114.200, 102.8032
1114.682, 102.1904
1115.164, 96.20874
1115.646, 89.03198
1116.128, 99.90430
1116.610, 128.2910
1117.092, 137.2422
1117.574, 113.4504
1118.057, 84.16895
1118.539, 69.75464
1119.021, 63.83545
1119.503, 61.26123
1119.985, 61.87915
1120.467, 61.43848
1120.949, 58.72754
1121.431, 63.86646
1121.914, 88.91357
1122.396, 115.0474
1122.878, 111.2866
1123.360, 91.04517
1123.842, 77.80200
1124.324, 80.07666
1124.806, 87.01416
1125.288, 101.3284
1125.771, 113.0095
1126.253, 109.1780
1126.735, 98.20679
1127.217, 103.0325
1127.699, 120.1240
1128.181, 133.0527
1128.663, 139.3093
1129.145, 132.6292
1129.627, 102.2227
1130.109, 70.74780
1130.592, 75.54126
1131.074, 108.2446
1131.556, 128.6624
1132.038, 133.0994
1132.520, 129.9502
1133.002, 115.7622
1133.484, 104.5237
1133.966, 104.0674
1134.449, 112.1284
1134.931, 121.7935
1135.413, 133.2610
1135.895, 143.2856
1136.377, 151.5078
1136.859, 155.9778
1137.341, 150.7261
1137.823, 144.0989
1138.306, 144.2830
1138.788, 149.8777
1139.270, 151.6655
1139.752, 150.9221
1140.234, 151.4199
1140.716, 155.1694
1141.198, 158.0813
1141.680, 151.4519
1142.162, 140.9443
1142.645, 137.9417
1143.127, 151.0618
1143.609, 161.0808
1144.091, 166.8406
1144.573, 167.3279
1145.055, 156.9685
1145.537, 143.5308
1146.019, 143.9419
1146.501, 153.3965
1146.984, 157.5027
1147.466, 144.3367
1147.948, 135.4102
1148.430, 134.4910
1148.912, 131.4460
1149.394, 113.6465
1149.876, 90.74634
1150.358, 81.59619
1150.841, 84.67334
1151.323, 91.88062
1151.805, 108.4036
1152.287, 119.5085
1152.769, 120.7520
1153.251, 116.9971
1153.733, 114.0354
1154.215, 111.5264
1154.697, 110.9304
1155.180, 113.2988
1155.662, 115.6475
1156.144, 113.8137
1156.626, 112.4341
1157.108, 115.7305
1157.590, 120.7717
1158.072, 115.1792
1158.554, 100.6226
1159.036, 90.55859
1159.519, 88.99463
1160.001, 89.82349
1160.483, 91.30591
1160.965, 92.04785
1161.447, 91.52563
1161.929, 88.67480
1162.411, 79.69824
1162.893, 65.40381
1163.375, 52.42505
1163.858, 39.19165
1164.340, 32.06372
1164.822, 39.35205
1165.304, 53.81836
1165.786, 69.63452
1166.268, 88.35376
1166.750, 89.79150
1167.232, 73.11987
1167.715, 59.67114
1168.197, 64.80615
1168.679, 74.04175
1169.161, 77.93140
1169.643, 74.76611
1170.125, 58.98901
1170.607, 21.16968
1171.089, 3.064209
1171.572, 7.376953
1172.054, 19.02124
1172.536, 29.14258
1173.018, 39.23560
1173.500, 58.19824
1173.982, 79.35083
1174.464, 78.78467
1174.946, 39.14136
1175.428, 22.01196
1175.911, 37.33862
1176.393, 59.88062
1176.875, 64.73779
1177.357, 58.91895
1177.839, 46.90918
1178.321, 30.88672
1178.803, 27.63330
1179.285, 47.17358
1179.767, 62.43481
1180.250, 68.68726
1180.732, 68.55200
1181.214, 53.17798
1181.696, 33.33643
1182.178, 32.47510
1182.660, 53.33130
1183.142, 64.16992
1183.624, 53.53149
1184.107, 42.10425
1184.589, 35.21387
1185.071, 31.01978
1185.553, 25.27441
1186.035, 20.15771
1186.517, 20.94385
1186.999, 29.41650
1187.481, 37.44873
1187.964, 42.95093
1188.446, 48.69434
1188.928, 57.09448
1189.410, 65.08252
1189.892, 66.22583
1190.374, 60.42358
1190.856, 45.20190
1191.338, 11.44043
1191.820, 4.839844
1192.302, 11.41284
1192.785, 36.35620
1193.267, 64.02393
1193.749, 88.15796
1194.231, 81.33984
1194.713, 53.25562
1195.195, 32.13208
1195.677, 27.95386
1196.159, 32.53882
1196.642, 53.23779
1197.124, 68.04150
1197.606, 57.66455
1198.088, 30.85229
1198.570, 24.73218
1199.052, 34.44189
1199.534, 42.51929
1200.016, 36.80444
1200.499, 30.91577
1200.981, 32.07104
1201.463, 37.87720
1201.945, 45.58496
1202.427, 53.43091
1202.909, 58.77808
1203.391, 63.35596
1203.873, 64.54614
1204.355, 62.49438
1204.838, 55.25244
1205.320, 36.16870
1205.802, 16.60474
1206.284, 13.38745
1206.766, 23.00903
1207.248, 23.75000
1207.730, 16.00366
1208.212, 13.57764
1208.694, 31.88525
1209.177, 47.99365
1209.659, 54.23047
1210.141, 55.45972
1210.623, 60.40796
1211.105, 64.56787
1211.587, 54.24365
1212.069, 26.55981
1212.551, 8.365967
1213.034, 24.57715
1213.516, 39.47363
1213.998, 38.66772
1214.480, 30.83008
1214.962, 35.22510
1215.444, 46.90381
1215.926, 42.97900
1216.408, 20.19946
1216.891, 5.641113
1217.373, 23.74536
1217.855, 39.51562
1218.337, 40.56836
1218.819, 31.64380
1219.301, 14.79077
1219.783, 3.740234
1220.265, 4.050049
1220.747, 46.02930
1221.229, 76.87402
1221.712, 72.35962
1222.194, 55.44653
1222.676, 28.60400
1223.158, 1.197998
1223.640, 1.938721
1224.122, 14.12866
1224.604, 33.69360
1225.086, 53.22754
1225.569, 61.50391
1226.051, 28.29956
1226.533, 4.679932
1227.015, 15.64648
1227.497, 47.69116
1227.979, 43.08276
1228.461, 13.88281
1228.943, 5.5907998E-02
1229.426, 0.0000000E+00
##END=



