##NAMES=Rhodonite
##RRUFFID=R060196
##IDEAL CHEMISTRY=Mn^2+^SiO_3_
##LOCALITY=Morro da Mina, Minas Gerais, Brazil
##OWNER=RRUFF
##SOURCE=Marcus Origlieri
##DESCRIPTION=Pink transparent cleavage fragment
##STATUS=The identification of this mineral has been confirmed by X-ray diffraction and chemical analysis
##URL=rruff.info/R060196
##MEASURED CHEMISTRY=(Mn_0.82_Fe_0.06_Mg_0.05_Ca_0.10_)Si_0.99_O_3_
146.0752, 0.0000000E+00
146.5573, 6.3629001E-02
147.0394, 0.2686460
147.5215, 1.301575
148.0036, 3.798279
148.4858, 6.854431
148.9679, 11.04862
149.4500, 16.27832
149.9321, 22.49036
150.4142, 29.53757
150.8963, 38.68512
151.3785, 47.58734
151.8606, 55.28403
152.3427, 60.79343
152.8248, 67.39325
153.3069, 74.93552
153.7890, 83.58887
154.2712, 92.42786
154.7533, 101.8953
155.2354, 110.5691
155.7175, 117.3685
156.1996, 120.9560
156.6817, 125.3022
157.1639, 130.9116
157.6460, 137.2037
158.1281, 143.2914
158.6102, 149.6711
159.0923, 155.3709
159.5744, 159.9769
160.0566, 163.5181
160.5387, 165.8417
161.0208, 166.6746
161.5029, 166.2498
161.9850, 165.1871
162.4671, 163.6266
162.9493, 161.5930
163.4314, 159.1451
163.9135, 156.7165
164.3956, 154.0625
164.8777, 151.5264
165.3598, 148.6631
165.8420, 146.3847
166.3241, 144.6052
166.8062, 142.1330
167.2883, 138.1319
167.7704, 131.8869
168.2525, 123.5179
168.7346, 114.0647
169.2168, 104.2503
169.6989, 94.60446
170.1810, 83.92264
170.6631, 73.89716
171.1452, 66.56433
171.6273, 63.98959
172.1095, 63.31372
172.5916, 62.59967
173.0737, 61.83463
173.5558, 60.83047
174.0379, 58.75299
174.5201, 56.44687
175.0022, 55.26950
175.4843, 57.12122
175.9664, 59.59512
176.4485, 59.51297
176.9306, 56.94211
177.4128, 53.99060
177.8949, 53.29358
178.3770, 53.60599
178.8591, 52.15948
179.3412, 46.52856
179.8233, 38.90387
180.3055, 32.94452
180.7876, 28.69467
181.2697, 24.53888
181.7518, 18.03387
182.2339, 10.09332
182.7160, 3.469421
183.1982, 2.0538000E-02
183.6803, 1.350220
184.1624, 2.976013
184.6445, 4.907745
185.1266, 6.775787
185.6087, 8.307343
186.0909, 9.477142
186.5730, 10.09323
187.0551, 9.960480
187.5372, 9.206146
188.0193, 8.251465
188.5014, 7.130188
188.9836, 5.692383
189.4657, 3.503021
189.9478, 0.6510930
190.4299, 2.159790
190.9120, 4.450806
191.3941, 6.331268
191.8763, 8.547546
192.3584, 11.15973
192.8405, 13.91861
193.3226, 16.77585
193.8047, 19.71396
194.2868, 22.09131
194.7690, 23.44418
195.2511, 23.84058
195.7332, 24.54419
196.2153, 25.86865
196.6974, 26.90033
197.1795, 25.69662
197.6617, 22.10025
198.1438, 18.49152
198.6259, 16.02332
199.1080, 14.69760
199.5901, 13.34680
200.0722, 11.88397
200.5544, 10.49680
201.0365, 9.623840
201.5186, 9.340424
202.0007, 9.050934
202.4828, 8.064606
202.9649, 6.204193
203.4471, 6.249207
203.9292, 8.924927
204.4113, 12.87271
204.8934, 15.71011
205.3755, 17.11874
205.8576, 18.48325
206.3398, 20.40952
206.8219, 22.93655
207.3040, 25.81311
207.7861, 29.18539
208.2682, 32.71463
208.7503, 35.74329
209.2325, 38.27792
209.7146, 40.20840
210.1967, 41.40002
210.6788, 41.74014
211.1609, 41.97803
211.6430, 42.34042
212.1252, 42.44922
212.6073, 41.27332
213.0894, 38.36899
213.5715, 35.36841
214.0536, 33.11697
214.5357, 31.96494
215.0179, 30.17657
215.5000, 27.50079
215.9821, 24.33173
216.4642, 21.54300
216.9463, 19.24985
217.4284, 17.12567
217.9105, 14.91165
218.3927, 12.35611
218.8748, 10.60995
219.3569, 9.802277
219.8390, 9.729889
220.3211, 9.939270
220.8032, 10.37366
221.2854, 11.20709
221.7675, 12.67902
222.2496, 15.17999
222.7317, 16.94708
223.2138, 17.51440
223.6959, 17.56119
224.1781, 18.72165
224.6602, 21.63593
225.1423, 24.52963
225.6244, 26.54712
226.1065, 27.30417
226.5886, 28.46768
227.0708, 30.10767
227.5529, 32.13342
228.0350, 34.47672
228.5171, 37.65540
228.9992, 40.32483
229.4813, 41.68344
229.9635, 40.70010
230.4456, 41.92651
230.9277, 46.13962
231.4098, 51.90802
231.8919, 56.76541
232.3740, 60.19321
232.8562, 63.76367
233.3383, 68.01837
233.8204, 73.14075
234.3025, 78.15198
234.7846, 82.88986
235.2667, 87.54892
235.7489, 92.47711
236.2310, 97.97238
236.7131, 103.2719
237.1952, 108.0506
237.6773, 111.9332
238.1594, 116.6742
238.6416, 122.8697
239.1237, 129.5686
239.6058, 135.1237
240.0879, 138.7621
240.5700, 142.4206
241.0521, 146.9546
241.5343, 152.8472
242.0164, 157.5582
242.4985, 160.1335
242.9806, 162.1423
243.4627, 166.1129
243.9448, 173.6941
244.4270, 180.4712
244.9091, 184.8502
245.3912, 186.1276
245.8733, 189.2509
246.3554, 195.3882
246.8375, 202.4924
247.3197, 207.8675
247.8018, 210.8330
248.2839, 213.3522
248.7660, 215.8726
249.2481, 218.4439
249.7302, 220.3224
250.2124, 221.0247
250.6945, 221.4727
251.1766, 222.9216
251.6587, 226.3938
252.1408, 228.8558
252.6229, 229.2203
253.1051, 227.2788
253.5872, 226.6158
254.0693, 227.4537
254.5514, 229.3016
255.0335, 231.7102
255.5156, 234.7137
255.9978, 238.1209
256.4799, 241.8481
256.9620, 245.9130
257.4441, 250.6183
257.9262, 256.1108
258.4083, 262.0253
258.8904, 268.1294
259.3726, 274.9788
259.8547, 280.7348
260.3368, 284.8832
260.8189, 287.5655
261.3010, 290.0936
261.7831, 292.9758
262.2653, 294.9087
262.7474, 294.8092
263.2295, 292.3933
263.7116, 288.8251
264.1937, 284.3691
264.6758, 278.9270
265.1580, 271.4129
265.6401, 261.2102
266.1222, 250.1904
266.6043, 239.6919
267.0864, 229.8681
267.5685, 219.6215
268.0507, 208.3708
268.5328, 196.6621
269.0149, 186.4498
269.4970, 177.8616
269.9791, 170.2166
270.4612, 163.2224
270.9434, 157.2261
271.4255, 150.2208
271.9076, 141.4068
272.3897, 131.8830
272.8718, 124.5479
273.3539, 119.8154
273.8361, 115.8885
274.3182, 111.9403
274.8003, 107.9777
275.2824, 104.0389
275.7645, 100.2202
276.2466, 96.33765
276.7288, 91.99213
277.2109, 87.13730
277.6930, 82.09308
278.1751, 77.02057
278.6572, 71.88834
279.1393, 67.02121
279.6215, 62.51947
280.1036, 58.10938
280.5857, 53.30237
281.0678, 48.07440
281.5499, 42.90240
282.0320, 38.04034
282.5142, 33.46429
282.9963, 29.14343
283.4784, 25.12482
283.9605, 21.22302
284.4426, 17.13577
284.9247, 12.85352
285.4069, 8.799896
285.8890, 5.054260
286.3711, 1.658722
286.8532, 1.562195
287.3353, 4.749603
287.8174, 7.009796
288.2996, 6.585114
288.7817, 3.779083
289.2638, 2.188660
289.7459, 3.241669
290.2280, 5.924377
290.7101, 7.593994
291.1923, 8.236450
291.6744, 8.121338
292.1565, 7.217010
292.6386, 5.662659
293.1207, 4.207062
293.6028, 3.138824
294.0850, 2.099487
294.5671, 1.4069000E-02
295.0492, 3.030243
295.5313, 5.654144
296.0134, 5.892548
296.4955, 4.822021
296.9777, 5.997070
297.4598, 10.69513
297.9419, 16.16159
298.4240, 18.15024
298.9061, 17.15607
299.3882, 15.78308
299.8704, 15.68442
300.3525, 16.28513
300.8346, 16.54428
301.3167, 16.38626
301.7988, 15.76956
302.2809, 13.91003
302.7631, 11.41653
303.2452, 10.03406
303.7273, 11.33344
304.2094, 14.01486
304.6915, 16.33356
305.1736, 18.18820
305.6558, 20.05499
306.1379, 22.24808
306.6200, 24.75980
307.1021, 27.56543
307.5842, 30.51749
308.0663, 33.84805
308.5485, 37.87753
309.0306, 42.57889
309.5127, 47.66406
309.9948, 53.07346
310.4769, 58.70035
310.9590, 64.38666
311.4412, 70.09628
311.9233, 75.90320
312.4054, 81.42926
312.8875, 86.93735
313.3696, 93.58530
313.8517, 102.1537
314.3339, 111.9748
314.8160, 122.5872
315.2981, 133.8971
315.7802, 145.8357
316.2623, 158.0917
316.7444, 170.8845
317.2266, 185.0349
317.7087, 200.9659
318.1908, 218.1346
318.6729, 236.7218
319.1550, 257.6509
319.6371, 277.5208
320.1193, 294.7113
320.6014, 310.1158
321.0835, 325.4441
321.5656, 341.0605
322.0477, 356.6040
322.5298, 372.5695
323.0120, 389.4802
323.4941, 404.0269
323.9762, 415.2754
324.4583, 423.9055
324.9404, 430.6556
325.4225, 435.7857
325.9047, 438.9324
326.3868, 439.3146
326.8689, 436.8852
327.3510, 434.7392
327.8331, 433.2355
328.3152, 432.0225
328.7974, 430.8606
329.2795, 430.1897
329.7616, 429.0355
330.2437, 426.8884
330.7258, 424.0484
331.2079, 422.1992
331.6901, 422.6656
332.1722, 422.7927
332.6543, 421.2982
333.1364, 417.8472
333.6185, 413.3662
334.1006, 407.8352
334.5828, 401.2715
335.0649, 393.9308
335.5470, 385.8968
336.0291, 376.7924
336.5112, 366.4288
336.9933, 354.5283
337.4755, 342.5276
337.9576, 330.6104
338.4397, 318.5599
338.9218, 305.6288
339.4039, 291.4531
339.8860, 278.1181
340.3681, 266.3377
340.8503, 255.9723
341.3324, 246.5308
341.8145, 237.8460
342.2966, 230.2689
342.7787, 223.8616
343.2608, 218.6792
343.7430, 214.8061
344.2251, 212.6738
344.7072, 211.5760
345.1893, 209.5776
345.6714, 206.6257
346.1535, 203.5072
346.6357, 200.8239
347.1178, 198.4477
347.5999, 196.0067
348.0820, 193.5926
348.5641, 190.5576
349.0462, 185.6863
349.5284, 179.1425
350.0105, 171.8714
350.4926, 164.4704
350.9747, 156.6873
351.4568, 147.6332
351.9389, 137.1777
352.4211, 126.7055
352.9032, 117.7084
353.3853, 109.8573
353.8674, 102.3625
354.3495, 94.79022
354.8316, 87.49789
355.3138, 80.71396
355.7959, 74.47925
356.2780, 69.22925
356.7601, 66.16199
357.2422, 63.91620
357.7243, 60.58936
358.2065, 54.93619
358.6886, 49.28268
359.1707, 45.29349
359.6528, 42.62842
360.1349, 40.26443
360.6170, 38.07715
361.0992, 35.75986
361.5813, 32.82593
362.0634, 28.78342
362.5455, 25.65982
363.0276, 24.97766
363.5097, 25.57938
363.9919, 25.74350
364.4740, 24.76755
364.9561, 23.43268
365.4382, 21.49088
365.9203, 18.76517
366.4024, 17.77054
366.8846, 21.17480
367.3667, 25.33527
367.8488, 27.30377
368.3309, 25.48196
368.8130, 22.87448
369.2951, 19.13364
369.7773, 14.57257
370.2594, 11.39963
370.7415, 10.89963
371.2236, 10.58121
371.7057, 9.263763
372.1878, 6.141663
372.6700, 3.566101
373.1521, 1.740204
373.6342, 0.3952030
374.1163, 1.024139
374.5984, 2.792542
375.0805, 4.066833
375.5627, 4.487671
376.0448, 3.982605
376.5269, 3.258972
377.0090, 2.269165
377.4911, 1.072906
377.9732, 0.1401370
378.4554, 1.253815
378.9375, 2.984406
379.4196, 5.531708
379.9017, 8.712280
380.3838, 12.12302
380.8659, 15.77344
381.3481, 19.30090
381.8302, 21.91208
382.3123, 23.96646
382.7944, 28.18741
383.2765, 35.41278
383.7586, 43.12747
384.2408, 47.46399
384.7229, 48.85254
385.2050, 49.82144
385.6871, 51.54666
386.1692, 53.65414
386.6513, 56.17380
387.1335, 59.20895
387.6156, 60.51361
388.0977, 56.37411
388.5798, 49.25098
389.0619, 43.68359
389.5440, 42.70792
390.0262, 42.45837
390.5083, 38.95578
390.9904, 32.82877
391.4725, 27.20615
391.9546, 24.50854
392.4367, 22.78757
392.9189, 20.22470
393.4010, 16.08731
393.8831, 12.12778
394.3652, 9.077667
394.8473, 6.827820
395.3294, 5.184601
395.8116, 4.061859
396.2937, 3.592346
396.7758, 3.995636
397.2579, 5.360413
397.7400, 6.772675
398.2221, 7.611267
398.7043, 8.649536
399.1864, 10.51688
399.6685, 13.58710
400.1506, 17.12097
400.6327, 20.88657
401.1148, 25.00052
401.5970, 30.11313
402.0791, 36.81522
402.5612, 43.76315
403.0433, 50.34564
403.5254, 56.34369
404.0075, 62.57825
404.4897, 68.99496
404.9718, 75.70618
405.4539, 83.04623
405.9360, 91.40021
406.4181, 99.22937
406.9002, 105.9611
407.3824, 111.7151
407.8645, 118.1592
408.3466, 125.3814
408.8287, 132.9532
409.3108, 140.5629
409.7929, 148.1811
410.2751, 155.8924
410.7572, 163.7932
411.2393, 171.7493
411.7214, 179.1587
412.2035, 186.1392
412.6856, 193.5930
413.1678, 202.2000
413.6499, 211.6254
414.1320, 221.3071
414.6141, 231.3289
415.0962, 241.2657
415.5783, 251.0384
416.0605, 260.4887
416.5426, 269.5586
417.0247, 279.4148
417.5068, 287.8170
417.9889, 293.0486
418.4710, 295.2103
418.9532, 294.7992
419.4353, 291.7997
419.9174, 286.4832
420.3995, 279.1200
420.8816, 269.7010
421.3637, 258.1487
421.8459, 243.5753
422.3280, 227.0857
422.8101, 210.0804
423.2922, 192.3374
423.7743, 174.8208
424.2564, 157.7945
424.7386, 141.3223
425.2207, 125.8461
425.7028, 111.4488
426.1849, 98.19531
426.6670, 86.17380
427.1491, 76.05539
427.6313, 66.04541
428.1134, 55.59918
428.5955, 45.36423
429.0776, 37.19702
429.5597, 31.56696
430.0418, 26.94394
430.5240, 22.87485
431.0061, 19.42728
431.4882, 15.63708
431.9703, 11.26944
432.4524, 7.064423
432.9345, 3.994324
433.4167, 2.118378
433.8988, 0.4228210
434.3809, 1.311310
434.8630, 2.971039
435.3451, 4.321045
435.8272, 5.370514
436.3094, 6.037872
436.7915, 6.145874
437.2736, 5.833893
437.7557, 5.295593
438.2378, 4.470612
438.7199, 3.897186
439.2020, 4.601135
439.6841, 5.939789
440.1663, 6.595886
440.6484, 5.366882
441.1305, 3.708130
441.6126, 2.923615
442.0947, 2.861725
442.5768, 2.605316
443.0590, 1.532532
443.5411, 0.1575930
444.0232, 1.134399
444.5053, 2.269409
444.9874, 3.317291
445.4695, 4.001831
445.9517, 4.661377
446.4338, 5.846924
446.9159, 8.292145
447.3980, 10.65424
447.8801, 12.50311
448.3622, 13.80627
448.8444, 15.14746
449.3265, 16.38312
449.8086, 17.79065
450.2907, 19.70450
450.7728, 23.01082
451.2549, 24.77928
451.7371, 24.30112
452.2192, 22.54800
452.7013, 21.69107
453.1834, 21.98019
453.6655, 22.28532
454.1476, 22.14360
454.6298, 21.60318
455.1119, 21.14810
455.5940, 20.77946
456.0761, 20.51718
456.5582, 20.30865
457.0403, 20.19699
457.5225, 20.55171
458.0046, 21.67836
458.4867, 22.85919
458.9688, 22.85953
459.4509, 21.90652
459.9330, 20.96082
460.4152, 20.43964
460.8973, 20.25931
461.3794, 20.42889
461.8615, 20.95132
462.3436, 21.43707
462.8257, 21.38730
463.3079, 21.25784
463.7900, 21.57663
464.2721, 22.95613
464.7542, 24.25146
465.2363, 24.66899
465.7184, 24.61234
466.2006, 25.22733
466.6827, 27.75383
467.1648, 30.18567
467.6469, 31.77103
468.1290, 32.40813
468.6111, 32.33311
469.0933, 30.95215
469.5754, 29.30818
470.0575, 28.35159
470.5396, 28.56232
471.0217, 28.39465
471.5038, 27.44507
471.9860, 26.03522
472.4681, 25.47501
472.9502, 26.19391
473.4323, 26.40073
473.9144, 24.89781
474.3965, 21.72818
474.8787, 19.40967
475.3608, 18.06947
475.8429, 16.98917
476.3250, 15.33797
476.8071, 13.26340
477.2892, 11.48700
477.7714, 10.35593
478.2535, 9.379868
478.7356, 7.490540
479.2177, 4.993195
479.6998, 3.262726
480.1819, 3.596466
480.6641, 4.807846
481.1462, 5.831680
481.6283, 6.606903
482.1104, 6.954727
482.5925, 6.300415
483.0746, 5.369568
483.5568, 4.906723
484.0389, 4.966324
484.5210, 5.705582
485.0031, 7.383392
485.4852, 9.803223
485.9673, 12.39749
486.4495, 15.68298
486.9316, 18.52512
487.4137, 20.23140
487.8958, 20.29433
488.3779, 21.82816
488.8600, 25.40392
489.3422, 29.85347
489.8243, 34.27379
490.3064, 38.66873
490.7885, 42.82025
491.2706, 46.65814
491.7527, 50.20993
492.2349, 53.47910
492.7170, 56.37367
493.1991, 59.78244
493.6812, 64.58864
494.1633, 70.32059
494.6454, 74.93150
495.1276, 78.35666
495.6097, 81.72893
496.0918, 86.31990
496.5739, 91.58592
497.0560, 96.08200
497.5381, 99.35730
498.0203, 102.2233
498.5024, 105.0616
498.9845, 108.1828
499.4666, 112.2484
499.9487, 117.6816
500.4308, 123.9699
500.9130, 130.9289
501.3951, 138.5295
501.8772, 146.7459
502.3593, 155.5446
502.8414, 164.8169
503.3235, 174.5814
503.8057, 184.6943
504.2878, 195.4595
504.7699, 207.6029
505.2520, 220.1276
505.7341, 231.3764
506.2162, 241.0362
506.6984, 250.0458
507.1805, 258.9396
507.6626, 267.4768
508.1447, 273.6221
508.6268, 277.5371
509.1089, 278.4379
509.5911, 275.2827
510.0732, 268.2903
510.5553, 259.9037
511.0374, 250.3373
511.5195, 239.3315
512.0016, 226.0016
512.4838, 210.7976
512.9659, 195.5219
513.4480, 180.0296
513.9301, 165.1437
514.4122, 152.1883
514.8943, 140.7632
515.3765, 129.1690
515.8586, 115.1878
516.3407, 101.4458
516.8228, 90.22003
517.3049, 81.97913
517.7870, 74.61246
518.2692, 68.04736
518.7513, 61.77057
519.2334, 55.31694
519.7155, 47.83340
520.1976, 41.09888
520.6797, 35.35342
521.1619, 30.48630
521.6440, 26.27954
522.1261, 22.92061
522.6082, 19.97461
523.0903, 17.35982
523.5724, 15.08266
524.0546, 12.69823
524.5367, 10.00763
525.0188, 7.891144
525.5009, 7.779633
525.9830, 9.394867
526.4651, 9.197830
526.9473, 6.275528
527.4294, 2.656036
527.9115, 1.171310
528.3936, 1.415237
528.8757, 2.094269
529.3578, 3.174820
529.8400, 4.065979
530.3221, 3.773544
530.8042, 2.516769
531.2863, 1.704178
531.7684, 2.249954
532.2505, 3.461594
532.7327, 4.952499
533.2148, 6.889450
533.6969, 8.217331
534.1790, 8.154617
534.6611, 7.611771
535.1432, 7.591217
535.6254, 8.204468
536.1075, 9.253021
536.5896, 10.84291
537.0717, 12.82434
537.5538, 14.66655
538.0359, 16.42017
538.5181, 18.27525
539.0002, 20.31902
539.4823, 22.52422
539.9644, 24.66714
540.4465, 26.70830
540.9286, 28.69069
541.4108, 30.52843
541.8929, 32.28796
542.3750, 34.28505
542.8571, 36.74278
543.3392, 39.13641
543.8214, 40.78900
544.3035, 41.86000
544.7856, 42.80106
545.2677, 43.86243
545.7498, 44.78954
546.2319, 45.31912
546.7141, 45.58046
547.1962, 45.78448
547.6783, 45.14391
548.1604, 45.15845
548.6425, 46.72417
549.1246, 50.25931
549.6068, 54.26907
550.0889, 59.09714
550.5710, 64.09248
551.0531, 68.66208
551.5352, 72.70081
552.0173, 76.50038
552.4995, 79.83730
552.9816, 83.08002
553.4637, 87.31395
553.9458, 92.72531
554.4279, 97.84404
554.9100, 102.1241
555.3922, 105.6232
555.8743, 108.9093
556.3564, 111.9590
556.8385, 113.4919
557.3206, 111.9274
557.8027, 108.2887
558.2849, 104.1395
558.7670, 99.61606
559.2491, 95.04277
559.7312, 90.90486
560.2133, 86.84203
560.6954, 82.36665
561.1776, 76.74667
561.6597, 71.34007
562.1418, 66.29306
562.6239, 61.74487
563.1060, 58.28601
563.5881, 56.53847
564.0703, 55.33392
564.5524, 54.46950
565.0345, 54.00598
565.5166, 53.04948
565.9987, 51.10648
566.4808, 49.51193
566.9630, 49.45122
567.4451, 51.04756
567.9272, 52.59270
568.4093, 54.01184
568.8914, 55.22165
569.3735, 56.03844
569.8557, 56.52725
570.3378, 57.09676
570.8199, 58.27884
571.3020, 59.17972
571.7841, 58.30035
572.2662, 56.03300
572.7484, 53.83389
573.2305, 52.94434
573.7126, 52.04678
574.1947, 50.00816
574.6768, 46.68900
575.1589, 43.60318
575.6411, 41.88245
576.1232, 40.19231
576.6053, 37.59154
577.0874, 33.26022
577.5695, 29.22227
578.0516, 25.37785
578.5338, 21.93001
579.0159, 19.28105
579.4980, 17.79701
579.9801, 15.86642
580.4622, 12.85872
580.9443, 9.335083
581.4265, 7.208206
581.9086, 6.472763
582.3907, 6.076050
582.8728, 5.661346
583.3549, 5.119278
583.8370, 4.044128
584.3192, 2.438126
584.8013, 0.9495850
585.2834, 0.1893010
585.7655, 0.2698060
586.2476, 0.8995360
586.7297, 1.853165
587.2118, 2.803955
587.6939, 3.692429
588.1760, 4.506744
588.6581, 5.229507
589.1403, 6.158096
589.6224, 6.581329
590.1045, 6.030533
590.5866, 4.900040
591.0687, 4.587921
591.5508, 5.539505
592.0330, 6.365524
592.5151, 6.512939
592.9972, 6.032928
593.4793, 5.451355
593.9614, 4.704926
594.4435, 4.269608
594.9257, 4.774612
595.4078, 5.904099
595.8899, 6.672836
596.3720, 6.937088
596.8541, 7.053391
597.3362, 7.681503
597.8184, 8.286911
598.3005, 7.995758
598.7826, 5.718536
599.2647, 3.592896
599.7468, 2.801193
600.2289, 2.874466
600.7111, 2.775269
601.1932, 1.790771
601.6753, 1.135818
602.1574, 1.572662
602.6395, 2.943665
603.1216, 2.738770
603.6038, 0.1117400
604.0859, 2.583374
604.5680, 2.786316
605.0501, 0.5194550
605.5322, 0.9072720
606.0143, 1.482086
606.4965, 1.317642
606.9786, 0.3338930
607.4607, 1.302933
607.9428, 3.246140
608.4249, 5.689850
608.9070, 7.651703
609.3892, 7.596634
609.8713, 6.427292
610.3534, 5.836761
610.8355, 6.574631
611.3176, 8.002411
611.7997, 10.60213
612.2819, 13.81604
612.7640, 15.69212
613.2461, 14.59821
613.7282, 13.27162
614.2103, 12.41443
614.6924, 12.00826
615.1746, 12.60431
615.6567, 14.56345
616.1388, 16.82159
616.6209, 18.74939
617.1030, 20.33319
617.5851, 21.70651
618.0673, 22.88126
618.5494, 23.82095
619.0315, 24.04099
619.5136, 23.94333
619.9957, 24.74133
620.4778, 27.01541
620.9600, 29.74600
621.4421, 32.23950
621.9242, 34.47372
622.4063, 36.36050
622.8884, 37.31018
623.3705, 38.47443
623.8527, 40.37671
624.3348, 42.94492
624.8169, 45.66733
625.2990, 48.95621
625.7811, 51.86844
626.2632, 53.78696
626.7454, 54.58038
627.2275, 56.59735
627.7096, 60.17303
628.1917, 64.09930
628.6738, 67.29871
629.1559, 69.87637
629.6381, 72.99670
630.1202, 76.79190
630.6023, 81.07568
631.0844, 86.12729
631.5665, 91.51459
632.0486, 96.23981
632.5308, 99.41025
633.0129, 102.8019
633.4950, 107.7695
633.9771, 113.7981
634.4592, 119.9974
634.9413, 125.5455
635.4235, 131.7819
635.9056, 139.4342
636.3877, 148.3065
636.8698, 156.9959
637.3519, 165.0059
637.8340, 173.4789
638.3162, 182.5611
638.7983, 192.3452
639.2804, 203.7635
639.7625, 216.9401
640.2446, 231.3527
640.7267, 246.2859
641.2089, 262.0638
641.6910, 279.3197
642.1731, 298.0429
642.6552, 318.0545
643.1373, 338.4169
643.6194, 360.0316
644.1016, 384.1347
644.5837, 411.2746
645.0658, 440.2878
645.5479, 469.8229
646.0300, 500.8065
646.5121, 533.9065
646.9943, 569.1636
647.4764, 607.0776
647.9585, 647.8551
648.4406, 691.4598
648.9227, 739.2338
649.4048, 791.2756
649.8870, 846.2415
650.3691, 903.9443
650.8512, 964.6505
651.3333, 1032.017
651.8154, 1105.782
652.2975, 1184.468
652.7797, 1268.126
653.2618, 1356.120
653.7439, 1449.611
654.2260, 1548.311
654.7081, 1651.772
655.1902, 1759.042
655.6724, 1869.733
656.1545, 1985.239
656.6366, 2107.669
657.1187, 2230.403
657.6008, 2354.319
658.0829, 2475.478
658.5651, 2590.852
659.0472, 2699.823
659.5293, 2803.167
660.0114, 2901.403
660.4935, 2993.402
660.9756, 3078.105
661.4578, 3154.807
661.9399, 3221.063
662.4220, 3271.701
662.9041, 3315.318
663.3862, 3365.726
663.8683, 3421.382
664.3505, 3477.196
664.8326, 3529.306
665.3147, 3580.720
665.7968, 3636.518
666.2789, 3696.348
666.7610, 3745.467
667.2432, 3787.063
667.7253, 3811.148
668.2074, 3814.742
668.6895, 3798.162
669.1716, 3759.265
669.6537, 3699.340
670.1359, 3614.450
670.6180, 3497.116
671.1001, 3348.969
671.5822, 3186.604
672.0643, 3009.504
672.5464, 2827.170
673.0286, 2647.983
673.5107, 2474.576
673.9928, 2310.042
674.4749, 2154.908
674.9570, 2009.405
675.4391, 1874.608
675.9213, 1750.534
676.4034, 1637.345
676.8855, 1541.157
677.3676, 1452.487
677.8497, 1370.052
678.3318, 1293.951
678.8140, 1223.167
679.2961, 1158.896
679.7782, 1096.802
680.2603, 1034.624
680.7424, 973.5829
681.2245, 913.9921
681.7067, 855.6199
682.1888, 799.3367
682.6709, 744.3077
683.1530, 691.7646
683.6351, 642.3300
684.1172, 596.8458
684.5994, 554.4939
685.0815, 515.8185
685.5636, 480.2133
686.0457, 446.9012
686.5278, 416.1765
687.0099, 387.4173
687.4921, 360.4377
687.9742, 335.7862
688.4563, 314.1092
688.9384, 296.0089
689.4205, 279.0970
689.9026, 263.1700
690.3848, 248.4083
690.8669, 235.0320
691.3490, 222.9013
691.8311, 211.9425
692.3132, 202.4713
692.7953, 193.6775
693.2775, 184.3952
693.7596, 175.0331
694.2417, 166.3439
694.7238, 158.5944
695.2059, 151.6329
695.6880, 145.6519
696.1702, 140.4150
696.6523, 134.9992
697.1344, 128.6581
697.6165, 122.8920
698.0986, 118.0918
698.5807, 114.1631
699.0629, 110.4909
699.5450, 106.9859
700.0271, 104.1389
700.5092, 102.2087
700.9913, 100.9910
701.4734, 99.94867
701.9556, 99.06400
702.4377, 98.31088
702.9198, 97.56198
703.4019, 97.09586
703.8840, 97.30328
704.3661, 98.23410
704.8483, 99.21271
705.3304, 100.0226
705.8125, 100.7332
706.2946, 101.3922
706.7767, 102.0240
707.2589, 102.1841
707.7410, 101.7166
708.2231, 101.3167
708.7052, 101.7491
709.1873, 103.0732
709.6694, 104.1209
710.1516, 104.7659
710.6337, 104.8961
711.1158, 104.0458
711.5979, 102.6833
712.0800, 101.8790
712.5621, 102.1213
713.0443, 102.5773
713.5264, 102.7484
714.0085, 102.6740
714.4906, 102.5302
714.9727, 102.5117
715.4548, 102.3333
715.9370, 102.0482
716.4191, 101.5758
716.9012, 100.7017
717.3833, 99.41113
717.8654, 97.63412
718.3475, 95.23389
718.8297, 92.50305
719.3118, 90.10446
719.7939, 88.00098
720.2760, 85.97409
720.7581, 84.39795
721.2402, 82.56366
721.7224, 79.40579
722.2045, 75.22388
722.6866, 71.37247
723.1687, 69.29956
723.6508, 66.84454
724.1329, 62.63116
724.6151, 56.63422
725.0972, 51.78345
725.5793, 48.52161
726.0614, 45.73123
726.5435, 43.02112
727.0256, 40.40414
727.5078, 37.09702
727.9899, 32.94244
728.4720, 29.68921
728.9541, 29.76465
729.4362, 31.36224
729.9183, 30.96460
730.4005, 28.17624
730.8826, 25.57297
731.3647, 24.83893
731.8468, 24.87686
732.3289, 24.90097
732.8110, 24.93994
733.2932, 24.53624
733.7753, 23.05557
734.2574, 21.70305
734.7395, 21.64000
735.2216, 23.13081
735.7037, 24.38338
736.1859, 25.32269
736.6680, 25.86426
737.1501, 25.81877
737.6322, 25.29007
738.1143, 24.61829
738.5964, 23.89456
739.0786, 23.00430
739.5607, 21.66144
740.0428, 20.11508
740.5249, 18.76978
741.0070, 18.17336
741.4891, 17.23264
741.9713, 15.51837
742.4534, 13.45845
742.9355, 11.65779
743.4176, 10.16293
743.8997, 8.734924
744.3818, 7.344803
744.8640, 6.021759
745.3461, 5.022781
745.8282, 4.232620
746.3103, 2.905518
746.7924, 0.1687770
747.2745, 2.520874
747.7567, 3.449966
748.2388, 3.123260
748.7209, 2.789490
749.2030, 2.657013
749.6851, 2.881424
750.1672, 3.808960
750.6494, 5.185135
751.1315, 6.036407
751.6136, 6.227219
752.0957, 6.155197
752.5778, 5.879883
753.0599, 5.452408
753.5421, 5.080185
754.0242, 4.767242
754.5063, 4.472076
754.9884, 4.046127
755.4705, 3.673935
755.9526, 3.538803
756.4348, 3.669373
756.9169, 4.124100
757.3990, 5.538986
757.8811, 6.739868
758.3632, 7.127502
758.8453, 6.647812
759.3275, 5.867737
759.8096, 4.510040
760.2917, 3.386902
760.7738, 2.941360
761.2559, 3.107956
761.7380, 3.339584
762.2202, 3.628860
762.7023, 3.743088
763.1844, 3.721161
763.6665, 3.350327
764.1486, 1.937546
764.6307, 0.4834440
765.1129, 2.225342
765.5950, 2.037674
766.0771, 1.228516
766.5592, 0.4510190
767.0413, 0.3631740
767.5234, 0.5626980
768.0056, 0.1343840
768.4877, 1.025406
768.9698, 1.751541
769.4519, 2.314957
769.9340, 2.226868
770.4161, 1.407150
770.8983, 0.8444060
771.3804, 1.954697
771.8625, 3.687515
772.3446, 4.324173
772.8267, 3.561157
773.3088, 2.667343
773.7910, 1.921097
774.2731, 1.527130
774.7552, 1.740921
775.2373, 2.943207
775.7194, 3.687820
776.2015, 3.667374
776.6837, 3.647934
777.1658, 4.435791
777.6479, 5.996674
778.1300, 7.108337
778.6121, 7.680145
779.0942, 7.848160
779.5764, 7.316971
780.0585, 6.632217
780.5406, 6.736786
781.0227, 8.036301
781.5048, 9.180115
781.9869, 9.313644
782.4691, 9.147873
782.9512, 9.344925
783.4332, 10.13663
783.9153, 10.80136
784.3975, 11.18135
784.8796, 11.60310
785.3617, 12.60027
785.8438, 14.09552
786.3259, 15.06049
786.8080, 15.35162
787.2902, 15.27690
787.7723, 14.73749
788.2544, 14.21796
788.7365, 14.44370
789.2186, 15.92488
789.7007, 17.18620
790.1829, 17.56183
790.6650, 17.57997
791.1471, 17.82942
791.6292, 18.54526
792.1113, 18.84810
792.5934, 18.43205
793.0756, 18.06560
793.5577, 18.94289
794.0398, 20.82025
794.5219, 22.30089
795.0040, 23.16283
795.4861, 23.34924
795.9683, 22.04674
796.4504, 20.41214
796.9325, 20.07643
797.4146, 22.29759
797.8967, 24.14961
798.3788, 24.74281
798.8610, 24.69296
799.3431, 24.54741
799.8252, 24.01024
800.3073, 24.35446
800.7894, 25.94061
801.2715, 27.68384
801.7537, 28.06741
802.2358, 27.38234
802.7179, 26.59010
803.2000, 25.77763
803.6821, 25.49370
804.1642, 26.64259
804.6464, 28.34271
805.1285, 29.50810
805.6106, 29.90895
806.0927, 29.82408
806.5748, 28.95515
807.0569, 27.92656
807.5391, 27.42075
808.0212, 27.49788
808.5033, 27.39220
808.9854, 27.04002
809.4675, 26.56053
809.9496, 25.71153
810.4318, 24.89838
810.9139, 25.29128
811.3960, 27.73282
811.8781, 29.34314
812.3602, 27.61047
812.8423, 24.61882
813.3245, 22.58566
813.8066, 22.13959
814.2887, 22.03520
814.7708, 22.52394
815.2529, 22.88374
815.7350, 22.16348
816.2172, 20.49182
816.6993, 19.46681
817.1814, 19.30893
817.6635, 19.81653
818.1456, 21.54648
818.6277, 23.40190
819.1099, 23.67355
819.5920, 21.41756
820.0741, 19.40462
820.5562, 18.53687
821.0383, 18.38792
821.5204, 18.70567
822.0026, 20.17897
822.4847, 20.22356
822.9668, 18.20964
823.4489, 15.94971
823.9310, 15.56239
824.4131, 16.52162
824.8953, 17.19504
825.3774, 17.41685
825.8595, 17.41127
826.3416, 17.32404
826.8237, 17.04991
827.3058, 16.43953
827.7880, 15.29953
828.2701, 14.27545
828.7522, 13.46886
829.2343, 12.83669
829.7164, 12.26730
830.1985, 11.71890
830.6807, 11.47752
831.1628, 11.57729
831.6449, 11.67056
832.1270, 11.45088
832.6091, 11.05121
833.0912, 10.62688
833.5734, 10.16257
834.0555, 9.785309
834.5376, 9.643250
835.0197, 9.566345
835.5018, 9.429199
835.9839, 9.190796
836.4661, 9.032837
836.9482, 9.005905
837.4303, 8.906235
837.9124, 8.609268
838.3945, 8.133194
838.8766, 7.505249
839.3588, 6.725189
839.8409, 5.900055
840.3230, 4.779404
840.8051, 3.893967
841.2872, 3.836121
841.7693, 4.631851
842.2515, 5.390945
842.7336, 6.229309
843.2157, 6.708923
843.6978, 6.685699
844.1799, 6.157104
844.6620, 4.825684
845.1442, 2.606094
845.6263, 0.9203340
846.1084, 1.084656
846.5905, 2.072281
847.0726, 2.341949
847.5547, 1.965561
848.0369, 1.354599
848.5190, 0.3706670
849.0011, 0.4765930
849.4832, 0.8286290
849.9653, 0.8015900
850.4474, 1.084137
850.9296, 1.853180
851.4117, 2.398834
851.8938, 2.526413
852.3759, 2.224915
852.8580, 1.046127
853.3401, 0.7194670
853.8223, 1.680176
854.3044, 0.3388520
854.7865, 1.228485
855.2686, 1.449753
855.7507, 0.8073880
856.2328, 0.4646610
856.7150, 1.177444
857.1971, 1.429688
857.6792, 0.9058070
858.1613, 0.1093750
858.6434, 0.9223330
859.1255, 1.543915
859.6077, 2.760193
860.0898, 4.962524
860.5719, 7.448364
861.0540, 9.314911
861.5361, 10.84760
862.0182, 12.57761
862.5004, 14.58963
862.9825, 16.84537
863.4646, 19.27795
863.9467, 21.97455
864.4288, 25.00848
864.9109, 28.40359
865.3931, 32.06467
865.8752, 35.98846
866.3573, 40.24146
866.8394, 45.09918
867.3215, 50.33746
867.8036, 55.62872
868.2858, 61.03445
868.7679, 66.44598
869.2500, 71.44238
869.7321, 76.26321
870.2142, 81.17410
870.6964, 86.06534
871.1785, 92.37350
871.6606, 100.4965
872.1427, 109.0240
872.6248, 116.5304
873.1069, 123.3199
873.5891, 130.7744
874.0712, 138.9917
874.5533, 147.1071
875.0354, 154.1292
875.5175, 161.0924
875.9996, 169.4820
876.4818, 179.4500
876.9639, 187.1731
877.4460, 191.7177
877.9281, 195.0459
878.4102, 198.2637
878.8923, 201.0276
879.3745, 200.9224
879.8566, 198.0338
880.3387, 193.4476
880.8208, 187.7702
881.3029, 180.6977
881.7850, 171.2523
882.2672, 160.0543
882.7493, 149.3136
883.2314, 139.9053
883.7135, 130.6927
884.1956, 121.4595
884.6777, 112.2256
885.1599, 102.7630
885.6420, 92.97546
886.1241, 84.45694
886.6062, 77.81046
887.0883, 72.31934
887.5704, 67.34769
888.0526, 62.69070
888.5347, 57.99023
889.0168, 52.81888
889.4989, 48.03064
889.9810, 44.12662
890.4631, 40.63107
890.9453, 36.93509
891.4274, 32.83994
891.9095, 29.45935
892.3916, 26.99606
892.8737, 24.80670
893.3558, 22.00058
893.8380, 18.94873
894.3201, 16.39069
894.8022, 14.44485
895.2843, 12.91364
895.7664, 11.89682
896.2485, 11.09271
896.7307, 10.20703
897.2128, 9.121552
897.6949, 8.768066
898.1770, 9.437805
898.6591, 9.854401
899.1412, 8.711182
899.6234, 6.766022
900.1055, 6.332520
900.5876, 7.278351
901.0697, 8.363800
901.5518, 9.134277
902.0339, 9.470459
902.5161, 8.877075
902.9982, 7.519653
903.4803, 7.020325
903.9624, 7.584839
904.4445, 8.967041
904.9266, 11.45898
905.4088, 14.22394
905.8909, 14.81348
906.3730, 13.72891
906.8551, 13.20685
907.3372, 14.72079
907.8193, 16.38800
908.3015, 16.47543
908.7836, 15.92966
909.2657, 16.50037
909.7478, 19.56885
910.2299, 21.61072
910.7120, 22.28107
911.1942, 22.21454
911.6763, 21.97980
912.1584, 21.49417
912.6405, 21.16055
913.1226, 21.26178
913.6047, 20.53354
914.0869, 16.74969
914.5690, 12.29245
915.0511, 9.714874
915.5332, 10.20865
916.0153, 9.275818
916.4974, 6.121796
916.9796, 2.587219
917.4617, 0.2995610
917.9438, 2.583191
918.4259, 4.654541
918.9080, 6.549042
919.3901, 8.221283
919.8723, 9.523468
920.3544, 10.68820
920.8365, 11.93259
921.3186, 13.22400
921.8007, 14.34079
922.2828, 15.28256
922.7650, 16.01602
923.2471, 16.54568
923.7292, 16.85159
924.2113, 16.61288
924.6934, 15.98413
925.1755, 16.26144
925.6577, 18.90244
926.1398, 20.45874
926.6219, 16.76477
927.1040, 10.51263
927.5861, 5.515381
928.0682, 4.072479
928.5504, 1.764038
929.0325, 1.430481
929.5146, 5.465668
929.9967, 10.53683
930.4788, 16.47034
930.9609, 22.21643
931.4431, 27.72012
931.9252, 33.52933
932.4073, 40.36136
932.8894, 47.66644
933.3715, 54.93182
933.8536, 61.98492
934.3358, 70.17825
934.8179, 80.48007
935.3000, 90.43866
935.7821, 99.07651
936.2642, 106.5661
936.7463, 113.7913
937.2285, 120.6807
937.7106, 126.2265
938.1927, 130.3365
938.6748, 132.5963
939.1569, 132.6890
939.6390, 130.7150
940.1212, 126.8001
940.6033, 120.2170
941.0854, 113.0250
941.5675, 105.4072
942.0496, 97.32007
942.5317, 88.44482
943.0139, 79.02631
943.4960, 70.46091
943.9781, 62.89255
944.4602, 56.06436
944.9423, 49.46368
945.4244, 43.71292
945.9066, 39.38702
946.3887, 36.84689
946.8708, 34.91321
947.3529, 33.58734
947.8350, 32.84839
948.3171, 32.73453
948.7993, 33.19235
949.2814, 33.83984
949.7635, 34.78329
950.2456, 36.77112
950.7277, 40.54236
951.2098, 45.15945
951.6920, 49.53555
952.1741, 54.31979
952.6562, 61.76373
953.1383, 72.71249
953.6204, 83.89151
954.1025, 94.36768
954.5847, 105.3357
955.0668, 118.8560
955.5489, 134.6648
956.0310, 152.1497
956.5131, 170.9838
956.9952, 191.4346
957.4774, 213.1780
957.9595, 236.9231
958.4416, 263.5203
958.9237, 293.0907
959.4058, 324.4517
959.8879, 357.0081
960.3701, 392.7762
960.8522, 433.8272
961.3343, 479.2425
961.8164, 525.1401
962.2985, 572.2982
962.7806, 623.9175
963.2628, 684.2641
963.7449, 746.4091
964.2270, 807.1337
964.7091, 868.2627
965.1912, 934.6288
965.6733, 1006.420
966.1555, 1081.356
966.6376, 1159.509
967.1197, 1240.401
967.6018, 1322.311
968.0839, 1406.263
968.5660, 1492.538
969.0482, 1584.174
969.5303, 1673.795
970.0124, 1761.607
970.4945, 1847.248
970.9766, 1933.004
971.4587, 2018.462
971.9409, 2095.677
972.4230, 2164.249
972.9051, 2221.841
973.3872, 2270.276
973.8693, 2304.226
974.3514, 2317.698
974.8336, 2310.999
975.3157, 2287.394
975.7978, 2246.015
976.2799, 2189.450
976.7620, 2114.813
977.2441, 2028.449
977.7263, 1943.020
978.2084, 1858.394
978.6905, 1777.372
979.1726, 1700.052
979.6547, 1628.316
980.1368, 1562.127
980.6190, 1503.092
981.1010, 1453.383
981.5831, 1413.098
982.0652, 1381.767
982.5474, 1360.305
983.0295, 1345.406
983.5116, 1335.658
983.9937, 1330.396
984.4758, 1328.224
984.9579, 1329.099
985.4401, 1332.570
985.9222, 1338.266
986.4043, 1346.387
986.8864, 1358.491
987.3685, 1372.924
987.8506, 1384.815
988.3328, 1393.317
988.8149, 1404.420
989.2970, 1420.233
989.7791, 1437.383
990.2612, 1450.255
990.7433, 1461.669
991.2255, 1476.186
991.7076, 1494.851
992.1897, 1516.470
992.6718, 1541.321
993.1539, 1568.206
993.6360, 1596.622
994.1182, 1626.553
994.6003, 1657.797
995.0824, 1690.542
995.5645, 1721.608
996.0466, 1750.002
996.5287, 1775.760
997.0109, 1800.854
997.4930, 1823.471
997.9751, 1837.975
998.4572, 1846.885
998.9393, 1842.252
999.4214, 1821.964
999.9036, 1789.186
1000.386, 1748.739
1000.868, 1700.524
1001.350, 1643.521
1001.832, 1577.310
1002.314, 1506.438
1002.796, 1432.445
1003.278, 1357.483
1003.760, 1283.808
1004.243, 1210.732
1004.725, 1141.267
1005.207, 1074.912
1005.689, 1011.782
1006.171, 950.9009
1006.653, 893.3130
1007.135, 838.4587
1007.617, 786.7499
1008.100, 737.7295
1008.582, 692.4411
1009.064, 649.1866
1009.546, 607.9254
1010.028, 568.3940
1010.510, 530.0403
1010.992, 492.9328
1011.474, 458.8551
1011.956, 427.8943
1012.439, 398.1626
1012.921, 366.3635
1013.403, 336.1092
1013.885, 311.0946
1014.367, 291.8625
1014.849, 273.4560
1015.331, 255.1666
1015.813, 238.9270
1016.296, 225.7502
1016.778, 215.0182
1017.260, 205.5186
1017.742, 197.2929
1018.224, 190.2887
1018.706, 184.8865
1019.188, 180.0391
1019.670, 175.4019
1020.152, 171.0996
1020.635, 167.0705
1021.117, 163.0214
1021.599, 160.8165
1022.081, 160.5323
1022.563, 161.0668
1023.045, 162.1830
1023.527, 163.2289
1024.009, 162.9213
1024.492, 161.5581
1024.974, 161.5013
1025.456, 164.2092
1025.938, 167.1703
1026.420, 170.1674
1026.902, 172.9424
1027.384, 174.4312
1027.866, 175.1556
1028.349, 177.5186
1028.831, 182.3623
1029.313, 187.7509
1029.795, 192.7709
1030.277, 197.7800
1030.759, 202.9751
1031.241, 208.1411
1031.723, 213.9810
1032.205, 220.4713
1032.688, 227.9933
1033.170, 237.6870
1033.652, 247.7349
1034.134, 254.6855
1034.616, 259.7481
1035.098, 266.0568
1035.580, 276.7948
1036.062, 285.8165
1036.544, 291.4152
1037.027, 296.1474
1037.509, 303.6689
1037.991, 313.3617
1038.473, 320.6600
1038.955, 325.2581
1039.437, 327.9830
1039.919, 328.8441
1040.401, 328.4688
1040.884, 327.2090
1041.366, 325.1208
1041.848, 322.2202
1042.330, 318.6758
1042.812, 313.6336
1043.294, 306.4721
1043.776, 298.3304
1044.258, 290.4229
1044.740, 282.5862
1045.223, 274.6495
1045.705, 266.9611
1046.187, 257.8877
1046.669, 246.4952
1047.151, 234.4261
1047.633, 223.0047
1048.115, 212.0481
1048.597, 200.3192
1049.079, 187.7796
1049.562, 175.1685
1050.044, 162.3807
1050.526, 150.1415
1051.008, 139.2589
1051.490, 129.2413
1051.972, 119.3835
1052.454, 109.8234
1052.936, 99.65451
1053.419, 88.54681
1053.901, 77.89667
1054.383, 68.90009
1054.865, 61.51254
1055.347, 55.84485
1055.829, 51.91495
1056.311, 47.81769
1056.793, 42.50583
1057.276, 37.68362
1057.758, 33.86337
1058.240, 30.86917
1058.722, 28.66190
1059.204, 26.97977
1059.686, 24.44312
1060.168, 20.10873
1060.650, 16.31570
1061.132, 15.05234
1061.615, 14.58728
1062.097, 13.33679
1062.579, 11.22858
1063.061, 8.737152
1063.543, 5.792572
1064.025, 3.502808
1064.507, 3.113037
1064.989, 3.318970
1065.471, 2.454681
1065.954, 0.9536440
1066.436, 0.1383970
1066.918, 0.3421630
1067.400, 0.3796690
1067.882, 0.1062320
1068.364, 5.8685001E-02
1068.846, 1.261627
1069.328, 3.173431
1069.811, 3.851685
1070.293, 3.198914
1070.775, 2.848480
1071.257, 4.116913
1071.739, 5.412018
1072.221, 5.982361
1072.703, 6.039551
1073.185, 6.400391
1073.667, 7.036194
1074.150, 7.144348
1074.632, 6.319305
1075.114, 5.549072
1075.596, 5.921906
1076.078, 6.753540
1076.560, 7.314789
1077.042, 7.452942
1077.524, 7.714111
1078.006, 8.271179
1078.489, 8.330475
1078.971, 7.049988
1079.453, 5.338654
1079.935, 4.973328
1080.417, 5.613342
1080.899, 6.427490
1081.381, 8.056458
1081.863, 8.377075
1082.345, 6.318268
1082.828, 4.037201
1083.310, 3.978363
1083.792, 5.714783
1084.274, 6.271454
1084.756, 5.579865
1085.238, 4.397858
1085.720, 2.570892
1086.202, 1.024353
1086.685, 5.9418000E-02
1087.167, 0.1741640
1087.649, 1.203796
1088.131, 4.588928
1088.613, 5.493408
1089.095, 2.799866
1089.577, 0.4558410
1090.059, 1.122284
1090.542, 0.6797180
1091.024, 0.6806950
1091.506, 1.329010
1091.988, 1.736816
1092.470, 1.832489
1092.952, 1.723022
1093.434, 1.290985
1093.916, 0.8983150
1094.398, 1.184692
1094.880, 2.068085
1095.363, 3.511414
1095.845, 6.079102
1096.327, 7.621277
1096.809, 6.611298
1097.291, 5.670776
1097.773, 6.719269
1098.255, 9.350281
1098.737, 10.41226
1099.220, 10.09451
1099.702, 9.570892
1100.184, 9.178284
1100.666, 9.069733
1101.148, 9.252747
1101.630, 9.821198
1102.112, 11.09326
1102.594, 13.32523
1103.077, 14.11649
1103.559, 13.25278
1104.041, 12.38245
1104.523, 13.19562
1105.005, 14.34982
1105.487, 14.32397
1105.969, 13.40186
1106.451, 13.47977
1106.933, 15.12283
1107.416, 16.39421
1107.898, 16.89168
1108.380, 17.10416
1108.862, 17.62154
1109.344, 18.28705
1109.826, 18.85165
1110.308, 19.27568
1110.790, 19.68306
1111.272, 19.82838
1111.755, 20.44139
1112.237, 22.15414
1112.719, 24.16240
1113.201, 24.00735
1113.683, 22.34093
1114.165, 21.34019
1114.647, 21.85048
1115.129, 22.43925
1115.612, 22.35432
1116.094, 22.22578
1116.576, 22.48199
1117.058, 23.08957
1117.540, 23.52480
1118.022, 23.81155
1118.504, 24.28513
1118.986, 25.52426
1119.469, 26.48027
1119.951, 26.31387
1120.433, 25.47688
1120.915, 24.44629
1121.397, 22.82417
1121.879, 23.22169
1122.361, 25.89124
1122.843, 28.63232
1123.325, 29.73157
1123.807, 30.04640
1124.290, 30.26472
1124.772, 30.46588
1125.254, 30.85371
1125.736, 31.82565
1126.218, 32.01440
1126.700, 31.07394
1127.182, 29.78581
1127.664, 28.92096
1128.147, 28.53006
1128.629, 28.68437
1129.111, 29.28482
1129.593, 30.01089
1130.075, 31.23430
1130.557, 31.98413
1131.039, 31.89842
1131.521, 31.32014
1132.004, 30.94098
1132.486, 30.71854
1132.968, 30.39394
1133.450, 29.85878
1133.932, 29.04129
1134.414, 27.14996
1134.896, 25.93074
1135.378, 26.53038
1135.860, 28.31291
1136.343, 28.48714
1136.825, 27.42065
1137.307, 26.88895
1137.789, 27.63132
1138.271, 28.24800
1138.753, 28.10324
1139.235, 27.19611
1139.717, 25.37697
1140.199, 22.75012
1140.682, 22.49556
1141.164, 24.43604
1141.646, 25.72658
1142.128, 24.49312
1142.610, 22.74814
1143.092, 22.07285
1143.574, 22.00482
1144.056, 21.76038
1144.539, 21.17444
1145.021, 20.61870
1145.503, 19.96921
1145.985, 19.38910
1146.467, 19.62717
1146.949, 20.13860
1147.431, 20.01480
1147.913, 19.33896
1148.396, 18.75412
1148.878, 18.19144
1149.360, 18.34776
1149.842, 19.49463
1150.324, 20.51918
1150.806, 20.02509
1151.288, 18.78104
1151.770, 17.83086
1152.252, 17.26933
1152.734, 16.95255
1153.217, 16.88559
1153.699, 17.13278
1154.181, 17.83655
1154.663, 18.38980
1155.145, 17.84402
1155.627, 16.67073
1156.109, 15.60794
1156.591, 14.70493
1157.074, 14.37402
1157.556, 15.23474
1158.038, 16.12451
1158.520, 16.71240
1159.002, 17.16861
1159.484, 17.93129
1159.966, 18.89877
1160.448, 19.97830
1160.931, 21.38086
1161.413, 21.33153
1161.895, 17.24457
1162.377, 13.47787
1162.859, 12.00856
1163.341, 12.38887
1163.823, 13.57323
1164.305, 15.21045
1164.787, 15.38068
1165.270, 12.73990
1165.752, 10.34978
1166.234, 10.24643
1166.716, 10.64201
1167.198, 10.09708
1167.680, 8.742065
1168.162, 8.882111
1168.644, 10.31509
1169.126, 11.13492
1169.609, 10.13882
1170.091, 8.817230
1170.573, 6.979797
1171.055, 6.052658
1171.537, 8.077652
1172.019, 13.61359
1172.501, 14.74725
1172.983, 11.56049
1173.466, 8.146820
1173.948, 7.062424
1174.430, 6.664581
1174.912, 5.792679
1175.394, 4.915359
1175.876, 4.904129
1176.358, 6.029129
1176.840, 6.257782
1177.323, 5.475845
1177.805, 4.579468
1178.287, 4.308868
1178.769, 4.164459
1179.251, 3.502136
1179.733, 2.711136
1180.215, 2.850082
1180.697, 4.218399
1181.179, 4.851685
1181.661, 4.477005
1182.144, 4.178070
1182.626, 5.477982
1183.108, 6.891418
1183.590, 6.591583
1184.072, 6.935974
1184.554, 6.926178
1185.036, 5.697388
1185.518, 5.806961
1186.001, 4.238708
1186.483, 2.494690
1186.965, 2.086258
1187.447, 2.447128
1187.929, 3.372467
1188.411, 4.664078
1188.893, 4.698059
1189.375, 2.903381
1189.858, 1.757858
1190.340, 1.885574
1190.822, 2.572128
1191.304, 3.184891
1191.786, 3.670380
1192.268, 4.000351
1192.750, 4.172333
1193.232, 4.034012
1193.714, 3.396988
1194.197, 2.837189
1194.679, 2.474426
1195.161, 2.398209
1195.643, 3.055817
1196.125, 3.917603
1196.607, 4.156784
1197.089, 3.534454
1197.571, 3.183212
1198.053, 3.235596
1198.536, 3.270203
1199.018, 2.917252
1199.500, 2.861237
1199.982, 5.260742
1200.464, 8.235138
1200.946, 8.538864
1201.428, 4.518372
1201.910, 2.317276
1202.393, 2.638092
1202.875, 3.259048
1203.357, 3.116562
1203.839, 2.744293
1204.321, 3.095551
1204.803, 3.826309
1205.285, 4.373459
1205.767, 4.648911
1206.250, 4.424774
1206.732, 3.524567
1207.214, 2.683899
1207.696, 2.264481
1208.178, 2.233047
1208.660, 2.650848
1209.142, 3.381592
1209.624, 4.243057
1210.106, 5.723206
1210.589, 6.121292
1211.071, 4.979156
1211.553, 3.652451
1212.035, 2.912582
1212.517, 2.598831
1212.999, 2.479279
1213.481, 2.543533
1213.963, 2.765671
1214.445, 3.559296
1214.928, 3.658997
1215.410, 2.788330
1215.892, 2.129852
1216.374, 2.787415
1216.856, 4.078781
1217.338, 5.078979
1217.820, 5.799545
1218.302, 6.282227
1218.785, 6.601456
1219.267, 6.511078
1219.749, 5.930573
1220.231, 5.183456
1220.713, 4.367905
1221.195, 3.647125
1221.677, 3.240921
1222.159, 3.116776
1222.641, 3.216522
1223.124, 3.788101
1223.606, 3.810318
1224.088, 3.029831
1224.570, 2.619431
1225.052, 4.324615
1225.534, 6.493439
1226.016, 6.859970
1226.498, 5.826889
1226.980, 4.949936
1227.463, 4.502731
1227.945, 3.868164
1228.427, 2.883102
1228.909, 2.227432
1229.391, 3.127228
1229.873, 4.306030
1230.355, 4.045410
1230.837, 2.706192
1231.320, 1.801041
1231.802, 1.418274
1232.284, 1.616730
1232.766, 2.503616
1233.248, 3.318436
1233.730, 3.131958
1234.212, 2.706100
1234.694, 2.939911
1235.177, 3.631073
1235.659, 3.691559
1236.141, 3.018402
1236.623, 2.210480
1237.105, 1.256073
1237.587, 0.8057250
1238.069, 2.015839
1238.551, 3.547836
1239.033, 4.293976
1239.516, 4.256821
1239.998, 3.676834
1240.480, 2.392883
1240.962, 2.167633
1241.444, 3.335983
1241.926, 4.515274
1242.408, 4.610626
1242.890, 4.179779
1243.372, 3.397430
1243.855, 2.470825
1244.337, 1.944611
1244.819, 1.837891
1245.301, 2.002258
1245.783, 2.428619
1246.265, 2.962860
1246.747, 4.135223
1247.229, 4.691162
1247.712, 3.140961
1248.194, 0.6444700
1248.676, 5.1024999E-02
1249.158, 1.177734
1249.640, 1.259216
1250.122, 0.1574710
1250.604, 1.056183
1251.086, 0.7634280
1251.568, 2.475525
1252.051, 2.571045
1252.533, 1.655640
1253.015, 0.6363530
1253.497, 0.3680420
1253.979, 0.1908260
1254.461, 1.383453
1254.943, 2.522766
1255.425, 1.538757
1255.907, 0.7017820
1256.390, 1.107635
1256.872, 1.991791
1257.354, 1.649536
1257.836, 0.4543150
1258.318, 0.3788450
1258.800, 0.6489560
1259.282, 0.4806820
1259.764, 0.6468510
1260.247, 1.465271
1260.729, 1.671997
1261.211, 1.429291
1261.693, 0.7016600
1262.175, 0.2077940
1262.657, 0.5790100
1263.139, 0.3210750
1263.621, 0.1178890
1264.104, 0.4382020
1264.586, 0.1067810
1265.068, 1.538391
1265.550, 3.167480
1266.032, 2.615753
1266.514, 0.8363650
1266.996, 1.037140
1267.478, 2.777771
1267.960, 2.950958
1268.443, 0.8699950
1268.925, 0.8445130
1269.407, 1.557495
1269.889, 1.682465
1270.371, 1.321198
1270.853, 0.9078060
1271.335, 1.118713
1271.817, 1.144318
1272.299, 1.324951
1272.782, 2.000977
1273.264, 2.171082
1273.746, 3.175079
1274.228, 4.208130
1274.710, 4.680176
1275.192, 4.711578
1275.674, 4.142273
1276.156, 3.190521
1276.639, 2.724091
1277.121, 2.803009
1277.603, 2.843353
1278.085, 2.906616
1278.567, 3.193817
1279.049, 4.430267
1279.531, 5.355408
1280.013, 4.903076
1280.495, 3.654938
1280.978, 3.264343
1281.460, 3.536987
1281.942, 3.688721
1282.424, 3.733643
1282.906, 3.893036
1283.388, 4.620544
1283.870, 4.961700
1284.352, 4.543579
1284.834, 3.825592
1285.317, 3.622498
1285.799, 3.602051
1286.281, 2.664185
1286.763, 2.508331
1287.245, 2.630371
1287.727, 3.130035
1288.209, 3.541382
1288.691, 3.890991
1289.173, 3.849304
1289.656, 2.163086
1290.138, 0.1639400
1290.620, 0.6842650
1291.102, 3.707031
1291.584, 4.425903
1292.066, 1.304413
1292.548, 0.4805600
1293.030, 0.1960140
1293.513, 1.623352
1293.995, 2.343719
1294.477, 2.486084
1294.959, 1.837128
1295.441, 0.6663510
1295.923, 0.3648680
1296.405, 1.013794
1296.887, 1.500061
1297.370, 1.657349
1297.852, 1.572510
1298.334, 0.7039180
1298.816, 6.7870997E-02
1299.298, 1.277557
1299.780, 3.234344
1300.262, 3.379608
1300.744, 1.917145
1301.226, 1.460480
1301.708, 2.219269
1302.191, 2.857269
1302.673, 2.176880
1303.155, 1.380188
1303.637, 0.6712040
1304.119, 0.0000000E+00
##END=



