##NAMES=Rhomboclase
##RRUFFID=R070507
##IDEAL CHEMISTRY=(H_3_O)Fe^3+^(SO_4_)_2_&#183;3H_2_O
##LOCALITY=Alcaparrosa, Antofogasta, Chile
##OWNER=RRUFF
##SOURCE=James Shigley
##DESCRIPTION=Platy to granular transparent light tan unconsolidated fragments
##STATUS=The identification of this mineral is not yet confirmed.
##URL=rruff.info/R070507
153.7018, 0.0000000E+00
154.1839, 91.90820
154.6660, 157.5342
155.1481, 162.4141
155.6303, 71.02344
156.1124, 6.521484
156.5945, 14.03906
157.0766, 10.00684
157.5587, 5.958984
158.0408, 35.98047
158.5230, 97.91211
159.0051, 206.6660
159.4872, 336.2344
159.9693, 473.1055
160.4514, 554.9453
160.9335, 603.0176
161.4157, 666.6270
161.8978, 744.0859
162.3799, 816.5996
162.8620, 880.5430
163.3441, 944.8242
163.8262, 1025.814
164.3084, 1109.508
164.7905, 1171.193
165.2726, 1192.947
165.7547, 1177.961
166.2368, 1160.398
166.7189, 1158.066
167.2011, 1138.820
167.6832, 1086.398
168.1653, 1012.371
168.6474, 940.0234
169.1295, 886.8301
169.6116, 852.8027
170.0938, 808.4512
170.5759, 751.2559
171.0580, 688.7539
171.5401, 621.3359
172.0222, 550.2461
172.5043, 474.4824
172.9865, 390.2949
173.4686, 297.0254
173.9507, 235.2129
174.4328, 226.9922
174.9149, 220.0332
175.3970, 192.6797
175.8792, 150.4512
176.3613, 111.7480
176.8434, 90.47656
177.3255, 86.30664
177.8076, 74.39648
178.2897, 29.77344
178.7719, 1.988281
179.2540, 18.89648
179.7361, 69.27734
180.2182, 124.1328
180.7003, 164.7676
181.1824, 191.4453
181.6646, 191.4004
182.1467, 125.1875
182.6288, 77.98828
183.1109, 99.51953
183.5930, 170.6992
184.0751, 234.7109
184.5573, 247.7324
185.0394, 211.5918
185.5215, 209.2070
186.0036, 255.6836
186.4857, 311.7402
186.9678, 374.3438
187.4500, 435.6504
187.9321, 474.2227
188.4142, 470.0898
188.8963, 426.9668
189.3784, 427.5332
189.8605, 498.0000
190.3427, 574.4980
190.8248, 636.0586
191.3069, 683.4492
191.7890, 722.7207
192.2711, 755.8145
192.7532, 783.9355
193.2354, 822.6309
193.7175, 876.6035
194.1996, 933.6855
194.6817, 982.9375
195.1638, 1030.799
195.6459, 1098.191
196.1281, 1202.957
196.6102, 1336.260
197.0923, 1426.711
197.5744, 1459.447
198.0565, 1476.803
198.5386, 1473.021
199.0208, 1464.127
199.5029, 1491.520
199.9850, 1586.871
200.4671, 1731.713
200.9492, 1818.037
201.4313, 1812.074
201.9135, 1800.598
202.3956, 1806.012
202.8777, 1825.133
203.3598, 1851.395
203.8419, 1882.521
204.3240, 1916.295
204.8061, 1942.989
205.2883, 1952.599
205.7704, 1967.531
206.2525, 1997.890
206.7346, 2036.806
207.2167, 2072.994
207.6988, 2101.598
208.1810, 2121.997
208.6631, 2130.731
209.1452, 2101.706
209.6273, 2094.376
210.1094, 2144.285
210.5915, 2219.106
211.0737, 2267.691
211.5558, 2265.564
212.0379, 2227.194
212.5200, 2180.972
213.0021, 2110.008
213.4842, 2057.353
213.9664, 2040.062
214.4485, 2041.871
214.9306, 2041.087
215.4127, 2028.776
215.8948, 2012.302
216.3769, 2008.707
216.8591, 2038.402
217.3412, 2044.775
217.8233, 1991.937
218.3054, 1925.380
218.7875, 1903.571
219.2696, 1944.268
219.7518, 2011.050
220.2339, 2042.553
220.7160, 2004.313
221.1981, 2001.115
221.6802, 2060.953
222.1623, 2144.430
222.6445, 2208.509
223.1266, 2244.674
223.6087, 2282.104
224.0908, 2362.625
224.5729, 2516.448
225.0550, 2638.797
225.5372, 2693.312
226.0193, 2741.221
226.5014, 2830.793
226.9835, 2969.003
227.4656, 3134.304
227.9477, 3304.710
228.4298, 3483.642
228.9120, 3655.971
229.3941, 3830.091
229.8762, 3992.662
230.3583, 4126.165
230.8404, 4235.046
231.3225, 4345.756
231.8047, 4483.045
232.2868, 4651.201
232.7689, 4819.608
233.2510, 4982.404
233.7331, 5149.912
234.2152, 5331.082
234.6974, 5523.402
235.1795, 5712.854
235.6616, 5887.775
236.1437, 6047.855
236.6258, 6229.561
237.1079, 6480.876
237.5901, 6702.798
238.0722, 6860.661
238.5543, 6962.793
239.0364, 7037.160
239.5185, 7106.316
240.0006, 7162.767
240.4828, 7136.786
240.9649, 7011.695
241.4470, 6823.032
241.9291, 6537.973
242.4112, 6203.324
242.8933, 5884.182
243.3755, 5614.312
243.8576, 5384.855
244.3397, 5152.240
244.8218, 4907.809
245.3039, 4668.602
245.7860, 4439.463
246.2682, 4212.651
246.7503, 3975.428
247.2324, 3721.137
247.7145, 3465.303
248.1966, 3246.092
248.6787, 3065.229
249.1609, 2924.782
249.6430, 2852.953
250.1251, 2798.029
250.6072, 2713.350
251.0893, 2590.212
251.5714, 2459.271
252.0535, 2365.783
252.5357, 2324.334
253.0178, 2280.654
253.4999, 2228.295
253.9820, 2177.900
254.4641, 2136.164
254.9462, 2103.576
255.4284, 2076.792
255.9105, 2050.429
256.3926, 2021.749
256.8747, 2001.583
257.3568, 1991.378
257.8390, 1989.057
258.3211, 2003.687
258.8032, 2028.683
259.2853, 2045.302
259.7674, 2036.064
260.2495, 2002.244
260.7317, 1970.224
261.2138, 1929.411
261.6959, 1902.354
262.1780, 1909.905
262.6601, 1933.658
263.1422, 1942.242
263.6244, 1914.162
264.1065, 1861.322
264.5886, 1823.659
265.0707, 1807.887
265.5528, 1796.620
266.0349, 1783.502
266.5170, 1769.255
266.9991, 1757.334
267.4813, 1749.729
267.9634, 1743.100
268.4455, 1735.045
268.9276, 1729.024
269.4097, 1707.543
269.8918, 1646.971
270.3740, 1576.107
270.8561, 1517.580
271.3382, 1476.584
271.8203, 1443.195
272.3024, 1408.426
272.7845, 1372.107
273.2667, 1334.998
273.7488, 1294.510
274.2309, 1255.938
274.7130, 1225.110
275.1951, 1202.253
275.6772, 1180.396
276.1594, 1158.428
276.6415, 1134.552
277.1236, 1101.070
277.6057, 1053.101
278.0878, 1001.834
278.5699, 956.9209
279.0521, 917.8301
279.5342, 883.1895
280.0163, 851.4893
280.4984, 824.5107
280.9805, 812.4111
281.4626, 820.1914
281.9448, 813.8496
282.4269, 753.3682
282.9090, 652.3760
283.3911, 574.3506
283.8732, 542.8643
284.3553, 525.4736
284.8375, 494.3701
285.3196, 451.0449
285.8017, 413.7070
286.2838, 396.9238
286.7659, 393.1758
287.2480, 370.8945
287.7302, 308.3984
288.2123, 253.4785
288.6944, 227.6924
289.1765, 223.4512
289.6586, 226.2344
290.1407, 231.5107
290.6229, 236.1719
291.1050, 233.4561
291.5871, 229.4346
292.0692, 208.0557
292.5513, 149.6299
293.0334, 80.57617
293.5156, 29.08594
293.9977, 2.426758
294.4798, 8.456055
294.9619, 15.01953
295.4440, 17.81934
295.9261, 13.63477
296.4083, 3.632813
296.8904, 22.20508
297.3725, 39.43848
297.8546, 52.07227
298.3367, 50.94727
298.8188, 24.61426
299.3010, 29.94043
299.7831, 58.95312
300.2652, 33.69727
300.7473, 14.31348
301.2294, 25.72070
301.7115, 54.68457
302.1937, 75.35156
302.6758, 71.48242
303.1579, 50.27637
303.6400, 40.87207
304.1221, 57.69531
304.6042, 63.61426
305.0864, 41.88379
305.5685, 12.81055
306.0506, 2.228516
306.5327, 3.809570
307.0148, 17.94629
307.4969, 17.99023
307.9791, 3.257813
308.4612, 12.01074
308.9433, 10.52930
309.4254, 36.46289
309.9075, 49.91699
310.3896, 50.08398
310.8718, 47.54590
311.3539, 51.04102
311.8360, 60.02344
312.3181, 69.42871
312.8002, 83.99805
313.2823, 91.29004
313.7644, 81.89160
314.2466, 60.29297
314.7287, 37.75586
315.2108, 14.87988
315.6929, 4.049805
316.1750, 9.642578
316.6571, 3.9062999E-02
317.1393, 13.10938
317.6214, 28.04590
318.1035, 40.79590
318.5856, 44.11523
319.0677, 36.54688
319.5498, 20.35547
320.0320, 11.54688
320.5141, 53.61816
320.9962, 79.21973
321.4783, 75.29980
321.9604, 54.45703
322.4425, 35.89551
322.9247, 15.56152
323.4068, 9.599609
323.8889, 31.89551
324.3710, 67.71094
324.8531, 96.95508
325.3352, 115.5000
325.8174, 132.2246
326.2995, 159.5391
326.7816, 202.4463
327.2637, 221.6719
327.7458, 201.8701
328.2279, 172.8672
328.7101, 149.7354
329.1922, 133.0645
329.6743, 117.3945
330.1564, 98.29492
330.6385, 77.40625
331.1206, 68.40918
331.6028, 83.17285
332.0849, 96.10645
332.5670, 97.05273
333.0491, 96.27832
333.5312, 110.3477
334.0133, 145.3271
334.4955, 186.6768
334.9776, 205.6309
335.4597, 190.8652
335.9418, 178.0918
336.4239, 161.1113
336.9060, 152.1523
337.3882, 167.9756
337.8703, 204.2314
338.3524, 233.5801
338.8345, 221.8008
339.3166, 169.0352
339.7987, 146.4600
340.2809, 171.8203
340.7630, 205.2930
341.2451, 230.9395
341.7272, 250.9590
342.2093, 269.5723
342.6914, 287.9092
343.1736, 306.6611
343.6557, 330.1768
344.1378, 360.9980
344.6199, 380.2129
345.1020, 363.5752
345.5841, 340.1602
346.0663, 346.9727
346.5484, 392.4189
347.0305, 449.1826
347.5126, 513.9014
347.9947, 577.1172
348.4768, 602.1396
348.9590, 570.7891
349.4411, 525.0947
349.9232, 519.9775
350.4053, 555.1992
350.8874, 581.3369
351.3695, 575.4541
351.8517, 566.0508
352.3338, 582.4102
352.8159, 624.4277
353.2980, 670.0986
353.7801, 704.1846
354.2622, 728.6436
354.7444, 755.4014
355.2265, 765.7021
355.7086, 797.7783
356.1907, 887.8320
356.6728, 999.7666
357.1549, 1070.429
357.6371, 1077.347
358.1192, 1057.281
358.6013, 1075.294
359.0834, 1150.584
359.5655, 1223.800
360.0476, 1290.077
360.5298, 1360.087
361.0119, 1448.119
361.4940, 1548.717
361.9761, 1636.944
362.4582, 1684.448
362.9403, 1695.598
363.4224, 1748.935
363.9045, 1871.347
364.3867, 1998.708
364.8688, 2109.657
365.3509, 2210.601
365.8330, 2311.288
366.3151, 2412.534
366.7972, 2514.207
367.2794, 2616.927
367.7615, 2721.559
368.2436, 2831.685
368.7257, 2952.961
369.2078, 3077.527
369.6899, 3201.895
370.1721, 3326.269
370.6542, 3437.536
371.1363, 3516.918
371.6184, 3581.950
372.1005, 3666.689
372.5826, 3776.851
373.0648, 3899.858
373.5469, 4028.545
374.0290, 4161.562
374.5111, 4291.377
374.9932, 4425.114
375.4753, 4548.135
375.9575, 4664.371
376.4396, 4765.572
376.9217, 4826.691
377.4038, 4832.795
377.8859, 4801.842
378.3680, 4776.303
378.8502, 4765.201
379.3323, 4744.434
379.8144, 4718.496
380.2965, 4679.587
380.7786, 4625.050
381.2607, 4552.485
381.7429, 4454.723
382.2250, 4320.729
382.7071, 4148.602
383.1892, 3964.520
383.6713, 3746.689
384.1534, 3538.638
384.6356, 3355.721
385.1177, 3190.738
385.5998, 3033.439
386.0819, 2881.064
386.5640, 2727.434
387.0461, 2556.326
387.5283, 2361.433
388.0104, 2180.984
388.4925, 2024.772
388.9746, 1888.523
389.4567, 1770.451
389.9388, 1670.432
390.4210, 1575.550
390.9031, 1482.604
391.3852, 1388.354
391.8673, 1277.832
392.3494, 1144.555
392.8315, 1024.444
393.3137, 954.6191
393.7958, 925.5332
394.2779, 877.0908
394.7600, 790.5566
395.2421, 699.9492
395.7242, 619.1992
396.2064, 548.6357
396.6885, 488.3799
397.1706, 438.6826
397.6527, 399.2520
398.1348, 371.1963
398.6169, 369.1689
399.0991, 350.4355
399.5812, 299.9238
400.0633, 245.3281
400.5454, 204.1182
401.0275, 177.5186
401.5096, 157.9688
401.9918, 138.9619
402.4739, 121.4248
402.9560, 115.7363
403.4381, 140.5840
403.9202, 149.4658
404.4023, 119.4453
404.8845, 74.76367
405.3666, 40.54980
405.8487, 24.41992
406.3308, 20.28320
406.8129, 23.85645
407.2950, 34.87012
407.7772, 44.88379
408.2593, 54.67188
408.7414, 59.90723
409.2235, 54.17871
409.7056, 40.16797
410.1877, 30.02734
410.6699, 35.03613
411.1520, 41.70508
411.6341, 30.57422
412.1162, 3.599609
412.5983, 16.73242
413.0804, 18.63770
413.5625, 6.073242
414.0446, 10.18359
414.5268, 31.80078
415.0089, 53.47461
415.4910, 76.69727
415.9731, 98.31738
416.4552, 112.7637
416.9373, 120.2266
417.4195, 128.8760
417.9016, 148.0020
418.3837, 178.9453
418.8658, 202.5693
419.3479, 216.2725
419.8300, 225.2686
420.3122, 221.2334
420.7943, 216.2188
421.2764, 228.1572
421.7585, 265.2275
422.2406, 315.3799
422.7227, 365.4062
423.2049, 419.0986
423.6870, 445.5791
424.1691, 411.5576
424.6512, 376.4004
425.1333, 385.0811
425.6154, 432.4795
426.0976, 482.6963
426.5797, 516.5361
427.0618, 544.0488
427.5439, 577.1387
428.0260, 616.1973
428.5081, 670.1279
428.9903, 752.1855
429.4724, 847.5391
429.9545, 912.1055
430.4366, 924.6387
430.9187, 949.5781
431.4008, 1019.920
431.8830, 1104.099
432.3651, 1159.958
432.8472, 1181.879
433.3293, 1199.969
433.8114, 1244.919
434.2935, 1318.720
434.7757, 1392.758
435.2578, 1465.733
435.7399, 1540.193
436.2220, 1631.574
436.7041, 1720.126
437.1862, 1773.198
437.6684, 1776.880
438.1505, 1764.865
438.6326, 1791.532
439.1147, 1862.126
439.5968, 1925.691
440.0789, 1980.524
440.5611, 2019.970
441.0432, 2032.954
441.5253, 2027.015
442.0074, 2027.636
442.4895, 2054.256
442.9716, 2088.349
443.4538, 2098.979
443.9359, 2088.967
444.4180, 2096.875
444.9001, 2146.001
445.3822, 2216.936
445.8643, 2264.889
446.3465, 2277.340
446.8286, 2302.480
447.3107, 2367.006
447.7928, 2435.263
448.2749, 2473.046
448.7570, 2480.337
449.2392, 2480.517
449.7213, 2497.441
450.2034, 2530.013
450.6855, 2541.400
451.1676, 2545.165
451.6497, 2505.846
452.1319, 2385.522
452.6140, 2239.774
453.0961, 2126.383
453.5782, 2058.228
454.0603, 1998.797
454.5424, 1903.071
455.0246, 1776.113
455.5067, 1681.269
455.9888, 1635.610
456.4709, 1596.888
456.9530, 1520.292
457.4352, 1431.061
457.9173, 1386.645
458.3994, 1422.533
458.8815, 1465.088
459.3636, 1456.556
459.8457, 1419.752
460.3279, 1407.707
460.8100, 1439.024
461.2921, 1490.396
461.7742, 1529.643
462.2563, 1549.652
462.7384, 1578.826
463.2205, 1625.178
463.7026, 1668.963
464.1848, 1702.379
464.6669, 1729.125
465.1490, 1753.943
465.6311, 1779.604
466.1132, 1804.773
466.5953, 1818.345
467.0775, 1805.392
467.5596, 1828.544
468.0417, 1957.945
468.5238, 2073.896
469.0059, 2088.131
469.4880, 2020.488
469.9702, 1970.687
470.4523, 2010.849
470.9344, 2086.361
471.4165, 2120.182
471.8986, 2112.428
472.3807, 2072.230
472.8629, 1994.625
473.3450, 1897.775
473.8271, 1826.575
474.3092, 1788.501
474.7913, 1752.286
475.2734, 1721.509
475.7556, 1683.570
476.2377, 1620.192
476.7198, 1535.182
477.2019, 1453.064
477.6840, 1393.517
478.1661, 1351.354
478.6483, 1299.413
479.1304, 1234.578
479.6125, 1163.630
480.0946, 1083.666
480.5767, 1001.820
481.0588, 922.1133
481.5410, 846.2832
482.0231, 776.8779
482.5052, 715.5010
482.9873, 662.8711
483.4694, 621.9619
483.9515, 595.9062
484.4337, 563.6494
484.9158, 503.8594
485.3979, 435.0342
485.8800, 395.6260
486.3621, 395.7734
486.8442, 403.8135
487.3264, 419.2480
487.8085, 429.3008
488.2906, 412.0381
488.7727, 367.4678
489.2548, 323.1035
489.7369, 304.8965
490.2191, 309.8633
490.7012, 290.8135
491.1833, 202.2861
491.6654, 145.2012
492.1475, 154.5576
492.6296, 188.9160
493.1118, 210.5654
493.5939, 210.7471
494.0760, 199.1201
494.5581, 180.7627
495.0402, 157.4570
495.5223, 142.8418
496.0045, 142.1572
496.4866, 136.6934
496.9687, 112.6201
497.4508, 77.56543
497.9329, 43.94141
498.4150, 7.197266
498.8972, 16.54785
499.3793, 12.02148
499.8614, 7.778320
500.3435, 25.88770
500.8256, 38.50586
501.3077, 42.98340
501.7899, 34.74902
502.2720, 14.47266
502.7541, 6.014648
503.2362, 23.58301
503.7183, 35.98242
504.2004, 41.66699
504.6826, 37.90137
505.1647, 11.10352
505.6468, 37.29785
506.1289, 70.37500
506.6110, 33.74512
507.0931, 59.40039
507.5753, 103.6523
508.0574, 81.85059
508.5395, 52.57617
509.0216, 46.39844
509.5037, 54.17773
509.9858, 60.67285
510.4680, 66.38379
510.9501, 67.12012
511.4322, 61.73438
511.9143, 50.02344
512.3964, 27.66895
512.8785, 4.371094
513.3607, 31.99707
513.8428, 41.50977
514.3249, 35.11914
514.8070, 40.17188
515.2891, 88.01758
515.7712, 106.6953
516.2534, 58.84473
516.7355, 3.601563
517.2176, 34.09375
517.6997, 24.89941
518.1818, 2.040039
518.6639, 38.06738
519.1461, 77.11133
519.6282, 94.50195
520.1103, 88.07031
520.5924, 67.07031
521.0745, 23.71484
521.5566, 24.87207
522.0388, 45.99023
522.5209, 31.90137
523.0030, 12.63770
523.4851, 9.308594
523.9672, 27.18750
524.4493, 31.29102
524.9315, 22.99902
525.4136, 14.13770
525.8957, 13.26172
526.3778, 17.88281
526.8599, 17.90234
527.3420, 17.93945
527.8242, 4.464844
528.3063, 52.01953
528.7884, 99.03906
529.2705, 87.02246
529.7526, 24.59961
530.2347, 27.30176
530.7169, 20.93652
531.1990, 14.91797
531.6811, 25.55957
532.1632, 11.24414
532.6453, 3.584961
533.1274, 12.03613
533.6096, 12.83105
534.0917, 8.7890998E-02
534.5738, 31.97656
535.0559, 50.99902
535.5380, 42.28418
536.0201, 29.94434
536.5022, 28.92480
536.9843, 37.27637
537.4664, 49.14355
537.9485, 61.97266
538.4307, 71.83691
538.9128, 69.32520
539.3949, 50.73730
539.8770, 35.31445
540.3591, 16.60449
540.8412, 10.75488
541.3234, 40.06152
541.8055, 87.82129
542.2876, 112.1172
542.7697, 90.62598
543.2518, 54.88086
543.7339, 26.31836
544.2161, 5.769531
544.6982, 3.594727
545.1803, 0.7470700
545.6624, 10.42383
546.1445, 27.66211
546.6266, 51.77246
547.1088, 67.11914
547.5909, 69.08984
548.0730, 68.56641
548.5551, 62.50684
549.0372, 58.04297
549.5193, 65.90430
550.0015, 87.38184
550.4836, 108.8623
550.9657, 116.0010
551.4478, 110.7129
551.9299, 104.8916
552.4120, 98.41602
552.8942, 91.49512
553.3763, 77.18164
553.8584, 66.35254
554.3405, 81.43945
554.8226, 134.0830
555.3047, 176.2920
555.7869, 190.6377
556.2690, 189.4482
556.7511, 177.2988
557.2332, 160.1133
557.7153, 153.5850
558.1974, 168.9424
558.6796, 193.1455
559.1617, 180.1367
559.6438, 96.18359
560.1259, 59.85938
560.6080, 129.7910
561.0901, 211.1201
561.5723, 262.7949
562.0544, 283.9990
562.5365, 281.8193
563.0186, 243.1494
563.5007, 199.4463
563.9828, 189.8525
564.4650, 211.9756
564.9471, 244.0479
565.4292, 279.2871
565.9113, 308.0469
566.3934, 316.3945
566.8755, 301.0010
567.3577, 301.7881
567.8398, 342.5244
568.3219, 368.8682
568.8040, 351.0527
569.2861, 318.0059
569.7682, 304.9785
570.2504, 319.5996
570.7325, 340.7324
571.2146, 349.7031
571.6967, 348.9131
572.1788, 342.4424
572.6609, 325.9014
573.1431, 318.3682
573.6252, 338.3750
574.1073, 375.6396
574.5894, 401.8799
575.0715, 408.4521
575.5536, 421.9844
576.0358, 467.8369
576.5179, 504.4805
577.0000, 481.4658
577.4821, 420.1904
577.9642, 388.5547
578.4464, 424.1152
578.9285, 494.8369
579.4106, 527.3525
579.8927, 506.1504
580.3748, 506.0830
580.8569, 542.4717
581.3391, 587.9795
581.8212, 632.3887
582.3033, 674.1914
582.7854, 708.1045
583.2675, 730.5703
583.7496, 748.5508
584.2318, 769.0371
584.7139, 787.6074
585.1960, 791.8945
585.6781, 781.8291
586.1602, 772.7627
586.6423, 773.6309
587.1245, 785.5781
587.6066, 819.1025
588.0887, 901.1494
588.5708, 959.0508
589.0529, 969.8457
589.5350, 967.3965
590.0172, 974.8203
590.4993, 993.4785
590.9814, 1015.719
591.4635, 1035.771
591.9456, 1059.568
592.4277, 1102.084
592.9099, 1157.698
593.3920, 1195.093
593.8741, 1202.690
594.3562, 1194.514
594.8383, 1183.758
595.3204, 1166.888
595.8026, 1174.061
596.2847, 1236.366
596.7668, 1282.773
597.2489, 1271.477
597.7310, 1242.070
598.2131, 1249.249
598.6953, 1302.726
599.1774, 1356.637
599.6595, 1361.958
600.1416, 1331.413
600.6237, 1310.310
601.1058, 1299.211
601.5880, 1297.104
602.0701, 1306.853
602.5522, 1321.853
603.0343, 1330.446
603.5164, 1331.280
603.9985, 1334.860
604.4807, 1339.812
604.9628, 1349.523
605.4449, 1369.668
605.9270, 1395.376
606.4091, 1416.240
606.8912, 1427.989
607.3734, 1440.171
607.8555, 1474.699
608.3376, 1530.091
608.8197, 1545.488
609.3018, 1499.552
609.7839, 1461.869
610.2661, 1483.903
610.7482, 1535.011
611.2303, 1548.564
611.7124, 1504.764
612.1945, 1474.328
612.6766, 1488.479
613.1588, 1517.314
613.6409, 1540.477
614.1230, 1554.166
614.6051, 1554.724
615.0872, 1539.291
615.5693, 1516.695
616.0515, 1505.005
616.5336, 1506.112
617.0157, 1504.445
617.4978, 1493.934
617.9799, 1487.251
618.4620, 1496.093
618.9442, 1513.422
619.4263, 1525.840
619.9084, 1531.062
620.3905, 1531.690
620.8726, 1530.150
621.3547, 1523.336
621.8369, 1502.392
622.3190, 1470.443
622.8011, 1446.675
623.2832, 1445.601
623.7653, 1455.546
624.2474, 1440.787
624.7296, 1391.547
625.2117, 1351.586
625.6938, 1333.382
626.1759, 1317.685
626.6580, 1291.478
627.1401, 1258.587
627.6223, 1229.634
628.1044, 1210.331
628.5865, 1189.980
629.0686, 1157.441
629.5507, 1121.645
630.0328, 1096.682
630.5150, 1083.832
630.9971, 1076.938
631.4792, 1073.316
631.9613, 1068.924
632.4434, 1042.776
632.9255, 975.4131
633.4077, 935.5684
633.8898, 958.4697
634.3719, 986.5156
634.8539, 982.2168
635.3361, 953.3262
635.8182, 927.7412
636.3003, 915.8994
636.7824, 905.7783
637.2645, 889.0762
637.7466, 868.6436
638.2288, 846.3096
638.7109, 823.7676
639.1930, 808.9248
639.6751, 809.8613
640.1572, 823.8965
640.6393, 839.8379
641.1215, 863.8682
641.6036, 876.3955
642.0857, 868.5215
642.5678, 852.3096
643.0499, 826.8135
643.5320, 796.9482
644.0142, 780.7275
644.4963, 794.0918
644.9784, 809.6729
645.4605, 812.4727
645.9426, 803.0928
646.4247, 776.1816
646.9069, 733.9814
647.3890, 697.0898
647.8711, 681.9883
648.3532, 685.5908
648.8353, 698.3604
649.3174, 733.8779
649.7996, 742.1289
650.2817, 690.6162
650.7638, 633.9932
651.2459, 609.5479
651.7280, 608.7314
652.2101, 601.6055
652.6923, 573.8418
653.1744, 548.3613
653.6565, 541.3496
654.1386, 543.9834
654.6207, 547.1338
655.1028, 547.2998
655.5850, 535.7637
656.0671, 504.1162
656.5492, 459.9189
657.0313, 429.6260
657.5134, 418.1221
657.9955, 403.7139
658.4777, 376.7607
658.9598, 353.9854
659.4419, 352.7354
659.9240, 364.4268
660.4061, 362.9219
660.8882, 332.3369
661.3704, 305.4639
661.8525, 306.6367
662.3346, 315.4463
662.8167, 301.8213
663.2988, 267.7314
663.7809, 241.1094
664.2631, 241.8428
664.7452, 257.0205
665.2273, 252.9551
665.7094, 225.5859
666.1915, 206.5312
666.6736, 204.1035
667.1558, 202.8818
667.6379, 186.5840
668.1200, 163.9424
668.6021, 158.9971
669.0842, 191.0283
669.5663, 207.2041
670.0485, 171.5645
670.5306, 126.8828
671.0127, 115.2451
671.4948, 131.6348
671.9769, 147.1875
672.4590, 146.3174
672.9412, 138.3701
673.4233, 142.6406
673.9054, 158.5449
674.3875, 155.8164
674.8696, 126.5312
675.3517, 95.43164
675.8339, 78.46777
676.3160, 69.66992
676.7981, 51.14453
677.2802, 12.86523
677.7623, 10.00879
678.2444, 5.370117
678.7266, 9.183594
679.2087, 32.08984
679.6908, 54.25098
680.1729, 58.16797
680.6550, 36.72754
681.1371, 9.573242
681.6193, 2.817383
682.1014, 2.785156
682.5835, 2.291016
683.0656, 12.25195
683.5477, 22.06641
684.0298, 30.31543
684.5120, 34.88867
684.9941, 30.12500
685.4762, 8.005859
685.9583, 3.083008
686.4404, 34.16211
686.9225, 59.35449
687.4047, 63.45117
687.8868, 53.14160
688.3689, 35.28711
688.8510, 12.03418
689.3331, 10.59473
689.8152, 35.36523
690.2974, 53.02930
690.7795, 41.96387
691.2616, 8.357422
691.7437, 15.31055
692.2258, 17.51172
692.7079, 12.25879
693.1901, 16.31836
693.6722, 29.91992
694.1543, 45.81348
694.6364, 76.14844
695.1185, 88.90625
695.6006, 66.29688
696.0828, 32.25781
696.5649, 1.821289
697.0470, 23.16504
697.5291, 39.75391
698.0112, 37.58203
698.4933, 36.25000
698.9755, 58.99414
699.4576, 88.77148
699.9397, 94.24512
700.4218, 71.58887
700.9039, 40.68066
701.3860, 16.80566
701.8682, 1.941406
702.3503, 25.13672
702.8324, 56.77148
703.3145, 68.39551
703.7966, 44.58984
704.2787, 17.62402
704.7609, 15.20801
705.2430, 29.88086
705.7251, 34.55566
706.2072, 22.82910
706.6893, 10.07129
707.1714, 0.8662110
707.6536, 10.79883
708.1357, 24.28027
708.6178, 37.14844
709.0999, 37.74902
709.5820, 19.94238
710.0641, 4.009766
710.5463, 18.95898
711.0284, 26.52832
711.5105, 33.79883
711.9926, 41.30371
712.4747, 48.36133
712.9568, 55.41113
713.4390, 60.19141
713.9211, 57.29004
714.4032, 41.52734
714.8853, 34.79395
715.3674, 44.38965
715.8495, 54.05371
716.3317, 52.26562
716.8138, 51.13574
717.2959, 72.45605
717.7780, 118.1230
718.2601, 148.5596
718.7422, 126.6738
719.2244, 90.15527
719.7065, 79.73535
720.1886, 88.19531
720.6707, 92.90527
721.1528, 87.80371
721.6349, 84.07031
722.1171, 93.98145
722.5992, 115.0127
723.0813, 131.4521
723.5634, 146.1250
724.0455, 145.5811
724.5276, 118.6025
725.0098, 85.38379
725.4919, 55.80273
725.9740, 33.08008
726.4561, 32.79395
726.9382, 84.07910
727.4203, 120.4727
727.9025, 107.1748
728.3846, 83.19434
728.8667, 85.57031
729.3488, 109.2930
729.8309, 127.6357
730.3130, 126.8770
730.7952, 118.8389
731.2773, 120.6562
731.7594, 128.0938
732.2415, 122.7354
732.7236, 102.7666
733.2057, 83.64355
733.6878, 72.43848
734.1699, 69.29980
734.6520, 74.47656
735.1342, 88.23633
735.6163, 109.7109
736.0984, 162.4766
736.5805, 193.9463
737.0626, 166.6143
737.5447, 123.6895
738.0269, 117.9424
738.5090, 153.8057
738.9911, 180.1787
739.4732, 159.7832
739.9553, 136.9941
740.4374, 153.5020
740.9196, 190.2607
741.4017, 214.1318
741.8838, 218.0137
742.3659, 209.8174
742.8480, 191.8545
743.3301, 173.5254
743.8123, 189.6533
744.2944, 243.1768
744.7765, 271.1299
745.2586, 258.5693
745.7407, 228.0283
746.2228, 185.9971
746.7050, 141.3496
747.1871, 130.4951
747.6692, 183.2344
748.1513, 218.2344
748.6334, 219.8643
749.1155, 221.1416
749.5977, 245.7178
750.0798, 277.7139
750.5619, 285.6465
751.0440, 259.7100
751.5261, 234.6289
752.0082, 237.6143
752.4904, 253.4834
752.9725, 262.0713
753.4546, 265.1084
753.9367, 272.4062
754.4188, 287.3291
754.9009, 303.8242
755.3831, 318.1553
755.8652, 330.3574
756.3473, 328.2686
756.8294, 305.3809
757.3115, 286.8750
757.7936, 285.5322
758.2758, 286.6797
758.7579, 269.2412
759.2400, 237.3418
759.7221, 231.5684
760.2042, 267.7637
760.6863, 306.6846
761.1685, 362.0420
761.6506, 400.1074
762.1327, 378.1162
762.6148, 320.1611
763.0969, 288.0059
763.5790, 308.4785
764.0612, 338.5459
764.5433, 339.0146
765.0254, 323.8984
765.5075, 323.4014
765.9896, 333.3242
766.4717, 321.3770
766.9539, 274.0918
767.4360, 216.4697
767.9181, 178.1318
768.4002, 158.0273
768.8823, 163.4277
769.3644, 204.9600
769.8466, 242.6396
770.3287, 274.1494
770.8108, 285.7109
771.2929, 244.2939
771.7750, 158.5078
772.2571, 125.0635
772.7393, 196.4043
773.2214, 254.3066
773.7035, 273.0947
774.1856, 268.0645
774.6677, 237.3896
775.1498, 194.7832
775.6320, 171.1719
776.1141, 182.0234
776.5962, 199.8057
777.0783, 201.3232
777.5604, 192.5020
778.0425, 182.7832
778.5247, 172.2422
779.0068, 155.0996
779.4889, 128.6133
779.9710, 108.7910
780.4531, 123.0361
780.9352, 169.7031
781.4174, 185.5332
781.8995, 158.7979
782.3816, 131.7891
782.8637, 115.6680
783.3458, 110.8994
783.8279, 124.2617
784.3101, 152.4727
784.7922, 161.6982
785.2743, 138.6289
785.7564, 116.7539
786.2385, 93.06445
786.7206, 79.51367
787.2028, 89.56836
787.6849, 115.5459
788.1670, 142.2119
788.6491, 166.8633
789.1312, 176.2598
789.6133, 148.0078
790.0955, 107.6758
790.5776, 91.79688
791.0597, 93.41797
791.5418, 82.36719
792.0239, 49.02930
792.5060, 17.72754
792.9882, 17.23926
793.4703, 42.17285
793.9524, 72.30078
794.4345, 109.9639
794.9166, 121.1191
795.3987, 90.10449
795.8809, 53.44629
796.3630, 43.64258
796.8451, 55.02539
797.3272, 55.70996
797.8093, 26.59766
798.2914, 18.82520
798.7736, 61.12598
799.2557, 96.31934
799.7378, 84.43555
800.2199, 47.84375
800.7020, 30.45312
801.1841, 42.86035
801.6663, 51.61914
802.1484, 32.90430
802.6305, 14.38770
803.1126, 20.54004
803.5947, 41.12305
804.0768, 61.07520
804.5590, 75.14746
805.0411, 78.85156
805.5232, 66.36230
806.0053, 44.36816
806.4874, 17.72656
806.9695, 9.172852
807.4517, 8.044922
807.9338, 25.89941
808.4159, 54.16016
808.8980, 49.76172
809.3801, 25.74805
809.8622, 12.09863
810.3444, 8.965820
810.8265, 17.93359
811.3086, 50.56543
811.7907, 73.45215
812.2728, 66.87695
812.7549, 47.80469
813.2371, 35.88281
813.7192, 30.92480
814.2013, 36.94727
814.6834, 77.46289
815.1655, 99.56055
815.6476, 63.20996
816.1298, 19.90332
816.6119, 22.76855
817.0940, 62.26270
817.5761, 90.38770
818.0582, 84.21387
818.5403, 72.27832
819.0225, 82.81348
819.5046, 97.62500
819.9867, 84.12695
820.4688, 51.24902
820.9509, 36.66211
821.4330, 54.30762
821.9152, 78.00879
822.3973, 76.65820
822.8794, 55.96484
823.3615, 36.27637
823.8436, 17.58594
824.3257, 12.42383
824.8079, 26.98926
825.2900, 39.39355
825.7721, 28.74219
826.2542, 1.350586
826.7363, 13.54785
827.2184, 14.84277
827.7006, 5.803711
828.1827, 27.13477
828.6648, 52.86035
829.1469, 44.45410
829.6290, 25.04395
830.1111, 33.52832
830.5933, 77.82129
831.0754, 101.8848
831.5575, 75.97754
832.0396, 50.66016
832.5217, 52.64453
833.0038, 63.28711
833.4859, 61.32422
833.9680, 46.50391
834.4501, 30.40723
834.9323, 13.99316
835.4144, 9.351563
835.8965, 44.27637
836.3786, 89.20801
836.8607, 96.24121
837.3428, 68.46875
837.8250, 28.14941
838.3071, 14.08398
838.7892, 42.21191
839.2713, 26.06152
839.7534, 20.47949
840.2355, 30.23047
840.7177, 3.738281
841.1998, 13.21582
841.6819, 8.720703
842.1640, 9.666992
842.6461, 39.91602
843.1282, 75.14844
843.6104, 81.08301
844.0925, 43.14453
844.5746, 17.04980
845.0567, 5.396484
845.5388, 6.446289
846.0209, 31.00195
846.5031, 62.18750
846.9852, 68.69824
847.4673, 44.17285
847.9494, 35.58496
848.4315, 63.54395
848.9136, 89.41504
849.3958, 101.1270
849.8779, 104.5439
850.3600, 106.7031
850.8421, 106.4619
851.3242, 95.70996
851.8063, 66.76074
852.2885, 37.29590
852.7706, 15.25293
853.2527, 1.708008
853.7348, 6.8359002E-02
854.2169, 7.646484
854.6990, 22.46289
855.1812, 42.48926
855.6633, 52.69238
856.1454, 29.47070
856.6275, 7.025391
857.1096, 12.30469
857.5917, 6.863281
858.0739, 21.03223
858.5560, 25.09961
859.0381, 32.61133
859.5202, 54.35254
860.0023, 83.52832
860.4844, 106.9775
860.9666, 124.7627
861.4487, 118.8564
861.9308, 79.57617
862.4129, 59.65332
862.8950, 87.14355
863.3771, 130.7998
863.8593, 153.6514
864.3414, 154.5254
864.8235, 137.1572
865.3056, 73.73730
865.7877, 41.63086
866.2698, 80.48926
866.7520, 124.4844
867.2341, 137.3369
867.7162, 124.4844
868.1983, 102.3086
868.6804, 69.10449
869.1625, 44.55469
869.6447, 31.21289
870.1268, 29.44238
870.6089, 51.30078
871.0910, 76.86328
871.5731, 79.08008
872.0552, 60.62207
872.5374, 52.99805
873.0195, 78.63281
873.5016, 99.89355
873.9837, 74.63867
874.4658, 37.82715
874.9479, 35.88574
875.4301, 65.22852
875.9122, 99.75391
876.3943, 125.6387
876.8764, 141.9404
877.3585, 148.0605
877.8406, 147.5107
878.3228, 148.5703
878.8049, 149.7344
879.2870, 142.6445
879.7691, 126.5518
880.2512, 116.0479
880.7333, 122.7422
881.2155, 136.2393
881.6976, 131.6162
882.1797, 108.5312
882.6618, 88.61523
883.1439, 71.86816
883.6260, 65.41992
884.1082, 73.12695
884.5903, 88.13477
885.0724, 106.9785
885.5545, 129.9971
886.0366, 144.0840
886.5187, 142.4600
887.0009, 143.2705
887.4830, 157.2080
887.9651, 160.5801
888.4472, 128.8486
888.9293, 81.06348
889.4114, 59.65625
889.8936, 70.58594
890.3757, 81.89062
890.8578, 101.6240
891.3399, 109.5059
891.8220, 87.35156
892.3041, 61.02441
892.7863, 57.61133
893.2684, 72.97266
893.7505, 77.71582
894.2326, 48.61914
894.7147, 30.99219
895.1968, 56.75293
895.6790, 88.77832
896.1611, 100.4355
896.6432, 96.61230
897.1253, 91.02051
897.6074, 87.42773
898.0895, 81.15723
898.5717, 64.47461
899.0538, 50.26660
899.5359, 56.28223
900.0180, 70.80859
900.5001, 74.59277
900.9822, 68.42188
901.4644, 62.60547
901.9465, 61.79785
902.4286, 66.85938
902.9107, 85.61426
903.3928, 105.0898
903.8749, 84.18750
904.3571, 37.26074
904.8392, 26.44922
905.3213, 62.06445
905.8034, 95.72559
906.2855, 92.66504
906.7676, 70.08398
907.2498, 65.01367
907.7319, 75.16699
908.2140, 71.59570
908.6961, 51.99609
909.1782, 51.27148
909.6603, 85.24512
910.1425, 124.5068
910.6246, 137.0400
911.1067, 125.8721
911.5888, 107.3037
912.0709, 78.66699
912.5530, 57.30566
913.0352, 43.31348
913.5173, 43.44238
913.9994, 70.14062
914.4815, 100.3623
914.9636, 94.08887
915.4457, 46.81934
915.9279, 19.96387
916.4100, 25.66797
916.8921, 29.36230
917.3742, 20.23535
917.8563, 12.40234
918.3384, 21.15820
918.8206, 38.14844
919.3027, 40.04688
919.7848, 18.85938
920.2669, 4.521484
920.7490, 3.009766
921.2311, 0.6738280
921.7133, 25.04199
922.1954, 51.79199
922.6775, 57.07520
923.1596, 42.62695
923.6417, 23.41406
924.1238, 7.390625
924.6060, 21.53516
925.0881, 4.783203
925.5702, 35.11914
926.0523, 47.82910
926.5344, 46.92676
927.0165, 36.89746
927.4987, 20.43652
927.9808, 10.36816
928.4629, 20.27441
928.9450, 28.77148
929.4271, 12.34961
929.9092, 4.919922
930.3914, 13.75195
930.8734, 52.29004
931.3555, 66.17383
931.8376, 41.33301
932.3198, 6.088867
932.8019, 34.27441
933.2840, 58.79590
933.7661, 26.15527
934.2482, 29.80469
934.7303, 47.99609
935.2125, 27.77051
935.6946, 6.701172
936.1767, 3.061523
936.6588, 7.600586
937.1409, 14.13770
937.6230, 19.60059
938.1052, 14.25000
938.5873, 2.745117
939.0694, 0.6679690
939.5515, 7.184570
940.0336, 26.38184
940.5157, 60.11133
940.9979, 88.51562
941.4800, 70.75781
941.9621, 19.47266
942.4442, 26.11328
942.9263, 60.70215
943.4084, 48.32129
943.8906, 21.70508
944.3727, 83.79883
944.8548, 74.58887
945.3369, 20.37402
945.8190, 6.595703
946.3011, 7.896484
946.7833, 8.930664
947.2654, 11.80273
947.7475, 14.63672
948.2296, 17.75781
948.7117, 12.30176
949.1938, 18.42383
949.6760, 63.74707
950.1581, 48.53711
950.6402, 37.95215
951.1223, 80.15723
951.6044, 56.17480
952.0865, 24.81348
952.5687, 14.96973
953.0508, 17.10742
953.5329, 19.24805
954.0150, 21.68164
954.4971, 24.90625
954.9792, 32.41406
955.4614, 27.20996
955.9435, 0.5419920
956.4256, 25.25879
956.9077, 36.30469
957.3898, 37.99121
957.8719, 42.05762
958.3541, 51.11816
958.8362, 40.38867
959.3183, 10.97266
959.8004, 36.41797
960.2825, 7.568359
960.7646, 31.08105
961.2468, 51.43359
961.7289, 55.31738
962.2110, 46.05859
962.6931, 16.90234
963.1752, 1.292969
963.6573, 15.67090
964.1395, 9.796875
964.6216, 44.31934
965.1037, 97.82422
965.5858, 102.3379
966.0679, 71.53223
966.5500, 60.54980
967.0322, 87.64258
967.5143, 95.09473
967.9964, 54.88379
968.4785, 27.86328
968.9606, 51.16016
969.4427, 82.59180
969.9249, 76.23926
970.4070, 40.13184
970.8891, 21.38281
971.3712, 36.27734
971.8533, 45.92578
972.3354, 34.90723
972.8176, 30.38086
973.2997, 51.30273
973.7818, 79.01758
974.2639, 94.45410
974.7460, 97.51855
975.2281, 98.61426
975.7103, 98.53125
976.1924, 98.75293
976.6745, 92.75000
977.1566, 94.18652
977.6387, 115.6162
978.1208, 144.8926
978.6030, 164.2676
979.0851, 174.5322
979.5672, 195.9512
980.0493, 257.0000
980.5314, 291.6270
981.0135, 249.0605
981.4957, 208.3457
981.9778, 224.8311
982.4599, 272.0840
982.9420, 314.5381
983.4241, 345.5869
983.9063, 365.5508
984.3884, 364.5566
984.8705, 366.4062
985.3526, 381.4355
985.8347, 399.3770
986.3168, 417.5361
986.7990, 432.0684
987.2811, 427.9180
987.7632, 405.6006
988.2453, 416.5645
988.7274, 508.1416
989.2095, 595.3379
989.6917, 642.6504
990.1738, 671.6484
990.6559, 683.2627
991.1380, 694.4336
991.6201, 740.0801
992.1022, 824.2461
992.5844, 894.0508
993.0665, 902.6768
993.5486, 926.5146
994.0307, 1019.533
994.5128, 1127.031
994.9949, 1201.651
995.4771, 1253.843
995.9592, 1307.227
996.4413, 1366.983
996.9234, 1442.855
997.4055, 1542.812
997.8876, 1656.195
998.3698, 1776.605
998.8519, 1908.926
999.3340, 2061.992
999.8161, 2229.466
1000.298, 2396.039
1000.780, 2558.640
1001.262, 2733.998
1001.745, 2938.146
1002.227, 3147.232
1002.709, 3345.575
1003.191, 3548.765
1003.673, 3774.535
1004.155, 4014.586
1004.637, 4242.009
1005.119, 4452.382
1005.602, 4678.322
1006.084, 4948.291
1006.566, 5220.917
1007.048, 5480.701
1007.530, 5728.692
1008.012, 5974.165
1008.494, 6204.428
1008.976, 6403.581
1009.458, 6570.873
1009.941, 6706.354
1010.423, 6809.715
1010.905, 6878.140
1011.387, 6918.396
1011.869, 6916.762
1012.351, 6849.445
1012.833, 6736.060
1013.315, 6614.678
1013.797, 6493.132
1014.280, 6349.056
1014.762, 6164.985
1015.244, 5968.176
1015.726, 5762.571
1016.208, 5555.101
1016.690, 5340.975
1017.172, 5133.521
1017.654, 4956.856
1018.137, 4816.915
1018.619, 4692.790
1019.101, 4557.023
1019.583, 4463.382
1020.065, 4433.001
1020.547, 4451.457
1021.029, 4528.395
1021.511, 4637.074
1021.993, 4732.988
1022.476, 4811.910
1022.958, 4917.499
1023.440, 5042.538
1023.922, 5224.876
1024.404, 5505.003
1024.886, 5816.684
1025.368, 6111.299
1025.850, 6413.614
1026.333, 6769.740
1026.815, 7180.783
1027.297, 7593.291
1027.779, 8019.955
1028.261, 8417.145
1028.743, 8823.771
1029.225, 9145.122
1029.707, 9353.890
1030.189, 9430.854
1030.672, 9354.014
1031.154, 9122.577
1031.636, 8747.152
1032.118, 8170.955
1032.600, 7541.385
1033.082, 6831.303
1033.564, 6131.582
1034.046, 5475.419
1034.528, 4859.366
1035.011, 4258.526
1035.493, 3682.786
1035.975, 3185.577
1036.457, 2784.833
1036.939, 2440.973
1037.421, 2164.167
1037.903, 1924.989
1038.385, 1727.817
1038.868, 1551.290
1039.350, 1370.762
1039.832, 1192.020
1040.314, 1047.901
1040.796, 947.5859
1041.278, 860.9531
1041.760, 789.5078
1042.242, 729.9170
1042.724, 689.3301
1043.207, 650.5000
1043.689, 596.4473
1044.171, 533.1152
1044.653, 479.1289
1045.135, 433.5518
1045.617, 401.2422
1046.099, 385.2246
1046.581, 375.5254
1047.063, 372.2402
1047.546, 370.0215
1048.028, 366.8652
1048.510, 359.6738
1048.992, 338.1963
1049.474, 298.6094
1049.956, 287.1084
1050.438, 313.5059
1050.920, 325.5303
1051.403, 309.6904
1051.885, 289.8887
1052.367, 279.9805
1052.849, 277.8516
1053.331, 281.8320
1053.813, 290.8848
1054.295, 284.7490
1054.777, 261.4717
1055.260, 249.8809
1055.742, 253.4219
1056.224, 255.8838
1056.706, 248.6025
1057.188, 236.6191
1057.670, 226.7432
1058.152, 217.5967
1058.634, 201.7832
1059.116, 180.7617
1059.599, 173.3984
1060.081, 182.4629
1060.563, 184.0361
1061.045, 168.4648
1061.527, 159.4707
1062.009, 178.4404
1062.491, 213.6553
1062.973, 248.4746
1063.455, 272.0664
1063.938, 263.6992
1064.420, 233.6504
1064.902, 217.3467
1065.384, 226.6152
1065.866, 239.0986
1066.348, 237.2168
1066.830, 232.2998
1067.312, 242.7461
1067.795, 258.1533
1068.277, 253.7607
1068.759, 241.3809
1069.241, 258.2129
1069.723, 302.8691
1070.205, 335.0381
1070.687, 334.2461
1071.169, 322.4424
1071.651, 303.7451
1072.134, 287.9512
1072.616, 299.3115
1073.098, 315.7354
1073.580, 295.3535
1074.062, 248.3984
1074.544, 220.1777
1075.026, 226.0098
1075.508, 243.6084
1075.990, 278.2236
1076.473, 304.3057
1076.955, 296.3105
1077.437, 273.2119
1077.919, 246.1035
1078.401, 224.8975
1078.883, 231.2852
1079.365, 267.7949
1079.847, 285.1328
1080.329, 239.7051
1080.812, 211.6709
1081.294, 246.5801
1081.776, 281.8857
1082.258, 276.3340
1082.740, 251.4834
1083.222, 236.3408
1083.704, 233.8438
1084.186, 231.3691
1084.669, 221.5166
1085.151, 222.0146
1085.633, 249.5254
1086.115, 265.0732
1086.597, 250.3584
1087.079, 225.4844
1087.561, 201.2744
1088.043, 183.0195
1088.526, 189.6611
1089.008, 228.5518
1089.490, 258.1260
1089.972, 280.2285
1090.454, 284.8457
1090.936, 263.3809
1091.418, 243.8564
1091.900, 246.4492
1092.382, 256.4893
1092.865, 246.9482
1093.347, 220.8184
1093.829, 214.8496
1094.311, 230.3398
1094.793, 225.1807
1095.275, 193.3906
1095.757, 173.2183
1096.239, 181.8667
1096.721, 200.1470
1097.204, 209.1562
1097.686, 209.8613
1098.168, 200.5518
1098.650, 185.2280
1099.132, 181.8599
1099.614, 188.0796
1100.096, 185.0952
1100.578, 169.7168
1101.061, 161.5879
1101.543, 176.2910
1102.025, 190.0361
1102.507, 165.0532
1102.989, 128.8701
1103.471, 121.8579
1103.953, 133.9004
1104.435, 151.5151
1104.917, 166.2061
1105.400, 158.3130
1105.882, 119.1763
1106.364, 87.89355
1106.846, 102.7046
1107.328, 117.6382
1107.810, 89.97168
1108.292, 4.353027
1108.774, 44.61035
1109.256, 65.87354
1109.739, 69.14062
1110.221, 0.5864260
1110.703, 24.81641
1111.185, 11.87451
1111.667, 2.581543
1112.149, 34.73145
1112.631, 23.33252
1113.113, 13.16650
1113.596, 11.90918
1114.078, 27.95117
1114.560, 6.588867
1115.042, 3.208008
1115.524, 24.42188
1116.006, 31.33838
1116.488, 5.696777
1116.970, 22.87988
1117.453, 36.44824
1117.935, 28.64160
1118.417, 8.125000
1118.899, 15.63525
1119.381, 2.225586
1119.863, 4.236816
1120.345, 65.78125
1120.827, 10.54980
1121.309, 9.495605
1121.792, 64.09326
1122.274, 17.90039
1122.756, 33.34570
1123.238, 73.59863
1123.720, 48.76221
1124.202, 8.239746
1124.684, 37.16211
1125.166, 44.81934
1125.648, 49.51318
1126.131, 49.30518
1126.613, 23.18506
1127.095, 22.32812
1127.577, 30.82031
1128.059, 29.59521
1128.541, 88.01758
1129.023, 77.99463
1129.505, 40.68652
1129.988, 8.658691
1130.470, 21.98926
1130.952, 69.87500
1131.434, 117.2666
1131.916, 121.3784
1132.398, 75.27002
1132.880, 23.31885
1133.362, 43.26514
1133.844, 76.36719
1134.327, 36.79590
1134.809, 10.48340
1135.291, 39.00146
1135.773, 50.38428
1136.255, 39.13770
1136.737, 12.74854
1137.219, 4.319824
1137.701, 21.29199
1138.183, 29.21045
1138.666, 22.12549
1139.148, 22.43213
1139.630, 42.98730
1140.112, 46.76807
1140.594, 2.454590
1141.076, 45.93945
1141.558, 27.08643
1142.040, 42.58838
1142.523, 64.49365
1143.005, 41.11963
1143.487, 31.78613
1143.969, 40.42773
1144.451, 48.06201
1144.933, 49.01025
1145.415, 55.46045
1145.897, 78.26562
1146.380, 101.9009
1146.862, 102.0771
1147.344, 89.60596
1147.826, 81.50732
1148.308, 76.79590
1148.790, 68.88379
1149.272, 61.30713
1149.754, 71.82861
1150.236, 105.5903
1150.719, 127.9536
1151.201, 104.2905
1151.683, 82.14795
1152.165, 84.01611
1152.647, 101.2676
1153.129, 136.4014
1153.611, 176.8105
1154.093, 208.2119
1154.575, 229.7153
1155.058, 243.3086
1155.540, 245.5073
1156.022, 249.1357
1156.504, 258.2632
1156.986, 261.2393
1157.468, 242.9976
1157.950, 241.3145
1158.432, 287.0391
1158.915, 351.4370
1159.397, 389.5498
1159.879, 403.2915
1160.361, 402.7534
1160.843, 386.8433
1161.325, 410.3403
1161.807, 476.8589
1162.289, 525.8076
1162.771, 538.9033
1163.254, 558.2324
1163.736, 616.7812
1164.218, 687.8730
1164.700, 737.3403
1165.182, 768.8276
1165.664, 781.2354
1166.146, 784.7261
1166.628, 790.4194
1167.110, 807.2148
1167.593, 859.0225
1168.075, 950.1616
1168.557, 1032.612
1169.039, 1068.292
1169.521, 1108.540
1170.003, 1181.596
1170.485, 1264.614
1170.967, 1347.613
1171.450, 1430.649
1171.932, 1518.026
1172.414, 1606.969
1172.896, 1685.433
1173.378, 1749.875
1173.860, 1817.209
1174.342, 1892.243
1174.824, 1957.226
1175.307, 2000.747
1175.789, 2054.241
1176.271, 2134.823
1176.753, 2226.586
1177.235, 2318.702
1177.717, 2404.840
1178.199, 2463.119
1178.681, 2500.707
1179.163, 2510.106
1179.646, 2494.050
1180.128, 2496.280
1180.610, 2518.825
1181.092, 2521.878
1181.574, 2485.357
1182.056, 2445.819
1182.538, 2451.997
1183.020, 2457.671
1183.502, 2401.008
1183.984, 2326.993
1184.467, 2293.072
1184.949, 2280.368
1185.431, 2247.508
1185.913, 2188.757
1186.395, 2123.048
1186.877, 2062.871
1187.359, 1990.732
1187.841, 1889.547
1188.324, 1793.742
1188.806, 1713.663
1189.288, 1637.331
1189.770, 1553.655
1190.252, 1475.179
1190.734, 1424.545
1191.216, 1393.021
1191.698, 1341.395
1192.181, 1272.747
1192.663, 1205.793
1193.145, 1139.580
1193.627, 1095.555
1194.109, 1078.685
1194.591, 1065.625
1195.073, 1043.284
1195.555, 1000.599
1196.037, 897.1802
1196.520, 784.8340
1197.002, 754.5371
1197.484, 763.3867
1197.966, 755.8022
1198.448, 725.2646
1198.930, 661.3501
1199.412, 576.5742
1199.894, 526.3799
1200.376, 536.2695
1200.859, 551.3711
1201.341, 565.5581
1201.823, 565.6284
1202.305, 537.4385
1202.787, 503.6621
1203.269, 476.4229
1203.751, 452.7515
1204.233, 433.3408
1204.716, 418.0464
1205.198, 406.2388
1205.680, 399.8335
1206.162, 378.6929
1206.644, 340.6987
1207.126, 315.5259
1207.608, 310.6060
1208.090, 304.0474
1208.573, 281.6665
1209.055, 262.0083
1209.537, 273.6655
1210.019, 296.6753
1210.501, 302.1782
1210.983, 294.2661
1211.465, 272.6660
1211.947, 245.6904
1212.429, 231.2700
1212.911, 228.6841
1213.394, 216.5088
1213.876, 183.0981
1214.358, 158.1294
1214.840, 154.0342
1215.322, 155.7109
1215.804, 166.6816
1216.286, 171.7866
1216.768, 158.0776
1217.251, 139.0083
1217.733, 132.0840
1218.215, 134.5107
1218.697, 132.0596
1219.179, 124.0405
1219.661, 127.7656
1220.143, 143.0396
1220.625, 131.2764
1221.108, 87.85986
1221.590, 56.96533
1222.072, 60.23535
1222.554, 82.76416
1223.036, 121.6221
1223.518, 152.0396
1224.000, 131.0171
1224.482, 95.69434
1224.964, 88.79883
1225.447, 99.60156
1225.929, 112.4404
1226.411, 122.6841
1226.893, 124.3696
1227.375, 114.5605
1227.857, 109.9482
1228.339, 126.7783
1228.821, 125.5762
1229.303, 83.45898
1229.786, 58.87988
1230.268, 83.37695
1230.750, 111.5889
1231.232, 100.4087
1231.714, 70.25586
1232.196, 68.49121
1232.678, 88.88525
1233.160, 92.64990
1233.643, 81.87793
1234.125, 60.48145
1234.607, 34.02539
1235.089, 21.48975
1235.571, 27.64453
1236.053, 41.60645
1236.535, 59.79248
1237.017, 73.32080
1237.500, 79.81348
1237.982, 74.48047
1238.464, 38.52393
1238.946, 4.294922
1239.428, 6.604980
1239.910, 28.02441
1240.392, 34.00439
1240.874, 25.95361
1241.356, 24.61084
1241.839, 30.74512
1242.321, 42.86865
1242.803, 63.91748
1243.285, 70.45996
1243.767, 56.15381
1244.249, 53.66895
1244.731, 81.17822
1245.213, 101.9585
1245.695, 70.94092
1246.178, 22.57178
1246.660, 10.77441
1247.142, 19.35205
1247.624, 31.59619
1248.106, 40.64355
1248.588, 33.56494
1249.070, 15.69336
1249.552, 6.020020
1250.035, 9.057617
1250.517, 15.21436
1250.999, 27.02832
1251.481, 33.59131
1251.963, 26.76367
1252.445, 26.70410
1252.927, 45.66064
1253.409, 59.88232
1253.891, 49.29346
1254.374, 29.02686
1254.856, 25.48828
1255.338, 34.24219
1255.820, 36.91797
1256.302, 34.85791
1256.784, 31.86084
1257.266, 29.52734
1257.748, 35.03125
1258.230, 46.65430
1258.713, 49.07666
1259.195, 35.13379
1259.677, 18.32080
1260.159, 7.499023
1260.641, 14.70508
1261.123, 30.79541
1261.605, 74.69189
1262.087, 77.24561
1262.570, 65.69775
1263.052, 69.15088
1263.534, 81.49072
1264.016, 86.54199
1264.498, 68.32178
1264.980, 41.36816
1265.462, 37.93408
1265.944, 27.57910
1266.427, 9.238770
1266.909, 4.984863
1267.391, 17.28809
1267.873, 17.92236
1268.355, 0.0000000E+00
##END=



