##NAMES=Richterite
##RRUFFID=R100069
##IDEAL CHEMISTRY=Na(CaNa)Mg_5_Si_8_O_22_(OH)_2_
##LOCALITY=La Ceila, near Jumilla, Murcia Province, Spain
##OWNER=RRUFF
##SOURCE=Bob Jenkins 
##DESCRIPTION=Yellow transparent bladed crystals associated with yuanfuliite R100067 and black tabular hematite
##STATUS=The identification of this mineral has been confirmed only by single crystal X-ray diffraction.
##URL=rruff.info/R100069
131.9542, 0.0000000E+00
132.4363, 0.5244750
132.9185, 4.822159
133.4006, 8.530090
133.8827, 7.173767
134.3648, 2.808563
134.8469, 0.7391660
135.3290, 5.126419
135.8112, 5.826294
136.2933, 5.663467
136.7754, 6.619965
137.2575, 4.661697
137.7396, 1.773895
138.2217, 1.985886
138.7039, 2.542343
139.1860, 1.410309
139.6681, 6.486359
140.1502, 6.528259
140.6323, 0.7414090
141.1144, 5.588242
141.5966, 3.004974
142.0787, 9.574783
142.5608, 17.58345
143.0429, 19.13934
143.5250, 17.16934
144.0071, 18.37579
144.4893, 23.98869
144.9714, 30.72211
145.4535, 37.34766
145.9356, 45.38527
146.4177, 50.17953
146.8998, 49.29324
147.3820, 44.82166
147.8641, 45.76035
148.3462, 55.69670
148.8283, 67.61407
149.3104, 77.92752
149.7925, 84.62915
150.2747, 92.25027
150.7568, 101.3412
151.2389, 111.7472
151.7210, 121.6223
152.2031, 131.1592
152.6852, 139.9357
153.1674, 147.8125
153.6495, 152.6149
154.1316, 158.6923
154.6137, 166.2274
155.0958, 175.2161
155.5779, 186.8734
156.0601, 204.8717
156.5422, 224.0551
157.0243, 239.7795
157.5064, 249.0333
157.9885, 256.7956
158.4706, 263.8885
158.9528, 270.2028
159.4349, 277.4490
159.9170, 286.5819
160.3991, 296.7254
160.8812, 306.8602
161.3633, 318.3059
161.8455, 328.3693
162.3276, 336.3517
162.8097, 342.3558
163.2918, 344.8030
163.7739, 341.0960
164.2560, 332.9039
164.7382, 320.0809
165.2203, 306.4349
165.7024, 294.2350
166.1845, 283.8264
166.6666, 275.0258
167.1487, 268.4554
167.6309, 266.1185
168.1130, 266.1996
168.5951, 264.8845
169.0772, 258.8851
169.5593, 251.5475
170.0414, 245.6584
170.5236, 241.8017
171.0057, 239.1114
171.4878, 236.3421
171.9699, 234.0237
172.4520, 233.8121
172.9341, 239.7433
173.4163, 247.1475
173.8984, 250.0585
174.3805, 245.2408
174.8626, 238.9189
175.3447, 237.5013
175.8268, 240.0263
176.3090, 242.1076
176.7911, 240.7071
177.2732, 236.9112
177.7553, 232.1230
178.2374, 225.2567
178.7195, 219.1527
179.2017, 219.3575
179.6838, 225.1309
180.1659, 229.2099
180.6480, 224.0385
181.1301, 212.9333
181.6122, 203.6560
182.0944, 199.4220
182.5765, 197.4711
183.0586, 192.4132
183.5407, 184.3638
184.0228, 176.8362
184.5049, 173.8214
184.9871, 174.2103
185.4692, 174.0804
185.9513, 171.7185
186.4334, 168.2109
186.9155, 166.0477
187.3976, 165.2797
187.8798, 165.3058
188.3619, 166.4637
188.8440, 168.3721
189.3261, 168.3002
189.8082, 163.3942
190.2903, 155.8344
190.7725, 152.3864
191.2546, 153.6331
191.7367, 155.7183
192.2188, 153.1076
192.7009, 146.0873
193.1830, 141.3046
193.6652, 141.7594
194.1473, 146.7142
194.6294, 152.4045
195.1115, 159.5179
195.5936, 165.1797
196.0757, 163.7256
196.5579, 154.9749
197.0400, 148.4551
197.5221, 148.6179
198.0042, 154.9624
198.4863, 160.2078
198.9684, 164.0352
199.4506, 167.2414
199.9327, 170.4695
200.4148, 173.6919
200.8969, 176.8522
201.3790, 180.2086
201.8611, 183.7823
202.3433, 186.1245
202.8254, 186.9261
203.3075, 186.9830
203.7896, 186.9515
204.2717, 186.3202
204.7538, 188.0704
205.2360, 195.3112
205.7181, 209.3022
206.2002, 216.2286
206.6823, 213.6475
207.1644, 206.9522
207.6465, 206.5527
208.1287, 213.9516
208.6108, 222.2958
209.0929, 228.0928
209.5750, 230.3759
210.0571, 235.9720
210.5392, 246.3820
211.0214, 258.8924
211.5035, 267.5858
211.9856, 270.9916
212.4677, 273.5836
212.9498, 277.0354
213.4319, 280.7744
213.9141, 287.9793
214.3962, 300.1674
214.8783, 314.9121
215.3604, 326.1857
215.8425, 332.5731
216.3246, 339.1534
216.8067, 348.0842
217.2889, 359.1580
217.7710, 372.7359
218.2531, 390.0243
218.7352, 409.0911
219.2173, 425.9098
219.6994, 440.4155
220.1816, 453.3670
220.6637, 464.4671
221.1458, 471.5996
221.6279, 482.3922
222.1100, 497.9175
222.5921, 517.0217
223.0743, 537.1913
223.5564, 559.0756
224.0385, 580.8990
224.5206, 600.9642
225.0027, 618.0479
225.4848, 636.5239
225.9670, 656.5916
226.4491, 678.3859
226.9312, 702.5778
227.4133, 730.8149
227.8954, 757.7845
228.3775, 780.7001
228.8597, 799.6421
229.3418, 815.2830
229.8239, 826.0516
230.3060, 833.6226
230.7881, 843.3323
231.2702, 858.0207
231.7524, 870.7021
232.2345, 878.5101
232.7166, 882.3167
233.1987, 879.3499
233.6808, 868.3793
234.1629, 851.0571
234.6451, 831.3281
235.1272, 809.4105
235.6093, 785.0389
236.0914, 758.1614
236.5735, 728.9669
237.0556, 696.5875
237.5378, 658.5800
238.0199, 618.1442
238.5020, 583.8564
238.9841, 558.6881
239.4662, 534.7100
239.9483, 508.0182
240.4305, 476.1036
240.9126, 448.0140
241.3947, 424.5819
241.8768, 404.6718
242.3589, 385.7050
242.8410, 368.2587
243.3232, 350.8601
243.8053, 332.7808
244.2874, 312.7404
244.7695, 294.9823
245.2516, 279.5532
245.7337, 266.2615
246.2159, 255.1469
246.6980, 248.4507
247.1801, 240.3685
247.6622, 227.7013
248.1443, 206.8177
248.6264, 191.8196
249.1086, 185.0766
249.5907, 182.9524
250.0728, 177.8192
250.5549, 167.8389
251.0370, 157.9581
251.5191, 150.4303
252.0013, 146.8124
252.4834, 140.1843
252.9655, 128.5873
253.4476, 115.2007
253.9297, 106.1354
254.4118, 103.0799
254.8940, 101.3573
255.3761, 99.73923
255.8582, 98.68701
256.3403, 95.70529
256.8224, 90.14441
257.3046, 83.16437
257.7867, 76.78665
258.2688, 71.19312
258.7509, 65.73935
259.2330, 60.34943
259.7151, 55.07434
260.1973, 49.25189
260.6794, 42.33997
261.1615, 35.53467
261.6436, 30.73398
262.1257, 28.16669
262.6078, 27.05203
263.0900, 28.14102
263.5721, 32.09634
264.0542, 31.23618
264.5363, 23.38211
265.0184, 13.30157
265.5005, 6.973328
265.9827, 5.439240
266.4648, 4.805786
266.9469, 4.335693
267.4290, 4.052673
267.9111, 2.476013
268.3932, 1.747711
268.8754, 5.415131
269.3575, 4.219971
269.8396, 3.781921
270.3217, 10.90192
270.8038, 15.30432
271.2859, 17.32556
271.7681, 14.71863
272.2502, 5.924835
272.7323, 4.249359
273.2144, 10.84509
273.6965, 13.55182
274.1786, 14.57809
274.6608, 14.07092
275.1429, 12.21362
275.6250, 10.06186
276.1071, 7.306335
276.5892, 5.130554
277.0714, 5.337280
277.5535, 8.369843
278.0356, 9.566315
278.5177, 7.536804
278.9998, 3.024323
279.4819, 0.6487730
279.9641, 3.553680
280.4462, 4.876892
280.9283, 2.940338
281.4104, 2.407806
281.8925, 5.329468
282.3746, 3.974915
282.8568, 0.3585510
283.3389, 0.9009090
283.8210, 6.163879
284.3031, 11.26556
284.7852, 12.35803
285.2673, 9.674622
285.7495, 7.613129
286.2316, 7.097168
286.7137, 6.916443
287.1958, 3.953735
287.6779, 1.888916
288.1600, 7.322876
288.6422, 9.766693
289.1243, 9.711090
289.6064, 10.76428
290.0885, 13.57312
290.5706, 16.74509
291.0527, 17.45157
291.5349, 15.90378
292.0170, 15.15393
292.4991, 17.26645
292.9812, 21.60880
293.4633, 26.42355
293.9454, 32.08105
294.4276, 36.43506
294.9097, 34.67264
295.3918, 28.13593
295.8739, 23.94217
296.3560, 26.84467
296.8381, 34.43433
297.3203, 41.89706
297.8024, 49.30344
298.2845, 54.73712
298.7666, 54.22476
299.2487, 49.66641
299.7308, 46.90393
300.2130, 49.92850
300.6951, 55.62363
301.1772, 58.45227
301.6593, 58.41919
302.1414, 58.78720
302.6235, 62.90103
303.1057, 69.46582
303.5878, 75.81268
304.0699, 81.49918
304.5520, 86.26920
305.0341, 89.17670
305.5162, 90.46365
305.9984, 92.30673
306.4805, 97.26147
306.9626, 103.4673
307.4447, 108.3472
307.9268, 111.6445
308.4089, 112.8820
308.8911, 110.5578
309.3732, 105.4184
309.8553, 100.5533
310.3374, 98.70715
310.8195, 97.59198
311.3016, 94.82657
311.7838, 89.35611
312.2659, 83.38556
312.7480, 77.56570
313.2301, 72.34103
313.7122, 68.66797
314.1943, 70.41797
314.6765, 71.66446
315.1586, 67.19376
315.6407, 54.34741
316.1228, 42.69431
316.6049, 37.67142
317.0870, 36.77072
317.5692, 35.91895
318.0513, 33.64819
318.5334, 31.05109
319.0155, 28.64319
319.4976, 26.46982
319.9797, 24.25800
320.4619, 20.88733
320.9440, 17.76419
321.4261, 16.49673
321.9082, 19.54785
322.3903, 22.46698
322.8724, 24.54456
323.3546, 25.75513
323.8367, 24.40118
324.3188, 16.69339
324.8009, 8.174622
325.2830, 3.159698
325.7651, 6.787292
326.2473, 8.723297
326.7294, 5.201996
327.2115, 2.426697
327.6936, 5.019165
328.1757, 3.485748
328.6578, 12.85049
329.1400, 17.99783
329.6221, 14.56500
330.1042, 12.72955
330.5863, 12.65939
331.0684, 13.89417
331.5505, 15.84476
332.0327, 20.79306
332.5148, 24.06271
332.9969, 23.45102
333.4790, 16.98715
333.9611, 12.20999
334.4432, 9.795532
334.9254, 8.489288
335.4075, 6.032684
335.8896, 1.364838
336.3717, 1.903595
336.8538, 2.546509
337.3359, 0.4964600
337.8180, 2.994904
338.3001, 8.772919
338.7823, 15.03278
339.2644, 20.05359
339.7465, 24.28131
340.2286, 25.73224
340.7107, 22.44778
341.1928, 15.46985
341.6750, 14.75299
342.1571, 21.95209
342.6392, 29.36252
343.1213, 28.87753
343.6034, 20.27484
344.0855, 16.71063
344.5677, 21.83038
345.0498, 31.84143
345.5319, 37.16183
346.0140, 37.41916
346.4961, 36.09097
346.9782, 35.14142
347.4604, 34.46149
347.9425, 33.04712
348.4246, 30.21606
348.9067, 28.39700
349.3888, 32.75409
349.8709, 42.08044
350.3531, 49.65146
350.8352, 50.54477
351.3173, 47.72650
351.7994, 46.82410
352.2815, 48.10101
352.7636, 50.42532
353.2458, 52.58313
353.7279, 54.97211
354.2100, 58.47571
354.6921, 64.31680
355.1742, 70.79797
355.6563, 76.06592
356.1385, 80.20691
356.6206, 84.39688
357.1027, 89.50815
357.5848, 95.07880
358.0669, 100.5809
358.5490, 105.5213
359.0312, 110.8483
359.5133, 117.6500
359.9954, 125.4468
360.4775, 132.8408
360.9596, 139.4579
361.4417, 145.2305
361.9239, 149.5038
362.4060, 150.7559
362.8881, 154.7067
363.3702, 165.7557
363.8523, 180.4193
364.3344, 193.3608
364.8166, 203.6303
365.2987, 211.5026
365.7808, 215.9985
366.2629, 216.6505
366.7450, 218.5433
367.2271, 224.9496
367.7093, 231.7370
368.1914, 235.2748
368.6735, 231.9545
369.1556, 229.0266
369.6377, 227.7136
370.1198, 227.7991
370.6020, 227.5228
371.0841, 226.7278
371.5662, 225.7126
372.0483, 224.6853
372.5304, 223.9906
373.0125, 222.6511
373.4947, 220.8751
373.9768, 218.3810
374.4589, 214.2754
374.9410, 207.8126
375.4231, 201.2545
375.9052, 195.6553
376.3874, 191.2873
376.8695, 185.5261
377.3516, 178.1560
377.8337, 169.6550
378.3158, 159.9041
378.7979, 148.5647
379.2801, 138.3228
379.7622, 130.0992
380.2443, 123.4883
380.7264, 116.4127
381.2085, 108.9061
381.6906, 100.9016
382.1728, 91.58679
382.6549, 81.31979
383.1370, 73.18958
383.6191, 68.37756
384.1012, 64.90445
384.5833, 58.82657
385.0655, 50.29739
385.5476, 42.90897
386.0297, 40.70740
386.5118, 40.72110
386.9939, 37.62775
387.4760, 30.64725
387.9582, 23.22388
388.4403, 18.55313
388.9224, 15.77948
389.4045, 13.13971
389.8866, 9.068909
390.3687, 5.345123
390.8509, 3.382141
391.3330, 3.167999
391.8151, 4.394623
392.2972, 8.873779
392.7793, 14.19965
393.2614, 17.64841
393.7436, 18.21408
394.2257, 16.04724
394.7078, 8.977509
395.1899, 0.5992130
395.6720, 6.945953
396.1541, 6.867981
396.6363, 4.187988
397.1184, 0.1174320
397.6005, 6.162903
398.0826, 10.78973
398.5647, 11.36200
399.0468, 10.18552
399.5290, 10.46808
400.0111, 14.50040
400.4932, 18.10095
400.9753, 19.54324
401.4574, 18.74796
401.9395, 20.83582
402.4217, 29.13373
402.9038, 37.04889
403.3859, 39.43149
403.8680, 32.31479
404.3501, 29.19223
404.8322, 32.79950
405.3144, 40.20209
405.7965, 43.17337
406.2786, 40.89526
406.7607, 37.94803
407.2428, 35.71457
407.7249, 34.24530
408.2071, 33.72095
408.6892, 34.27866
409.1713, 35.47470
409.6534, 36.27798
410.1355, 36.83447
410.6176, 39.64493
411.0998, 47.48569
411.5819, 56.76227
412.0640, 57.01965
412.5461, 48.60504
413.0282, 40.50085
413.5103, 41.98782
413.9925, 48.51279
414.4746, 49.75504
414.9567, 42.41669
415.4388, 34.28442
415.9209, 34.23068
416.4030, 39.76962
416.8852, 44.71841
417.3673, 45.98593
417.8494, 45.31073
418.3315, 43.70016
418.8136, 41.21832
419.2957, 38.90558
419.7779, 36.81415
420.2600, 35.44260
420.7421, 35.26373
421.2242, 37.19708
421.7063, 39.66162
422.1884, 42.79156
422.6706, 46.20502
423.1527, 48.56030
423.6348, 48.87097
424.1169, 48.58197
424.5990, 47.81253
425.0811, 44.49872
425.5633, 45.64395
426.0454, 54.96249
426.5275, 67.32181
427.0096, 76.40259
427.4917, 80.97668
427.9738, 83.91022
428.4560, 84.99527
428.9381, 84.40967
429.4202, 86.24307
429.9023, 91.61807
430.3844, 97.29456
430.8665, 100.9247
431.3487, 102.3430
431.8308, 102.6564
432.3129, 101.4278
432.7950, 99.82513
433.2771, 100.9670
433.7592, 104.9932
434.2414, 107.9281
434.7235, 107.4122
435.2056, 104.2301
435.6877, 101.7734
436.1698, 100.1649
436.6519, 97.92746
437.1341, 92.40552
437.6162, 85.10031
438.0983, 80.13257
438.5804, 80.18338
439.0625, 80.80020
439.5446, 76.42865
440.0268, 68.09839
440.5089, 59.55426
440.9910, 51.38504
441.4731, 44.92743
441.9552, 42.25604
442.4373, 44.53677
442.9195, 45.44104
443.4016, 39.53244
443.8837, 31.15796
444.3658, 25.60425
444.8479, 28.54401
445.3300, 30.39975
445.8122, 26.45227
446.2943, 17.63885
446.7764, 12.33945
447.2585, 15.80994
447.7406, 19.98541
448.2227, 20.88016
448.7049, 17.45032
449.1870, 12.50113
449.6691, 4.004822
450.1512, 4.976593
450.6333, 9.136688
451.1154, 6.379700
451.5976, 3.341827
452.0797, 1.562622
452.5618, 0.9942630
453.0439, 1.228638
453.5260, 2.642303
454.0081, 4.454346
454.4903, 6.849915
454.9724, 9.770508
455.4545, 9.670990
455.9366, 5.175964
456.4187, 0.5692750
456.9008, 1.510651
457.3830, 1.746490
457.8651, 4.540375
458.3472, 3.891296
458.8293, 1.579651
459.3114, 1.061249
459.7935, 2.346039
460.2757, 3.585876
460.7578, 3.264709
461.2399, 1.978973
461.7220, 0.3656920
462.2041, 2.253967
462.6862, 3.731140
463.1684, 0.9630130
463.6505, 4.074554
464.1326, 6.732758
464.6147, 2.541779
465.0968, 2.343933
465.5789, 4.167999
466.0611, 2.042389
466.5432, 1.796448
467.0253, 7.528656
467.5074, 14.03732
467.9895, 16.93073
468.4716, 11.60214
468.9538, 8.260742
469.4359, 7.976044
469.9180, 10.10586
470.4001, 12.91003
470.8822, 17.28876
471.3643, 20.70346
471.8465, 21.81049
472.3286, 20.31995
472.8107, 19.93600
473.2928, 21.25693
473.7749, 22.26776
474.2570, 20.09714
474.7392, 14.77914
475.2213, 10.51782
475.7034, 8.482849
476.1855, 7.707153
476.6676, 5.317841
477.1497, 1.696716
477.6319, 0.4947510
478.1140, 6.703247
478.5961, 15.84897
479.0782, 20.06052
479.5603, 18.57742
480.0424, 15.55878
480.5246, 13.88907
481.0067, 12.93008
481.4888, 11.76175
481.9709, 9.762421
482.4530, 7.838318
482.9352, 6.414246
483.4173, 5.433929
483.8994, 4.719849
484.3815, 4.066742
484.8636, 3.784576
485.3457, 4.241730
485.8279, 5.866364
486.3100, 6.665924
486.7921, 4.881561
487.2742, 3.080505
487.7563, 3.638000
488.2384, 8.404266
488.7206, 12.40799
489.2027, 15.17648
489.6848, 16.78268
490.1669, 17.30011
490.6490, 16.52341
491.1311, 15.28287
491.6133, 13.83102
492.0954, 12.17105
492.5775, 10.42123
493.0596, 8.246460
493.5417, 7.484741
494.0238, 11.68057
494.5060, 19.54901
494.9881, 24.74814
495.4702, 24.63428
495.9523, 22.75577
496.4344, 24.83945
496.9165, 29.74539
497.3987, 33.18292
497.8808, 31.14301
498.3629, 27.48715
498.8450, 25.92358
499.3271, 26.77576
499.8092, 28.21390
500.2914, 30.63474
500.7735, 32.50204
501.2556, 32.36465
501.7377, 26.63138
502.2198, 22.75568
502.7019, 22.94485
503.1841, 26.18552
503.6662, 29.69315
504.1483, 35.40521
504.6304, 39.06039
505.1125, 38.34311
505.5946, 32.61124
506.0768, 31.21075
506.5589, 36.46207
507.0410, 42.63275
507.5231, 44.46649
508.0052, 40.66101
508.4873, 38.65723
508.9695, 40.13766
509.4516, 43.53873
509.9337, 45.95041
510.4158, 47.34409
510.8979, 48.56802
511.3800, 50.43222
511.8622, 52.15802
512.3443, 50.91708
512.8264, 46.90674
513.3085, 44.62720
513.7906, 49.15787
514.2728, 57.14966
514.7549, 63.90009
515.2370, 68.30054
515.7191, 71.53012
516.2012, 73.93875
516.6833, 76.10898
517.1655, 78.70572
517.6476, 84.11444
518.1297, 87.64996
518.6118, 86.68463
519.0939, 81.74094
519.5760, 78.32846
520.0582, 77.08591
520.5403, 77.46475
521.0224, 79.60693
521.5045, 84.54138
521.9866, 87.13174
522.4688, 86.41943
522.9509, 85.26544
523.4330, 87.48297
523.9151, 93.78436
524.3972, 99.42926
524.8793, 103.7449
525.3615, 106.4719
525.8436, 106.4786
526.3257, 103.7945
526.8078, 100.8175
527.2899, 99.10037
527.7720, 98.05746
528.2542, 96.50497
528.7363, 94.41260
529.2184, 91.61197
529.7005, 86.75214
530.1826, 81.51593
530.6647, 78.39371
531.1469, 79.36765
531.6290, 80.48645
532.1111, 78.87250
532.5932, 75.87848
533.0753, 74.26874
533.5574, 76.59656
534.0396, 78.72891
534.5217, 78.74170
535.0038, 76.36172
535.4859, 75.55350
535.9680, 77.88034
536.4501, 80.45514
536.9323, 81.79333
537.4144, 82.03561
537.8965, 80.17429
538.3786, 74.77307
538.8607, 69.17892
539.3428, 69.61926
539.8250, 76.68103
540.3071, 81.69193
540.7892, 81.48557
541.2713, 78.18494
541.7534, 77.09958
542.2355, 78.00024
542.7177, 78.48572
543.1998, 75.64020
543.6819, 71.93326
544.1640, 71.87344
544.6461, 75.95554
545.1282, 79.66925
545.6104, 80.18286
546.0925, 78.48557
546.5746, 75.43890
547.0567, 68.83463
547.5388, 64.34540
548.0209, 65.55167
548.5031, 70.19330
548.9852, 73.30182
549.4673, 72.18750
549.9494, 71.49078
550.4315, 72.51126
550.9136, 75.25446
551.3958, 77.64001
551.8779, 79.50266
552.3600, 81.37445
552.8421, 84.04044
553.3242, 87.88229
553.8063, 88.70410
554.2885, 85.50058
554.7706, 81.57397
555.2527, 82.66519
555.7348, 87.68433
556.2169, 89.39346
556.6990, 83.97089
557.1812, 76.33105
557.6633, 73.45303
558.1454, 74.47324
558.6275, 76.11761
559.1096, 77.06906
559.5917, 77.55292
560.0739, 77.76343
560.5560, 77.65863
561.0381, 76.89993
561.5202, 73.50690
562.0023, 70.56085
562.4844, 70.58279
562.9666, 78.34357
563.4487, 82.27292
563.9308, 79.13486
564.4129, 72.96875
564.8950, 70.20300
565.3771, 73.06009
565.8593, 74.23163
566.3414, 71.52783
566.8235, 66.08862
567.3056, 62.81097
567.7877, 61.62839
568.2698, 61.82077
568.7520, 64.18143
569.2341, 67.77618
569.7162, 67.97827
570.1983, 64.48511
570.6804, 61.40677
571.1625, 63.89539
571.6447, 69.01056
572.1268, 71.79254
572.6089, 69.97177
573.0910, 67.85492
573.5731, 68.99646
574.0552, 71.61768
574.5374, 72.61191
575.0195, 68.34171
575.5016, 64.90829
575.9837, 64.81006
576.4658, 67.84509
576.9479, 70.44342
577.4301, 72.77081
577.9122, 74.19357
578.3943, 73.81906
578.8764, 70.74466
579.3585, 71.59409
579.8406, 78.06277
580.3228, 84.95468
580.8049, 86.25308
581.2870, 82.10236
581.7691, 79.56448
582.2512, 80.08795
582.7333, 82.53046
583.2155, 85.45612
583.6976, 88.67178
584.1797, 91.72485
584.6617, 94.71469
585.1439, 97.17010
585.6260, 97.98859
586.1081, 97.61270
586.5902, 98.28403
587.0723, 102.9155
587.5544, 107.4247
588.0366, 109.1911
588.5187, 107.1289
589.0008, 105.8508
589.4829, 107.3425
589.9650, 108.8515
590.4471, 108.2827
590.9293, 104.8708
591.4114, 101.0368
591.8935, 96.58194
592.3756, 92.12695
592.8577, 88.86240
593.3398, 86.86722
593.8220, 85.31543
594.3041, 84.58096
594.7862, 83.64102
595.2683, 79.42340
595.7504, 72.37720
596.2325, 65.52472
596.7147, 60.47064
597.1968, 56.82339
597.6789, 54.66437
598.1610, 54.03156
598.6431, 52.54410
599.1252, 47.91556
599.6074, 42.45914
600.0895, 38.11340
600.5716, 36.21628
601.0537, 33.70227
601.5358, 29.41510
602.0179, 24.56891
602.5001, 20.74994
602.9822, 18.38510
603.4643, 16.27020
603.9464, 14.25415
604.4285, 12.31250
604.9106, 10.19534
605.3928, 7.856720
605.8749, 5.871552
606.3570, 4.443604
606.8391, 3.596985
607.3212, 3.770020
607.8033, 4.904449
608.2855, 5.634857
608.7676, 3.992065
609.2497, 1.707123
609.7318, 1.227295
610.2139, 3.252533
610.6960, 5.384460
611.1782, 6.013885
611.6603, 6.190643
612.1424, 7.041870
612.6245, 10.59357
613.1066, 12.67349
613.5887, 12.15396
614.0709, 9.953613
614.5530, 7.768951
615.0351, 5.609283
615.5172, 3.525665
615.9993, 1.509125
616.4814, 0.4263610
616.9636, 2.516052
617.4457, 4.854462
617.9278, 6.245453
618.4099, 5.111267
618.8920, 2.501099
619.3741, 1.418762
619.8563, 1.977173
620.3384, 2.816406
620.8205, 3.035553
621.3026, 2.803650
621.7847, 2.280121
622.2668, 1.387939
622.7490, 0.4939880
623.2311, 1.089203
623.7132, 2.297791
624.1953, 1.771515
624.6774, 4.125336
625.1595, 7.517334
625.6417, 6.283661
626.1238, 2.130676
626.6059, 0.1820070
627.0880, 0.3901670
627.5701, 0.4207760
628.0522, 2.216858
628.5344, 4.709503
629.0165, 6.525513
629.4986, 7.663605
629.9807, 8.217163
630.4628, 7.983582
630.9449, 7.288269
631.4271, 6.745575
631.9092, 6.410309
632.3913, 6.022644
632.8734, 5.160248
633.3555, 4.269592
633.8376, 3.870361
634.3198, 4.551544
634.8019, 4.808868
635.2840, 4.192566
635.7661, 2.946747
636.2482, 1.263519
636.7303, 2.655609
637.2125, 3.770020
637.6946, 0.2094730
638.1767, 6.754608
638.6588, 8.472137
639.1409, 4.811737
639.6230, 0.1519780
640.1052, 4.355377
640.5873, 8.426788
641.0694, 11.15799
641.5515, 12.59842
642.0336, 12.92886
642.5157, 11.17731
642.9979, 8.991302
643.4800, 8.347809
643.9621, 9.457886
644.4442, 11.10117
644.9263, 12.70096
645.4084, 14.58340
645.8906, 17.21866
646.3727, 22.76474
646.8548, 24.97311
647.3369, 20.21619
647.8190, 14.30081
648.3011, 14.72565
648.7833, 23.92194
649.2654, 31.46222
649.7475, 35.98178
650.2296, 37.85391
650.7117, 36.77463
651.1938, 33.10065
651.6760, 31.29688
652.1581, 34.91312
652.6402, 40.08685
653.1223, 40.02588
653.6044, 36.00345
654.0865, 33.42136
654.5687, 36.17545
655.0508, 40.69958
655.5329, 44.54959
656.0150, 47.47647
656.4971, 51.86496
656.9792, 60.58667
657.4614, 68.98795
657.9435, 74.36072
658.4256, 75.59067
658.9077, 77.45493
659.3898, 79.53735
659.8719, 82.97665
660.3541, 90.06567
660.8362, 100.5902
661.3183, 108.1271
661.8004, 110.9549
662.2825, 112.6520
662.7646, 117.3955
663.2468, 124.6719
663.7289, 133.3197
664.2110, 143.6287
664.6931, 154.2791
665.1752, 163.8134
665.6573, 173.0040
666.1395, 183.8310
666.6216, 196.9430
667.1037, 211.5814
667.5858, 228.3183
668.0679, 246.9565
668.5500, 264.5663
669.0322, 280.0309
669.5143, 296.8434
669.9964, 316.9648
670.4785, 340.2202
670.9606, 363.2715
671.4427, 386.0380
671.9249, 410.1344
672.4070, 436.4644
672.8891, 465.5172
673.3712, 499.1072
673.8533, 538.1302
674.3354, 575.9179
674.8176, 606.2375
675.2997, 634.0281
675.7818, 664.0513
676.2639, 697.7673
676.7460, 734.2703
677.2281, 772.9025
677.7103, 813.6314
678.1924, 856.4698
678.6745, 902.5228
679.1566, 947.6578
679.6387, 991.9613
680.1208, 1034.506
680.6030, 1074.637
681.0851, 1111.737
681.5672, 1146.391
682.0493, 1179.770
682.5314, 1208.869
683.0135, 1228.949
683.4957, 1240.736
683.9778, 1245.347
684.4599, 1244.482
684.9420, 1235.448
685.4241, 1215.696
685.9063, 1185.520
686.3884, 1148.481
686.8705, 1105.126
687.3526, 1055.761
687.8347, 999.3278
688.3168, 934.7561
688.7990, 871.3899
689.2811, 807.7371
689.7632, 746.3905
690.2453, 690.2559
690.7274, 638.5112
691.2095, 585.0093
691.6917, 528.8181
692.1738, 475.4514
692.6559, 432.3354
693.1380, 396.9636
693.6201, 365.8583
694.1022, 339.1768
694.5844, 314.1324
695.0665, 288.0668
695.5486, 263.2351
696.0307, 242.1317
696.5128, 229.8023
696.9949, 216.9021
697.4771, 202.3349
697.9592, 186.4845
698.4413, 170.3040
698.9234, 153.0483
699.4055, 138.6660
699.8876, 128.9449
700.3698, 122.0289
700.8519, 112.8846
701.3340, 101.9924
701.8161, 92.80200
702.2982, 88.61340
702.7803, 86.05237
703.2625, 81.05234
703.7446, 74.17041
704.2267, 68.45471
704.7088, 66.44431
705.1909, 64.83102
705.6730, 62.15265
706.1552, 58.26025
706.6373, 53.17148
707.1194, 44.53171
707.6015, 38.03168
708.0836, 38.12238
708.5657, 45.33829
709.0479, 47.49777
709.5300, 44.02078
710.0121, 38.97778
710.4942, 35.17593
710.9763, 32.74115
711.4584, 32.31064
711.9406, 34.21045
712.4227, 36.16995
712.9048, 36.72198
713.3869, 36.38080
713.8690, 35.74167
714.3511, 35.47757
714.8333, 33.95392
715.3154, 29.79941
715.7975, 24.82761
716.2796, 20.77954
716.7617, 17.59653
717.2438, 15.59155
717.7260, 14.70575
718.2081, 15.21835
718.6902, 18.41684
719.1723, 23.91656
719.6544, 28.57584
720.1365, 31.71786
720.6187, 33.10892
721.1008, 31.08783
721.5829, 27.12311
722.0650, 24.61459
722.5471, 25.57407
723.0292, 27.76392
723.5114, 30.97205
723.9935, 34.75885
724.4756, 37.41727
724.9577, 38.80963
725.4398, 39.14618
725.9219, 38.23071
726.4041, 36.27963
726.8862, 34.10269
727.3683, 31.53360
727.8504, 30.49832
728.3325, 33.64725
728.8146, 38.60870
729.2968, 39.76245
729.7789, 37.49298
730.2610, 35.46829
730.7431, 35.88324
731.2252, 37.50650
731.7073, 40.38214
732.1895, 44.79797
732.6716, 46.09372
733.1537, 39.13071
733.6358, 32.75516
734.1179, 31.86481
734.6000, 37.87997
735.0822, 41.02728
735.5643, 40.88608
736.0464, 39.38293
736.5285, 37.66898
737.0106, 35.98410
737.4927, 35.71170
737.9749, 37.20178
738.4570, 37.97522
738.9391, 34.52621
739.4212, 29.79791
739.9033, 27.19489
740.3854, 27.98413
740.8676, 29.59668
741.3497, 31.71579
741.8318, 34.12939
742.3139, 36.88641
742.7960, 41.15817
743.2781, 42.50369
743.7603, 39.81732
744.2424, 35.48126
744.7245, 32.65738
745.2066, 31.27039
745.6887, 30.55545
746.1708, 30.36078
746.6530, 30.69070
747.1351, 32.18842
747.6172, 34.08316
748.0993, 35.00891
748.5814, 33.33240
749.0635, 31.91388
749.5457, 31.74097
750.0278, 32.50803
750.5099, 33.55771
750.9920, 35.07803
751.4741, 36.55368
751.9562, 38.11194
752.4384, 39.40848
752.9205, 39.14746
753.4026, 37.38724
753.8847, 36.12289
754.3668, 35.84583
754.8489, 36.81140
755.3311, 40.63953
755.8132, 46.17770
756.2953, 49.94125
756.7774, 48.49948
757.2595, 46.70996
757.7416, 47.04379
758.2238, 49.15955
758.7059, 50.73300
759.1880, 51.11871
759.6701, 51.79211
760.1522, 53.31876
760.6343, 55.48407
761.1165, 56.90717
761.5986, 57.50980
762.0807, 58.95810
762.5628, 62.79694
763.0449, 67.79401
763.5270, 72.47464
764.0092, 76.71939
764.4913, 79.45245
764.9734, 78.69177
765.4555, 77.26093
765.9376, 76.62805
766.4197, 76.81644
766.9019, 77.54184
767.3840, 79.98956
767.8661, 80.99365
768.3482, 77.83243
768.8303, 70.88690
769.3124, 72.09860
769.7946, 82.21460
770.2767, 91.24231
770.7588, 90.97098
771.2409, 85.47748
771.7230, 80.68323
772.2051, 76.92770
772.6873, 76.19910
773.1694, 83.93283
773.6515, 91.82532
774.1336, 93.32483
774.6157, 86.23242
775.0978, 83.16412
775.5800, 87.96625
776.0621, 92.93726
776.5442, 92.59622
777.0263, 86.56558
777.5084, 81.44556
777.9905, 77.36011
778.4727, 74.90805
778.9548, 75.83420
779.4369, 78.16788
779.9190, 78.53955
780.4011, 76.55908
780.8832, 73.54181
781.3654, 69.19373
781.8475, 64.94006
782.3296, 61.83047
782.8117, 60.30475
783.2938, 59.26559
783.7759, 59.48703
784.2581, 59.07480
784.7402, 55.72510
785.2223, 49.46475
785.7044, 46.27509
786.1865, 46.74826
786.6686, 47.76187
787.1508, 47.01181
787.6329, 44.74460
788.1150, 40.87994
788.5971, 35.03705
789.0792, 29.06903
789.5613, 22.58951
790.0435, 17.19238
790.5256, 14.36450
791.0077, 15.38974
791.4898, 15.90884
791.9719, 15.54745
792.4540, 14.94330
792.9362, 15.09537
793.4183, 15.85376
793.9004, 14.46945
794.3825, 10.63181
794.8646, 7.084381
795.3467, 7.280426
795.8289, 8.990875
796.3110, 8.860931
796.7931, 5.761414
797.2752, 3.258270
797.7573, 2.809540
798.2394, 3.373871
798.7216, 4.012207
799.2037, 4.518463
799.6858, 5.899841
800.1679, 8.643036
800.6500, 11.24924
801.1321, 11.74799
801.6143, 10.80356
802.0964, 11.72052
802.5785, 15.18057
803.0606, 17.68506
803.5427, 14.81064
804.0248, 10.46854
804.5070, 9.212952
804.9891, 13.31351
805.4712, 16.13617
805.9533, 14.98181
806.4354, 12.89349
806.9175, 12.15570
807.3997, 13.36197
807.8818, 14.28998
808.3639, 14.91330
808.8460, 15.17520
809.3281, 14.17999
809.8102, 12.85934
810.2924, 14.66904
810.7745, 20.63666
811.2566, 24.33142
811.7387, 18.74384
812.2208, 10.30658
812.7029, 4.673889
813.1851, 3.384216
813.6672, 3.267151
814.1493, 4.854034
814.6314, 6.658142
815.1135, 7.189636
815.5956, 6.338928
816.0778, 7.316833
816.5599, 10.50320
817.0420, 13.45886
817.5241, 13.43109
818.0062, 11.79056
818.4883, 10.89789
818.9705, 11.26456
819.4526, 10.59274
819.9347, 6.918060
820.4168, 2.444000
820.8989, 1.309479
821.3810, 4.234253
821.8632, 6.620941
822.3453, 8.570129
822.8274, 9.769836
823.3095, 10.13345
823.7916, 9.564850
824.2737, 6.896057
824.7559, 2.039337
825.2380, 2.495392
825.7201, 5.060577
826.2022, 6.022552
826.6843, 5.433167
827.1664, 3.174835
827.6486, 0.7154850
828.1307, 2.563477
828.6128, 5.077148
829.0949, 6.066101
829.5770, 5.478912
830.0591, 3.677979
830.5413, 0.4019470
831.0234, 2.446716
831.5055, 4.068085
831.9876, 4.071899
832.4697, 4.9957000E-02
832.9518, 7.837036
833.4340, 12.59650
833.9161, 6.803375
834.3982, 0.3294370
834.8803, 2.733734
835.3624, 0.4008480
835.8445, 2.316376
836.3267, 2.700043
836.8088, 2.444550
837.2909, 1.678284
837.7730, 0.5924990
838.2551, 0.4605410
838.7372, 1.229187
839.2194, 2.102509
839.7015, 2.615967
840.1836, 2.946167
840.6657, 3.534607
841.1478, 4.218750
841.6299, 3.985626
842.1121, 1.405579
842.5942, 0.9794310
843.0763, 2.658112
843.5584, 3.496613
844.0405, 2.032806
844.5226, 2.297211
845.0048, 4.867126
845.4869, 3.051636
845.9690, 1.290131
846.4511, 5.856628
846.9332, 10.00998
847.4153, 11.57040
847.8975, 6.323944
848.3796, 1.440552
848.8617, 0.6890260
849.3438, 3.143524
849.8259, 5.542877
850.3080, 8.869629
850.7902, 9.480927
851.2723, 5.353180
851.7544, 0.5389710
852.2365, 0.9191890
852.7186, 3.335510
853.2007, 7.096985
853.6829, 8.442169
854.1650, 8.698151
854.6471, 8.610474
855.1292, 8.346222
855.6113, 8.185211
856.0934, 9.237915
856.5756, 8.868500
857.0577, 5.416016
857.5398, 1.542542
858.0219, 1.847015
858.5040, 6.691040
858.9861, 8.429047
859.4683, 4.890228
859.9504, 1.271088
860.4325, 5.961975
860.9146, 14.50623
861.3967, 19.19766
861.8788, 17.22815
862.3610, 13.77133
862.8431, 7.168030
863.3252, 2.318054
863.8073, 4.216278
864.2894, 16.48328
864.7715, 24.31955
865.2537, 27.04218
865.7358, 26.86832
866.2179, 24.88782
866.7000, 21.87704
867.1821, 19.75253
867.6642, 18.68289
868.1464, 18.88846
868.6285, 22.12418
869.1106, 25.52502
869.5927, 26.73169
870.0748, 24.96518
870.5569, 23.59650
871.0391, 21.85376
871.5212, 21.99637
872.0033, 26.57697
872.4854, 34.65750
872.9675, 39.02051
873.4496, 39.83960
873.9318, 38.88495
874.4139, 34.48782
874.8960, 31.05197
875.3781, 34.29257
875.8602, 43.18961
876.3423, 48.65311
876.8245, 44.35800
877.3066, 41.30106
877.7887, 43.27991
878.2708, 48.59439
878.7529, 49.64120
879.2350, 46.31512
879.7172, 43.11920
880.1993, 41.87848
880.6814, 42.05060
881.1635, 43.80176
881.6456, 46.44757
882.1277, 48.38132
882.6099, 48.58694
883.0920, 48.52927
883.5741, 48.21222
884.0562, 47.95853
884.5383, 48.37747
885.0204, 49.59711
885.5026, 50.68311
885.9847, 51.30753
886.4668, 51.54755
886.9489, 51.53525
887.4310, 51.40714
887.9131, 51.21045
888.3953, 50.76517
888.8774, 50.98755
889.3595, 53.98315
889.8416, 56.67950
890.3237, 55.79007
890.8058, 48.92834
891.2880, 44.13318
891.7701, 42.46335
892.2522, 42.45486
892.7343, 42.20160
893.2164, 41.93607
893.6985, 43.27374
894.1807, 46.39560
894.6628, 49.21143
895.1449, 50.43741
895.6270, 50.85770
896.1091, 50.64032
896.5912, 49.68494
897.0734, 49.53088
897.5555, 50.81015
898.0376, 51.42365
898.5197, 49.96671
899.0018, 47.15652
899.4839, 45.40945
899.9661, 44.84747
900.4482, 45.29788
900.9303, 48.29657
901.4124, 50.57376
901.8945, 48.26520
902.3766, 43.09601
902.8588, 41.84439
903.3409, 48.67377
903.8230, 53.65231
904.3051, 54.55899
904.7872, 52.89185
905.2693, 51.70355
905.7515, 50.77286
906.2336, 48.57373
906.7157, 44.04230
907.1978, 40.55893
907.6799, 41.23380
908.1620, 44.32953
908.6442, 47.82974
909.1263, 52.20123
909.6084, 55.06842
910.0905, 57.13092
910.5726, 57.44333
911.0547, 52.92361
911.5369, 44.35464
912.0190, 42.75647
912.5011, 48.98422
912.9832, 55.73795
913.4653, 56.47461
913.9474, 55.26001
914.4296, 56.47723
914.9117, 60.64108
915.3938, 61.96564
915.8759, 58.21054
916.3580, 53.89194
916.8401, 49.77701
917.3223, 46.27795
917.8044, 47.57547
918.2865, 53.62976
918.7686, 58.79672
919.2507, 58.62857
919.7328, 57.28302
920.2150, 59.31314
920.6971, 63.28583
921.1792, 65.80789
921.6613, 66.64575
922.1434, 65.36890
922.6255, 60.14127
923.1077, 54.13400
923.5898, 54.07141
924.0719, 59.47830
924.5540, 61.13638
925.0361, 56.21863
925.5182, 51.30093
926.0004, 53.88577
926.4825, 59.82483
926.9646, 64.31342
927.4467, 66.48663
927.9288, 66.74045
928.4109, 63.56396
928.8931, 60.70721
929.3752, 61.63965
929.8573, 66.32901
930.3394, 69.99237
930.8215, 72.69180
931.3036, 74.06732
931.7858, 72.38531
932.2679, 69.92603
932.7500, 69.76328
933.2321, 71.64807
933.7142, 71.96680
934.1964, 67.40332
934.6785, 63.72760
935.1606, 62.94220
935.6427, 64.35620
936.1248, 65.79385
936.6069, 67.27509
937.0891, 69.61230
937.5712, 74.26346
938.0533, 77.74561
938.5354, 75.46793
939.0175, 70.28525
939.4996, 66.39453
939.9818, 65.51483
940.4639, 65.03427
940.9460, 64.71484
941.4281, 64.50354
941.9102, 64.80496
942.3923, 65.56561
942.8745, 65.38556
943.3566, 64.10092
943.8387, 61.83185
944.3208, 55.97760
944.8029, 51.16583
945.2850, 53.63092
945.7672, 63.84360
946.2493, 66.82349
946.7314, 56.65228
947.2135, 48.61032
947.6956, 49.74265
948.1777, 56.92654
948.6599, 59.03030
949.1420, 56.53885
949.6241, 52.94702
950.1062, 49.02939
950.5883, 45.54144
951.0704, 42.36536
951.5526, 40.12106
952.0347, 40.26917
952.5168, 44.78674
952.9989, 47.78342
953.4810, 48.99219
953.9631, 48.23788
954.4453, 44.19592
954.9274, 37.95380
955.4095, 33.20938
955.8916, 30.50964
956.3737, 29.09573
956.8558, 29.01984
957.3380, 29.62500
957.8201, 30.87415
958.3022, 32.86169
958.7843, 32.80533
959.2664, 30.06943
959.7485, 27.23856
960.2307, 25.43033
960.7128, 24.49585
961.1949, 24.32123
961.6770, 24.76950
962.1591, 25.35263
962.6412, 27.42371
963.1234, 27.81921
963.6055, 23.19803
964.0876, 16.87308
964.5697, 14.51550
965.0518, 17.06735
965.5339, 19.48633
966.0161, 21.38434
966.4982, 22.21915
966.9803, 20.43893
967.4624, 17.49774
967.9445, 15.99335
968.4266, 16.47849
968.9088, 16.89969
969.3909, 17.27841
969.8730, 16.53510
970.3551, 13.61078
970.8372, 8.748901
971.3193, 5.427979
971.8015, 3.647705
972.2836, 4.042511
972.7657, 9.202820
973.2478, 14.78363
973.7299, 14.46985
974.2120, 10.52484
974.6942, 8.579956
975.1763, 14.38950
975.6584, 16.49310
976.1405, 11.43341
976.6226, 4.288849
977.1047, 2.840271
977.5869, 6.513947
978.0690, 9.127808
978.5511, 9.738373
979.0332, 9.895233
979.5153, 10.52295
979.9974, 11.56686
980.4796, 13.65097
980.9617, 17.25235
981.4438, 17.14017
981.9259, 11.09137
982.4080, 5.803833
982.8901, 4.641266
983.3723, 6.308350
983.8544, 7.618103
984.3365, 8.295044
984.8186, 7.199829
985.3007, 0.1716000
985.7828, 4.790527
986.2650, 1.150696
986.7471, 6.014038
987.2292, 7.914337
987.7113, 2.735626
988.1934, 1.531921
988.6755, 4.408020
989.1577, 5.576202
989.6398, 2.793640
990.1219, 1.209717
990.6040, 0.5897520
991.0861, 5.387268
991.5682, 8.733795
992.0504, 2.207123
992.5325, 3.362457
993.0146, 2.338715
993.4967, 3.745758
993.9788, 6.300232
994.4609, 5.331451
994.9431, 3.820374
995.4252, 2.659302
995.9073, 1.978302
996.3894, 1.955017
996.8715, 2.478607
997.3536, 3.368500
997.8358, 6.060883
998.3179, 6.701263
998.8000, 4.305542
999.2821, 1.281219
999.7642, 0.3316650
1000.246, 0.8967590
1000.728, 0.8225710
1001.211, 4.870148
1001.693, 7.120117
1002.175, 1.215973
1002.657, 4.123444
1003.139, 1.630341
1003.621, 7.437317
1004.103, 12.48975
1004.585, 13.09827
1005.068, 10.71323
1005.550, 4.254700
1006.032, 2.086792
1006.514, 2.9816000E-02
1006.996, 6.839142
1007.478, 11.28412
1007.960, 10.51706
1008.442, 9.133148
1008.924, 7.791351
1009.407, 7.015594
1009.889, 7.314514
1010.371, 8.733307
1010.853, 9.781738
1011.335, 10.46777
1011.817, 11.38809
1012.299, 13.89835
1012.781, 16.04382
1013.263, 15.88928
1013.746, 13.83130
1014.228, 11.23764
1014.710, 6.437225
1015.192, 4.820770
1015.674, 8.073608
1016.156, 13.36075
1016.638, 17.22443
1017.120, 19.56830
1017.603, 19.27594
1018.085, 15.67444
1018.567, 13.75504
1019.049, 18.05527
1019.531, 23.74591
1020.013, 28.05472
1020.495, 30.91812
1020.977, 30.45657
1021.459, 26.05215
1021.942, 23.93976
1022.424, 28.86325
1022.906, 35.52017
1023.388, 36.83429
1023.870, 34.41153
1024.352, 31.39035
1024.834, 24.81894
1025.316, 23.88165
1025.799, 32.25098
1026.281, 42.21732
1026.763, 45.11530
1027.245, 42.14413
1027.727, 41.78378
1028.209, 44.40131
1028.691, 46.78674
1029.173, 45.63235
1029.656, 44.50821
1030.138, 46.32513
1030.620, 50.47284
1031.102, 53.54361
1031.584, 55.80511
1032.066, 55.25021
1032.548, 50.09808
1033.030, 45.06677
1033.512, 48.21744
1033.995, 56.08224
1034.477, 62.87894
1034.959, 67.32471
1035.441, 70.59250
1035.923, 72.22150
1036.405, 73.59155
1036.887, 75.67764
1037.369, 78.25620
1037.851, 79.52704
1038.334, 79.49646
1038.816, 78.36545
1039.298, 74.01663
1039.780, 70.85297
1040.262, 72.65063
1040.744, 77.53159
1041.226, 82.01404
1041.708, 87.22797
1042.191, 87.74734
1042.673, 82.23517
1043.155, 75.69748
1043.637, 72.19434
1044.119, 71.78070
1044.601, 74.70441
1045.083, 80.68729
1045.565, 85.35144
1046.047, 86.23096
1046.530, 86.29236
1047.012, 86.26886
1047.494, 86.53964
1047.976, 87.81812
1048.458, 89.82562
1048.940, 91.02032
1049.422, 90.95102
1049.904, 91.31180
1050.386, 92.82318
1050.869, 94.83170
1051.351, 96.72070
1051.833, 98.62015
1052.315, 99.83777
1052.797, 100.1648
1053.279, 100.9121
1053.761, 103.9758
1054.243, 107.1515
1054.726, 105.3879
1055.208, 100.6239
1055.690, 97.95575
1056.172, 100.7502
1056.654, 104.3561
1057.136, 109.3055
1057.618, 113.1812
1058.100, 111.9199
1058.583, 106.7029
1059.065, 105.2856
1059.547, 108.1854
1060.029, 111.3965
1060.511, 111.9954
1060.993, 112.0759
1061.475, 112.7786
1061.957, 113.8039
1062.439, 113.6226
1062.922, 111.7843
1063.404, 111.7474
1063.886, 114.6750
1064.368, 118.6503
1064.850, 122.2017
1065.332, 124.6203
1065.814, 124.2328
1066.296, 119.4201
1066.778, 118.1891
1067.261, 123.8161
1067.743, 128.2072
1068.225, 126.2894
1068.707, 120.4781
1069.189, 118.8822
1069.671, 120.5560
1070.153, 122.1694
1070.635, 122.3557
1071.118, 122.0549
1071.600, 120.8829
1072.082, 119.9283
1072.564, 120.3560
1073.046, 122.2435
1073.528, 125.0638
1074.010, 128.8587
1074.492, 130.8383
1074.974, 126.7843
1075.457, 121.6592
1075.939, 120.3560
1076.421, 121.9285
1076.903, 121.7789
1077.385, 118.4630
1077.867, 116.2931
1078.349, 116.2685
1078.831, 117.0128
1079.313, 116.6546
1079.796, 115.7446
1080.278, 115.2231
1080.760, 115.2189
1081.242, 115.5279
1081.724, 116.8715
1082.206, 117.5518
1082.688, 116.7884
1083.170, 115.0218
1083.652, 113.2476
1084.135, 111.6434
1084.617, 111.4709
1085.099, 114.0256
1085.581, 115.7862
1086.063, 114.0456
1086.545, 110.8844
1087.027, 108.2152
1087.509, 106.1742
1087.992, 103.4767
1088.474, 100.0226
1088.956, 97.53671
1089.438, 97.12054
1089.920, 98.15625
1090.402, 101.9520
1090.884, 106.5730
1091.366, 106.9970
1091.849, 98.18729
1092.331, 93.74576
1092.813, 96.09930
1093.295, 98.27509
1093.777, 90.76462
1094.259, 78.98233
1094.741, 74.86981
1095.223, 77.97986
1095.705, 80.30698
1096.188, 78.56680
1096.670, 75.42334
1097.152, 70.49677
1097.634, 65.72290
1098.116, 65.90469
1098.598, 69.76501
1099.080, 69.87372
1099.562, 64.83383
1100.044, 58.77454
1100.527, 53.54639
1101.009, 48.98901
1101.491, 44.63821
1101.973, 40.69080
1102.455, 39.12061
1102.937, 39.97314
1103.419, 41.68237
1103.901, 44.60425
1104.384, 45.91940
1104.866, 40.08398
1105.348, 32.38675
1105.830, 29.44870
1106.312, 33.77405
1106.794, 35.80838
1107.276, 35.03546
1107.758, 33.78116
1108.240, 33.54196
1108.723, 33.51361
1109.205, 31.95743
1109.687, 29.82227
1110.169, 28.54370
1110.651, 29.15222
1111.133, 29.50836
1111.615, 29.98392
1112.097, 29.59634
1112.579, 26.54510
1113.062, 21.90286
1113.544, 19.79059
1114.026, 20.03537
1114.508, 20.79886
1114.990, 21.58643
1115.472, 22.33493
1115.954, 23.11197
1116.436, 23.59152
1116.919, 23.45120
1117.401, 22.78647
1117.883, 19.84314
1118.365, 14.30286
1118.847, 10.14410
1119.329, 12.12204
1119.811, 15.38507
1120.293, 16.41788
1120.776, 15.48843
1121.258, 14.42236
1121.740, 13.33127
1122.222, 12.58716
1122.704, 12.32068
1123.186, 12.55765
1123.668, 14.44681
1124.150, 16.09592
1124.632, 14.96457
1125.115, 10.33838
1125.597, 6.871643
1126.079, 4.528198
1126.561, 3.810852
1127.043, 5.495514
1127.525, 7.992767
1128.007, 9.321136
1128.489, 9.381165
1128.971, 7.411194
1129.454, 0.8749080
1129.936, 0.2327270
1130.418, 8.158173
1130.900, 15.64032
1131.382, 15.22009
1131.864, 9.740356
1132.346, 7.324738
1132.828, 6.935699
1133.311, 5.557556
1133.793, 7.5438999E-02
1134.275, 3.750427
1134.757, 3.733459
1135.239, 1.865692
1135.721, 0.9233700
1136.203, 4.362366
1136.685, 6.475494
1137.167, 7.295471
1137.650, 7.330414
1138.132, 6.199951
1138.614, 5.178040
1139.096, 4.711182
1139.578, 4.714996
1140.060, 5.450989
1140.542, 6.975250
1141.024, 7.122711
1141.506, 5.696411
1141.989, 4.410706
1142.471, 5.147064
1142.953, 5.940918
1143.435, 5.011688
1143.917, 2.968781
1144.399, 1.948608
1144.881, 2.017303
1145.363, 3.362122
1145.846, 6.341522
1146.328, 8.477264
1146.810, 6.810333
1147.292, 3.401337
1147.774, 0.7152400
1148.256, 5.133270
1148.738, 6.011841
1149.220, 2.281830
1149.703, 0.8499760
1150.185, 1.666107
1150.667, 1.826843
1151.149, 4.708984
1151.631, 7.924438
1152.113, 7.588165
1152.595, 2.391449
1153.077, 0.3117680
1153.559, 0.7160030
1154.042, 2.239044
1154.524, 3.188446
1155.006, 3.619690
1155.488, 3.548920
1155.970, 3.037323
1156.452, 1.932404
1156.934, 0.7909550
1157.416, 0.6965940
1157.898, 4.578888
1158.381, 8.877075
1158.863, 8.183655
1159.345, 4.430145
1159.827, 2.683777
1160.309, 2.497894
1160.791, 2.897278
1161.273, 4.556152
1161.755, 4.881989
1162.238, 2.242188
1162.720, 0.2918400
1163.202, 8.6975001E-02
1163.684, 2.217560
1164.166, 3.254456
1164.648, 3.232361
1165.130, 3.046448
1165.612, 4.207123
1166.094, 3.773621
1166.577, 1.099487
1167.059, 6.088867
1167.541, 6.342438
1168.023, 2.491089
1168.505, 0.1059570
1168.987, 0.7275090
1169.469, 1.136871
1169.951, 1.563263
1170.433, 2.009216
1170.916, 2.894531
1171.398, 3.533905
1171.880, 2.712433
1172.362, 0.5084840
1172.844, 1.205444
1173.326, 2.251129
1173.808, 1.928650
1174.290, 2.154938
1174.773, 5.823914
1175.255, 6.979584
1175.737, 5.843781
1176.219, 1.420288
1176.701, 6.361023
1177.183, 9.251465
1177.665, 6.025330
1178.147, 1.508179
1178.630, 2.040344
1179.112, 4.046265
1179.594, 2.909790
1180.076, 2.5604000E-02
1180.558, 0.3835450
1181.040, 1.960022
1181.522, 4.344513
1182.004, 6.379181
1182.486, 7.556061
1182.969, 6.353210
1183.451, 4.967102
1183.933, 5.569702
1184.415, 7.896698
1184.897, 9.533417
1185.379, 10.26651
1185.861, 9.018738
1186.343, 4.883331
1186.825, 1.244781
1187.308, 2.585114
1187.790, 5.147217
1188.272, 4.981049
1188.754, 2.001190
1189.236, 0.2519840
1189.718, 0.2642210
1190.200, 0.8960570
1190.682, 4.527740
1191.165, 8.015167
1191.647, 8.067566
1192.129, 6.703156
1192.611, 6.091370
1193.093, 6.493408
1193.575, 8.670349
1194.057, 13.13040
1194.539, 15.13687
1195.021, 11.94421
1195.504, 7.365997
1195.986, 4.462219
1196.468, 3.402283
1196.950, 5.040955
1197.432, 10.04700
1197.914, 13.04477
1198.396, 13.88696
1198.878, 13.64633
1199.360, 12.57391
1199.843, 11.06589
1200.325, 8.426880
1200.807, 6.206635
1201.289, 7.093445
1201.771, 12.35486
1202.253, 16.12482
1202.735, 18.50464
1203.217, 18.67062
1203.700, 14.76520
1204.182, 10.11517
1204.664, 8.973053
1205.146, 9.526459
1205.628, 8.645935
1206.110, 4.917877
1206.592, 2.433258
1207.074, 1.294861
1207.557, 2.591949
1208.039, 10.48209
1208.521, 17.79141
1209.003, 14.13654
1209.485, 4.921814
1209.967, 0.1785280
1210.449, 1.979919
1210.931, 4.817657
1211.413, 8.982330
1211.896, 12.55338
1212.378, 13.89511
1212.860, 14.29901
1213.342, 15.36792
1213.824, 16.44571
1214.306, 15.95181
1214.788, 13.07730
1215.270, 11.29028
1215.752, 10.82364
1216.235, 10.42487
1216.717, 7.951721
1217.199, 6.175659
1217.681, 9.212646
1218.163, 14.78989
1218.645, 17.55609
1219.127, 16.57791
1219.609, 15.59348
1220.092, 14.68515
1220.574, 14.38571
1221.056, 15.21170
1221.538, 16.95868
1222.020, 20.38766
1222.502, 24.25903
1222.984, 25.86688
1223.466, 24.74146
1223.948, 23.53488
1224.431, 22.35812
1224.913, 19.84366
1225.395, 12.91013
1225.877, 7.062897
1226.359, 7.627991
1226.841, 12.23361
1227.323, 14.97668
1227.805, 15.75333
1228.287, 14.45367
1228.770, 10.89398
1229.252, 9.062744
1229.734, 14.88736
1230.216, 20.90445
1230.698, 21.28906
1231.180, 17.80374
1231.662, 14.61826
1232.144, 12.00723
1232.627, 12.26575
1233.109, 15.64908
1233.591, 19.25705
1234.073, 22.48883
1234.555, 23.14041
1235.037, 17.83322
1235.519, 10.80585
1236.001, 10.28574
1236.484, 16.17679
1236.966, 17.55249
1237.448, 13.42068
1237.930, 9.082916
1238.412, 8.241730
1238.894, 8.483185
1239.376, 8.607513
1239.858, 8.650330
1240.340, 9.152863
1240.823, 9.916260
1241.305, 7.407349
1241.787, 1.546631
1242.269, 0.7661440
1242.751, 10.71106
1243.233, 19.52060
1243.715, 15.96280
1244.197, 7.989380
1244.679, 9.219147
1245.162, 17.50308
1245.644, 19.74048
1246.126, 15.22504
1246.608, 11.76871
1247.090, 16.50153
1247.572, 20.23877
1248.054, 19.59482
1248.536, 16.90219
1249.019, 15.38986
1249.501, 14.71973
1249.983, 13.42825
1250.465, 11.77707
1250.947, 12.01746
1251.429, 18.22409
1251.911, 21.66757
1252.393, 19.47217
1252.875, 15.88339
1253.358, 16.90237
1253.840, 20.53400
1254.322, 22.57227
1254.804, 22.69861
1255.286, 21.59329
1255.768, 18.90805
1256.250, 17.03256
1256.732, 16.15448
1257.214, 15.50375
1257.697, 12.59525
1258.179, 9.534363
1258.661, 11.21249
1259.143, 16.85004
1259.625, 19.03506
1260.107, 14.84564
1260.589, 12.96570
1261.071, 15.18381
1261.554, 18.13724
1262.036, 18.41916
1262.518, 17.40588
1263.000, 16.73395
1263.482, 16.24295
1263.964, 14.56909
1264.446, 11.06024
1264.928, 9.297913
1265.411, 10.13776
1265.893, 11.02713
1266.375, 8.639984
1266.857, 6.299500
1267.339, 7.727997
1267.821, 11.33975
1268.303, 11.39536
1268.785, 7.343445
1269.267, 7.970703
1269.750, 14.35995
1270.232, 19.82709
1270.714, 17.93475
1271.196, 14.92383
1271.678, 15.23013
1272.160, 16.89749
1272.642, 16.26651
1273.124, 13.55469
1273.606, 12.41455
1274.089, 12.68723
1274.571, 14.02121
1275.053, 18.79318
1275.535, 21.00439
1276.017, 17.13583
1276.499, 11.28226
1276.981, 8.106415
1277.463, 7.609802
1277.946, 11.69418
1278.428, 19.37094
1278.910, 23.46527
1279.392, 16.41245
1279.874, 11.82751
1280.356, 13.18869
1280.838, 15.52338
1281.320, 12.00101
1281.802, 6.034729
1282.285, 5.724548
1282.767, 9.868835
1283.249, 11.70312
1283.731, 6.400330
1284.213, 5.439331
1284.695, 10.90616
1285.177, 16.17361
1285.659, 14.32056
1286.141, 9.602722
1286.624, 7.593201
1287.106, 7.269531
1287.588, 4.684326
1288.070, 2.218445
1288.552, 2.952576
1289.034, 3.545868
1289.516, 9.662384
1289.998, 8.455750
1290.481, 5.590179
1290.963, 5.668823
1291.445, 7.261993
1291.927, 7.486420
1292.409, 6.133667
1292.891, 7.732361
1293.373, 12.37109
1293.855, 15.48532
1294.338, 12.70740
1294.820, 10.48190
1295.302, 12.37378
1295.784, 13.67734
1296.266, 14.55325
1296.748, 17.86136
1297.230, 15.41977
1297.712, 8.882416
1298.194, 3.521088
1298.677, 1.996674
1299.159, 2.269531
1299.641, 5.355530
1300.123, 7.912354
1300.605, 5.266205
1301.087, 4.2450000E-02
1301.569, 0.8497010
1302.051, 5.046936
1302.533, 4.895599
1303.016, 0.0000000E+00
##END=



