##NAMES=Rickturnerite
##RRUFFID=R130568
##IDEAL CHEMISTRY=Pb_7_O_4_[Mg(OH)_4_](OH)Cl_3_
##LOCALITY=Merehead Quarry, Cranmore, Somerset, England, UK
##OWNER=RRUFF
##SOURCE=Rick Turner
##DESCRIPTION=Pale green fibers from the co-type specimen
##STATUS=The identification of this mineral has been confirmed by single-crystal X-ray diffraction.
##URL=rruff.info/R130568
90.26532, 0.0000000E+00
90.74744, 30.36694
91.22955, 56.63403
91.71167, 78.78040
92.19379, 97.89197
92.67590, 114.9236
93.15802, 126.9023
93.64014, 133.2776
94.12225, 138.6553
94.60437, 141.9646
95.08649, 141.5676
95.56860, 138.4177
96.05072, 132.8654
96.53284, 128.4270
97.01495, 132.2977
97.49707, 137.0656
97.97919, 136.0941
98.46130, 127.0776
98.94342, 112.8887
99.42554, 96.50232
99.90765, 80.26978
100.3898, 65.10925
100.8719, 50.31055
101.3540, 36.23816
101.8361, 23.17322
102.3182, 11.96936
102.8004, 2.620605
103.2825, 5.000122
103.7646, 9.851440
104.2467, 11.58154
104.7288, 10.77026
105.2109, 8.772949
105.6931, 6.144043
106.1752, 1.565430
106.6573, 5.605225
107.1394, 16.13318
107.6215, 27.85083
108.1036, 40.75854
108.5858, 54.80859
109.0679, 69.75403
109.5500, 85.01282
110.0321, 101.6135
110.5142, 120.0073
110.9963, 140.3041
111.4785, 162.2196
111.9606, 185.1033
112.4427, 209.0264
112.9248, 236.1777
113.4069, 266.7268
113.8890, 300.5078
114.3712, 337.7489
114.8533, 377.6108
115.3354, 421.3888
115.8175, 469.6128
116.2996, 522.9752
116.7817, 578.9913
117.2639, 638.5039
117.7460, 700.1686
118.2281, 762.2843
118.7102, 826.8665
119.1923, 890.0972
119.6744, 948.9927
120.1566, 1002.887
120.6387, 1054.548
121.1208, 1104.465
121.6029, 1153.343
122.0850, 1201.681
122.5671, 1247.842
123.0493, 1294.147
123.5314, 1342.865
124.0135, 1394.245
124.4956, 1448.387
124.9777, 1503.447
125.4598, 1560.314
125.9420, 1621.938
126.4241, 1689.607
126.9062, 1763.333
127.3883, 1842.888
127.8704, 1927.200
128.3525, 2018.894
128.8347, 2120.947
129.3168, 2233.907
129.7989, 2358.051
130.2810, 2494.341
130.7631, 2642.190
131.2452, 2804.411
131.7274, 2981.419
132.2095, 3173.304
132.6916, 3384.598
133.1737, 3619.210
133.6558, 3857.644
134.1379, 4099.841
134.6201, 4345.191
135.1022, 4553.587
135.5843, 4723.496
136.0664, 4849.881
136.5485, 4884.004
137.0306, 4820.172
137.5128, 4676.252
137.9949, 4460.851
138.4770, 4162.438
138.9591, 3838.764
139.4412, 3495.256
139.9233, 3131.406
140.4055, 2791.935
140.8876, 2474.958
141.3697, 2183.205
141.8518, 1918.948
142.3339, 1684.584
142.8160, 1474.671
143.2982, 1287.883
143.7803, 1127.669
144.2624, 984.8682
144.7445, 862.8592
145.2266, 757.5939
145.7087, 665.4462
146.1909, 587.7701
146.6730, 519.4364
147.1551, 457.8114
147.6372, 404.3281
148.1193, 359.3721
148.6014, 319.5173
149.0836, 284.9610
149.5657, 254.7461
150.0478, 230.6849
150.5299, 210.2652
151.0120, 192.2587
151.4941, 177.1366
151.9763, 164.0740
152.4584, 153.2068
152.9405, 144.4333
153.4226, 136.7850
153.9047, 129.8928
154.3868, 124.2900
154.8690, 120.2238
155.3511, 118.3731
155.8332, 117.3109
156.3153, 117.3323
156.7974, 118.3154
157.2795, 119.0631
157.7617, 118.5702
158.2438, 118.1485
158.7259, 118.7723
159.2080, 121.2473
159.6901, 124.2266
160.1722, 127.6020
160.6544, 131.2819
161.1365, 134.3265
161.6186, 136.0601
162.1007, 137.5926
162.5828, 139.9299
163.0649, 144.2064
163.5471, 148.7804
164.0292, 153.0571
164.5113, 156.9915
164.9934, 160.7327
165.4755, 164.2720
165.9576, 167.6222
166.4398, 170.8338
166.9219, 173.8823
167.4040, 176.7504
167.8861, 179.6481
168.3682, 182.6315
168.8503, 184.9351
169.3325, 186.1433
169.8146, 186.2576
170.2967, 185.4425
170.7788, 183.9218
171.2609, 181.3931
171.7430, 177.7903
172.2252, 173.1364
172.7073, 166.9873
173.1894, 158.3150
173.6715, 147.7243
174.1536, 137.0256
174.6357, 126.9094
175.1179, 116.9816
175.6000, 106.5652
176.0821, 95.61536
176.5642, 84.84344
177.0463, 74.94525
177.5284, 65.77802
178.0106, 57.11847
178.4927, 48.69861
178.9748, 40.67963
179.4569, 33.63251
179.9390, 27.57672
180.4211, 22.27655
180.9033, 17.43494
181.3854, 13.00458
181.8675, 8.952148
182.3496, 4.916199
182.8317, 1.253662
183.3138, 1.300110
183.7960, 2.331055
184.2781, 3.050110
184.7602, 5.505493
185.2423, 9.500244
185.7244, 12.95734
186.2065, 14.39496
186.6887, 14.25085
187.1708, 14.25439
187.6529, 14.65289
188.1350, 15.13922
188.6171, 15.09399
189.0992, 14.54889
189.5814, 13.85901
190.0635, 13.20905
190.5456, 12.61615
191.0277, 12.06256
191.5098, 11.59528
191.9919, 11.10559
192.4741, 10.26740
192.9562, 9.058838
193.4383, 7.846802
193.9204, 6.862732
194.4025, 6.100037
194.8846, 5.445801
195.3668, 4.967896
195.8489, 4.510742
196.3310, 3.671448
196.8131, 2.422852
197.2952, 0.9978640
197.7773, 0.4533690
198.2595, 1.932678
198.7416, 3.553650
199.2237, 5.444214
199.7058, 7.404358
200.1879, 8.741943
200.6700, 9.310120
201.1522, 9.933838
201.6343, 11.33276
202.1164, 13.62665
202.5985, 15.48767
203.0806, 16.63702
203.5627, 17.31665
204.0449, 18.27124
204.5270, 19.51068
205.0091, 20.97888
205.4912, 22.73633
205.9733, 24.85468
206.4554, 26.73315
206.9376, 28.33978
207.4197, 29.64734
207.9018, 30.43561
208.3839, 30.49670
208.8660, 30.57831
209.3481, 31.29419
209.8303, 32.80310
210.3124, 34.06244
210.7945, 34.91968
211.2766, 35.48096
211.7587, 36.17456
212.2408, 37.13434
212.7230, 37.97809
213.2051, 38.34479
213.6872, 37.97888
214.1693, 38.05444
214.6514, 38.86346
215.1335, 40.19629
215.6157, 41.08209
216.0978, 41.33392
216.5799, 41.45306
217.0620, 41.80261
217.5441, 42.53955
218.0262, 42.99304
218.5084, 42.90527
218.9905, 42.46576
219.4726, 42.70856
219.9547, 43.88934
220.4368, 45.31354
220.9189, 46.56573
221.4011, 47.62585
221.8832, 48.59668
222.3653, 49.42914
222.8474, 50.16638
223.3295, 50.98462
223.8116, 51.87463
224.2938, 52.87286
224.7759, 53.99023
225.2580, 55.18762
225.7401, 56.59607
226.2222, 58.28998
226.7043, 60.19299
227.1865, 62.00873
227.6686, 63.56201
228.1507, 65.24884
228.6328, 67.36462
229.1149, 70.27405
229.5970, 72.71832
230.0792, 74.40753
230.5613, 75.58057
231.0434, 77.09552
231.5255, 78.85950
232.0076, 81.07507
232.4897, 83.93573
232.9719, 87.87714
233.4540, 91.48328
233.9361, 94.56451
234.4182, 97.30573
234.9003, 100.3759
235.3824, 103.8450
235.8646, 107.5548
236.3467, 111.4421
236.8288, 115.5605
237.3109, 119.7206
237.7930, 123.8319
238.2751, 127.9795
238.7573, 132.2961
239.2394, 136.6154
239.7215, 141.3364
240.2036, 146.7431
240.6857, 153.2269
241.1678, 159.2007
241.6500, 164.7483
242.1321, 169.8647
242.6142, 174.4198
243.0963, 177.9183
243.5784, 181.3452
244.0605, 185.1932
244.5427, 189.7581
245.0248, 194.4218
245.5069, 199.2178
245.9890, 204.0940
246.4711, 208.8798
246.9532, 213.6530
247.4354, 218.4150
247.9175, 223.0919
248.3996, 227.6690
248.8817, 232.3127
249.3638, 236.8961
249.8459, 241.6319
250.3281, 247.0486
250.8102, 253.8278
251.2923, 260.2162
251.7744, 265.6535
252.2565, 269.9120
252.7386, 273.8863
253.2208, 277.5264
253.7029, 280.8990
254.1850, 284.2596
254.6671, 287.8677
255.1492, 291.0145
255.6313, 293.5001
256.1135, 295.2957
256.5956, 296.1951
257.0777, 296.2274
257.5598, 295.3001
258.0419, 293.1795
258.5240, 289.5718
259.0062, 285.4388
259.4883, 281.0522
259.9704, 276.5283
260.4525, 271.1569
260.9346, 264.8969
261.4167, 257.9239
261.8989, 250.3237
262.3810, 241.9205
262.8631, 233.5825
263.3452, 225.6529
263.8273, 218.0413
264.3094, 210.3479
264.7916, 202.4395
265.2737, 194.5031
265.7558, 186.4515
266.2379, 178.0819
266.7200, 170.5022
267.2021, 164.0876
267.6843, 158.7189
268.1664, 152.8177
268.6485, 146.1160
269.1306, 139.4388
269.6127, 133.5377
270.0948, 128.4967
270.5770, 123.8853
271.0591, 119.6631
271.5412, 115.8379
272.0233, 112.3972
272.5054, 109.4124
272.9875, 106.7562
273.4697, 104.4136
273.9518, 102.3998
274.4339, 100.3961
274.9160, 98.33209
275.3981, 96.28784
275.8802, 94.48792
276.3624, 93.02136
276.8445, 91.57898
277.3266, 90.00403
277.8087, 88.30469
278.2908, 86.48810
278.7729, 84.58508
279.2551, 82.54065
279.7372, 80.27338
280.2193, 77.76654
280.7014, 75.09424
281.1835, 72.27411
281.6656, 69.30676
282.1478, 66.12164
282.6299, 62.65118
283.1120, 59.09473
283.5941, 55.69592
284.0762, 52.43182
284.5583, 49.55438
285.0405, 47.44983
285.5226, 45.97705
286.0047, 43.69257
286.4868, 40.40759
286.9689, 36.88507
287.4510, 34.13641
287.9332, 32.13666
288.4153, 30.39404
288.8974, 28.79572
289.3795, 27.32318
289.8616, 25.96899
290.3438, 24.72498
290.8259, 23.64722
291.3080, 22.80664
291.7901, 22.19946
292.2722, 21.72974
292.7543, 21.32520
293.2365, 21.06689
293.7186, 21.25055
294.2007, 21.88464
294.6828, 22.58972
295.1649, 22.84747
295.6470, 22.86829
296.1292, 23.39832
296.6113, 24.87134
297.0934, 26.68311
297.5755, 27.81134
298.0576, 28.31653
298.5397, 28.79742
299.0219, 29.63708
299.5040, 30.78711
299.9861, 32.03790
300.4682, 33.15527
300.9503, 34.77173
301.4324, 38.29102
301.9146, 43.22009
302.3967, 47.60242
302.8788, 49.44220
303.3609, 50.20306
303.8430, 52.03125
304.3251, 55.37537
304.8073, 59.19269
305.2894, 62.54327
305.7715, 65.61560
306.2536, 68.95490
306.7357, 72.68420
307.2178, 76.86365
307.7000, 81.68854
308.1821, 87.23553
308.6642, 92.71875
309.1463, 97.54565
309.6284, 101.9030
310.1105, 106.1467
310.5927, 109.9391
311.0748, 113.9579
311.5569, 118.9890
312.0390, 125.0320
312.5211, 130.8217
313.0032, 134.9951
313.4854, 138.8680
313.9675, 143.8179
314.4496, 151.6368
314.9317, 159.3747
315.4138, 165.4301
315.8959, 170.0612
316.3781, 174.9432
316.8602, 180.9223
317.3423, 187.3353
317.8244, 193.6955
318.3065, 199.7861
318.7886, 205.8928
319.2708, 211.8894
319.7529, 217.9466
320.2350, 224.5242
320.7171, 232.1644
321.1992, 239.8301
321.6813, 246.9310
322.1635, 253.1614
322.6456, 259.3285
323.1277, 265.7589
323.6098, 272.3337
324.0919, 278.8163
324.5740, 285.0682
325.0562, 291.1071
325.5383, 296.8938
326.0204, 302.4256
326.5025, 307.8506
326.9846, 313.2650
327.4667, 318.4865
327.9489, 323.3924
328.4310, 328.3744
328.9131, 332.5915
329.3952, 335.8917
329.8773, 338.3300
330.3594, 340.4440
330.8416, 342.4905
331.3237, 343.9090
331.8058, 344.3111
332.2879, 343.5098
332.7700, 342.0302
333.2521, 340.0573
333.7343, 337.4547
334.2164, 333.4037
334.6985, 327.3658
335.1806, 320.8018
335.6627, 314.5721
336.1448, 309.2067
336.6270, 302.6708
337.1091, 294.5425
337.5912, 285.5114
338.0733, 276.9900
338.5554, 269.3194
339.0375, 261.4930
339.5197, 252.9958
340.0018, 243.8395
340.4839, 234.6231
340.9660, 225.4891
341.4481, 216.4760
341.9302, 207.7083
342.4124, 199.0577
342.8945, 191.2577
343.3766, 184.8297
343.8587, 179.3884
344.3408, 172.6171
344.8229, 164.3830
345.3051, 155.9790
345.7872, 148.6193
346.2693, 142.2057
346.7514, 135.7567
347.2335, 129.0120
347.7156, 122.3251
348.1978, 116.5017
348.6799, 111.5264
349.1620, 107.1511
349.6441, 103.1892
350.1262, 99.71219
350.6083, 97.35611
351.0905, 96.63437
351.5726, 95.29068
352.0547, 89.90909
352.5368, 81.56552
353.0189, 73.52341
353.5010, 67.09579
353.9832, 62.02106
354.4653, 58.39673
354.9474, 56.23108
355.4295, 54.13867
355.9116, 50.73340
356.3937, 46.72940
356.8759, 43.26074
357.3580, 40.98834
357.8401, 39.13104
358.3222, 37.33591
358.8043, 35.54605
359.2864, 33.56451
359.7686, 30.92355
360.2507, 28.21725
360.7328, 26.03220
361.2149, 24.78513
361.6970, 23.53485
362.1791, 21.74826
362.6613, 19.67163
363.1434, 17.87637
363.6255, 16.53192
364.1076, 15.51044
364.5897, 14.90961
365.0718, 15.06491
365.5540, 14.59384
366.0361, 12.78970
366.5182, 10.38971
367.0003, 8.279114
367.4824, 6.844452
367.9645, 5.422028
368.4467, 3.757324
368.9288, 1.869568
369.4109, 0.3943790
369.8930, 0.3109440
370.3751, 0.8646240
370.8572, 1.716675
371.3394, 3.291534
371.8215, 4.394440
372.3036, 4.774658
372.7857, 4.626587
373.2678, 4.655151
373.7499, 4.925903
374.2321, 5.285370
374.7142, 5.706024
375.1963, 6.281006
375.6784, 6.523956
376.1605, 6.272919
376.6426, 5.899384
377.1248, 6.142639
377.6069, 7.219330
378.0890, 7.686493
378.5711, 6.913330
379.0532, 5.068115
379.5353, 3.123199
380.0175, 0.9111940
380.4996, 0.6168210
380.9817, 8.4807999E-02
381.4638, 2.225647
381.9459, 4.006378
382.4280, 4.653992
382.9102, 4.681427
383.3923, 5.080231
383.8744, 5.809875
384.3565, 6.321381
384.8386, 6.193604
385.3207, 5.609985
385.8029, 4.787170
386.2850, 3.665466
386.7671, 2.748901
387.2492, 2.836700
387.7313, 3.537506
388.2134, 3.943054
388.6956, 3.398682
389.1777, 2.516754
389.6598, 1.780121
390.1419, 1.194092
390.6240, 0.7328490
391.1061, 0.4139400
391.5883, 0.1914370
392.0704, 1.9805999E-02
392.5525, 0.1073610
393.0346, 0.2062380
393.5167, 0.1173100
393.9988, 1.9226000E-02
394.4810, 0.1748050
394.9631, 1.223053
395.4452, 2.330688
395.9273, 3.010468
396.4094, 2.955963
396.8915, 3.275879
397.3737, 4.642731
397.8558, 6.332031
398.3379, 7.451019
398.8200, 7.248596
399.3021, 7.158081
399.7842, 7.398315
400.2664, 7.965515
400.7485, 8.822296
401.2306, 10.27942
401.7127, 11.71039
402.1948, 12.68436
402.6769, 12.91733
403.1591, 13.29095
403.6412, 13.83386
404.1233, 14.55304
404.6054, 15.55142
405.0875, 16.98898
405.5696, 18.22348
406.0518, 18.89056
406.5339, 18.97000
407.0160, 19.31693
407.4981, 19.93121
407.9802, 20.84018
408.4623, 22.26123
408.9445, 24.18689
409.4266, 25.77505
409.9087, 26.64548
410.3908, 27.18478
410.8729, 28.34760
411.3550, 30.12527
411.8372, 32.01340
412.3193, 33.55435
412.8014, 34.95599
413.2835, 36.76614
413.7656, 39.13150
414.2477, 41.62933
414.7299, 43.59598
415.2120, 45.31369
415.6941, 47.42545
416.1762, 50.59329
416.6583, 54.06143
417.1404, 57.11047
417.6226, 59.75455
418.1047, 62.42633
418.5868, 65.25732
419.0689, 68.30048
419.5510, 71.66055
420.0331, 75.53049
420.5153, 79.46753
420.9974, 83.03381
421.4795, 86.50348
421.9616, 90.45328
422.4437, 95.40750
422.9258, 100.6093
423.4080, 105.7401
423.8901, 110.7784
424.3722, 115.9392
424.8543, 121.1202
425.3364, 126.5096
425.8185, 132.2643
426.3007, 138.5226
426.7828, 145.0552
427.2649, 151.9673
427.7470, 159.1390
428.2291, 166.0564
428.7112, 172.6447
429.1934, 178.9408
429.6755, 185.0251
430.1576, 190.8029
430.6397, 196.9245
431.1218, 203.4609
431.6039, 210.1820
432.0861, 217.0594
432.5682, 224.1403
433.0503, 230.4210
433.5324, 235.3921
434.0145, 239.4391
434.4966, 243.9395
434.9788, 248.8895
435.4609, 253.4506
435.9430, 256.9608
436.4251, 259.7101
436.9072, 262.4548
437.3893, 265.5410
437.8715, 268.1721
438.3536, 269.4866
438.8357, 269.4617
439.3178, 268.2157
439.7999, 265.6214
440.2820, 262.0811
440.7642, 257.9829
441.2463, 253.2818
441.7284, 247.8167
442.2105, 241.4338
442.6926, 234.2793
443.1747, 226.4616
443.6569, 217.3932
444.1390, 208.4006
444.6211, 200.0460
445.1032, 192.0252
445.5853, 183.8680
446.0674, 175.1546
446.5496, 166.6138
447.0317, 158.5102
447.5138, 150.8359
447.9959, 143.5706
448.4780, 136.7892
448.9601, 130.3215
449.4423, 123.8338
449.9244, 117.0488
450.4065, 111.0082
450.8886, 106.0783
451.3707, 102.0082
451.8528, 97.41415
452.3350, 91.93326
452.8171, 87.06445
453.2992, 83.69864
453.7813, 81.81555
454.2634, 79.74915
454.7455, 77.43143
455.2277, 75.02795
455.7098, 72.56210
456.1919, 70.06763
456.6740, 67.72958
457.1561, 65.72183
457.6382, 63.89029
458.1204, 62.06976
458.6025, 60.24475
459.0846, 58.43146
459.5667, 56.53027
460.0488, 54.66946
460.5309, 53.00632
461.0131, 51.58783
461.4952, 50.32324
461.9773, 49.37381
462.4594, 48.50659
462.9415, 47.35632
463.4236, 45.29892
463.9058, 43.41620
464.3879, 42.18326
464.8700, 41.58286
465.3521, 41.15179
465.8342, 41.26840
466.3163, 41.15482
466.7985, 40.33447
467.2806, 38.27167
467.7627, 36.39941
468.2448, 34.65881
468.7269, 33.18118
469.2090, 32.17941
469.6912, 32.02383
470.1733, 31.63785
470.6554, 30.71140
471.1375, 29.31268
471.6196, 28.08511
472.1017, 27.05823
472.5839, 26.11554
473.0660, 25.15546
473.5481, 24.12674
474.0302, 22.94531
474.5123, 21.58728
474.9944, 20.24185
475.4766, 19.18234
475.9587, 18.39615
476.4408, 17.70190
476.9229, 17.17563
477.4050, 16.57843
477.8871, 15.36157
478.3693, 13.63092
478.8514, 12.20660
479.3335, 11.89240
479.8156, 12.18585
480.2977, 12.49792
480.7798, 12.74158
481.2620, 12.55450
481.7441, 11.42838
482.2262, 9.947144
482.7083, 8.938507
483.1904, 8.807098
483.6725, 8.992798
484.1547, 9.503693
484.6368, 10.28317
485.1189, 10.70557
485.6010, 10.34702
486.0831, 9.913269
486.5652, 9.731293
487.0474, 9.815765
487.5295, 9.918396
488.0116, 10.22388
488.4937, 10.48789
488.9758, 10.17133
489.4579, 8.814575
489.9401, 8.322784
490.4222, 9.517059
490.9043, 11.88989
491.3864, 12.99606
491.8685, 12.69843
492.3506, 12.05942
492.8328, 11.68793
493.3149, 11.57196
493.7970, 11.68954
494.2791, 12.07626
494.7612, 12.50943
495.2433, 12.57877
495.7255, 12.49255
496.2076, 12.78510
496.6897, 13.87131
497.1718, 15.21924
497.6539, 16.47354
498.1360, 17.56644
498.6182, 18.30319
499.1003, 18.12436
499.5824, 17.87308
500.0645, 18.17273
500.5466, 19.18951
501.0287, 20.31116
501.5109, 21.44855
501.9930, 22.56140
502.4751, 23.59961
502.9572, 24.73462
503.4393, 25.56799
503.9214, 25.89331
504.4036, 25.87042
504.8857, 26.07205
505.3678, 26.61456
505.8499, 27.19241
506.3320, 27.72519
506.8141, 28.22183
507.2963, 28.50766
507.7784, 28.62997
508.2605, 28.42563
508.7426, 27.62744
509.2247, 26.26825
509.7068, 24.81140
510.1890, 23.28848
510.6711, 21.80521
511.1532, 20.59137
511.6353, 19.61142
512.1174, 18.73050
512.5995, 17.99295
513.0817, 17.22964
513.5638, 16.15189
514.0459, 14.77573
514.5280, 13.50577
515.0101, 12.75967
515.4922, 12.15329
515.9744, 11.28271
516.4565, 9.723480
516.9386, 8.561523
517.4207, 8.579315
517.9028, 9.133942
518.3849, 9.175049
518.8671, 7.752045
519.3492, 6.660431
519.8313, 6.465851
520.3134, 7.083771
520.7955, 7.212463
521.2776, 6.599152
521.7598, 5.865112
522.2419, 5.406616
522.7240, 5.319397
523.2061, 4.886261
523.6882, 3.942444
524.1703, 2.969360
524.6525, 2.764496
525.1346, 3.264771
525.6167, 3.436279
526.0988, 2.904785
526.5809, 2.013184
527.0630, 1.337555
527.5452, 0.8576050
528.0273, 0.4351810
528.5094, 5.2002002E-02
528.9915, 0.5100400
529.4736, 0.9157410
529.9557, 1.275818
530.4379, 1.311096
530.9200, 0.4179690
531.4021, 0.6609500
531.8842, 1.176788
532.3663, 0.5514220
532.8484, 9.0972997E-02
533.3306, 0.5690000
533.8127, 0.8690490
534.2948, 0.9380490
534.7769, 0.4967040
535.2590, 0.1440120
535.7411, 3.3691000E-02
536.2233, 3.7475999E-02
536.7054, 0.3533020
537.1875, 1.463715
537.6696, 2.320801
538.1517, 2.068756
538.6339, 0.5729680
539.1160, 0.1974490
539.5981, 1.1444000E-02
540.0802, 0.5505070
540.5623, 0.7718810
541.0444, 0.7008970
541.5266, 0.6116940
542.0087, 0.5528870
542.4908, 0.5649410
542.9729, 0.9088440
543.4550, 1.436676
543.9371, 1.572113
544.4193, 0.5251160
544.9014, 0.7388610
545.3835, 1.331451
545.8656, 1.141357
546.3477, 1.034302
546.8298, 1.536041
547.3120, 2.166077
547.7941, 2.525421
548.2762, 2.271393
548.7583, 2.137085
549.2404, 2.291809
549.7225, 2.561523
550.2047, 2.642090
550.6868, 2.426453
551.1689, 2.228302
551.6510, 2.154755
552.1331, 2.172913
552.6152, 2.064117
553.0974, 1.820587
553.5795, 1.511658
554.0616, 0.9711910
554.5437, 0.3363650
555.0258, 0.5289310
555.5079, 1.692291
555.9901, 3.049622
556.4722, 3.903229
556.9543, 4.348602
557.4364, 4.557556
557.9185, 4.483734
558.4006, 4.343262
558.8828, 4.279327
559.3649, 4.269775
559.8470, 4.259430
560.3291, 4.133209
560.8112, 4.075592
561.2933, 4.251740
561.7755, 4.666840
562.2576, 4.856934
562.7397, 4.180328
563.2218, 3.718903
563.7039, 4.099304
564.1860, 5.928192
564.6682, 7.033783
565.1503, 7.251953
565.6324, 6.976807
566.1145, 6.642395
566.5966, 6.225464
567.0787, 5.964935
567.5609, 6.009155
568.0430, 6.141815
568.5251, 5.721252
569.0072, 4.837708
569.4893, 4.254272
569.9714, 4.637268
570.4536, 5.462738
570.9357, 6.007324
571.4178, 6.283997
571.8999, 6.483490
572.3820, 6.741394
572.8641, 7.013702
573.3463, 7.211273
573.8284, 7.175995
574.3105, 7.420563
574.7926, 8.578491
575.2747, 9.861938
575.7568, 10.27728
576.2390, 8.760345
576.7211, 7.797455
577.2032, 7.888092
577.6853, 8.689606
578.1674, 9.060638
578.6495, 8.885193
579.1317, 8.656647
579.6138, 8.550812
580.0959, 8.571014
580.5780, 8.788788
581.0601, 9.248108
581.5422, 9.620239
582.0244, 9.668549
582.5065, 9.411346
582.9886, 8.763275
583.4707, 7.599121
583.9528, 6.641846
584.4349, 6.633240
584.9171, 7.255402
585.3992, 8.018799
585.8813, 9.132294
586.3634, 9.774994
586.8455, 9.398804
587.3276, 8.349518
587.8098, 7.519867
588.2919, 6.931854
588.7740, 6.841644
589.2561, 7.535980
589.7382, 9.015167
590.2203, 9.753082
590.7025, 9.501221
591.1846, 8.876312
591.6667, 8.269714
592.1488, 7.698883
592.6309, 7.205444
593.1130, 6.772308
593.5952, 6.520233
594.0773, 6.683014
594.5594, 7.081726
595.0415, 7.250946
595.5236, 7.116760
596.0057, 6.874573
596.4879, 6.679718
596.9700, 6.506592
597.4521, 6.385498
597.9342, 6.496368
598.4163, 6.505585
598.8984, 6.158875
599.3806, 5.497894
599.8627, 4.939484
600.3448, 4.470306
600.8269, 4.192627
601.3090, 4.250519
601.7911, 4.907166
602.2733, 4.973083
602.7554, 4.055756
603.2375, 3.012939
603.7196, 2.772186
604.2017, 3.434509
604.6838, 3.853638
605.1660, 3.869263
605.6481, 3.657318
606.1302, 3.437317
606.6123, 3.223602
607.0944, 3.080322
607.5765, 3.010590
608.0587, 3.038391
608.5408, 3.273743
609.0229, 3.647308
609.5050, 3.926361
609.9871, 3.980042
610.4692, 3.902405
610.9514, 3.692413
611.4335, 3.337646
611.9156, 3.074524
612.3977, 3.003052
612.8798, 3.006744
613.3619, 3.042877
613.8441, 3.209808
614.3262, 3.117859
614.8083, 2.635345
615.2904, 2.072601
615.7725, 1.844513
616.2546, 1.971069
616.7368, 2.143127
617.2189, 2.357208
617.7010, 2.501770
618.1831, 2.327271
618.6652, 1.893127
619.1473, 1.430328
619.6295, 0.8453060
620.1116, 0.4302980
620.5937, 0.6414490
621.0758, 1.351074
621.5579, 1.931213
622.0400, 2.095520
622.5222, 2.012512
623.0043, 1.663452
623.4864, 0.9418030
623.9685, 0.5666500
624.4506, 0.9230960
624.9327, 1.380035
625.4149, 1.493591
625.8970, 1.063965
626.3791, 0.9477840
626.8612, 1.343994
627.3433, 1.766968
627.8254, 1.335907
628.3076, 0.1093140
628.7897, 0.6302190
629.2718, 0.3842160
629.7539, 0.2065120
630.2360, 0.1020200
630.7181, 0.5235600
631.2003, 1.123932
631.6824, 1.606232
632.1645, 1.812592
632.6466, 1.395111
633.1287, 0.4741210
633.6108, 0.1392520
634.0930, 0.2127690
634.5751, 0.6256410
635.0572, 0.6222230
635.5393, 9.4054997E-02
636.0214, 0.4315800
636.5035, 1.127747
636.9857, 1.603760
637.4678, 1.445374
637.9499, 0.5220950
638.4320, 8.0321997E-02
638.9141, 0.2589110
639.3962, 0.2030330
639.8784, 9.2926003E-02
640.3605, 4.9773999E-02
640.8426, 0.1599430
641.3247, 0.2618710
641.8068, 0.2406010
642.2889, 0.2897030
642.7711, 1.027100
643.2532, 1.300995
643.7353, 0.1758420
644.2174, 0.8776250
644.6995, 1.007355
645.1816, 0.3489990
645.6638, 4.3120999E-02
646.1459, 0.3408810
646.6280, 0.6543580
647.1101, 0.5431210
647.5922, 3.4026999E-02
648.0743, 0.2203370
648.5565, 0.1105650
649.0386, 0.4864810
649.5207, 0.5318300
650.0028, 0.2763670
650.4849, 0.1178280
650.9670, 0.6955870
651.4492, 1.033173
651.9313, 0.4573060
652.4134, 0.6506040
652.8955, 1.576447
653.3776, 2.182404
653.8597, 2.520264
654.3419, 2.590393
654.8240, 2.428986
655.3061, 2.087036
655.7882, 1.021393
656.2703, 0.4268490
656.7524, 0.8669740
657.2346, 1.971924
657.7167, 2.652557
658.1988, 2.766205
658.6809, 2.783356
659.1630, 2.824158
659.6451, 2.900940
660.1273, 3.120361
660.6094, 3.491608
661.0915, 3.760925
661.5736, 3.591309
662.0557, 3.254913
662.5378, 3.359436
663.0200, 3.927887
663.5021, 4.467316
663.9842, 4.662140
664.4663, 4.644653
664.9484, 4.514313
665.4305, 4.245270
665.9127, 3.998413
666.3948, 3.559052
666.8769, 3.310425
667.3590, 3.682220
667.8411, 5.216339
668.3232, 6.233246
668.8054, 6.551941
669.2875, 6.353546
669.7696, 5.755646
670.2517, 4.743744
670.7338, 4.123840
671.2159, 4.224304
671.6981, 4.724426
672.1802, 5.121918
672.6623, 5.441986
673.1444, 5.804260
673.6265, 6.421906
674.1086, 6.978821
674.5908, 7.293182
675.0729, 7.349579
675.5550, 7.119385
676.0371, 6.049347
676.5192, 5.186829
677.0013, 5.001770
677.4835, 5.532806
677.9656, 6.341095
678.4477, 7.675995
678.9298, 8.904358
679.4119, 9.432098
679.8940, 9.252869
680.3762, 9.496582
680.8583, 10.25406
681.3404, 11.08371
681.8225, 11.56253
682.3046, 11.80014
682.7867, 11.95242
683.2689, 11.95706
683.7510, 12.16824
684.2331, 12.99634
684.7152, 14.14233
685.1973, 15.19101
685.6794, 15.94263
686.1616, 16.67841
686.6437, 17.33148
687.1258, 18.08054
687.6079, 19.24225
688.0900, 21.09033
688.5721, 22.38348
689.0543, 22.68103
689.5364, 22.31937
690.0185, 22.23126
690.5006, 22.45087
690.9827, 22.91232
691.4648, 23.61716
691.9470, 24.42065
692.4291, 25.22287
692.9112, 26.04831
693.3933, 26.91974
693.8754, 27.66495
694.3575, 28.57233
694.8397, 29.91135
695.3218, 31.74438
695.8039, 33.47339
696.2860, 34.81219
696.7681, 36.22678
697.2502, 38.01013
697.7324, 40.24921
698.2145, 42.34158
698.6966, 44.13437
699.1787, 46.20535
699.6608, 49.14917
700.1429, 52.82971
700.6251, 57.00906
701.1072, 61.80609
701.5893, 66.50653
702.0714, 69.85077
702.5535, 72.63965
703.0356, 76.09094
703.5178, 80.57205
703.9999, 85.64645
704.4820, 91.51514
704.9641, 97.71936
705.4462, 103.6099
705.9283, 108.7061
706.4105, 114.2884
706.8926, 120.8099
707.3747, 127.7208
707.8568, 133.5432
708.3389, 138.1713
708.8210, 143.3451
709.3032, 150.0262
709.7853, 157.3806
710.2674, 163.8122
710.7495, 169.3136
711.2316, 173.7307
711.7137, 176.3639
712.1959, 178.4105
712.6780, 181.0115
713.1601, 183.9666
713.6422, 185.7800
714.1243, 185.7848
714.6064, 184.7667
715.0886, 182.8493
715.5707, 179.9846
716.0528, 177.7551
716.5349, 176.3789
717.0170, 175.0370
717.4991, 172.9925
717.9813, 170.4311
718.4634, 168.7079
718.9455, 167.8723
719.4276, 167.3340
719.9097, 166.7849
720.3918, 166.1673
720.8740, 165.3337
721.3561, 164.2003
721.8382, 163.2683
722.3203, 163.0271
722.8024, 162.8620
723.2845, 162.3230
723.7667, 161.5738
724.2488, 160.0005
724.7309, 157.1633
725.2130, 153.9120
725.6951, 151.4066
726.1772, 149.7531
726.6594, 147.5489
727.1415, 144.5748
727.6236, 141.1133
728.1057, 137.5246
728.5878, 133.7498
729.0699, 129.5435
729.5521, 124.4944
730.0342, 119.5288
730.5163, 115.4156
730.9984, 111.7955
731.4805, 108.0271
731.9626, 103.9799
732.4448, 99.72693
732.9269, 95.18054
733.4090, 90.45932
733.8911, 86.00143
734.3732, 81.89999
734.8553, 77.81909
735.3375, 73.56250
735.8196, 69.33789
736.3017, 65.78909
736.7838, 62.82672
737.2659, 59.90781
737.7480, 56.60172
738.2302, 53.30496
738.7123, 50.29532
739.1944, 47.57571
739.6765, 45.13062
740.1586, 43.34659
740.6407, 41.45654
741.1229, 39.00674
741.6050, 36.01822
742.0871, 33.44464
742.5692, 31.40417
743.0513, 29.46310
743.5334, 27.24750
744.0156, 24.86102
744.4977, 23.47931
744.9798, 23.09607
745.4619, 22.55325
745.9440, 20.59283
746.4261, 18.15286
746.9083, 16.37616
747.3904, 15.37009
747.8725, 14.65225
748.3546, 14.25705
748.8367, 13.88467
749.3188, 13.28186
749.8010, 12.30008
750.2831, 11.63065
750.7652, 11.44632
751.2473, 11.29993
751.7294, 10.80728
752.2115, 9.976990
752.6937, 9.192993
753.1758, 8.485962
753.6579, 7.767639
754.1400, 6.825470
754.6221, 5.854095
755.1042, 5.181366
755.5864, 4.922241
756.0685, 4.793610
756.5506, 4.894684
757.0327, 4.933990
757.5148, 4.610413
757.9969, 3.513153
758.4791, 2.613739
758.9612, 1.884583
759.4433, 1.379852
759.9254, 1.248932
760.4075, 1.508209
760.8896, 1.673523
761.3718, 1.653259
761.8539, 1.562378
762.3360, 1.545013
762.8181, 1.570435
763.3002, 1.564667
763.7823, 1.440491
764.2645, 1.402618
764.7466, 1.780334
765.2287, 2.252350
765.7108, 2.337677
766.1929, 1.567902
766.6750, 0.9624630
767.1572, 0.6309200
767.6393, 0.4923710
768.1214, 0.4847110
768.6035, 0.6354680
769.0856, 0.4292600
769.5677, 0.4298710
770.0499, 1.399872
770.5320, 1.635345
771.0141, 1.304321
771.4962, 0.8305050
771.9783, 0.1041870
772.4604, 0.4076840
772.9426, 0.2700810
773.4247, 0.2542720
773.9068, 0.5487670
774.3889, 0.3041690
774.8710, 0.1737060
775.3531, 0.3492740
775.8353, 0.6718440
776.3174, 0.6228330
776.7995, 0.1788020
777.2816, 0.1781310
777.7637, 0.2891540
778.2458, 0.1984860
778.7280, 0.2402340
779.2101, 0.8525390
779.6922, 1.080048
780.1743, 2.9144000E-02
780.6564, 0.8622740
781.1385, 0.5903630
781.6207, 0.5354920
782.1028, 1.083405
782.5849, 0.5835570
783.0670, 0.1272280
783.5491, 2.6001001E-02
784.0313, 0.1807860
784.5134, 0.2056580
784.9955, 0.1030880
785.4776, 9.3445003E-02
785.9597, 0.5002750
786.4418, 0.8963320
786.9240, 0.7919620
787.4061, 0.3341980
787.8882, 6.7718998E-02
788.3703, 0.5337830
788.8524, 1.006866
789.3345, 1.032440
789.8167, 0.6879270
790.2988, 0.6763920
790.7809, 1.284943
791.2630, 1.719757
791.7451, 1.646637
792.2272, 1.204865
792.7094, 0.8881840
793.1915, 0.7101140
793.6736, 0.9327390
794.1557, 2.190979
794.6378, 3.637695
795.1199, 4.085846
795.6021, 3.700378
796.0842, 3.291626
796.5663, 3.077637
797.0484, 3.041138
797.5305, 3.222931
798.0126, 3.597656
798.4948, 3.990631
798.9769, 4.350525
799.4590, 4.875549
799.9411, 5.789459
800.4232, 6.900909
800.9053, 7.219788
801.3875, 6.842255
801.8696, 6.708344
802.3517, 7.813263
802.8338, 9.129822
803.3159, 9.526520
803.7980, 9.143585
804.2802, 8.930756
804.7623, 9.114532
805.2444, 9.610779
805.7265, 10.46442
806.2086, 11.62115
806.6907, 12.73233
807.1729, 13.90823
807.6550, 14.51401
808.1371, 13.82520
808.6192, 12.52795
809.1013, 12.65668
809.5834, 13.98401
810.0656, 15.20932
810.5477, 15.39621
811.0298, 15.36136
811.5119, 15.68161
811.9940, 16.32730
812.4761, 16.88379
812.9583, 17.32126
813.4404, 17.61758
813.9225, 17.65903
814.4046, 17.54361
814.8867, 17.92026
815.3688, 18.80823
815.8510, 19.75650
816.3331, 20.59857
816.8152, 21.31403
817.2973, 21.66611
817.7794, 21.79785
818.2615, 22.29260
818.7437, 23.76282
819.2258, 25.33435
819.7079, 26.64813
820.1900, 27.70566
820.6721, 28.64621
821.1542, 29.41028
821.6364, 30.18201
822.1185, 30.97775
822.6006, 31.84451
823.0827, 33.08246
823.5648, 34.63657
824.0469, 36.12543
824.5291, 37.35068
825.0112, 38.42355
825.4933, 39.30264
825.9754, 40.11877
826.4575, 41.28345
826.9396, 43.05032
827.4218, 45.04221
827.9039, 47.16745
828.3860, 49.40149
828.8681, 51.55746
829.3502, 53.62744
829.8323, 56.00150
830.3145, 58.92313
830.7966, 61.96790
831.2787, 64.18631
831.7608, 65.90918
832.2429, 68.04376
832.7250, 71.50684
833.2072, 74.99799
833.6893, 78.02206
834.1714, 80.56894
834.6535, 82.56384
835.1356, 84.03812
835.6177, 85.00583
836.0999, 85.47910
836.5820, 85.41901
837.0641, 84.65616
837.5462, 83.26212
838.0283, 81.87799
838.5104, 80.68076
838.9926, 79.54526
839.4747, 78.42691
839.9568, 77.10660
840.4389, 75.34775
840.9210, 72.38174
841.4031, 69.82770
841.8853, 68.45609
842.3674, 67.48849
842.8495, 65.78662
843.3316, 63.15808
843.8137, 60.78821
844.2958, 58.88596
844.7780, 57.16623
845.2601, 55.24359
845.7422, 53.24890
846.2243, 51.44443
846.7064, 49.90720
847.1885, 48.49847
847.6707, 47.35663
848.1528, 46.26099
848.6349, 44.88309
849.1170, 42.65192
849.5991, 41.10666
850.0812, 40.51282
850.5634, 40.28162
851.0455, 39.78665
851.5276, 39.04446
852.0097, 38.07996
852.4918, 36.83603
852.9739, 35.85266
853.4561, 36.29733
853.9382, 36.83365
854.4203, 35.85803
854.9024, 32.56055
855.3845, 29.50327
855.8666, 26.96722
856.3488, 24.99274
856.8309, 23.82034
857.3130, 23.58868
857.7951, 22.61902
858.2772, 20.79166
858.7593, 19.04987
859.2415, 18.31894
859.7236, 18.19156
860.2057, 18.06900
860.6878, 17.89648
861.1699, 17.55136
861.6520, 17.00009
862.1342, 16.25168
862.6163, 15.18234
863.0984, 13.75775
863.5805, 12.63870
864.0626, 11.89905
864.5447, 11.32483
865.0269, 10.90720
865.5090, 10.55057
865.9911, 9.805969
866.4732, 8.748932
866.9553, 7.857666
867.4374, 7.647827
867.9196, 7.529022
868.4017, 6.927856
868.8838, 5.952423
869.3659, 5.571228
869.8480, 6.229889
870.3301, 6.848328
870.8123, 7.161560
871.2944, 7.183960
871.7765, 6.879395
872.2586, 6.282410
872.7407, 5.750549
873.2228, 5.437347
873.7050, 5.269989
874.1871, 5.322021
874.6692, 5.452087
875.1513, 5.350128
875.6334, 4.115082
876.1155, 3.742737
876.5977, 5.276093
877.0798, 7.387482
877.5619, 7.321228
878.0440, 4.861633
878.5261, 3.502472
879.0082, 4.245331
879.4904, 5.471405
879.9725, 4.947479
880.4546, 3.437164
880.9367, 2.285309
881.4188, 2.019043
881.9009, 1.791077
882.3831, 1.264313
882.8652, 0.6562810
883.3473, 0.1921080
883.8294, 0.1204220
884.3115, 0.3500670
884.7936, 0.5092770
885.2758, 0.5358890
885.7579, 0.1821590
886.2400, 0.3204350
886.7221, 0.3166500
887.2042, 0.3055110
887.6863, 0.7154850
888.1685, 0.2724910
888.6506, 0.4229430
889.1327, 1.038513
889.6148, 1.596344
890.0969, 1.607086
890.5790, 0.8356320
891.0612, 0.1012880
891.5433, 2.8564001E-02
892.0254, 0.2587890
892.5075, 0.2445070
892.9896, 3.2531999E-02
893.4717, 0.2249150
893.9539, 5.1879999E-03
894.4360, 0.2765200
894.9181, 0.3689270
895.4002, 0.2813720
895.8823, 3.0823000E-02
896.3644, 0.7083440
896.8466, 0.9284360
897.3287, 0.1418760
897.8108, 1.166992
898.2929, 1.731598
898.7750, 1.626953
899.2571, 1.316193
899.7393, 0.8795170
900.2214, 0.4551090
900.7035, 6.9580004E-02
901.1856, 0.2012940
901.6677, 0.2201840
902.1498, 0.4648130
902.6320, 0.7750850
903.1141, 0.4798280
903.5962, 2.3163000E-02
904.0783, 0.1346740
904.5604, 0.1001590
905.0425, 6.1675999E-02
905.5247, 0.3934940
906.0068, 0.7905880
906.4889, 0.5839230
906.9710, 0.1182560
907.4531, 0.2179570
907.9352, 0.3197020
908.4174, 0.4855040
908.8995, 0.9697880
909.3816, 1.283722
909.8637, 0.9506230
910.3458, 3.0944999E-02
910.8279, 3.5858002E-02
911.3101, 0.9554750
911.7922, 1.862640
912.2743, 1.797211
912.7564, 1.297546
913.2385, 0.7657170
913.7206, 0.2792360
914.2028, 0.1925350
914.6849, 1.210724
915.1670, 1.940643
915.6491, 1.834656
916.1312, 1.162415
916.6133, 1.017609
917.0955, 1.413788
917.5776, 1.754517
918.0597, 1.869598
918.5418, 1.759979
919.0239, 1.172729
919.5060, 0.4046330
919.9882, 2.8015001E-02
920.4703, 0.6074830
920.9524, 1.081299
921.4345, 1.133728
921.9166, 1.105713
922.3987, 1.526062
922.8809, 2.446991
923.3630, 2.851898
923.8451, 2.576599
924.3272, 2.063263
924.8093, 1.627197
925.2914, 1.317200
925.7736, 1.228363
926.2557, 1.397797
926.7378, 1.645294
927.2199, 2.048126
927.7020, 2.397156
928.1841, 2.576080
928.6663, 2.588318
929.1484, 2.608063
929.6305, 2.638092
930.1126, 2.641907
930.5947, 2.538788
931.0768, 2.432892
931.5590, 2.587067
932.0411, 2.896484
932.5232, 2.942810
933.0053, 2.161469
933.4874, 1.506531
933.9695, 1.228943
934.4517, 1.231537
934.9338, 1.258698
935.4159, 1.292999
935.8980, 1.373901
936.3801, 1.530579
936.8622, 1.814331
937.3444, 2.389496
937.8265, 3.077667
938.3086, 3.676422
938.7907, 4.323853
939.2728, 4.477631
939.7549, 3.568176
940.2371, 2.646118
940.7192, 2.696350
941.2013, 3.749786
941.6834, 4.050781
942.1655, 3.498047
942.6476, 2.859985
943.1298, 2.642181
943.6119, 2.816589
944.0940, 3.521851
944.5761, 4.706665
945.0582, 5.488007
945.5403, 5.596100
946.0225, 5.363281
946.5046, 4.664581
946.9867, 3.720825
947.4688, 3.665619
947.9509, 4.445282
948.4330, 5.180969
948.9152, 5.560638
949.3973, 5.630371
949.8794, 5.313904
950.3615, 4.774475
950.8436, 4.294678
951.3257, 3.792328
951.8079, 3.611450
952.2900, 3.866302
952.7721, 4.307892
953.2542, 4.738342
953.7363, 5.118652
954.2184, 5.079193
954.7006, 4.578491
955.1827, 4.152496
955.6648, 4.137939
956.1469, 4.348206
956.6290, 4.756836
957.1111, 5.420166
957.5933, 5.603729
958.0754, 5.089691
958.5575, 4.467438
959.0396, 3.959808
959.5217, 3.593170
960.0038, 3.456238
960.4860, 3.509216
960.9681, 3.655212
961.4502, 3.987122
961.9323, 4.238373
962.4144, 4.241272
962.8965, 4.047211
963.3787, 3.754364
963.8608, 3.209137
964.3429, 3.072723
964.8250, 3.563812
965.3071, 4.170380
965.7892, 3.993378
966.2714, 3.403137
966.7535, 3.514557
967.2356, 4.666077
967.7177, 5.304993
968.1998, 3.815247
968.6819, 2.089966
969.1641, 1.591370
969.6462, 2.403717
970.1283, 2.842438
970.6104, 2.868469
971.0925, 2.761505
971.5746, 2.594757
972.0568, 2.451538
972.5389, 2.633270
973.0210, 2.979004
973.5031, 3.014435
973.9852, 2.039581
974.4673, 1.335785
974.9495, 1.495331
975.4316, 2.018036
975.9137, 2.002899
976.3958, 1.412415
976.8779, 1.031097
977.3600, 0.9969790
977.8422, 1.135132
978.3243, 1.378876
978.8064, 1.658752
979.2885, 1.915588
979.7706, 2.171265
980.2527, 2.233582
980.7349, 1.889832
981.2170, 1.595978
981.6991, 1.662048
982.1812, 2.009430
982.6633, 2.008148
983.1454, 1.681213
983.6276, 1.339142
984.1097, 1.114105
984.5918, 0.9872130
985.0739, 1.014862
985.5560, 1.124908
986.0381, 1.122284
986.5203, 0.9187930
987.0024, 0.7713930
987.4845, 0.7395320
987.9666, 0.7274170
988.4487, 0.6518250
988.9308, 0.4831540
989.4130, 3.1555001E-02
989.8951, 0.7958070
990.3772, 1.389404
990.8593, 1.202057
991.3414, 0.7976990
991.8235, 0.6107180
992.3057, 0.6647640
992.7878, 0.4250490
993.2699, 0.1861880
993.7520, 0.6173100
994.2341, 0.3918150
994.7162, 6.5277003E-02
995.1984, 8.8836998E-02
995.6805, 0.6191710
996.1626, 0.8891910
996.6447, 0.4141850
997.1268, 4.1473001E-02
997.6089, 0.3645020
998.0911, 0.5480040
998.5732, 0.5714720
999.0553, 0.4366150
999.5374, 0.1436770
1000.020, 0.3242800
1000.502, 0.7528080
1000.984, 0.9440000
1001.466, 0.9905400
1001.948, 0.9512940
1002.430, 0.8237300
1002.912, 0.7432560
1003.394, 0.7628170
1003.876, 0.7460940
1004.359, 0.6369320
1004.841, 0.4530030
1005.323, 0.2005000
1005.805, 8.6364999E-02
1006.287, 0.2614140
1006.769, 0.1821290
1007.251, 7.6476999E-02
1007.733, 0.1331480
1008.216, 0.1948240
1008.698, 4.4098001E-02
1009.180, 0.3757630
1009.662, 0.8469540
1010.144, 1.400391
1010.626, 1.786316
1011.108, 1.548126
1011.590, 1.074951
1012.072, 0.9003910
1012.555, 1.063843
1013.037, 1.509033
1013.519, 2.757233
1014.001, 3.627350
1014.483, 3.616241
1014.965, 3.004669
1015.447, 2.610931
1015.929, 2.455353
1016.411, 2.872772
1016.894, 4.220154
1017.376, 5.585846
1017.858, 6.072693
1018.340, 6.145081
1018.822, 6.379974
1019.304, 6.983704
1019.786, 7.396210
1020.268, 7.522461
1020.751, 7.720337
1021.233, 8.224457
1021.715, 9.025665
1022.197, 9.937653
1022.679, 11.04773
1023.161, 12.85889
1023.643, 16.20404
1024.125, 19.65121
1024.607, 22.46152
1025.090, 25.04333
1025.572, 28.22461
1026.054, 32.04138
1026.536, 36.33405
1027.018, 41.12900
1027.500, 46.32758
1027.982, 51.70804
1028.464, 57.49301
1028.947, 63.89981
1029.429, 70.88315
1029.911, 78.84445
1030.393, 87.62488
1030.875, 97.69882
1031.357, 109.1552
1031.839, 122.0542
1032.321, 136.5809
1032.803, 152.5794
1033.286, 169.9599
1033.768, 189.9029
1034.250, 209.5427
1034.732, 229.1113
1035.214, 247.0317
1035.696, 261.4041
1036.178, 272.6654
1036.660, 278.3892
1037.143, 278.3166
1037.625, 273.5142
1038.107, 263.9321
1038.589, 250.7812
1039.071, 234.9323
1039.553, 216.5320
1040.035, 198.2044
1040.517, 179.8861
1041.000, 162.5431
1041.482, 146.6933
1041.964, 132.1705
1042.446, 119.4066
1042.928, 108.0842
1043.410, 97.29343
1043.892, 86.64035
1044.374, 76.85938
1044.856, 68.53452
1045.339, 61.53265
1045.821, 55.67654
1046.303, 51.04276
1046.785, 46.99951
1047.267, 43.56406
1047.749, 40.53195
1048.231, 37.99368
1048.713, 35.82153
1049.195, 33.78955
1049.677, 31.93430
1050.160, 30.44467
1050.642, 29.69998
1051.124, 28.91034
1051.606, 27.83020
1052.088, 26.83783
1052.570, 26.43912
1053.052, 26.58640
1053.534, 27.15109
1054.017, 28.12308
1054.499, 29.07269
1054.981, 29.50296
1055.463, 30.02368
1055.945, 30.90387
1056.427, 32.19763
1056.909, 34.36032
1057.391, 37.47089
1057.874, 40.77841
1058.356, 44.05536
1058.838, 47.36502
1059.320, 50.59732
1059.802, 53.97736
1060.284, 57.88953
1060.766, 62.28867
1061.248, 67.73199
1061.730, 74.48984
1062.213, 81.60071
1062.695, 88.26758
1063.177, 94.79648
1063.659, 102.4357
1064.141, 111.0707
1064.623, 120.0537
1065.105, 128.7452
1065.587, 138.0615
1066.070, 149.0672
1066.552, 160.6893
1067.034, 171.2049
1067.516, 180.5352
1067.998, 190.2047
1068.480, 200.4612
1068.962, 209.4102
1069.444, 214.8893
1069.927, 218.5419
1070.409, 222.3737
1070.891, 226.3338
1071.373, 227.2491
1071.855, 224.7257
1072.337, 220.1433
1072.819, 213.6151
1073.301, 205.6302
1073.783, 196.5555
1074.266, 186.7642
1074.748, 176.9014
1075.230, 167.1019
1075.712, 157.3014
1076.194, 147.3486
1076.676, 137.3973
1077.158, 127.3112
1077.640, 117.2383
1078.122, 107.8126
1078.604, 98.94940
1079.087, 90.66116
1079.569, 83.24164
1080.051, 76.19846
1080.533, 69.08218
1081.015, 62.34579
1081.497, 56.68024
1081.979, 52.44980
1082.461, 47.89111
1082.944, 42.82092
1083.426, 37.87463
1083.908, 33.66779
1084.390, 30.00598
1084.872, 26.70261
1085.354, 23.72534
1085.836, 21.07919
1086.318, 18.75748
1086.801, 16.65811
1087.283, 14.73227
1087.765, 12.99020
1088.247, 11.43436
1088.729, 10.06952
1089.211, 8.939362
1089.693, 8.063171
1090.175, 7.288361
1090.657, 6.460602
1091.140, 5.835297
1091.622, 5.696533
1092.104, 5.909943
1092.586, 5.161469
1093.068, 3.561279
1093.550, 2.483093
1094.032, 2.876129
1094.514, 3.479370
1094.997, 3.509857
1095.479, 3.132202
1095.961, 2.516632
1096.443, 1.473175
1096.925, 0.9158020
1097.407, 0.8750610
1097.889, 1.134064
1098.371, 1.869995
1098.854, 2.565155
1099.336, 2.330658
1099.818, 1.430634
1100.300, 0.9519040
1100.782, 1.661377
1101.264, 1.846802
1101.746, 1.132996
1102.228, 0.1644290
1102.710, 0.1943050
1103.193, 0.1257320
1103.675, 7.6964997E-02
1104.157, 0.1004030
1104.639, 9.6161000E-02
1105.121, 3.1740000E-03
1105.603, 0.1187130
1106.085, 0.2277530
1106.567, 0.3265990
1107.049, 0.3349000
1107.531, 0.2890010
1108.014, 0.5339050
1108.496, 1.284241
1108.978, 1.906219
1109.460, 1.677673
1109.942, 1.326813
1110.424, 1.613342
1110.906, 2.590515
1111.388, 2.824615
1111.871, 2.264648
1112.353, 1.704407
1112.835, 1.639984
1113.317, 1.639221
1113.799, 0.9550170
1114.281, 1.238068
1114.763, 3.9700000E-04
1115.245, 1.420074
1115.728, 2.244751
1116.210, 2.426239
1116.692, 2.187347
1117.174, 1.482086
1117.656, 0.5927120
1118.138, 0.1656490
1118.620, 0.6826480
1119.102, 0.5670170
1119.584, 1.279053
1120.067, 2.384766
1120.549, 2.182922
1121.031, 1.400177
1121.513, 0.9032590
1121.995, 0.6431580
1122.477, 0.4950260
1122.959, 0.4388730
1123.441, 0.3941350
1123.924, 0.2756350
1124.406, 0.2080080
1124.888, 0.2400210
1125.370, 0.3604430
1125.852, 0.5946350
1126.334, 0.9250490
1126.816, 1.099396
1127.298, 1.049286
1127.781, 0.9122920
1128.263, 0.8533330
1128.745, 0.7037660
1129.227, 0.2055360
1129.709, 0.6092530
1130.191, 0.8894350
1130.673, 0.5973510
1131.155, 0.3874510
1131.637, 0.6016240
1132.120, 0.8802490
1132.602, 0.8873290
1133.084, 0.7003480
1133.566, 0.3639220
1134.048, 0.3222660
1134.530, 0.2873840
1135.012, 0.7168270
1135.494, 1.445648
1135.976, 0.8014830
1136.458, 0.4232180
1136.941, 1.030273
1137.423, 1.173737
1137.905, 1.227173
1138.387, 1.295166
1138.869, 1.234131
1139.351, 0.9296570
1139.833, 0.7286380
1140.315, 1.097565
1140.798, 1.791840
1141.280, 2.328796
1141.762, 2.659058
1142.244, 2.632568
1142.726, 1.897339
1143.208, 1.141266
1143.690, 0.3339230
1144.172, 0.2059020
1144.655, 0.3489380
1145.137, 1.615936
1145.619, 1.924713
1146.101, 1.058228
1146.583, 0.3276980
1147.065, 0.7416080
1147.547, 1.149200
1148.029, 0.9163210
1148.511, 0.3397830
1148.994, 0.3348690
1149.476, 0.8280330
1149.958, 1.158356
1150.440, 1.159698
1150.922, 1.066589
1151.404, 1.034485
1151.886, 0.9755860
1152.368, 0.7626650
1152.851, 0.4318540
1153.333, 0.4016720
1153.815, 0.6685490
1154.297, 0.8529050
1154.779, 0.7330930
1155.261, 0.6505430
1155.743, 0.9982600
1156.225, 1.508362
1156.708, 1.876190
1157.190, 2.079071
1157.672, 2.232208
1158.154, 2.336853
1158.636, 2.387329
1159.118, 2.395905
1159.600, 2.334229
1160.082, 2.014832
1160.564, 1.651276
1161.047, 1.670044
1161.529, 2.522430
1162.011, 2.766235
1162.493, 2.290527
1162.975, 1.669586
1163.457, 1.263916
1163.939, 1.024994
1164.421, 0.8824160
1164.903, 0.8462520
1165.385, 0.9720460
1165.868, 1.454498
1166.350, 1.756897
1166.832, 1.803375
1167.314, 1.724731
1167.796, 1.669403
1168.278, 1.580597
1168.760, 1.200653
1169.242, 0.6186220
1169.725, 0.4666750
1170.207, 1.524231
1170.689, 2.110565
1171.171, 1.807556
1171.653, 1.266327
1172.135, 1.566376
1172.617, 2.288025
1173.099, 2.496155
1173.582, 2.079987
1174.064, 1.522095
1174.546, 0.5220950
1175.028, 9.4269000E-02
1175.510, 0.7095640
1175.992, 1.766541
1176.474, 1.894531
1176.956, 1.493774
1177.438, 1.785400
1177.921, 3.070984
1178.403, 3.981934
1178.885, 3.563293
1179.367, 3.115204
1179.849, 3.215851
1180.331, 3.613068
1180.813, 3.484314
1181.295, 2.979279
1181.778, 2.637970
1182.260, 2.614258
1182.742, 2.730011
1183.224, 3.140411
1183.706, 3.419220
1184.188, 3.196686
1184.670, 2.655945
1185.152, 3.031250
1185.635, 4.091858
1186.117, 4.655884
1186.599, 4.110107
1187.081, 3.325958
1187.563, 2.328033
1188.045, 1.577179
1188.527, 1.508087
1189.009, 2.065186
1189.491, 2.500427
1189.974, 2.823517
1190.456, 3.212952
1190.938, 4.143982
1191.420, 4.671112
1191.902, 3.885651
1192.384, 2.751953
1192.866, 2.207062
1193.348, 2.262207
1193.830, 2.322296
1194.313, 2.399597
1194.795, 2.534637
1195.277, 2.984131
1195.759, 3.266937
1196.241, 2.937439
1196.723, 2.399414
1197.205, 2.237976
1197.687, 2.474457
1198.169, 2.112610
1198.652, 1.144501
1199.134, 0.4543760
1199.616, 0.9901120
1200.098, 1.634033
1200.580, 1.594299
1201.062, 2.041199
1201.544, 2.236847
1202.026, 2.197906
1202.509, 2.411560
1202.991, 2.012207
1203.473, 1.698792
1203.955, 2.163147
1204.437, 2.678162
1204.919, 2.815277
1205.401, 2.640869
1205.883, 2.191254
1206.365, 1.446472
1206.848, 1.251892
1207.330, 1.805878
1207.812, 2.490784
1208.294, 2.637451
1208.776, 2.586212
1209.258, 2.725952
1209.740, 2.936584
1210.222, 2.736725
1210.705, 2.119843
1211.187, 1.904480
1211.669, 2.278503
1212.151, 2.769501
1212.633, 3.056671
1213.115, 3.211700
1213.597, 3.327179
1214.079, 3.387543
1214.562, 3.169617
1215.044, 2.687775
1215.526, 2.322144
1216.008, 2.138916
1216.490, 2.160828
1216.972, 2.648041
1217.454, 3.129181
1217.936, 3.148895
1218.418, 3.381042
1218.901, 3.457306
1219.383, 3.226471
1219.865, 3.286682
1220.347, 2.779602
1220.829, 2.248077
1221.311, 1.911743
1221.793, 1.892609
1222.275, 2.468628
1222.757, 3.472382
1223.240, 3.551208
1223.722, 2.785248
1224.204, 2.213959
1224.686, 2.286865
1225.168, 2.343109
1225.650, 1.821106
1226.132, 1.213470
1226.614, 0.8592530
1227.096, 0.7587590
1227.579, 1.023987
1228.061, 1.592651
1228.543, 1.856598
1229.025, 1.467102
1229.507, 0.9825440
1229.989, 0.5245360
1230.471, 0.3058170
1230.953, 0.5566410
1231.436, 1.188507
1231.918, 1.404297
1232.400, 1.253571
1232.882, 1.058044
1233.364, 0.8793640
1233.846, 0.8389280
1234.328, 1.089447
1234.810, 1.412140
1235.292, 1.729004
1235.775, 1.998627
1236.257, 1.728790
1236.739, 1.047394
1237.221, 0.6306150
1237.703, 1.075256
1238.185, 1.344940
1238.667, 0.7821660
1239.149, 0.1632080
1239.632, 2.4017001E-02
1240.114, 0.2966000
1240.596, 0.8125610
1241.078, 1.478394
1241.560, 1.908722
1242.042, 1.803833
1242.524, 1.591217
1243.006, 1.297241
1243.489, 1.035980
1243.971, 0.8908080
1244.453, 0.8554080
1244.935, 1.148102
1245.417, 1.543610
1245.899, 1.659668
1246.381, 0.8573000
1246.863, 0.4869690
1247.345, 0.9122620
1247.828, 1.452881
1248.310, 1.453217
1248.792, 1.147522
1249.274, 1.200470
1249.756, 1.519226
1250.238, 1.760284
1250.720, 1.733124
1251.202, 1.689545
1251.684, 1.601318
1252.167, 1.608673
1252.649, 2.016113
1253.131, 2.501617
1253.613, 2.341125
1254.095, 1.708252
1254.577, 1.219910
1255.059, 1.079437
1255.541, 1.056274
1256.023, 1.177582
1256.506, 1.274536
1256.988, 1.086029
1257.470, 0.8833010
1257.952, 1.096802
1258.434, 1.601257
1258.916, 2.014404
1259.398, 2.401001
1259.880, 2.350189
1260.363, 1.748688
1260.845, 1.236053
1261.327, 1.421417
1261.809, 1.899902
1262.291, 2.496735
1262.773, 3.040131
1263.255, 3.103363
1263.737, 2.703522
1264.219, 1.509583
1264.702, 0.5962220
1265.184, 2.036713
1265.666, 1.009918
1266.148, 0.5427550
1266.630, 1.263000
1267.112, 1.408417
1267.594, 1.601746
1268.076, 1.873840
1268.559, 1.595703
1269.041, 0.7367250
1269.523, 3.5828002E-02
1270.005, 0.1781920
1270.487, 0.1246030
1270.969, 1.568726
1271.451, 3.163055
1271.933, 3.293488
1272.416, 2.070404
1272.898, 1.287964
1273.380, 1.036987
1273.862, 0.9363100
1274.344, 0.7736820
1274.826, 0.6606450
1275.308, 0.6736450
1275.790, 0.7611690
1276.272, 0.9646000
1276.755, 1.221558
1277.237, 1.261932
1277.719, 1.127411
1278.201, 1.099518
1278.683, 1.513397
1279.165, 1.712616
1279.647, 1.509094
1280.129, 1.198181
1280.611, 1.063049
1281.094, 1.139832
1281.576, 1.638702
1282.058, 2.483276
1282.540, 3.122223
1283.022, 3.306671
1283.504, 3.091064
1283.986, 2.061646
1284.468, 1.905121
1284.950, 2.556030
1285.433, 3.404449
1285.915, 3.578827
1286.397, 3.121857
1286.879, 2.576996
1287.361, 1.494049
1287.843, 0.8266600
1288.325, 0.7049560
1288.807, 1.067352
1289.290, 2.640167
1289.772, 4.079590
1290.254, 3.846283
1290.736, 2.620789
1291.218, 1.889191
1291.700, 1.661896
1292.182, 1.717865
1292.664, 2.001587
1293.146, 2.375946
1293.629, 3.122375
1294.111, 3.622589
1294.593, 3.195862
1295.075, 2.204132
1295.557, 1.223755
1296.039, 0.5250240
1296.521, 0.1170650
1297.003, 8.7433003E-02
1297.486, 4.3060001E-02
1297.968, 0.9248960
1298.450, 1.709381
1298.932, 2.165802
1299.414, 2.102173
1299.896, 1.402496
1300.378, 0.9885250
1300.860, 0.5212710
1301.343, 0.1900330
1301.825, 0.0000000E+00
##END=



