##NAMES=Riebeckite
##RRUFFID=R120033
##IDEAL CHEMISTRY=[box]Na_2_(Fe^2+^_3_Fe^3+^_2_)Si_8_O_22_(OH)_2_
##LOCALITY=Zagi Mountain, Hameed Abad Kafoor Dheri, Peshawar, Khyber Pakhtunkhwa, Pakistan
##OWNER=RRUFF
##SOURCE=Donald Doell
##DESCRIPTION=Black prismatic crystals associated with titanite, R120030
##STATUS=The identification of this mineral has been confirmed only by single crystal X-ray diffraction.
##URL=rruff.info/R120033
94.01410, 0.0000000E+00
94.49622, 4.186096
94.97833, 6.122620
95.46045, 6.808929
95.94257, 6.500824
96.42468, 4.974762
96.90680, 2.022247
97.38892, 0.8779300
97.87103, 3.061615
98.35315, 6.788055
98.83527, 9.461121
99.31738, 9.791046
99.79950, 7.734955
100.2816, 6.461884
100.7637, 5.521362
101.2458, 4.869415
101.7280, 5.278839
102.2101, 6.483246
102.6922, 8.427917
103.1743, 11.69479
103.6564, 16.36316
104.1385, 21.00653
104.6207, 25.20807
105.1028, 29.17444
105.5849, 33.19995
106.0670, 38.37912
106.5491, 43.64978
107.0313, 46.63998
107.5134, 46.26874
107.9955, 42.95352
108.4776, 37.40701
108.9597, 29.23447
109.4418, 22.33771
109.9240, 18.38239
110.4061, 15.86823
110.8882, 13.92828
111.3703, 12.24277
111.8524, 10.73871
112.3345, 9.211700
112.8167, 7.441742
113.2988, 5.968903
113.7809, 4.989044
114.2630, 4.302124
114.7451, 3.655518
115.2272, 2.896759
115.7094, 2.026581
116.1915, 1.178223
116.6736, 0.4917600
117.1557, 0.3202820
117.6378, 1.632721
118.1199, 3.253113
118.6021, 4.562103
119.0842, 5.063416
119.5663, 4.639465
120.0484, 3.725494
120.5305, 2.357391
121.0126, 0.5039980
121.4948, 1.975220
121.9769, 5.138580
122.4590, 8.559540
122.9411, 12.00412
123.4232, 15.43002
123.9053, 18.47263
124.3875, 20.76120
124.8696, 22.54614
125.3517, 24.51584
125.8338, 26.85001
126.3159, 29.25040
126.7980, 31.71313
127.2802, 34.14975
127.7623, 36.13849
128.2444, 37.03714
128.7265, 36.67175
129.2086, 37.02518
129.6907, 38.74271
130.1729, 40.89978
130.6550, 43.20670
131.1371, 45.58154
131.6192, 48.01645
132.1013, 50.37589
132.5834, 52.08478
133.0656, 55.04901
133.5477, 59.76431
134.0298, 65.21286
134.5119, 70.55203
134.9940, 75.50305
135.4761, 80.49438
135.9583, 86.47665
136.4404, 93.93610
136.9225, 101.8665
137.4046, 109.1397
137.8867, 117.0893
138.3688, 127.4935
138.8510, 141.2451
139.3331, 158.0164
139.8152, 176.5726
140.2973, 195.9358
140.7794, 217.8177
141.2615, 243.9515
141.7437, 273.5677
142.2258, 304.4596
142.7079, 338.4973
143.1900, 370.7805
143.6721, 393.8693
144.1542, 409.1013
144.6364, 412.9113
145.1185, 399.2105
145.6006, 365.9337
146.0827, 327.6989
146.5648, 286.6239
147.0469, 246.0569
147.5291, 209.5602
148.0112, 178.2712
148.4933, 151.8821
148.9754, 129.8793
149.4575, 112.6962
149.9396, 99.72400
150.4218, 90.81326
150.9039, 84.96530
151.3860, 81.07376
151.8681, 79.15781
152.3502, 78.54227
152.8323, 78.34021
153.3145, 78.65384
153.7966, 79.35175
154.2787, 80.21432
154.7608, 81.43787
155.2429, 83.40240
155.7250, 86.45193
156.2072, 90.63556
156.6893, 95.33984
157.1714, 100.6056
157.6535, 106.2151
158.1356, 112.1194
158.6177, 118.3058
159.0999, 124.7899
159.5820, 131.5461
160.0641, 138.6265
160.5462, 146.4459
161.0283, 155.9144
161.5104, 165.4359
161.9926, 174.3077
162.4747, 182.3826
162.9568, 188.7821
163.4389, 192.3009
163.9210, 193.0244
164.4031, 191.7874
164.8853, 188.8455
165.3674, 183.9734
165.8495, 176.6527
166.3316, 166.4297
166.8137, 154.5634
167.2958, 141.6347
167.7780, 127.9320
168.2601, 114.6387
168.7422, 102.2411
169.2243, 90.68869
169.7064, 79.96246
170.1885, 69.93240
170.6707, 61.08862
171.1528, 53.67892
171.6349, 47.56927
172.1170, 42.10864
172.5991, 36.96011
173.0812, 32.13800
173.5634, 27.21368
174.0455, 21.42480
174.5276, 16.11658
175.0097, 11.84750
175.4918, 8.590912
175.9739, 6.059052
176.4561, 4.099091
176.9382, 2.923492
177.4203, 1.867523
177.9024, 0.8984990
178.3845, 0.1421510
178.8666, 0.3128970
179.3488, 0.4820250
179.8309, 0.4565120
180.3130, 0.3125610
180.7951, 0.1528630
181.2772, 0.3845830
181.7593, 1.386688
182.2415, 2.646210
182.7236, 4.045685
183.2057, 5.547577
183.6878, 7.127747
184.1699, 8.726349
184.6520, 10.20312
185.1342, 12.04862
185.6163, 14.18045
186.0984, 16.72177
186.5805, 19.98132
187.0626, 24.09061
187.5447, 28.48233
188.0269, 32.09924
188.5090, 34.70685
188.9911, 37.65808
189.4732, 41.14667
189.9553, 45.18445
190.4374, 49.83286
190.9196, 55.27420
191.4017, 61.08615
191.8838, 66.64151
192.3659, 71.85229
192.8480, 77.40042
193.3301, 84.07983
193.8123, 91.45975
194.2944, 97.96634
194.7765, 102.9541
195.2586, 107.1409
195.7407, 111.5147
196.2228, 116.0750
196.7050, 120.2113
197.1871, 123.6118
197.6692, 126.2700
198.1513, 128.0143
198.6334, 128.5730
199.1155, 128.2829
199.5977, 127.2099
200.0798, 125.4068
200.5619, 123.3593
201.0440, 121.5304
201.5261, 119.9574
202.0082, 118.2945
202.4904, 115.9971
202.9725, 113.9632
203.4546, 112.5180
203.9367, 111.7596
204.4188, 111.7611
204.9009, 112.7249
205.3831, 114.9263
205.8652, 117.2777
206.3473, 119.2039
206.8294, 121.6227
207.3115, 125.4132
207.7936, 130.5343
208.2758, 136.0014
208.7579, 140.3207
209.2400, 142.6007
209.7221, 145.6682
210.2042, 150.4703
210.6863, 155.2514
211.1685, 159.0772
211.6506, 161.6624
212.1327, 163.0382
212.6148, 163.2087
213.0969, 161.7245
213.5790, 159.7422
214.0612, 157.6285
214.5433, 154.8615
215.0254, 150.8800
215.5075, 145.6128
215.9896, 139.4811
216.4718, 133.0612
216.9539, 126.0729
217.4360, 119.4050
217.9181, 113.2500
218.4002, 107.3195
218.8823, 101.0984
219.3645, 94.47610
219.8466, 88.12924
220.3287, 83.13290
220.8108, 79.68985
221.2929, 76.30783
221.7750, 72.55783
222.2572, 68.77679
222.7393, 65.37820
223.2214, 62.44901
223.7035, 60.03220
224.1856, 58.43576
224.6677, 57.59262
225.1499, 56.72333
225.6320, 55.49396
226.1141, 54.15662
226.5962, 53.14145
227.0783, 52.55576
227.5604, 52.14240
228.0426, 51.43533
228.5247, 50.59842
229.0068, 50.39761
229.4889, 51.54935
229.9710, 53.42252
230.4531, 54.62115
230.9353, 54.64313
231.4174, 54.76385
231.8995, 56.02902
232.3816, 58.10242
232.8637, 60.26831
233.3458, 62.45078
233.8280, 64.51846
234.3101, 65.86908
234.7922, 66.06946
235.2743, 66.13174
235.7564, 66.71198
236.2385, 67.61420
236.7207, 68.42056
237.2028, 68.82535
237.6849, 68.92847
238.1670, 69.26877
238.6491, 70.28564
239.1312, 70.88193
239.6134, 70.67871
240.0955, 69.81808
240.5776, 68.49677
241.0597, 66.72025
241.5418, 64.61359
242.0239, 62.82233
242.5061, 61.82755
242.9882, 60.43674
243.4703, 57.94183
243.9524, 54.94464
244.4345, 52.37009
244.9166, 50.76779
245.3988, 49.85095
245.8809, 48.37802
246.3630, 45.86386
246.8451, 43.39810
247.3272, 41.02994
247.8093, 38.88654
248.2915, 37.22794
248.7736, 36.23853
249.2557, 35.67639
249.7378, 34.55936
250.2199, 32.40048
250.7020, 30.17831
251.1842, 27.85233
251.6663, 25.61667
252.1484, 23.73663
252.6305, 22.32816
253.1126, 21.27371
253.5947, 20.15875
254.0769, 18.80832
254.5590, 17.63495
255.0411, 16.74704
255.5232, 16.01306
256.0053, 15.21222
256.4874, 14.25879
256.9695, 13.34351
257.4517, 12.92856
257.9338, 13.46002
258.4159, 14.00998
258.8980, 14.70569
259.3801, 15.35779
259.8622, 15.66849
260.3444, 15.54620
260.8265, 15.31641
261.3086, 15.60083
261.7907, 16.83920
262.2728, 17.93643
262.7549, 18.78268
263.2371, 19.53024
263.7192, 20.32144
264.2013, 21.19650
264.6834, 22.10269
265.1655, 22.93924
265.6476, 23.56219
266.1298, 24.51602
266.6119, 26.33521
267.0940, 28.20642
267.5761, 29.33768
268.0582, 29.58612
268.5403, 29.39029
269.0225, 29.28311
269.5046, 29.36240
269.9867, 28.91843
270.4688, 27.53009
270.9509, 25.86838
271.4330, 24.59903
271.9152, 23.78052
272.3973, 22.83377
272.8794, 21.11261
273.3615, 18.54285
273.8436, 16.45209
274.3257, 15.48199
274.8079, 14.54480
275.2900, 12.58191
275.7721, 9.606049
276.2542, 6.775757
276.7363, 5.051178
277.2184, 4.318542
277.7006, 3.080078
278.1827, 0.5092160
278.6648, 1.900970
279.1469, 2.953522
279.6290, 2.746368
280.1111, 2.271545
280.5933, 2.026276
281.0754, 1.996155
281.5575, 1.997345
282.0396, 2.033051
282.5217, 2.099335
283.0038, 2.230255
283.4860, 2.408722
283.9681, 2.520355
284.4502, 2.460480
284.9323, 2.314056
285.4144, 2.367401
285.8965, 2.878601
286.3787, 3.003143
286.8608, 1.762054
287.3429, 0.3810120
287.8250, 1.625671
288.3071, 1.059845
288.7892, 0.2359620
289.2714, 0.5949100
289.7535, 9.5917001E-02
290.2356, 0.6606750
290.7177, 0.3500670
291.1998, 0.5097960
291.6819, 1.036865
292.1641, 0.9652710
292.6462, 0.6598210
293.1283, 0.5489200
293.6104, 0.6038820
294.0925, 0.5457460
294.5746, 0.3422240
295.0568, 6.2652998E-02
295.5389, 0.9595030
296.0210, 2.628204
296.5031, 4.049255
296.9852, 4.121368
297.4673, 3.223511
297.9495, 2.251465
298.4316, 1.209534
298.9137, 0.3705440
299.3958, 0.3703310
299.8779, 1.432770
300.3600, 2.293518
300.8422, 1.759125
301.3243, 0.4937130
301.8064, 0.3782350
302.2885, 0.5425110
302.7706, 0.2970890
303.2527, 0.1588900
303.7349, 0.8562320
304.2170, 1.330368
304.6991, 1.257706
305.1812, 0.8684540
305.6633, 0.4308470
306.1454, 9.9868998E-02
306.6276, 0.4817350
307.1097, 0.4577640
307.5918, 4.5226999E-02
308.0739, 0.4538120
308.5560, 0.9920960
309.0381, 1.535553
309.5203, 2.081436
310.0024, 2.641693
310.4845, 3.079803
310.9666, 3.205444
311.4487, 3.094193
311.9308, 3.125381
312.4130, 3.396591
312.8951, 3.800598
313.3772, 4.270218
313.8593, 4.791061
314.3414, 5.262482
314.8235, 5.557083
315.3057, 5.767975
315.7878, 6.193558
316.2699, 6.981400
316.7520, 7.681915
317.2341, 7.718887
317.7162, 7.411407
318.1984, 7.488190
318.6805, 8.576309
319.1626, 10.03195
319.6447, 10.71123
320.1268, 10.43364
320.6089, 10.30034
321.0911, 11.42899
321.5732, 12.94861
322.0553, 13.51756
322.5374, 12.38548
323.0195, 11.02919
323.5016, 11.24680
323.9838, 13.05365
324.4659, 14.40082
324.9480, 14.31631
325.4301, 13.47459
325.9122, 12.69051
326.3943, 11.98460
326.8765, 11.40422
327.3586, 11.01274
327.8407, 10.78514
328.3228, 10.61783
328.8049, 10.54817
329.2870, 10.44380
329.7692, 10.13129
330.2513, 9.633240
330.7334, 9.194138
331.2155, 9.051971
331.6976, 9.044464
332.1797, 8.806107
332.6619, 8.298859
333.1440, 7.559647
333.6261, 6.308472
334.1082, 4.817169
334.5903, 3.784424
335.0724, 3.850418
335.5546, 4.284103
336.0367, 4.140625
336.5188, 3.318588
337.0009, 2.220673
337.4830, 0.8210600
337.9651, 0.5328520
338.4473, 1.194626
338.9294, 0.8185420
339.4115, 0.2061770
339.8936, 1.6144000E-02
340.3758, 0.1875310
340.8579, 0.2241520
341.3400, 0.1403960
341.8221, 0.6457370
342.3042, 0.8536830
342.7863, 0.7041170
343.2685, 0.6313630
343.7506, 0.9178310
344.2327, 1.436646
344.7148, 1.818542
345.1969, 1.870087
345.6790, 2.036118
346.1612, 3.256683
346.6433, 5.321671
347.1254, 6.839294
347.6075, 6.862915
348.0896, 6.466705
348.5717, 7.081650
349.0539, 8.826141
349.5360, 10.79291
350.0181, 12.42387
350.5002, 13.75406
350.9823, 14.99367
351.4644, 15.71629
351.9466, 16.71823
352.4287, 18.80449
352.9108, 21.75748
353.3929, 24.49109
353.8750, 26.36412
354.3571, 27.77057
354.8393, 29.73999
355.3214, 32.54199
355.8035, 35.20575
356.2856, 37.15163
356.7677, 38.75217
357.2498, 40.82404
357.7320, 43.68874
358.2141, 46.63014
358.6962, 48.65894
359.1783, 49.64789
359.6604, 50.46889
360.1425, 51.45593
360.6247, 52.25049
361.1068, 52.19730
361.5889, 51.33945
362.0710, 50.82925
362.5531, 51.80833
363.0352, 54.23889
363.5174, 55.69710
363.9995, 55.48163
364.4816, 55.07648
364.9637, 55.35437
365.4458, 56.06055
365.9279, 56.34848
366.4101, 55.70433
366.8922, 54.49355
367.3743, 53.95358
367.8564, 54.52454
368.3385, 55.08493
368.8206, 55.46304
369.3028, 55.76987
369.7849, 56.18562
370.2670, 56.74825
370.7491, 57.26575
371.2312, 57.49139
371.7133, 57.43379
372.1955, 56.96075
372.6776, 55.64883
373.1597, 54.31299
373.6418, 53.74854
374.1239, 53.72714
374.6060, 53.24159
375.0882, 51.44075
375.5703, 48.36597
376.0524, 45.25653
376.5345, 41.80957
377.0166, 38.65428
377.4987, 35.96205
377.9809, 33.63286
378.4630, 31.49811
378.9451, 29.48033
379.4272, 27.63170
379.9093, 26.12561
380.3914, 25.45695
380.8736, 24.26744
381.3557, 22.01595
381.8378, 19.63210
382.3199, 17.80681
382.8020, 16.61520
383.2841, 15.68477
383.7663, 14.63985
384.2484, 13.48108
384.7305, 12.20070
385.2126, 10.34555
385.6947, 8.797638
386.1768, 7.926086
386.6590, 7.576614
387.1411, 7.401978
387.6232, 7.188614
388.1053, 7.002029
388.5874, 7.168060
389.0695, 8.185669
389.5517, 8.598648
390.0338, 7.628036
390.5159, 6.293594
390.9980, 5.596664
391.4801, 5.790466
391.9622, 6.168549
392.4444, 5.702805
392.9265, 4.303345
393.4086, 3.424423
393.8907, 3.763824
394.3728, 4.173859
394.8549, 3.883835
395.3371, 2.976639
395.8192, 2.004379
396.3013, 1.423264
396.7834, 1.228729
397.2655, 1.150803
397.7477, 1.175598
398.2298, 1.225296
398.7119, 1.209686
399.1940, 1.261826
399.6761, 1.573914
400.1582, 2.267593
400.6404, 3.005280
401.1225, 3.484512
401.6046, 3.751709
402.0867, 3.857193
402.5688, 3.845078
403.0509, 3.726181
403.5331, 3.455444
404.0152, 3.025635
404.4973, 2.770767
404.9794, 3.071060
405.4615, 3.571640
405.9436, 3.494965
406.4258, 2.665588
406.9079, 2.019577
407.3900, 2.458405
407.8721, 3.789307
408.3542, 4.892654
408.8363, 5.585266
409.3185, 6.128357
409.8006, 6.712891
410.2827, 7.291779
410.7648, 7.578735
411.2469, 7.306335
411.7290, 6.950821
412.2112, 7.751358
412.6933, 10.26266
413.1754, 12.35208
413.6575, 13.42786
414.1396, 14.01715
414.6217, 14.66402
415.1039, 15.46564
415.5860, 16.21053
416.0681, 16.64211
416.5502, 16.70045
417.0323, 17.11264
417.5144, 18.12711
417.9966, 19.19867
418.4787, 20.08006
418.9608, 20.85641
419.4429, 21.71208
419.9250, 22.74094
420.4071, 23.93320
420.8893, 25.27679
421.3714, 26.93648
421.8535, 28.41031
422.3356, 29.41620
422.8177, 30.46660
423.2998, 32.08006
423.7820, 34.24512
424.2641, 36.42450
424.7462, 38.03204
425.2283, 39.00632
425.7104, 40.09042
426.1925, 41.46599
426.6747, 42.76544
427.1568, 43.91299
427.6389, 44.91302
428.1210, 45.81514
428.6031, 46.66275
429.0852, 47.29865
429.5674, 47.42558
430.0495, 47.02231
430.5316, 46.21983
431.0137, 45.03685
431.4958, 43.44801
431.9779, 41.24202
432.4601, 38.46687
432.9422, 35.67888
433.4243, 33.45882
433.9064, 31.61781
434.3885, 29.19156
434.8706, 25.81506
435.3528, 22.57344
435.8349, 20.07506
436.3170, 18.18132
436.7991, 16.77928
437.2812, 16.15436
437.7633, 15.58240
438.2455, 14.24419
438.7276, 12.26160
439.2097, 10.57573
439.6918, 9.651382
440.1739, 8.962296
440.6560, 7.596756
441.1382, 5.474335
441.6203, 3.713150
442.1024, 2.711212
442.5845, 2.185181
443.0666, 1.890854
443.5487, 1.786163
444.0309, 1.820755
444.5130, 2.025620
444.9951, 2.348267
445.4772, 2.306213
445.9593, 1.753143
446.4414, 1.070068
446.9236, 0.2753910
447.4057, 0.5497590
447.8878, 1.382401
448.3699, 2.205170
448.8520, 2.778183
449.3341, 2.667450
449.8163, 1.430099
450.2984, 0.7751920
450.7805, 1.144363
451.2626, 1.601364
451.7447, 1.776276
452.2268, 1.620499
452.7090, 1.110458
453.1911, 0.1696010
453.6732, 1.009659
454.1553, 1.573853
454.6374, 0.9935460
455.1195, 0.7134860
455.6017, 1.166351
456.0838, 1.845627
456.5659, 2.474075
457.0480, 2.945206
457.5301, 3.024017
458.0122, 2.107346
458.4944, 0.2265780
458.9765, 0.5575710
459.4586, 0.4505920
459.9407, 1.632935
460.4228, 2.212250
460.9049, 2.355087
461.3871, 2.294205
461.8692, 1.937531
462.3513, 1.696198
462.8334, 2.289505
463.3155, 3.673752
463.7976, 4.629715
464.2798, 4.572113
464.7619, 4.165634
465.2440, 4.360077
465.7261, 5.176575
466.2082, 5.695633
466.6903, 5.282516
467.1725, 4.578064
467.6546, 4.457550
468.1367, 4.952667
468.6188, 5.392441
469.1009, 5.357773
469.5830, 4.893845
470.0652, 4.229263
470.5473, 2.810547
471.0294, 1.915314
471.5115, 2.496765
471.9936, 3.518753
472.4757, 3.458664
472.9579, 1.997635
473.4400, 0.3116000
473.9221, 0.1245570
474.4042, 1.003418
474.8863, 1.559464
475.3684, 1.128799
475.8506, 0.6419980
476.3327, 0.4471590
476.8148, 0.4305730
477.2969, 0.3146360
477.7790, 4.1382000E-02
478.2611, 0.4326930
478.7433, 0.3472900
479.2254, 0.4845120
479.7075, 1.027130
480.1896, 1.023849
480.6717, 0.8197780
481.1538, 0.4247590
481.6360, 4.8431002E-02
482.1181, 0.2616580
482.6002, 0.2020420
483.0823, 1.032211
483.5644, 1.299042
484.0465, 0.8649900
484.5287, 0.3615110
485.0108, 3.9963000E-02
485.4929, 0.3047940
485.9750, 0.3838810
486.4571, 0.2581180
486.9392, 7.0190001E-03
487.4214, 0.4487610
487.9035, 0.9773560
488.3856, 1.204483
488.8677, 1.026886
489.3498, 0.9203340
489.8319, 1.396729
490.3141, 2.386063
490.7962, 2.926895
491.2783, 2.619339
491.7604, 2.295517
492.2425, 2.370026
492.7246, 2.688187
493.2068, 2.905121
493.6889, 2.898636
494.1710, 2.918243
494.6531, 3.395081
495.1352, 4.624405
495.6173, 5.364288
496.0995, 5.311951
496.5816, 5.139893
497.0637, 5.124893
497.5458, 5.249283
498.0279, 5.353271
498.5100, 5.322525
498.9922, 5.345871
499.4743, 6.026215
499.9564, 7.857681
500.4385, 9.081726
500.9206, 8.688232
501.4027, 8.227768
501.8849, 8.873260
502.3670, 10.47235
502.8491, 11.81070
503.3312, 11.81902
503.8133, 11.01495
504.2954, 10.85081
504.7776, 11.45096
505.2597, 12.03825
505.7418, 12.23361
506.2239, 12.22862
506.7060, 12.32837
507.1881, 12.62646
507.6703, 12.98874
508.1524, 13.37318
508.6345, 13.62407
509.1166, 13.52722
509.5987, 13.06866
510.0808, 12.53873
510.5630, 12.16896
511.0451, 11.97646
511.5272, 11.78828
512.0093, 11.24509
512.4914, 11.06451
512.9735, 11.71600
513.4556, 12.75435
513.9377, 13.63422
514.4199, 14.18825
514.9020, 14.52901
515.3841, 14.79848
515.8662, 15.02028
516.3483, 14.96484
516.8304, 14.03844
517.3126, 13.50552
517.7947, 13.78586
518.2768, 14.59380
518.7589, 15.57991
519.2410, 16.62053
519.7231, 17.56952
520.2053, 18.09911
520.6874, 18.15747
521.1695, 18.63133
521.6516, 19.92249
522.1337, 21.27998
522.6158, 21.83679
523.0980, 22.01468
523.5801, 23.07672
524.0622, 26.08707
524.5443, 29.55383
525.0264, 31.98145
525.5085, 33.47958
525.9907, 34.50253
526.4728, 35.10017
526.9549, 35.54329
527.4370, 36.10245
527.9191, 36.66602
528.4012, 38.05255
528.8834, 41.20631
529.3655, 44.48186
529.8476, 46.50549
530.3297, 47.64812
530.8118, 49.20857
531.2939, 51.91928
531.7761, 55.25471
532.2582, 57.88882
532.7403, 59.37172
533.2224, 60.90378
533.7045, 62.39297
534.1866, 64.01462
534.6688, 66.16109
535.1509, 68.56755
535.6330, 70.44826
536.1151, 71.17128
536.5972, 71.20770
537.0793, 72.05878
537.5615, 74.16125
538.0436, 75.19373
538.5257, 73.70517
539.0078, 71.43730
539.4899, 69.97298
539.9720, 69.27798
540.4542, 68.47748
540.9363, 67.29852
541.4184, 65.76920
541.9005, 63.71977
542.3826, 61.11810
542.8647, 58.48387
543.3469, 56.08755
543.8290, 53.90659
544.3111, 51.81850
544.7932, 49.71126
545.2753, 47.82275
545.7574, 46.24825
546.2396, 44.85516
546.7217, 43.81010
547.2038, 42.93317
547.6859, 41.52032
548.1680, 38.91154
548.6501, 35.51732
549.1323, 33.16219
549.6144, 32.49640
550.0965, 31.85127
550.5786, 31.05673
551.0607, 30.07011
551.5428, 28.81781
552.0250, 27.39577
552.5071, 26.15352
552.9892, 25.41483
553.4713, 25.01427
553.9534, 24.38176
554.4355, 23.41060
554.9177, 22.78947
555.3998, 23.16841
555.8819, 23.75931
556.3640, 23.36015
556.8461, 21.79517
557.3282, 20.57089
557.8104, 20.40033
558.2925, 20.79950
558.7746, 21.32240
559.2567, 21.90868
559.7388, 22.47765
560.2209, 23.03621
560.7031, 23.46339
561.1852, 23.37048
561.6673, 21.94870
562.1494, 21.14809
562.6315, 21.41577
563.1136, 21.98238
563.5958, 22.25111
564.0779, 22.27269
564.5600, 22.50958
565.0421, 23.35033
565.5242, 24.53673
566.0063, 25.13811
566.4885, 24.89293
566.9706, 24.81894
567.4527, 25.33470
567.9348, 25.96825
568.4169, 26.39334
568.8990, 26.61565
569.3812, 26.84952
569.8633, 27.05835
570.3454, 27.41911
570.8275, 28.40256
571.3096, 29.94315
571.7917, 31.08861
572.2739, 31.39485
572.7560, 31.17413
573.2381, 30.83002
573.7202, 30.10133
574.2023, 30.25816
574.6844, 32.54716
575.1666, 34.78058
575.6487, 35.34682
576.1308, 34.58870
576.6129, 33.67099
577.0950, 33.19781
577.5771, 32.89317
578.0593, 32.07927
578.5414, 30.43190
579.0235, 29.16084
579.5056, 28.88567
579.9877, 28.47040
580.4698, 27.40378
580.9520, 25.79228
581.4341, 23.88271
581.9162, 21.63693
582.3983, 19.45148
582.8804, 18.00792
583.3625, 17.21968
583.8447, 16.17926
584.3268, 14.57863
584.8089, 12.90561
585.2910, 11.79344
585.7732, 11.16217
586.2553, 10.16655
586.7374, 8.189102
587.2195, 6.401932
587.7017, 5.631958
588.1838, 5.415817
588.6659, 4.856400
589.1480, 3.705246
589.6301, 2.537231
590.1122, 2.094971
590.5944, 2.473785
591.0765, 2.677505
591.5586, 2.857452
592.0407, 2.654572
592.5228, 1.558533
593.0049, 0.2361910
593.4871, 0.5410610
593.9692, 0.5798650
594.4513, 0.2231900
594.9334, 0.5325010
595.4155, 1.466949
595.8976, 1.429245
596.3798, 0.1148830
596.8619, 1.074661
597.3440, 1.216232
597.8261, 0.7037200
598.3082, 0.5895690
598.7903, 1.138748
599.2725, 1.415024
599.7546, 0.7298280
600.2367, 0.1382290
600.7188, 0.2303160
601.2009, 0.4126740
601.6830, 1.019241
602.1652, 1.069550
602.6473, 0.6916960
603.1294, 0.3341670
603.6115, 0.1378940
604.0936, 0.3266910
604.5757, 0.2137150
605.0579, 0.6491550
605.5400, 0.1739200
606.0221, 0.8945620
606.5042, 1.426865
606.9863, 0.5377200
607.4684, 0.8332520
607.9506, 1.083572
608.4327, 0.2412260
608.9148, 0.5847170
609.3969, 1.160355
609.8790, 1.529633
610.3611, 1.649567
610.8433, 1.547806
611.3254, 1.571121
611.8075, 1.896500
612.2896, 2.208450
612.7717, 2.475784
613.2538, 2.578766
613.7360, 2.205139
614.2181, 1.300308
614.7002, 0.3345180
615.1823, 0.1523280
615.6644, 0.1473690
616.1465, 6.3919000E-02
616.6287, 0.5684810
617.1108, 1.170792
617.5929, 2.092575
618.0750, 2.925034
618.5571, 3.134750
619.0392, 2.647949
619.5214, 2.124908
620.0035, 2.116302
620.4856, 2.415787
620.9677, 2.564331
621.4498, 2.539932
621.9319, 2.436600
622.4141, 2.168198
622.8962, 1.990555
623.3783, 2.589630
623.8604, 4.357468
624.3425, 5.564957
624.8246, 5.626663
625.3068, 5.412292
625.7889, 5.548157
626.2710, 5.892838
626.7531, 5.912094
627.2352, 5.333893
627.7173, 4.582947
628.1995, 4.518219
628.6816, 5.315094
629.1637, 5.813477
629.6458, 5.797180
630.1279, 5.664719
630.6100, 5.520447
631.0922, 5.429916
631.5743, 5.541382
632.0564, 5.960663
632.5385, 6.375061
633.0206, 6.405258
633.5027, 6.310196
633.9849, 6.765518
634.4670, 7.848526
634.9491, 8.683670
635.4312, 8.519882
635.9133, 7.665131
636.3954, 7.582245
636.8776, 9.002335
637.3597, 10.26326
637.8418, 11.39005
638.3239, 12.23984
638.8060, 12.50806
639.2881, 12.43478
639.7703, 12.70863
640.2524, 13.78574
640.7345, 15.32658
641.2166, 16.70818
641.6987, 17.92207
642.1808, 19.10567
642.6630, 20.39061
643.1451, 21.55215
643.6272, 22.16751
644.1093, 22.39073
644.5914, 22.88553
645.0735, 23.99670
645.5557, 25.14426
646.0378, 25.82745
646.5199, 26.47459
647.0020, 27.73241
647.4841, 29.73344
647.9662, 32.17520
648.4484, 34.76112
648.9305, 37.34778
649.4126, 39.52599
649.8947, 40.99950
650.3768, 42.63957
650.8589, 44.62663
651.3411, 46.75520
651.8232, 49.08607
652.3053, 51.53291
652.7874, 53.68967
653.2695, 55.06334
653.7516, 56.29910
654.2338, 58.20665
654.7159, 60.62498
655.1980, 63.11508
655.6801, 65.57739
656.1622, 68.12082
656.6443, 70.97615
657.1265, 74.21407
657.6086, 76.76849
658.0907, 78.24863
658.5728, 79.55278
659.0549, 80.73303
659.5370, 81.93033
660.0192, 83.39606
660.5013, 85.13799
660.9834, 86.85826
661.4655, 88.33585
661.9476, 89.57625
662.4297, 90.65190
662.9119, 91.58362
663.3940, 92.11980
663.8761, 92.07527
664.3582, 91.65903
664.8403, 91.23143
665.3224, 90.72462
665.8046, 89.55156
666.2867, 87.20938
666.7688, 84.69991
667.2509, 82.78419
667.7330, 81.02261
668.2151, 78.53510
668.6973, 75.10329
669.1794, 71.52306
669.6615, 68.61465
670.1436, 66.30069
670.6257, 63.45724
671.1078, 59.84483
671.5900, 56.18173
672.0721, 52.22487
672.5542, 48.57112
673.0363, 45.92725
673.5184, 44.21741
674.0005, 42.23158
674.4827, 39.11354
674.9648, 35.71126
675.4469, 32.67220
675.9290, 30.03999
676.4111, 28.04550
676.8932, 26.77594
677.3754, 25.64301
677.8575, 23.92639
678.3396, 21.58917
678.8217, 19.63815
679.3038, 18.31444
679.7859, 17.08844
680.2681, 15.94345
680.7502, 14.82379
681.2323, 13.61436
681.7144, 12.35495
682.1965, 11.28577
682.6786, 10.73291
683.1608, 10.36147
683.6429, 9.580154
684.1250, 8.441345
684.6071, 7.357956
685.0892, 6.341354
685.5714, 5.556900
686.0535, 5.223480
686.5356, 5.380157
687.0177, 5.310440
687.4998, 4.777435
687.9819, 4.336655
688.4641, 4.290192
688.9462, 4.300461
689.4283, 3.956818
689.9104, 3.263306
690.3925, 2.577393
690.8746, 2.098602
691.3568, 1.888031
691.8389, 2.340271
692.3210, 3.508209
692.8031, 3.958694
693.2852, 3.103271
693.7673, 1.806854
694.2495, 0.8022310
694.7316, 0.1065220
695.2137, 0.1736450
695.6958, 0.3190610
696.1779, 0.7925870
696.6600, 1.053772
697.1422, 1.112274
697.6243, 0.8885350
698.1064, 0.4433590
698.5885, 5.3344999E-02
699.0706, 4.9651999E-02
699.5527, 1.5305000E-02
700.0349, 0.1578370
700.5170, 0.6507110
700.9991, 0.8477330
701.4812, 0.5727230
701.9633, 5.2901998E-02
702.4454, 0.7871250
702.9276, 1.752472
703.4097, 2.143524
703.8918, 1.613464
704.3739, 0.8462220
704.8560, 0.3611150
705.3381, 1.378174
705.8203, 1.168655
706.3024, 0.1291350
706.7845, 1.253189
707.2666, 1.299347
707.7487, 0.7111820
708.2308, 0.7880250
708.7130, 1.773270
709.1951, 2.250626
709.6772, 1.722092
710.1593, 1.106995
710.6414, 1.037018
711.1235, 1.298019
711.6057, 1.420425
712.0878, 1.311279
712.5699, 1.097687
713.0520, 0.7789150
713.5341, 0.4291990
714.0162, 7.7087000E-02
714.4984, 0.2303620
714.9805, 0.3845370
715.4626, 0.3310390
715.9447, 2.8441999E-02
716.4268, 0.7796480
716.9089, 2.417053
717.3911, 3.065659
717.8732, 1.960403
718.3553, 0.8391270
718.8374, 0.4696350
719.3195, 0.6150820
719.8016, 0.9689180
720.2838, 1.566971
720.7659, 2.063309
721.2480, 2.355881
721.7301, 2.427536
722.2122, 2.074905
722.6943, 1.468948
723.1765, 1.216858
723.6586, 1.590393
724.1407, 2.059357
724.6228, 1.658371
725.1049, 0.1767120
725.5870, 0.1120450
726.0692, 1.686981
726.5513, 3.231888
727.0334, 3.696182
727.5155, 3.552536
727.9976, 3.004440
728.4797, 2.107864
728.9619, 1.686157
729.4440, 2.582153
729.9261, 3.675003
730.4082, 3.955017
730.8903, 3.653748
731.3724, 3.311951
731.8546, 3.104034
732.3367, 2.921432
732.8188, 2.620102
733.3009, 2.250031
733.7830, 2.340240
734.2651, 3.208130
734.7473, 3.851990
735.2294, 3.967880
735.7115, 3.860397
736.1936, 3.656021
736.6757, 3.340836
737.1578, 3.149902
737.6400, 3.324890
738.1221, 3.513901
738.6042, 3.426178
739.0863, 3.222290
739.5684, 3.318832
740.0505, 3.672440
740.5327, 3.544067
741.0148, 2.291153
741.4969, 0.4752660
741.9790, 0.1197970
742.4611, 0.8539580
742.9432, 1.789856
743.4254, 2.786713
743.9075, 3.395309
744.3896, 3.056854
744.8717, 2.258163
745.3538, 1.936722
745.8359, 2.381226
746.3181, 2.829483
746.8002, 2.984314
747.2823, 2.942596
747.7644, 2.773254
748.2465, 2.497543
748.7286, 2.062805
749.2108, 1.446243
749.6929, 0.9420320
750.1750, 1.141479
750.6571, 2.108261
751.1392, 2.346741
751.6213, 1.481186
752.1035, 0.7399290
752.5856, 0.4991460
753.0677, 0.6962280
753.5498, 1.543045
754.0319, 3.053726
754.5140, 3.833267
754.9962, 2.681335
755.4783, 1.608566
755.9604, 2.264801
756.4425, 3.602768
756.9246, 3.855621
757.4067, 2.769440
757.8889, 1.539581
758.3710, 1.187607
758.8531, 1.479004
759.3352, 1.548203
759.8173, 1.352325
760.2994, 1.473221
760.7816, 2.172256
761.2637, 2.913803
761.7458, 3.298981
762.2279, 3.340286
762.7100, 3.116623
763.1921, 2.395859
763.6743, 1.800995
764.1564, 1.509277
764.6385, 1.409302
765.1206, 1.669113
765.6027, 2.056549
766.0848, 1.932709
766.5670, 0.9721680
767.0491, 9.9518001E-02
767.5312, 0.1811070
768.0133, 0.5164950
768.4954, 0.7666780
768.9775, 0.4360810
769.4597, 0.1966550
769.9418, 0.3793030
770.4239, 0.8220520
770.9060, 1.294357
771.3881, 1.877121
771.8702, 2.106857
772.3524, 1.733917
772.8345, 1.310211
773.3166, 0.8254550
773.7987, 0.5396420
774.2808, 0.9895940
774.7629, 2.048386
775.2451, 2.603256
775.7272, 1.496201
776.2093, 0.1343080
776.6914, 0.4456480
777.1735, 0.2433780
777.6556, 0.5682220
778.1378, 0.2067870
778.6199, 0.2508540
779.1020, 0.3008120
779.5841, 1.9362999E-02
780.0662, 0.1983640
780.5483, 0.2270200
781.0305, 0.4313810
781.5126, 1.266861
781.9947, 1.843277
782.4768, 1.413361
782.9589, 0.4806670
783.4410, 9.1309004E-02
783.9232, 0.6530000
784.4053, 1.211792
784.8874, 1.073196
785.3695, 0.7189180
785.8516, 0.9124150
786.3337, 1.448853
786.8159, 1.408890
787.2980, 0.4339290
787.7801, 0.7603000
788.2622, 1.238327
788.7443, 1.017242
789.2264, 0.7389220
789.7086, 0.3686830
790.1907, 3.5828002E-02
790.6728, 0.2199860
791.1549, 0.4274750
791.6370, 0.7418210
792.1191, 1.097351
792.6013, 0.9815370
793.0834, 0.4270170
793.5655, 1.391129
794.0476, 0.9303590
794.5297, 6.7596003E-02
795.0118, 0.7790530
795.4940, 1.137680
795.9761, 1.416550
796.4582, 1.775436
796.9403, 2.063766
797.4224, 1.944641
797.9045, 1.507233
798.3867, 1.440964
798.8688, 1.858948
799.3509, 2.096207
799.8330, 1.725021
800.3151, 1.119827
800.7972, 0.8400420
801.2794, 0.9654850
801.7615, 1.092102
802.2436, 1.320343
802.7257, 1.428238
803.2078, 1.105804
803.6899, 0.7919310
804.1721, 1.083420
804.6542, 1.928284
805.1363, 2.573105
805.6184, 2.595200
806.1005, 2.261475
806.5826, 1.635880
807.0648, 0.9112550
807.5469, 0.5469210
808.0290, 0.6050110
808.5111, 0.8196870
808.9932, 0.9979400
809.4753, 1.218552
809.9575, 1.840759
810.4396, 3.171204
810.9217, 3.431580
811.4038, 1.730698
811.8859, 0.2945560
812.3680, 0.5655210
812.8502, 1.621841
813.3323, 2.179092
813.8144, 2.139709
814.2965, 1.931992
814.7786, 1.172119
815.2607, 0.7820890
815.7429, 1.698120
816.2250, 3.132721
816.7071, 3.985443
817.1892, 4.058914
817.6713, 3.771011
818.1534, 3.274185
818.6356, 2.863678
819.1177, 3.393524
819.5998, 4.677490
820.0819, 5.095490
820.5640, 4.267532
821.0461, 3.456116
821.5283, 3.628220
822.0104, 4.377182
822.4925, 4.442017
822.9746, 3.358109
823.4567, 2.624802
823.9388, 2.497498
824.4210, 2.422821
824.9031, 2.059692
825.3852, 1.705490
825.8673, 1.813309
826.3494, 2.425858
826.8315, 3.066788
827.3137, 3.708618
827.7958, 4.107483
828.2779, 3.837219
828.7600, 3.247070
829.2421, 3.042633
829.7242, 3.302399
830.2064, 3.479294
830.6885, 3.112579
831.1706, 2.500778
831.6527, 2.492249
832.1348, 3.117752
832.6169, 3.258240
833.0991, 2.533127
833.5812, 2.183731
834.0633, 3.239380
834.5454, 4.907684
835.0275, 5.439087
835.5096, 4.239334
835.9918, 3.574570
836.4739, 3.614365
836.9560, 3.987823
837.4381, 4.917679
837.9202, 5.895294
838.4023, 6.415222
838.8845, 6.414063
839.3666, 6.089493
839.8487, 5.401932
840.3308, 4.619965
840.8129, 3.952179
841.2950, 3.413589
841.7772, 3.019638
842.2593, 2.783264
842.7414, 2.760910
843.2235, 2.995956
843.7056, 3.424911
844.1877, 4.026276
844.6699, 4.851563
845.1520, 5.087952
845.6341, 4.404739
846.1162, 3.892853
846.5983, 4.134644
847.0804, 4.744522
847.5626, 5.268982
848.0447, 5.703918
848.5268, 5.827042
849.0089, 5.347885
849.4910, 4.916260
849.9731, 4.498886
850.4553, 4.376724
850.9374, 5.160812
851.4195, 6.409714
851.9016, 6.868027
852.3837, 5.734589
852.8658, 4.491913
853.3480, 4.783157
853.8301, 5.786728
854.3122, 5.944443
854.7943, 5.342957
855.2764, 5.073601
855.7585, 5.611969
856.2407, 6.244026
856.7228, 5.880325
857.2049, 6.282501
857.6870, 6.649300
858.1691, 6.129761
858.6512, 7.086319
859.1334, 6.621811
859.6155, 5.940430
860.0976, 6.348450
860.5797, 7.507973
861.0618, 7.507317
861.5439, 5.262314
862.0261, 3.705070
862.5082, 3.272072
862.9903, 3.469620
863.4724, 4.398010
863.9545, 5.612816
864.4366, 6.470184
864.9188, 6.823601
865.4009, 6.885124
865.8830, 6.595345
866.3651, 6.248367
866.8472, 6.113594
867.3293, 6.205017
867.8115, 6.677635
868.2936, 7.489838
868.7757, 8.103279
869.2578, 8.084679
869.7399, 7.658600
870.2220, 7.324768
870.7042, 7.079193
871.1863, 7.012856
871.6684, 7.136078
872.1505, 7.462929
872.6326, 8.023567
873.1147, 8.718285
873.5969, 9.363686
874.0790, 10.02700
874.5611, 10.26486
875.0432, 9.739105
875.5253, 9.257164
876.0074, 8.849709
876.4896, 8.678902
876.9717, 9.096130
877.4538, 9.937569
877.9359, 10.38880
878.4180, 9.834244
878.9001, 9.499931
879.3823, 10.57344
879.8644, 11.92965
880.3465, 12.26888
880.8286, 11.80139
881.3107, 11.32095
881.7928, 11.12717
882.2750, 11.02982
882.7571, 10.72601
883.2392, 10.40616
883.7213, 10.87875
884.2034, 12.07397
884.6855, 12.66859
885.1677, 12.30739
885.6498, 11.94494
886.1319, 12.43923
886.6140, 12.05226
887.0961, 11.83362
887.5782, 12.14349
888.0604, 11.39739
888.5425, 11.80830
889.0246, 12.16309
889.5067, 11.77879
889.9888, 11.20051
890.4709, 11.18983
890.9531, 11.76340
891.4352, 11.87690
891.9173, 10.87665
892.3994, 9.923195
892.8815, 9.481071
893.3636, 9.310562
893.8458, 9.283234
894.3279, 9.297859
894.8100, 9.190140
895.2921, 8.888809
895.7742, 8.463310
896.2563, 7.966721
896.7385, 7.397552
897.2206, 6.613190
897.7027, 5.742424
898.1848, 5.333946
898.6669, 5.543335
899.1490, 6.006516
899.6312, 6.456161
900.1133, 6.762169
900.5954, 6.186745
901.0775, 4.575897
901.5596, 4.025436
902.0417, 5.223236
902.5239, 6.179642
903.0060, 5.670982
903.4881, 4.199501
903.9702, 2.633362
904.4523, 0.6490400
904.9344, 9.7747996E-02
905.4166, 1.903404
905.8987, 3.179855
906.3808, 2.420441
906.8629, 1.062851
907.3450, 0.1821900
907.8271, 0.1785580
908.3093, 0.1898420
908.7914, 0.3058090
909.2735, 0.7236560
909.7556, 0.6405940
910.2377, 0.5095440
910.7198, 0.8219990
911.2020, 1.379868
911.6841, 1.794220
912.1662, 1.929474
912.6483, 1.755501
913.1304, 0.9994280
913.6125, 0.1388630
914.0947, 7.9570003E-03
914.5768, 0.4370650
915.0589, 0.9664080
915.5410, 1.487625
916.0231, 1.846405
916.5052, 1.939438
916.9874, 1.851334
917.4695, 1.752777
917.9516, 1.647781
918.4337, 1.359726
918.9158, 0.8123090
919.3979, 0.4412230
919.8801, 0.4503560
920.3622, 0.5604020
920.8443, 0.3336410
921.3264, 0.1212160
921.8085, 0.3851240
922.2906, 3.242958
922.7728, 4.782013
923.2549, 3.930595
923.7370, 2.785194
924.2191, 2.290512
924.7012, 2.136154
925.1833, 1.808434
925.6655, 1.240120
926.1476, 0.7290040
926.6297, 0.3250580
927.1118, 4.7173001E-02
927.5939, 3.8589001E-02
928.0760, 6.4819001E-02
928.5582, 0.3221050
929.0403, 0.9227980
929.5224, 0.9535370
930.0045, 6.0879998E-03
930.4866, 1.083862
930.9688, 1.388985
931.4509, 1.367180
931.9330, 1.809349
932.4151, 2.543907
932.8972, 3.013947
933.3793, 3.035843
933.8615, 2.486511
934.3436, 1.123138
934.8257, 0.5754390
935.3078, 1.424042
935.7899, 1.461769
936.2720, 1.209656
936.7542, 0.7054980
937.2363, 7.2738998E-02
937.7184, 0.6892400
938.2005, 1.348473
938.6826, 1.504860
939.1647, 1.142586
939.6469, 1.088196
940.1290, 1.545044
940.6111, 1.802727
941.0932, 1.715988
941.5753, 1.401894
942.0574, 0.5762860
942.5396, 0.3447270
943.0217, 0.1827160
943.5038, 1.496918
943.9859, 2.955780
944.4680, 4.359016
944.9501, 5.134178
945.4323, 4.496284
945.9144, 3.544342
946.3965, 3.486237
946.8786, 4.228394
947.3607, 4.742836
947.8428, 4.389130
948.3250, 4.413071
948.8071, 6.083412
949.2892, 7.905090
949.7713, 8.239326
950.2534, 7.688942
950.7355, 7.604485
951.2177, 8.327629
951.6998, 9.264885
952.1819, 10.02252
952.6640, 10.68326
953.1461, 11.36047
953.6282, 12.03738
954.1104, 12.60481
954.5925, 13.08144
955.0746, 13.64936
955.5567, 14.40643
956.0388, 15.25912
956.5209, 16.02757
957.0031, 16.85612
957.4852, 17.97340
957.9673, 19.31731
958.4494, 20.90827
958.9315, 22.82738
959.4136, 24.58051
959.8958, 25.77587
960.3779, 26.60944
960.8600, 27.54722
961.3421, 28.55333
961.8242, 29.91321
962.3063, 31.86226
962.7885, 33.63480
963.2706, 34.95248
963.7527, 35.96812
964.2348, 36.62633
964.7169, 37.04509
965.1990, 38.09950
965.6812, 40.74880
966.1633, 42.55560
966.6454, 42.99693
967.1275, 43.18629
967.6096, 43.61800
968.0917, 44.04474
968.5739, 44.17741
969.0560, 43.98740
969.5381, 43.49707
970.0202, 42.46698
970.5023, 41.46262
970.9844, 40.93573
971.4666, 40.28019
971.9487, 38.72751
972.4308, 36.74973
972.9129, 35.38515
973.3950, 34.90831
973.8771, 34.44560
974.3593, 33.61781
974.8414, 32.42874
975.3235, 30.46651
975.8056, 28.37220
976.2877, 27.25050
976.7698, 26.96346
977.2520, 26.49102
977.7341, 25.35023
978.2162, 24.14813
978.6983, 23.63242
979.1804, 23.44932
979.6625, 22.96748
980.1447, 22.25310
980.6268, 21.42612
981.1089, 20.59337
981.5910, 20.41792
982.0731, 21.47530
982.5552, 22.75587
983.0374, 22.23121
983.5195, 20.17433
984.0016, 18.41654
984.4837, 17.01559
984.9658, 16.31810
985.4479, 16.51897
985.9301, 16.73644
986.4122, 16.14628
986.8943, 14.87048
987.3764, 13.38625
987.8585, 11.64099
988.3406, 10.63023
988.8228, 10.57086
989.3049, 10.66708
989.7870, 10.72453
990.2691, 10.54435
990.7512, 9.783981
991.2333, 8.525024
991.7155, 7.836815
992.1976, 8.203133
992.6797, 8.067932
993.1618, 6.934158
993.6439, 5.859093
994.1260, 5.365723
994.6082, 5.224091
995.0903, 5.239143
995.5724, 5.423203
996.0545, 5.092339
996.5366, 3.371582
997.0187, 2.144775
997.5009, 1.917763
997.9830, 2.169518
998.4651, 2.831680
998.9472, 3.577339
999.4293, 3.978287
999.9114, 4.002266
1000.394, 3.616669
1000.876, 2.343224
1001.358, 1.396461
1001.840, 1.388695
1002.322, 1.794609
1002.804, 2.370857
1003.286, 2.898491
1003.768, 3.067192
1004.250, 2.777374
1004.733, 2.338821
1005.215, 1.729553
1005.697, 1.236473
1006.179, 1.233788
1006.661, 1.442978
1007.143, 1.478378
1007.625, 1.369095
1008.107, 1.422829
1008.590, 1.786179
1009.072, 2.070877
1009.554, 1.912430
1010.036, 1.528030
1010.518, 1.068245
1011.000, 0.6163860
1011.482, 0.2850420
1011.964, 0.1400220
1012.446, 0.4714660
1012.929, 1.520630
1013.411, 2.320839
1013.893, 1.228821
1014.375, 0.7055590
1014.857, 1.289093
1015.339, 0.7883000
1015.821, 0.2934720
1016.303, 6.7870997E-02
1016.786, 8.0321997E-02
1017.268, 0.2797160
1017.750, 0.4862140
1018.232, 0.6980820
1018.714, 0.8563080
1019.196, 0.5226590
1019.678, 0.2039870
1020.160, 0.2752530
1020.642, 0.5930790
1021.125, 1.569763
1021.607, 2.020355
1022.089, 2.032669
1022.571, 1.670502
1023.053, 0.9690480
1023.535, 0.7092290
1024.017, 0.9358900
1024.499, 1.141861
1024.981, 1.157143
1025.464, 1.212135
1025.946, 1.549255
1026.428, 2.025093
1026.910, 2.175812
1027.392, 1.973579
1027.874, 1.690811
1028.356, 1.309692
1028.838, 0.9007340
1029.321, 0.3268050
1029.803, 0.2652360
1030.285, 1.605591
1030.767, 3.873001
1031.249, 4.884422
1031.731, 4.312645
1032.213, 3.708870
1032.695, 3.027000
1033.177, 2.536560
1033.660, 2.328125
1034.142, 2.381508
1034.624, 2.793022
1035.106, 3.449669
1035.588, 3.610260
1036.070, 3.016998
1036.552, 2.536774
1037.034, 2.121750
1037.516, 1.951599
1037.999, 2.388977
1038.481, 2.785614
1038.963, 2.221191
1039.445, 0.9036180
1039.927, 0.4605870
1040.409, 1.635765
1040.891, 2.376213
1041.373, 2.638016
1041.856, 2.506416
1042.338, 1.690704
1042.820, 0.7284160
1043.302, 6.6832997E-02
1043.784, 0.2754290
1044.266, 0.1858900
1044.748, 0.8208690
1045.230, 1.448296
1045.713, 1.477097
1046.195, 1.298309
1046.677, 0.7073360
1047.159, 0.2417600
1047.641, 0.8143620
1048.123, 2.178467
1048.605, 2.556091
1049.087, 0.9646530
1049.569, 0.1714710
1050.052, 0.2659840
1050.534, 0.1211930
1051.016, 3.6812000E-02
1051.498, 0.1469730
1051.980, 0.2795640
1052.462, 0.3516540
1052.944, 0.1163860
1053.426, 1.827957
1053.908, 2.824623
1054.391, 1.946533
1054.873, 1.085602
1055.355, 1.459663
1055.837, 2.171883
1056.319, 2.101166
1056.801, 1.318878
1057.283, 0.7005540
1057.765, 0.5121460
1058.248, 0.3535390
1058.730, 2.0554001E-02
1059.212, 0.2038190
1059.694, 7.5249001E-02
1060.176, 0.3663250
1060.658, 0.1545410
1061.140, 1.238029
1061.622, 1.527611
1062.104, 0.2130890
1062.587, 0.6434480
1063.069, 0.2067410
1063.551, 1.141945
1064.033, 1.191132
1064.515, 0.8452610
1064.997, 0.6287920
1065.479, 0.5944290
1065.961, 0.6908190
1066.443, 1.009995
1066.926, 1.069153
1067.408, 0.1889110
1067.890, 0.4625400
1068.372, 1.6791999E-02
1068.854, 0.9391020
1069.336, 1.556892
1069.818, 1.873299
1070.300, 2.306297
1070.783, 3.082962
1071.265, 3.452423
1071.747, 2.651031
1072.229, 1.758247
1072.711, 1.483253
1073.193, 1.648766
1073.675, 1.972130
1074.157, 2.450890
1074.640, 3.344948
1075.122, 4.831604
1075.604, 5.932701
1076.086, 6.061020
1076.568, 5.838440
1077.050, 5.293037
1077.532, 4.794113
1078.014, 4.737701
1078.496, 5.161736
1078.979, 5.952454
1079.461, 7.094864
1079.943, 8.224449
1080.425, 9.582321
1080.907, 10.36618
1081.389, 9.505974
1081.871, 8.401054
1082.353, 8.580132
1082.836, 9.516106
1083.318, 9.790367
1083.800, 9.093079
1084.282, 8.541656
1084.764, 8.763306
1085.246, 9.054977
1085.728, 9.131622
1086.210, 9.067963
1086.693, 8.977867
1087.175, 8.771111
1087.657, 8.231689
1088.139, 7.368904
1088.621, 6.607239
1089.103, 6.226059
1089.585, 5.823639
1090.067, 4.841171
1090.549, 4.153427
1091.031, 4.675362
1091.514, 5.813286
1091.996, 6.754822
1092.478, 7.345718
1092.960, 7.584045
1093.442, 7.440361
1093.924, 6.999359
1094.406, 5.633865
1094.888, 4.691780
1095.371, 5.597389
1095.853, 7.094727
1096.335, 7.359772
1096.817, 6.544762
1097.299, 6.408981
1097.781, 7.732323
1098.263, 8.963730
1098.745, 9.708015
1099.228, 10.11480
1099.710, 10.06989
1100.192, 9.876068
1100.674, 9.629684
1101.156, 9.512123
1101.638, 10.14233
1102.120, 12.06691
1102.602, 13.21239
1103.084, 12.15453
1103.567, 11.36884
1104.049, 12.00613
1104.531, 13.16110
1105.013, 14.21570
1105.495, 15.12105
1105.977, 16.00321
1106.459, 16.99307
1106.941, 17.16032
1107.423, 15.20317
1107.906, 13.98399
1108.388, 14.68936
1108.870, 15.94673
1109.352, 17.13771
1109.834, 18.13818
1110.316, 18.77834
1110.798, 19.04118
1111.280, 19.06004
1111.763, 18.05934
1112.245, 18.21648
1112.727, 21.19658
1113.209, 23.68921
1113.691, 23.67744
1114.173, 22.60095
1114.655, 22.16428
1115.137, 22.32452
1115.620, 22.60718
1116.102, 23.18146
1116.584, 23.56461
1117.066, 23.54369
1117.548, 23.60748
1118.030, 23.87540
1118.512, 24.36258
1118.994, 25.11478
1119.476, 26.06824
1119.958, 27.01109
1120.441, 28.13191
1120.923, 28.52264
1121.405, 27.57169
1121.887, 27.26460
1122.369, 28.68590
1122.851, 29.76369
1123.333, 28.67609
1123.815, 26.48587
1124.298, 25.57617
1124.780, 26.05956
1125.262, 26.38881
1125.744, 26.50630
1126.226, 26.60602
1126.708, 26.59373
1127.190, 27.02489
1127.672, 28.39180
1128.155, 29.88585
1128.637, 30.25876
1129.119, 29.67204
1129.601, 29.57103
1130.083, 30.04741
1130.565, 29.89604
1131.047, 28.92062
1131.529, 27.91104
1132.011, 27.09766
1132.494, 27.13351
1132.976, 28.99670
1133.458, 31.54939
1133.940, 31.07574
1134.422, 27.89326
1134.904, 25.98183
1135.386, 25.49341
1135.868, 25.84904
1136.350, 26.86429
1136.833, 27.47021
1137.315, 26.82779
1137.797, 25.90802
1138.279, 26.81003
1138.761, 26.02885
1139.243, 25.77074
1139.725, 26.04393
1140.207, 25.20154
1140.690, 25.96381
1141.172, 26.36125
1141.654, 25.45999
1142.136, 24.11496
1142.618, 23.05057
1143.100, 22.33464
1143.582, 22.31656
1144.064, 22.63591
1144.547, 22.55659
1145.029, 22.09300
1145.511, 21.45093
1145.993, 20.75209
1146.475, 20.39877
1146.957, 20.89087
1147.439, 21.24565
1147.921, 20.08267
1148.403, 18.58119
1148.885, 18.23203
1149.368, 18.58287
1149.850, 18.91179
1150.332, 18.97235
1150.814, 18.42531
1151.296, 16.98549
1151.778, 15.84418
1152.260, 16.11850
1152.742, 16.47673
1153.225, 15.97221
1153.707, 15.11171
1154.189, 14.20291
1154.671, 13.48981
1155.153, 13.56152
1155.635, 14.55783
1156.117, 14.91772
1156.599, 13.78831
1157.082, 12.48286
1157.564, 10.92894
1158.046, 9.820999
1158.528, 9.735062
1159.010, 10.26263
1159.492, 11.15431
1159.974, 12.24321
1160.456, 12.46805
1160.938, 10.99002
1161.421, 10.10733
1161.903, 9.995636
1162.385, 10.37833
1162.867, 11.97758
1163.349, 13.09161
1163.831, 11.94441
1164.313, 9.601044
1164.795, 8.685806
1165.277, 9.352005
1165.760, 10.23183
1166.242, 11.72530
1166.724, 12.05794
1167.206, 10.63684
1167.688, 9.016891
1168.170, 7.865250
1168.652, 7.295593
1169.134, 7.579315
1169.617, 8.494141
1170.099, 8.915909
1170.581, 8.820663
1171.063, 8.733170
1171.545, 8.685760
1172.027, 8.592651
1172.509, 8.410187
1172.991, 8.384644
1173.474, 8.826614
1173.956, 9.219971
1174.438, 8.360672
1174.920, 6.836136
1175.402, 6.566986
1175.884, 7.183426
1176.366, 7.634613
1176.848, 7.881577
1177.330, 8.008087
1177.813, 7.987671
1178.295, 8.072601
1178.777, 8.626694
1179.259, 9.319504
1179.741, 9.983414
1180.223, 10.36229
1180.705, 9.761978
1181.187, 8.681198
1181.669, 8.276718
1182.152, 8.639481
1182.634, 8.908264
1183.116, 8.728226
1183.598, 8.282959
1184.080, 7.318542
1184.562, 6.500031
1185.044, 6.369781
1185.526, 6.577194
1186.009, 6.865799
1186.491, 7.134933
1186.973, 7.257126
1187.455, 7.211258
1187.937, 7.167358
1188.419, 7.176285
1188.901, 7.124023
1189.383, 6.778809
1189.865, 6.625412
1190.348, 7.311188
1190.830, 8.020660
1191.312, 7.577118
1191.794, 8.339752
1192.276, 8.647736
1192.758, 8.401245
1193.240, 9.122025
1193.722, 8.011719
1194.204, 7.291031
1194.687, 7.666260
1195.169, 7.908691
1195.651, 7.206253
1196.133, 6.122437
1196.615, 5.507355
1197.097, 5.310135
1197.579, 5.293839
1198.061, 5.459915
1198.544, 5.967636
1199.026, 6.770844
1199.508, 6.739563
1199.990, 5.556076
1200.472, 4.845291
1200.954, 6.044174
1201.436, 7.688950
1201.918, 7.326889
1202.401, 5.943832
1202.883, 5.590866
1203.365, 5.848190
1203.847, 5.629608
1204.329, 4.884659
1204.811, 4.039520
1205.293, 3.271851
1205.775, 2.812149
1206.257, 2.966476
1206.740, 3.278793
1207.222, 3.465530
1207.704, 3.613831
1208.186, 3.857147
1208.668, 4.085480
1209.150, 4.117889
1209.632, 3.967117
1210.114, 3.773285
1210.596, 3.557114
1211.079, 3.333572
1211.561, 2.745209
1212.043, 2.634247
1212.525, 4.322113
1213.007, 5.388245
1213.489, 3.532578
1213.971, 0.6801150
1214.453, 8.0994003E-02
1214.936, 1.115860
1215.418, 1.795868
1215.900, 1.797043
1216.382, 1.949081
1216.864, 2.425980
1217.346, 2.392380
1217.828, 1.489212
1218.310, 0.5106810
1218.792, 3.1296000E-02
1219.275, 4.5028999E-02
1219.757, 0.1742400
1220.239, 0.6131440
1220.721, 0.9517970
1221.203, 1.183517
1221.685, 1.146774
1222.167, 0.9286190
1222.649, 1.202942
1223.131, 2.125229
1223.614, 2.670242
1224.096, 1.942444
1224.578, 0.8773350
1225.060, 0.4640960
1225.542, 0.3285370
1226.024, 8.8211000E-02
1226.506, 0.2249300
1226.988, 0.6051640
1227.471, 0.9626920
1227.953, 1.037842
1228.435, 0.7467500
1228.917, 0.4050450
1229.399, 0.4734650
1229.881, 0.4519040
1230.363, 0.2118070
1230.845, 0.5651550
1231.328, 0.1207890
1231.810, 1.289764
1232.292, 2.746704
1232.774, 4.108856
1233.256, 3.666519
1233.738, 0.6024020
1234.220, 0.6058960
1234.702, 0.8009490
1235.184, 1.584915
1235.667, 1.051102
1236.149, 0.2304840
1236.631, 0.3914640
1237.113, 0.8395690
1237.595, 1.126328
1238.077, 1.299103
1238.559, 1.542694
1239.041, 1.807159
1239.523, 1.822983
1240.006, 1.612320
1240.488, 1.213989
1240.970, 0.7313540
1241.452, 0.7475590
1241.934, 1.559006
1242.416, 2.189087
1242.898, 1.449844
1243.380, 0.4297330
1243.863, 0.1628110
1244.345, 0.2614440
1244.827, 0.2732850
1245.309, 0.3264160
1245.791, 0.7031250
1246.273, 1.404572
1246.755, 2.371536
1247.237, 3.957153
1247.719, 4.503479
1248.202, 2.514420
1248.684, 1.011826
1249.166, 0.9182130
1249.648, 1.577835
1250.130, 3.080032
1250.612, 4.514877
1251.094, 4.465744
1251.576, 5.776901
1252.058, 3.754562
1252.541, 6.255524
1253.023, 6.774979
1253.505, 5.014343
1253.987, 4.087204
1254.469, 4.722229
1254.951, 5.716507
1255.433, 6.343811
1255.915, 6.656876
1256.398, 6.658386
1256.880, 6.330246
1257.362, 5.919769
1257.844, 5.666443
1258.326, 5.694870
1258.808, 6.025879
1259.290, 6.299057
1259.772, 6.360962
1260.255, 6.883728
1260.737, 6.126129
1261.219, 5.452423
1261.701, 5.527985
1262.183, 5.676071
1262.665, 5.704865
1263.147, 5.640366
1263.629, 5.412842
1264.111, 5.148605
1264.594, 5.096451
1265.076, 4.864471
1265.558, 4.604980
1266.040, 4.070297
1266.522, 4.470306
1267.004, 4.071442
1267.486, 3.930511
1267.968, 4.203598
1268.450, 3.126694
1268.933, 3.013382
1269.415, 3.214645
1269.897, 3.136780
1270.379, 2.824509
1270.861, 2.673355
1271.343, 2.661499
1271.825, 3.001511
1272.307, 3.467728
1272.790, 3.268845
1273.272, 2.579987
1273.754, 2.304520
1274.236, 2.787827
1274.718, 3.207169
1275.200, 3.105682
1275.682, 2.659409
1276.164, 1.648209
1276.646, 0.7183840
1277.129, 0.3192750
1277.611, 0.2296140
1278.093, 0.2297210
1278.575, 0.3652500
1279.057, 1.120010
1279.539, 0.9644620
1280.021, 0.9154970
1280.503, 1.412247
1280.985, 0.6856840
1281.468, 1.474197
1281.950, 2.158218
1282.432, 2.287201
1282.914, 1.982208
1283.396, 1.138412
1283.878, 0.2230530
1284.360, 0.2780610
1284.842, 0.8549800
1285.325, 0.7514950
1285.807, 0.0000000E+00
##END=



