##NAMES=Roeblingite
##RRUFFID=R070713
##IDEAL CHEMISTRY=Pb_2_Ca_6_Mn^2+^(Si_3_O_9_)_2_(SO_4_)_2_(OH)_2_&#183;4H_2_O
##LOCALITY=Parker Shaft, Franklin mine, Franklin, Franklin Mining District, Sussex Co., New Jersey, USA
##OWNER=RRUFF
##SOURCE=Michael Scott
##DESCRIPTION=Milky white massive fragment
##STATUS=The identification of this mineral has been confirmed by X-ray diffraction.
##URL=rruff.info/R070713
141.8225, 0.0000000E+00
142.3047, 10.05798
142.7868, 6.360596
143.2689, 0.1119380
143.7510, 3.880371
144.2331, 11.59326
144.7152, 12.18323
145.1974, 6.738159
145.6795, 0.9543460
146.1616, 1.275269
146.6437, 3.451904
147.1258, 5.897217
147.6079, 4.113159
148.0901, 4.0405001E-02
148.5722, 0.9545900
149.0543, 3.058716
149.5364, 8.470581
150.0185, 13.61353
150.5006, 14.36523
150.9828, 19.53015
151.4649, 32.34167
151.9470, 51.79187
152.4291, 66.59033
152.9112, 68.17090
153.3933, 69.28821
153.8755, 78.96387
154.3576, 114.5448
154.8397, 142.5505
155.3218, 150.6848
155.8039, 134.2667
156.2860, 129.7874
156.7682, 154.0651
157.2503, 190.6140
157.7324, 219.3630
158.2145, 226.9635
158.6966, 232.3928
159.1787, 244.0461
159.6609, 266.2264
160.1430, 287.4001
160.6251, 298.7565
161.1072, 305.9781
161.5893, 322.4727
162.0714, 359.2303
162.5536, 403.3816
163.0357, 446.6316
163.5178, 489.4731
163.9999, 528.2203
164.4820, 563.3452
164.9641, 594.4657
165.4463, 616.0376
165.9284, 632.8247
166.4105, 637.2574
166.8926, 621.0835
167.3747, 566.3351
167.8568, 500.5459
168.3390, 440.6561
168.8211, 389.2301
169.3032, 341.9055
169.7853, 289.8351
170.2674, 237.3274
170.7495, 196.4962
171.2317, 179.6514
171.7138, 171.2754
172.1959, 158.4277
172.6780, 141.1913
173.1601, 127.3496
173.6422, 126.3079
174.1244, 135.9314
174.6065, 148.8182
175.0886, 162.7502
175.5707, 176.7646
176.0528, 188.8785
176.5349, 196.5876
177.0171, 205.0887
177.4992, 226.3330
177.9813, 257.9303
178.4634, 281.0476
178.9455, 279.5420
179.4276, 258.5486
179.9098, 228.8833
180.3919, 183.2056
180.8740, 136.3940
181.3561, 116.8303
181.8382, 125.7950
182.3203, 139.1112
182.8025, 130.2512
183.2846, 104.2860
183.7667, 81.32837
184.2488, 71.12585
184.7309, 70.40723
185.2130, 72.28247
185.6951, 77.74817
186.1773, 82.33423
186.6594, 76.22754
187.1415, 60.89197
187.6236, 50.72864
188.1057, 55.75208
188.5878, 72.98511
189.0700, 87.43188
189.5521, 96.56116
190.0342, 103.5398
190.5163, 116.2917
190.9984, 135.0665
191.4805, 150.5546
191.9627, 155.6229
192.4448, 150.4962
192.9269, 140.9530
193.4090, 127.5050
193.8911, 110.5204
194.3732, 90.24329
194.8554, 65.89124
195.3375, 42.08740
195.8196, 22.27588
196.3017, 6.551392
196.7838, 4.902954
197.2659, 11.25720
197.7481, 12.99475
198.2302, 13.92322
198.7123, 13.88257
199.1944, 15.04663
199.6765, 17.34753
200.1586, 21.91956
200.6408, 23.40271
201.1229, 18.52234
201.6050, 7.017944
202.0871, 0.7708740
202.5692, 3.416626
203.0513, 4.516479
203.5335, 10.36792
204.0156, 21.73779
204.4977, 34.53247
204.9798, 46.77759
205.4619, 58.06262
205.9440, 70.71497
206.4262, 85.84729
206.9083, 101.6539
207.3904, 112.9647
207.8725, 118.7014
208.3546, 122.7579
208.8367, 126.5966
209.3189, 129.4777
209.8010, 135.7006
210.2831, 145.8752
210.7652, 159.6742
211.2473, 177.3848
211.7294, 202.8384
212.2116, 224.8246
212.6937, 232.2527
213.1758, 218.9222
213.6579, 211.6123
214.1400, 214.2731
214.6221, 226.7118
215.1043, 246.0470
215.5864, 275.8540
216.0685, 307.8135
216.5506, 334.1860
217.0327, 356.0256
217.5148, 370.4531
217.9970, 377.5670
218.4791, 377.5092
218.9612, 365.8383
219.4433, 338.7167
219.9254, 303.9495
220.4075, 270.5010
220.8897, 236.5092
221.3718, 208.1566
221.8539, 189.5507
222.3360, 183.5692
222.8181, 171.7363
223.3002, 150.7361
223.7824, 125.9949
224.2645, 107.8948
224.7466, 98.67651
225.2287, 91.97241
225.7108, 85.08533
226.1929, 76.51379
226.6750, 72.32715
227.1572, 74.64038
227.6393, 80.73315
228.1214, 83.73206
228.6035, 83.00610
229.0856, 80.09155
229.5677, 74.89575
230.0499, 64.24500
230.5320, 59.26477
231.0141, 64.40100
231.4962, 75.76917
231.9783, 76.21216
232.4604, 57.51233
232.9426, 38.44446
233.4247, 31.09900
233.9068, 43.69873
234.3889, 51.20728
234.8710, 49.90527
235.3531, 40.83936
235.8353, 33.37146
236.3174, 27.28711
236.7995, 23.07056
237.2816, 20.97913
237.7637, 20.56494
238.2458, 23.32617
238.7280, 30.83875
239.2101, 42.98889
239.6922, 51.86499
240.1743, 56.40125
240.6564, 58.72058
241.1385, 59.90100
241.6207, 55.71484
242.1028, 58.45874
242.5849, 75.12878
243.0670, 108.2203
243.5491, 122.3353
244.0313, 106.9049
244.5134, 81.29089
244.9955, 68.02515
245.4776, 72.88831
245.9597, 80.40894
246.4418, 88.53333
246.9240, 98.59509
247.4061, 100.6038
247.8882, 90.44153
248.3703, 75.20813
248.8524, 65.58191
249.3345, 65.48828
249.8167, 64.18579
250.2988, 57.55347
250.7809, 42.96948
251.2630, 33.37280
251.7451, 31.32324
252.2272, 32.88525
252.7094, 30.75073
253.1915, 23.04614
253.6736, 14.51208
254.1557, 6.222046
254.6378, 3.220703
255.1199, 7.267578
255.6021, 4.493896
256.0842, 1.216553
256.5663, 5.653320
257.0484, 7.737305
257.5305, 10.73840
258.0126, 16.65466
258.4948, 28.36267
258.9769, 36.09692
259.4590, 40.07922
259.9411, 40.42358
260.4232, 37.17896
260.9053, 28.61133
261.3875, 19.45129
261.8696, 11.25037
262.3517, 2.833984
262.8338, 0.5991210
263.3159, 2.328857
263.7980, 10.15356
264.2802, 17.52417
264.7623, 23.55151
265.2444, 30.85559
265.7265, 41.74280
266.2086, 57.28040
266.6907, 71.83032
267.1729, 85.72595
267.6550, 97.93884
268.1371, 103.9119
268.6192, 101.3181
269.1013, 97.45178
269.5834, 97.19446
270.0656, 101.0555
270.5477, 105.7150
271.0298, 109.8358
271.5119, 114.5189
271.9940, 127.1726
272.4761, 152.0977
272.9583, 173.8094
273.4404, 177.3047
273.9225, 157.7625
274.4046, 147.6130
274.8867, 154.8604
275.3688, 174.7185
275.8510, 185.1571
276.3331, 184.1919
276.8152, 179.5756
277.2973, 177.6431
277.7794, 178.7375
278.2615, 178.9679
278.7437, 176.5404
279.2258, 172.8099
279.7079, 174.6606
280.1900, 183.0824
280.6721, 193.2684
281.1542, 199.6184
281.6364, 201.8412
282.1185, 209.4283
282.6006, 227.5836
283.0827, 252.2363
283.5648, 264.3455
284.0469, 261.1179
284.5291, 258.4247
285.0112, 272.1414
285.4933, 302.1732
285.9754, 336.7026
286.4575, 373.8909
286.9396, 411.7904
287.4217, 444.1893
287.9038, 471.1631
288.3860, 497.6667
288.8681, 529.4418
289.3502, 564.7677
289.8323, 595.4983
290.3144, 618.8568
290.7965, 635.5403
291.2787, 648.2295
291.7608, 657.4768
292.2429, 660.1504
292.7250, 654.0161
293.2071, 639.3485
293.6892, 616.3621
294.1714, 584.4482
294.6535, 544.9169
295.1356, 495.1868
295.6177, 434.4192
296.0998, 379.2970
296.5819, 349.9672
297.0641, 339.6899
297.5462, 326.1512
298.0283, 296.5865
298.5104, 262.1522
298.9925, 243.2407
299.4746, 239.8876
299.9568, 239.1021
300.4389, 229.9250
300.9210, 214.5555
301.4031, 197.8911
301.8852, 180.1477
302.3673, 163.0502
302.8495, 150.1008
303.3316, 141.3136
303.8137, 130.8191
304.2958, 109.0325
304.7779, 82.59375
305.2600, 63.81934
305.7422, 64.82715
306.2243, 70.66589
306.7064, 64.35803
307.1885, 46.60779
307.6706, 31.32971
308.1527, 32.81946
308.6349, 41.83630
309.1170, 45.58057
309.5991, 34.67041
310.0812, 20.35632
310.5633, 10.68958
311.0454, 5.388428
311.5276, 0.8972170
312.0097, 9.258423
312.4918, 18.62866
312.9739, 19.61560
313.4560, 2.895508
313.9381, 25.28467
314.4203, 30.89099
314.9024, 21.16125
315.3845, 14.36060
315.8666, 22.98535
316.3487, 36.95703
316.8308, 46.71826
317.3130, 40.89990
317.7951, 38.19678
318.2772, 49.76868
318.7593, 74.01038
319.2414, 92.27429
319.7235, 93.13477
320.2057, 88.17822
320.6878, 86.63501
321.1699, 94.72803
321.6520, 102.5641
322.1341, 107.5166
322.6162, 109.8042
323.0984, 111.5864
323.5805, 110.2421
324.0626, 110.3888
324.5447, 115.0781
325.0268, 129.1570
325.5089, 142.9238
325.9911, 154.3654
326.4732, 163.7212
326.9553, 175.0303
327.4374, 196.4871
327.9195, 214.5375
328.4016, 221.4043
328.8838, 198.6688
329.3659, 187.8490
329.8480, 198.8329
330.3301, 226.7744
330.8122, 241.4098
331.2943, 234.4109
331.7765, 222.4829
332.2586, 215.1205
332.7407, 217.0034
333.2228, 215.0709
333.7049, 208.4956
334.1870, 197.5942
334.6692, 182.9858
335.1513, 162.1014
335.6334, 141.5504
336.1155, 125.7742
336.5976, 117.0243
337.0797, 105.6376
337.5619, 90.83911
338.0440, 73.20190
338.5261, 53.47119
339.0082, 29.75964
339.4903, 9.609497
339.9724, 2.135986
340.4546, 4.891602
340.9367, 4.486694
341.4188, 0.3250730
341.9009, 6.314087
342.3830, 5.507202
342.8651, 2.890747
343.3473, 10.36377
343.8294, 9.779419
344.3115, 2.171631
344.7936, 3.233398
345.2757, 15.91711
345.7578, 32.03296
346.2400, 39.16101
346.7221, 37.53735
347.2042, 32.59900
347.6863, 25.74255
348.1684, 17.58655
348.6505, 11.20166
349.1327, 7.549072
349.6148, 1.587280
350.0969, 17.30164
350.5790, 45.16919
351.0611, 66.86157
351.5432, 71.92322
352.0254, 67.25330
352.5075, 61.65637
352.9896, 55.45544
353.4717, 53.58228
353.9538, 66.05310
354.4359, 85.43323
354.9181, 97.37683
355.4002, 87.57068
355.8823, 72.70349
356.3644, 67.89148
356.8465, 73.52148
357.3286, 83.79590
357.8108, 100.9165
358.2929, 118.9248
358.7750, 130.4492
359.2571, 126.0248
359.7392, 120.0619
360.2213, 121.5333
360.7035, 129.9371
361.1856, 136.7019
361.6677, 130.3500
362.1498, 124.3401
362.6319, 130.2747
363.1140, 172.3975
363.5962, 205.3668
364.0783, 209.6143
364.5604, 189.4596
365.0425, 175.7788
365.5246, 179.1951
366.0067, 189.0872
366.4889, 198.8484
366.9710, 210.8047
367.4531, 218.9838
367.9352, 218.6425
368.4173, 212.7953
368.8994, 214.7140
369.3815, 225.4769
369.8636, 242.5151
370.3458, 265.7949
370.8279, 307.5881
371.3100, 336.7798
371.7921, 339.2838
372.2742, 330.7198
372.7563, 353.7125
373.2385, 431.1282
373.7206, 502.0442
374.2027, 537.1500
374.6848, 523.2637
375.1669, 528.7549
375.6490, 560.5149
376.1312, 604.5171
376.6133, 636.6133
377.0954, 653.0264
377.5775, 673.3840
378.0596, 708.7720
378.5417, 757.8735
379.0239, 796.0154
379.5060, 820.8616
379.9881, 840.7815
380.4702, 863.3502
380.9523, 888.8986
381.4344, 920.6577
381.9166, 963.8147
382.3987, 1013.132
382.8808, 1056.806
383.3629, 1094.496
383.8450, 1125.232
384.3271, 1143.503
384.8093, 1153.055
385.2914, 1165.376
385.7735, 1186.845
386.2556, 1209.638
386.7377, 1225.745
387.2198, 1234.555
387.7020, 1231.507
388.1841, 1203.141
388.6662, 1164.146
389.1483, 1133.517
389.6304, 1116.291
390.1125, 1108.475
390.5947, 1115.229
391.0768, 1130.705
391.5589, 1136.150
392.0410, 1115.396
392.5231, 1085.417
393.0052, 1058.874
393.4874, 1040.933
393.9695, 1019.226
394.4516, 987.6785
394.9337, 949.0458
395.4158, 908.3906
395.8979, 869.0117
396.3801, 826.1165
396.8622, 777.8831
397.3443, 723.4797
397.8264, 665.1633
398.3085, 597.4247
398.7906, 528.5869
399.2728, 469.1880
399.7549, 426.4552
400.2370, 384.7904
400.7191, 339.2024
401.2012, 288.6643
401.6833, 248.6221
402.1655, 225.6931
402.6476, 207.5210
403.1297, 182.5189
403.6118, 145.4972
404.0939, 113.9746
404.5760, 91.42871
405.0582, 77.24304
405.5403, 69.42993
406.0224, 70.67249
406.5045, 70.77124
406.9866, 59.50696
407.4688, 35.81140
407.9509, 22.52271
408.4330, 25.33533
408.9151, 34.46606
409.3972, 26.24170
409.8793, 0.6480710
410.3615, 21.36719
410.8436, 28.61426
411.3257, 22.87036
411.8078, 7.838989
412.2899, 18.07825
412.7720, 45.24573
413.2542, 63.32092
413.7363, 73.22534
414.2184, 77.91492
414.7005, 70.74597
415.1826, 63.01526
415.6647, 69.87903
416.1469, 91.81934
416.6290, 116.4971
417.1111, 132.7468
417.5932, 146.9460
418.0753, 166.7715
418.5574, 203.4907
419.0396, 239.1235
419.5217, 262.2191
420.0038, 274.6292
420.4859, 290.5200
420.9680, 316.5990
421.4501, 347.8473
421.9323, 380.7352
422.4144, 420.9824
422.8965, 450.7590
423.3786, 464.4526
423.8607, 466.1377
424.3428, 467.5947
424.8250, 477.0859
425.3071, 480.1387
425.7892, 471.2419
426.2713, 446.2153
426.7534, 420.3560
427.2355, 394.2930
427.7177, 366.7019
428.1998, 334.4368
428.6819, 292.2944
429.1640, 258.7832
429.6461, 241.4966
430.1282, 240.6028
430.6104, 223.8328
431.0925, 185.7185
431.5746, 145.8755
432.0567, 125.4958
432.5388, 124.9597
433.0209, 125.0510
433.5031, 120.0371
433.9852, 114.5469
434.4673, 123.0833
434.9494, 145.2871
435.4315, 166.5706
435.9136, 173.0354
436.3958, 170.4065
436.8779, 174.9070
437.3600, 191.5754
437.8421, 207.8579
438.3242, 204.4216
438.8063, 188.6145
439.2885, 181.0098
439.7706, 200.6580
440.2527, 227.2891
440.7348, 240.9451
441.2169, 238.6943
441.6990, 236.5388
442.1812, 246.9636
442.6633, 261.5127
443.1454, 270.3413
443.6275, 264.2744
444.1096, 257.8391
444.5917, 254.9854
445.0739, 255.8220
445.5560, 260.3735
446.0381, 277.9954
446.5202, 293.0083
447.0023, 296.0906
447.4844, 272.7275
447.9666, 255.4297
448.4487, 248.0774
448.9308, 246.6909
449.4129, 239.7131
449.8950, 222.0022
450.3771, 207.3953
450.8592, 201.7788
451.3413, 206.5234
451.8235, 211.5625
452.3056, 214.6477
452.7877, 221.6541
453.2698, 244.5486
453.7519, 285.1323
454.2340, 318.7715
454.7162, 333.7109
455.1983, 337.2683
455.6804, 359.4534
456.1625, 401.4280
456.6446, 443.4121
457.1267, 471.8562
457.6089, 487.3242
458.0910, 491.0046
458.5731, 477.7449
459.0552, 462.4998
459.5373, 466.8269
460.0194, 485.1199
460.5016, 498.9155
460.9837, 499.2739
461.4658, 489.3838
461.9479, 469.2627
462.4300, 436.7644
462.9121, 406.6797
463.3943, 384.5845
463.8764, 370.0200
464.3585, 362.7544
464.8406, 372.0410
465.3227, 379.7825
465.8048, 378.6846
466.2870, 368.3616
466.7691, 359.2344
467.2512, 353.0725
467.7333, 348.2195
468.2154, 343.4109
468.6975, 342.3198
469.1797, 336.1428
469.6618, 319.5828
470.1439, 298.4270
470.6260, 291.9124
471.1081, 308.9819
471.5902, 320.8835
472.0724, 315.1714
472.5545, 291.0852
473.0366, 259.3242
473.5187, 217.1216
474.0008, 176.2610
474.4829, 155.2954
474.9651, 152.3337
475.4472, 143.9512
475.9293, 119.6956
476.4114, 88.04590
476.8935, 69.22217
477.3756, 62.80273
477.8578, 54.26831
478.3399, 24.18677
478.8220, 11.71460
479.3041, 28.04517
479.7862, 15.51538
480.2683, 2.181641
480.7505, 9.513916
481.2326, 10.56445
481.7147, 10.22192
482.1968, 10.20728
482.6789, 9.521484
483.1610, 6.732910
483.6432, 1.246094
484.1253, 1.726318
484.6074, 2.744873
485.0895, 8.267334
485.5716, 9.338623
486.0537, 7.535400
486.5359, 12.76611
487.0180, 4.447510
487.5001, 36.91504
487.9822, 49.29126
488.4643, 27.85962
488.9464, 9.085938
489.4286, 14.26562
489.9107, 50.41357
490.3928, 72.41504
490.8749, 78.47363
491.3570, 73.39453
491.8391, 61.18530
492.3213, 42.01025
492.8034, 25.29492
493.2855, 14.04590
493.7676, 7.879150
494.2497, 8.309570
494.7318, 15.16260
495.2140, 19.96704
495.6961, 12.79224
496.1782, 0.5642090
496.6603, 10.20972
497.1424, 14.38354
497.6245, 14.13477
498.1067, 9.854736
498.5888, 1.826416
499.0709, 9.289551
499.5530, 30.80786
500.0351, 49.18555
500.5172, 54.87622
500.9994, 44.84253
501.4815, 38.35669
501.9636, 42.83154
502.4457, 51.14868
502.9278, 56.87573
503.4099, 55.41968
503.8921, 56.68701
504.3742, 61.44604
504.8563, 69.61230
505.3384, 81.39893
505.8205, 99.46729
506.3026, 116.3855
506.7848, 128.6704
507.2669, 136.2173
507.7490, 140.8914
508.2311, 141.6794
508.7132, 142.2156
509.1953, 148.4446
509.6775, 159.7324
510.1596, 169.0205
510.6417, 169.5537
511.1238, 169.5308
511.6059, 191.9756
512.0880, 234.2837
512.5701, 267.4871
513.0522, 265.2542
513.5344, 244.4060
514.0165, 226.1528
514.4986, 215.3901
514.9807, 204.3184
515.4628, 184.4717
515.9449, 161.2764
516.4271, 145.1985
516.9092, 152.9983
517.3913, 156.2812
517.8734, 140.6492
518.3555, 104.7783
518.8376, 75.90308
519.3198, 58.21533
519.8019, 47.72095
520.2840, 43.03003
520.7661, 51.28418
521.2482, 50.77710
521.7303, 36.52075
522.2125, 15.26294
522.6946, 2.086182
523.1767, 2.312744
523.6588, 2.414551
524.1409, 2.354736
524.6230, 10.73853
525.1052, 13.12866
525.5873, 8.950439
526.0694, 2.865479
526.5515, 2.865723
527.0336, 6.967285
527.5157, 4.563965
527.9979, 9.055908
528.4800, 23.10864
528.9621, 23.06787
529.4442, 13.25977
529.9263, 6.888672
530.4084, 14.95605
530.8906, 25.96680
531.3727, 31.70850
531.8548, 30.92871
532.3369, 29.55249
532.8190, 34.29980
533.3011, 36.96167
533.7833, 29.95532
534.2654, 6.158936
534.7475, 29.56274
535.2296, 30.17383
535.7117, 15.08252
536.1938, 10.88281
536.6760, 27.96460
537.1581, 38.06787
537.6402, 22.44556
538.1223, 22.12134
538.6044, 48.65991
539.0865, 54.22266
539.5687, 51.29126
540.0508, 55.57104
540.5329, 65.48169
541.0150, 67.24878
541.4971, 53.12964
541.9792, 34.63184
542.4614, 33.84326
542.9435, 46.71289
543.4256, 54.58716
543.9077, 35.40698
544.3898, 11.50928
544.8719, 8.395508
545.3541, 30.67969
545.8362, 51.60596
546.3183, 55.56299
546.8004, 52.59375
547.2825, 53.84448
547.7646, 67.32935
548.2468, 79.12012
548.7289, 83.40381
549.2110, 83.04321
549.6931, 91.10474
550.1752, 116.6990
550.6573, 137.9978
551.1395, 143.7229
551.6216, 129.3479
552.1037, 127.8301
552.5858, 142.6714
553.0679, 162.8323
553.5500, 177.6978
554.0322, 186.9417
554.5143, 187.2600
554.9964, 174.4402
555.4785, 157.7712
555.9606, 157.2395
556.4427, 170.0151
556.9249, 178.9954
557.4070, 169.6157
557.8891, 152.9678
558.3712, 140.4353
558.8533, 132.5073
559.3354, 129.3228
559.8176, 140.9114
560.2997, 153.1985
560.7818, 151.4331
561.2639, 109.8181
561.7460, 78.45630
562.2281, 73.92529
562.7103, 88.87988
563.1924, 94.78613
563.6745, 83.95410
564.1566, 73.97339
564.6387, 72.23193
565.1208, 80.23096
565.6030, 81.46948
566.0851, 73.69434
566.5672, 64.44727
567.0493, 63.96826
567.5314, 71.53125
568.0135, 69.78149
568.4957, 52.37183
568.9778, 29.83398
569.4599, 18.65161
569.9420, 17.42310
570.4241, 20.43408
570.9063, 31.56128
571.3884, 41.19409
571.8705, 36.06006
572.3526, 15.77539
572.8347, 0.4531250
573.3168, 5.156006
573.7990, 17.01172
574.2811, 25.07397
574.7632, 24.55786
575.2453, 23.99097
575.7274, 22.86597
576.2095, 22.86426
576.6917, 27.42676
577.1738, 38.98975
577.6559, 51.32056
578.1380, 65.06348
578.6201, 79.46509
579.1022, 79.15332
579.5844, 60.12500
580.0665, 41.03662
580.5486, 39.36450
581.0307, 52.14087
581.5128, 56.28345
581.9949, 46.71606
582.4771, 34.63989
582.9592, 35.03711
583.4413, 43.63306
583.9234, 50.06616
584.4055, 48.66870
584.8876, 44.71655
585.3698, 39.64111
585.8519, 35.05151
586.3340, 36.94434
586.8161, 57.87134
587.2982, 78.28711
587.7803, 84.75806
588.2625, 65.28369
588.7446, 61.45166
589.2267, 88.53076
589.7088, 122.6145
590.1909, 136.0608
590.6730, 117.5383
591.1552, 110.1182
591.6373, 125.6084
592.1194, 152.7673
592.6015, 158.0498
593.0836, 141.5410
593.5657, 127.7566
594.0479, 129.0659
594.5300, 140.6777
595.0121, 158.7126
595.4942, 185.2024
595.9763, 203.1338
596.4584, 184.5269
596.9406, 150.2156
597.4227, 128.0652
597.9048, 131.6997
598.3869, 137.1130
598.8690, 131.7739
599.3511, 120.4536
599.8333, 112.5488
600.3154, 111.1172
600.7975, 112.6812
601.2796, 120.7705
601.7617, 134.8369
602.2438, 130.5061
602.7260, 97.53223
603.2081, 64.71338
603.6902, 51.75537
604.1723, 60.26172
604.6544, 67.12744
605.1365, 71.91577
605.6187, 73.14697
606.1008, 64.57739
606.5829, 49.36182
607.0650, 41.27832
607.5471, 49.02490
608.0292, 61.08984
608.5114, 64.41138
608.9935, 60.52075
609.4756, 55.02905
609.9577, 49.95898
610.4398, 44.77246
610.9219, 38.04077
611.4041, 28.81763
611.8862, 23.95972
612.3683, 27.49268
612.8504, 34.20605
613.3325, 40.84497
613.8146, 53.19092
614.2968, 52.96143
614.7789, 33.83545
615.2610, 6.438477
615.7431, 8.439453
616.2252, 10.05054
616.7073, 6.709961
617.1895, 0.4211430
617.6716, 8.367432
618.1537, 19.90747
618.6358, 33.96680
619.1179, 44.85889
619.6000, 46.85742
620.0822, 44.26587
620.5643, 39.91992
621.0464, 32.52344
621.5285, 33.84155
622.0106, 61.28564
622.4927, 96.06177
622.9749, 117.9355
623.4570, 111.6230
623.9391, 105.1377
624.4212, 101.1965
624.9033, 99.84741
625.3854, 101.1526
625.8676, 104.4304
626.3497, 111.6941
626.8318, 125.1265
627.3139, 143.8096
627.7960, 159.6543
628.2781, 172.9907
628.7603, 180.7581
629.2424, 178.1538
629.7245, 168.0264
630.2066, 156.9829
630.6887, 144.8662
631.1708, 135.6987
631.6530, 134.7788
632.1351, 138.0979
632.6172, 139.7988
633.0993, 146.3706
633.5814, 141.9741
634.0635, 111.3191
634.5457, 63.05444
635.0278, 30.05200
635.5099, 21.73755
635.9920, 23.02832
636.4741, 34.26489
636.9562, 57.06396
637.4384, 58.28198
637.9205, 31.53491
638.4026, 0.9289550
638.8847, 13.29370
639.3668, 12.75293
639.8489, 10.38159
640.3311, 6.927734
640.8132, 4.725342
641.2953, 7.189453
641.7774, 12.98779
642.2595, 19.28271
642.7416, 29.73291
643.2238, 35.56421
643.7059, 26.97559
644.1880, 8.336670
644.6701, 6.032471
645.1522, 5.841064
645.6343, 5.342773
646.1165, 9.250244
646.5986, 17.48779
647.0807, 32.21069
647.5628, 57.90137
648.0449, 83.88281
648.5270, 101.9666
649.0092, 111.6218
649.4913, 121.0471
649.9734, 131.4692
650.4555, 140.4302
650.9376, 138.6592
651.4197, 131.4819
651.9019, 138.4797
652.3840, 174.2620
652.8661, 217.2280
653.3482, 248.0188
653.8303, 269.0605
654.3124, 287.7664
654.7946, 307.3779
655.2767, 325.4897
655.7588, 337.4978
656.2408, 341.5808
656.7230, 359.9998
657.2051, 408.3782
657.6872, 454.8289
658.1693, 476.8618
658.6514, 465.1770
659.1335, 472.1079
659.6157, 502.1938
660.0978, 544.2405
660.5799, 581.7456
661.0620, 617.1345
661.5441, 665.8721
662.0262, 743.0527
662.5084, 817.6975
662.9905, 843.5234
663.4726, 835.5107
663.9547, 834.2915
664.4368, 876.8259
664.9189, 915.5454
665.4011, 921.2310
665.8832, 893.9680
666.3653, 869.0674
666.8474, 860.2095
667.3295, 847.2837
667.8116, 820.2578
668.2938, 775.5562
668.7759, 731.8975
669.2580, 688.6074
669.7401, 647.3784
670.2222, 610.7678
670.7043, 578.4619
671.1865, 545.4021
671.6686, 509.3025
672.1507, 478.6536
672.6328, 467.2808
673.1149, 464.3120
673.5970, 451.1553
674.0792, 401.3416
674.5613, 356.8040
675.0434, 347.3003
675.5255, 366.3384
676.0076, 379.0835
676.4897, 361.2041
676.9719, 350.2146
677.4540, 364.0764
677.9361, 407.7454
678.4182, 431.2485
678.9003, 424.1377
679.3824, 417.9023
679.8646, 444.0776
680.3467, 499.3379
680.8288, 536.4302
681.3109, 548.0615
681.7930, 554.2041
682.2751, 575.2776
682.7573, 608.3503
683.2394, 648.6501
683.7215, 696.3386
684.2036, 747.0200
684.6857, 795.3364
685.1678, 845.1040
685.6500, 906.4185
686.1321, 981.5273
686.6142, 1068.189
687.0963, 1170.302
687.5784, 1284.302
688.0605, 1385.243
688.5427, 1462.268
689.0248, 1552.112
689.5069, 1686.132
689.9890, 1858.292
690.4711, 2009.241
690.9532, 2138.377
691.4354, 2244.750
691.9175, 2331.930
692.3996, 2394.397
692.8817, 2422.436
693.3638, 2412.477
693.8459, 2374.196
694.3281, 2308.104
694.8102, 2218.493
695.2923, 2112.145
695.7744, 1971.982
696.2565, 1836.921
696.7386, 1711.936
697.2208, 1595.982
697.7029, 1484.550
698.1850, 1377.329
698.6671, 1275.833
699.1492, 1183.813
699.6313, 1097.208
700.1135, 1000.477
700.5956, 894.1860
701.0777, 793.8711
701.5598, 708.9800
702.0419, 638.2773
702.5240, 582.0249
703.0062, 540.8071
703.4883, 499.6118
703.9704, 443.1885
704.4525, 388.8730
704.9346, 350.6914
705.4167, 343.7480
705.8989, 330.4995
706.3810, 306.3218
706.8631, 279.6709
707.3452, 263.7266
707.8273, 262.0039
708.3094, 244.3096
708.7916, 198.1440
709.2737, 145.5649
709.7558, 131.0854
710.2379, 147.0435
710.7200, 161.6396
711.2021, 161.1748
711.6843, 152.3872
712.1664, 136.2188
712.6485, 115.2759
713.1306, 100.8438
713.6127, 102.9775
714.0948, 107.2651
714.5770, 107.6450
715.0591, 103.8823
715.5412, 96.96240
716.0233, 82.91309
716.5054, 72.79736
716.9875, 77.31201
717.4697, 96.49414
717.9518, 106.3887
718.4339, 105.2935
718.9160, 100.1006
719.3981, 97.94434
719.8802, 96.91846
720.3624, 93.11768
720.8445, 85.23535
721.3266, 75.82861
721.8087, 64.73828
722.2908, 53.72412
722.7729, 46.49072
723.2551, 42.48535
723.7372, 40.52832
724.2193, 42.79004
724.7014, 47.93115
725.1835, 51.92920
725.6656, 55.07568
726.1478, 54.99561
726.6299, 48.59521
727.1120, 39.18262
727.5941, 41.60205
728.0762, 53.77734
728.5583, 55.74512
729.0405, 16.05713
729.5226, 28.24512
730.0047, 35.78516
730.4868, 3.709961
730.9689, 25.11133
731.4510, 38.23340
731.9332, 40.03662
732.4153, 30.83936
732.8974, 3.521484
733.3795, 10.67236
733.8616, 4.915039
734.3438, 5.616211
734.8259, 3.855469
735.3080, 10.41895
735.7901, 19.92969
736.2722, 22.77393
736.7543, 19.01953
737.2365, 3.370605
737.7186, 17.93018
738.2007, 31.90039
738.6828, 29.89746
739.1649, 24.73486
739.6470, 19.89209
740.1292, 16.65967
740.6113, 18.26807
741.0934, 37.33643
741.5755, 45.92529
742.0576, 32.65479
742.5397, 4.873047
743.0219, 2.184082
743.5040, 15.05908
743.9861, 30.99365
744.4682, 27.46729
744.9503, 14.29346
745.4324, 23.60986
745.9146, 52.80615
746.3967, 75.38379
746.8788, 63.88818
747.3609, 44.26074
747.8430, 39.49072
748.3251, 54.10938
748.8073, 65.62061
749.2894, 60.42334
749.7715, 57.47412
750.2536, 68.61328
750.7357, 97.87012
751.2178, 133.4824
751.7000, 182.9189
752.1821, 222.0371
752.6642, 213.0356
753.1463, 165.6953
753.6284, 129.2720
754.1105, 112.9883
754.5927, 108.4023
755.0748, 112.9019
755.5569, 121.9087
756.0390, 128.5688
756.5211, 131.6719
757.0032, 129.5835
757.4854, 120.0942
757.9675, 105.6665
758.4496, 92.13330
758.9317, 80.68066
759.4138, 66.60498
759.8959, 45.40479
760.3781, 22.89844
760.8602, 21.53467
761.3423, 39.76221
761.8244, 54.09082
762.3065, 46.86963
762.7886, 31.88379
763.2708, 26.08545
763.7529, 28.45557
764.2350, 31.69678
764.7171, 31.90723
765.1992, 33.05908
765.6813, 37.72412
766.1635, 45.42871
766.6456, 48.26123
767.1277, 42.94531
767.6098, 38.11816
768.0919, 39.68848
768.5740, 47.54346
769.0562, 55.10889
769.5383, 62.82324
770.0204, 65.81445
770.5025, 56.32520
770.9846, 39.90967
771.4667, 24.40137
771.9489, 9.715820
772.4310, 1.910645
772.9131, 12.62939
773.3952, 27.34521
773.8773, 31.05127
774.3594, 8.470215
774.8416, 2.913086
775.3237, 2.062012
775.8058, 13.71436
776.2879, 18.19482
776.7700, 15.42920
777.2521, 17.77979
777.7343, 30.98145
778.2164, 43.92041
778.6985, 38.65820
779.1806, 21.41406
779.6627, 5.105957
780.1448, 14.49805
780.6270, 22.17334
781.1091, 0.5971680
781.5912, 38.85840
782.0733, 61.31396
782.5554, 54.16992
783.0375, 47.80566
783.5197, 50.63574
784.0018, 58.44580
784.4839, 53.03809
784.9660, 33.83545
785.4481, 20.27246
785.9302, 27.77637
786.4124, 44.19336
786.8945, 47.66406
787.3766, 39.23730
787.8587, 32.64453
788.3408, 41.97607
788.8229, 51.41455
789.3051, 53.71436
789.7872, 48.26270
790.2693, 35.49951
790.7514, 8.106934
791.2335, 15.10205
791.7156, 22.88428
792.1978, 15.41650
792.6799, 2.176758
793.1620, 30.47656
793.6441, 51.43262
794.1262, 40.69531
794.6083, 15.92188
795.0905, 7.677734
795.5726, 20.45752
796.0547, 31.16113
796.5368, 18.26416
797.0189, 5.169922
797.5010, 12.76611
797.9832, 55.38770
798.4653, 84.78027
798.9474, 98.58545
799.4295, 102.6606
799.9116, 101.7041
800.3937, 95.78467
800.8759, 88.70996
801.3580, 81.95557
801.8401, 72.57959
802.3222, 50.45312
802.8043, 25.71387
803.2864, 15.00781
803.7686, 32.38037
804.2507, 46.86035
804.7328, 39.49316
805.2149, 27.26660
805.6970, 36.33887
806.1791, 83.75586
806.6613, 108.9326
807.1434, 100.5054
807.6255, 73.12842
808.1076, 47.01660
808.5897, 23.21582
809.0718, 8.538086
809.5540, 6.936523
810.0361, 11.88428
810.5182, 21.65820
811.0003, 32.93652
811.4824, 39.19238
811.9645, 37.36523
812.4467, 31.04346
812.9288, 15.32129
813.4109, 2.904297
813.8930, 4.042969
814.3751, 19.41406
814.8572, 38.07129
815.3394, 39.91211
815.8215, 31.49268
816.3036, 27.19092
816.7857, 28.44434
817.2678, 31.79639
817.7499, 34.70654
818.2321, 40.03516
818.7142, 56.75342
819.1963, 79.80322
819.6784, 85.71777
820.1605, 49.29590
820.6426, 18.53320
821.1247, 7.919922
821.6068, 13.49609
822.0889, 10.32031
822.5710, 3.068359
823.0532, 9.220703
823.5353, 7.565918
824.0174, 35.12158
824.4995, 51.87646
824.9816, 58.68164
825.4637, 63.81152
825.9459, 74.47217
826.4280, 82.07764
826.9101, 77.77051
827.3922, 60.76904
827.8743, 59.38232
828.3564, 85.27100
828.8386, 105.5532
829.3207, 101.8423
829.8028, 78.04834
830.2849, 64.76758
830.7670, 62.04102
831.2491, 61.50391
831.7313, 56.51025
832.2134, 50.64502
832.6955, 47.28271
833.1776, 47.35986
833.6597, 50.44238
834.1418, 67.94092
834.6240, 77.62598
835.1061, 65.28613
835.5882, 27.45557
836.0703, 3.637695
836.5524, 4.836426
837.0345, 4.084473
837.5167, 4.430176
837.9988, 17.59912
838.4809, 32.40234
838.9630, 50.38525
839.4451, 62.62012
839.9272, 55.95312
840.4094, 45.88818
840.8915, 46.52539
841.3736, 63.51953
841.8557, 71.54492
842.3378, 63.60059
842.8199, 53.40674
843.3021, 51.08643
843.7842, 57.06592
844.2663, 53.34082
844.7484, 38.45850
845.2305, 26.11084
845.7126, 31.80713
846.1948, 46.08154
846.6769, 55.47803
847.1590, 57.67432
847.6411, 60.59814
848.1232, 70.44580
848.6053, 80.07520
849.0875, 85.28271
849.5696, 89.98291
850.0517, 75.79346
850.5338, 36.12744
851.0159, 2.432617
851.4980, 13.17334
851.9802, 2.276855
852.4623, 12.35840
852.9444, 29.56787
853.4265, 44.11670
853.9086, 54.97217
854.3907, 58.98438
854.8729, 50.76123
855.3550, 21.64062
855.8371, 4.621094
856.3192, 1.250488
856.8013, 9.655762
857.2834, 35.81836
857.7656, 80.63184
858.2477, 94.05469
858.7298, 70.52686
859.2119, 42.48730
859.6940, 42.66504
860.1761, 56.22168
860.6583, 62.91943
861.1404, 58.16699
861.6225, 54.86133
862.1046, 61.07861
862.5867, 67.93359
863.0688, 67.94531
863.5510, 58.04541
864.0331, 55.14062
864.5152, 61.32227
864.9973, 66.71143
865.4794, 56.85010
865.9615, 39.26904
866.4437, 38.91943
866.9258, 60.07324
867.4079, 76.26465
867.8900, 60.49268
868.3721, 38.69287
868.8542, 34.92334
869.3364, 63.86816
869.8185, 76.71436
870.3006, 71.07861
870.7827, 53.02197
871.2648, 19.16992
871.7469, 27.02783
872.2291, 50.53857
872.7112, 49.36719
873.1933, 33.23975
873.6754, 5.037109
874.1575, 44.90723
874.6396, 62.47705
875.1218, 49.52148
875.6039, 40.63184
876.0860, 47.48828
876.5681, 57.22217
877.0502, 62.56201
877.5323, 62.58105
878.0145, 66.19971
878.4966, 73.67139
878.9787, 82.58496
879.4608, 90.93945
879.9429, 99.43262
880.4250, 112.9062
880.9072, 132.6982
881.3893, 146.7612
881.8714, 140.7344
882.3535, 131.8779
882.8356, 131.5840
883.3177, 140.2207
883.7999, 156.9097
884.2820, 185.0918
884.7641, 202.8359
885.2462, 189.9956
885.7283, 158.4224
886.2104, 147.2915
886.6926, 156.3906
887.1747, 162.2158
887.6568, 139.3984
888.1389, 115.5059
888.6210, 109.8896
889.1031, 125.5703
889.5853, 147.9707
890.0674, 186.5601
890.5495, 213.0415
891.0316, 209.4976
891.5137, 181.0742
891.9958, 156.4297
892.4780, 135.8374
892.9601, 125.0244
893.4422, 131.1318
893.9243, 145.6982
894.4064, 165.2373
894.8885, 188.6333
895.3707, 205.5376
895.8528, 212.5049
896.3349, 211.6665
896.8170, 199.7002
897.2991, 179.8818
897.7813, 173.9136
898.2634, 181.6221
898.7455, 187.7905
899.2276, 179.9712
899.7097, 168.7656
900.1918, 171.5269
900.6740, 183.4185
901.1561, 185.7808
901.6382, 158.3843
902.1203, 134.9272
902.6024, 126.8760
903.0845, 130.3882
903.5667, 131.8833
904.0488, 131.4238
904.5309, 128.3643
905.0130, 117.3691
905.4951, 109.7666
905.9772, 133.0986
906.4594, 174.7153
906.9415, 201.7324
907.4236, 189.8037
907.9057, 172.8994
908.3878, 154.8433
908.8699, 141.3438
909.3521, 145.8477
909.8342, 174.6177
910.3163, 205.5518
910.7984, 238.7852
911.2805, 262.6606
911.7626, 243.1030
912.2448, 199.4429
912.7269, 179.0200
913.2090, 209.5801
913.6911, 246.9937
914.1732, 277.3745
914.6553, 299.4844
915.1375, 311.2515
915.6196, 308.9707
916.1017, 305.5469
916.5838, 300.4443
917.0659, 297.2046
917.5480, 303.5850
918.0302, 315.7441
918.5123, 323.3530
918.9944, 324.8911
919.4765, 317.8872
919.9586, 285.5015
920.4407, 252.5903
920.9229, 246.8716
921.4050, 291.2456
921.8871, 303.8301
922.3692, 273.0024
922.8513, 235.6987
923.3334, 234.5601
923.8156, 256.3823
924.2977, 247.5942
924.7798, 203.6602
925.2619, 155.5303
925.7440, 116.0200
926.2261, 88.25537
926.7083, 76.71045
927.1904, 84.33887
927.6725, 98.21436
928.1546, 127.6631
928.6367, 144.4556
929.1188, 123.1274
929.6010, 72.28516
930.0831, 48.78906
930.5652, 52.02539
931.0473, 57.52441
931.5294, 48.10498
932.0115, 35.76611
932.4937, 27.35596
932.9758, 23.89160
933.4579, 32.75928
933.9400, 67.41846
934.4221, 89.23926
934.9042, 84.04736
935.3864, 59.00098
935.8685, 30.80322
936.3506, 1.512695
936.8327, 16.81836
937.3148, 14.37402
937.7969, 2.791504
938.2791, 20.46436
938.7612, 45.67383
939.2433, 48.89844
939.7254, 10.52441
940.2075, 21.51709
940.6896, 43.88184
941.1718, 52.92236
941.6539, 35.20801
942.1360, 4.099121
942.6181, 38.06055
943.1002, 61.88281
943.5823, 72.61523
944.0645, 56.94824
944.5466, 31.78320
945.0287, 17.99414
945.5108, 24.65527
945.9929, 34.68945
946.4750, 52.01758
946.9572, 66.27051
947.4393, 63.50195
947.9214, 47.23730
948.4035, 36.50977
948.8856, 33.35156
949.3677, 32.74902
949.8499, 30.14160
950.3320, 29.08301
950.8141, 34.17676
951.2962, 48.29395
951.7783, 53.38672
952.2604, 40.42383
952.7426, 36.46777
953.2247, 68.14648
953.7068, 122.6982
954.1889, 133.5908
954.6710, 105.3428
955.1531, 78.39258
955.6353, 81.98145
956.1174, 91.74805
956.5995, 95.69238
957.0816, 91.93164
957.5637, 72.88379
958.0458, 23.41992
958.5280, 4.555664
959.0101, 9.877930
959.4922, 49.12305
959.9743, 75.67188
960.4564, 90.43750
960.9385, 96.55176
961.4207, 88.50586
961.9028, 82.03906
962.3849, 87.71387
962.8670, 100.1416
963.3491, 109.3066
963.8312, 107.9160
964.3134, 128.4424
964.7955, 180.7422
965.2776, 236.9805
965.7597, 259.1777
966.2418, 258.3447
966.7239, 259.2754
967.2061, 264.0527
967.6882, 273.9893
968.1703, 291.6260
968.6524, 315.0322
969.1345, 343.8809
969.6166, 381.3701
970.0988, 408.6201
970.5809, 424.2920
971.0630, 436.0664
971.5451, 448.1133
972.0272, 461.1943
972.5093, 485.0312
972.9915, 516.3760
973.4736, 526.9658
973.9557, 481.9072
974.4378, 435.6543
974.9199, 414.4727
975.4020, 413.1572
975.8842, 408.3057
976.3663, 400.2871
976.8484, 386.2900
977.3305, 361.9727
977.8126, 335.6641
978.2947, 311.8545
978.7769, 296.1035
979.2590, 301.0361
979.7411, 355.8486
980.2232, 399.4512
980.7053, 416.6064
981.1874, 420.6240
981.6696, 430.7051
982.1517, 447.0225
982.6338, 450.5596
983.1159, 435.7900
983.5980, 422.5674
984.0801, 435.0723
984.5623, 457.7354
985.0444, 473.5635
985.5264, 478.5811
986.0085, 480.1455
986.4907, 480.7959
986.9728, 476.0303
987.4549, 458.5322
987.9370, 431.0410
988.4191, 422.9854
988.9012, 433.6230
989.3834, 449.6562
989.8655, 468.9111
990.3476, 484.7598
990.8297, 484.7588
991.3118, 474.3896
991.7939, 488.9893
992.2761, 545.0352
992.7582, 591.1709
993.2403, 606.6357
993.7224, 613.1299
994.2045, 658.6895
994.6866, 734.2246
995.1688, 813.0234
995.6509, 874.7402
996.1330, 956.5732
996.6151, 1095.924
997.0972, 1257.890
997.5793, 1396.477
998.0615, 1501.154
998.5436, 1612.431
999.0257, 1731.664
999.5078, 1867.172
999.9899, 2044.867
1000.472, 2233.886
1000.954, 2392.253
1001.436, 2512.473
1001.918, 2579.150
1002.401, 2587.312
1002.883, 2532.118
1003.365, 2410.265
1003.847, 2224.391
1004.329, 1992.892
1004.811, 1711.823
1005.293, 1455.363
1005.775, 1267.151
1006.257, 1110.579
1006.740, 939.0996
1007.222, 766.9697
1007.704, 624.4434
1008.186, 544.8447
1008.668, 462.9102
1009.150, 362.8691
1009.632, 268.6182
1010.114, 223.3867
1010.596, 218.7793
1011.079, 212.1006
1011.561, 195.3564
1012.043, 175.2285
1012.525, 156.2051
1013.007, 136.2861
1013.489, 111.5742
1013.971, 77.94531
1014.453, 61.40625
1014.936, 68.07324
1015.418, 71.94434
1015.900, 46.48535
1016.382, 8.594727
1016.864, 3.741211
1017.346, 25.78418
1017.828, 41.82910
1018.310, 36.68945
1018.792, 21.70801
1019.275, 7.787109
1019.757, 40.99512
1020.239, 47.20410
1020.721, 24.75977
1021.203, 12.36230
1021.685, 23.08789
1022.167, 36.16992
1022.649, 22.92773
1023.132, 0.9990230
1023.614, 11.56348
1024.096, 12.26562
1024.578, 8.102539
1025.060, 50.33984
1025.542, 102.0771
1026.024, 87.48828
1026.506, 20.45996
1026.989, 10.55859
1027.471, 4.916016
1027.953, 16.37988
1028.435, 63.98340
1028.917, 100.9092
1029.399, 90.50000
1029.881, 43.88672
1030.363, 26.94824
1030.845, 45.40137
1031.328, 74.80469
1031.810, 115.3057
1032.292, 151.3662
1032.774, 148.9678
1033.256, 124.6172
1033.738, 112.5498
1034.220, 133.4414
1034.702, 148.1357
1035.184, 145.6797
1035.667, 136.0244
1036.149, 123.9541
1036.631, 109.4521
1037.113, 109.5186
1037.595, 126.9961
1038.077, 142.0137
1038.559, 122.5576
1039.041, 102.6406
1039.524, 113.4971
1040.006, 154.1182
1040.488, 188.8701
1040.970, 223.0986
1041.452, 231.4609
1041.934, 198.2295
1042.416, 144.4395
1042.898, 101.9590
1043.380, 73.91211
1043.863, 69.30176
1044.345, 100.6699
1044.827, 138.8213
1045.309, 184.0166
1045.791, 222.7373
1046.273, 238.6504
1046.755, 228.1865
1047.237, 231.1367
1047.719, 249.1523
1048.202, 274.4600
1048.684, 314.6182
1049.166, 349.2568
1049.648, 351.1719
1050.130, 321.7236
1050.612, 296.6445
1051.094, 278.1191
1051.576, 269.1270
1052.059, 276.2646
1052.541, 287.3105
1053.023, 266.6035
1053.505, 224.8379
1053.987, 197.2227
1054.469, 204.1221
1054.951, 209.6201
1055.433, 197.7578
1055.916, 175.6826
1056.398, 148.6797
1056.880, 114.0322
1057.362, 89.75586
1057.844, 75.88281
1058.326, 72.40527
1058.808, 85.76465
1059.290, 104.8770
1059.772, 122.0508
1060.255, 135.6328
1060.737, 133.0166
1061.219, 98.47363
1061.701, 76.50000
1062.183, 78.13965
1062.665, 92.34375
1063.147, 96.84082
1063.629, 94.67188
1064.111, 93.48047
1064.594, 92.56250
1065.076, 98.56348
1065.558, 123.5869
1066.040, 153.3125
1066.522, 175.5459
1067.004, 190.3320
1067.486, 193.7227
1067.968, 183.4648
1068.450, 187.2070
1068.933, 246.3828
1069.415, 317.0029
1069.897, 348.1387
1070.379, 347.3809
1070.861, 354.3916
1071.343, 384.3506
1071.825, 403.8018
1072.307, 400.0674
1072.790, 394.8350
1073.272, 437.7607
1073.754, 507.8486
1074.236, 543.8262
1074.718, 525.3223
1075.200, 504.2734
1075.682, 498.3418
1076.164, 504.3604
1076.646, 524.4639
1077.129, 557.9414
1077.611, 567.3174
1078.093, 554.2686
1078.575, 527.0303
1079.057, 478.4268
1079.539, 424.7900
1080.021, 378.4561
1080.503, 341.3926
1080.985, 315.9863
1081.468, 307.7754
1081.950, 290.7344
1082.432, 259.8936
1082.914, 232.6680
1083.396, 244.0391
1083.878, 270.7031
1084.360, 260.2129
1084.842, 202.5117
1085.325, 150.5732
1085.807, 124.9697
1086.289, 109.2441
1086.771, 95.81836
1087.253, 86.05664
1087.735, 95.03027
1088.217, 119.3057
1088.699, 128.7646
1089.182, 93.57422
1089.664, 63.04492
1090.146, 84.40332
1090.628, 124.5996
1091.110, 135.9580
1091.592, 110.4941
1092.074, 78.66016
1092.556, 38.51660
1093.038, 7.677734
1093.521, 16.59766
1094.003, 36.48535
1094.485, 20.42871
1094.967, 28.36719
1095.449, 49.21973
1095.931, 5.350586
1096.413, 29.57324
1096.895, 36.08301
1097.377, 25.58008
1097.860, 18.17285
1098.342, 14.30273
1098.824, 16.27539
1099.306, 26.89551
1099.788, 36.20215
1100.270, 38.66699
1100.752, 38.41504
1101.234, 38.54297
1101.717, 39.28906
1102.199, 35.83398
1102.681, 28.24707
1103.163, 26.74219
1103.645, 48.21973
1104.127, 69.04688
1104.609, 66.38086
1105.091, 48.13379
1105.573, 36.18457
1106.056, 34.02246
1106.538, 31.62695
1107.020, 27.59863
1107.502, 24.08594
1107.984, 16.64062
1108.466, 14.34180
1108.948, 36.85742
1109.430, 88.09961
1109.912, 127.1914
1110.395, 148.0508
1110.877, 148.4785
1111.359, 115.9463
1111.841, 69.75293
1112.323, 79.90918
1112.805, 129.7119
1113.287, 160.4023
1113.769, 142.6436
1114.252, 115.7227
1114.734, 87.90234
1115.216, 65.65332
1115.698, 54.66309
1116.180, 55.40625
1116.662, 73.31934
1117.144, 108.9531
1117.626, 123.4688
1118.109, 64.21289
1118.591, 4.513672
1119.073, 31.39648
1119.555, 22.85645
1120.037, 12.69434
1120.519, 1.071289
1121.001, 3.250977
1121.483, 12.72461
1121.965, 27.73828
1122.448, 9.525391
1122.930, 21.17188
1123.412, 33.03516
1123.894, 19.13379
1124.376, 4.346680
1124.858, 14.91406
1125.340, 21.61914
1125.822, 3.942383
1126.304, 28.14648
1126.787, 45.72852
1127.269, 53.61816
1127.751, 66.43945
1128.233, 102.2246
1128.715, 123.4629
1129.197, 111.5391
1129.679, 87.32324
1130.161, 61.21387
1130.644, 34.71191
1131.126, 44.08496
1131.608, 87.98438
1132.090, 122.7021
1132.572, 108.9443
1133.054, 87.07031
1133.536, 81.27539
1134.018, 86.29980
1134.500, 85.98438
1134.983, 79.51953
1135.465, 75.14551
1135.947, 74.65332
1136.429, 75.07715
1136.911, 69.98633
1137.393, 66.65527
1137.875, 78.97363
1138.357, 112.8984
1138.839, 104.1914
1139.322, 35.73438
1139.804, 15.50781
1140.286, 13.39062
1140.768, 20.35938
1141.250, 64.34180
1141.732, 108.5186
1142.214, 134.2139
1142.696, 134.3457
1143.179, 113.7100
1143.661, 60.02930
1144.143, 10.85840
1144.625, 0.4267580
1145.107, 16.13086
1145.589, 29.51855
1146.071, 40.10938
1146.553, 54.68066
1147.036, 79.90430
1147.518, 106.2568
1148.000, 140.8369
1148.482, 166.7529
1148.964, 137.7354
1149.446, 67.00488
1149.928, 49.66113
1150.410, 103.5244
1150.892, 151.5146
1151.375, 129.5107
1151.857, 97.88965
1152.339, 92.65820
1152.821, 109.4346
1153.303, 142.0273
1153.785, 194.2520
1154.267, 227.5488
1154.749, 226.9385
1155.231, 209.8730
1155.714, 174.6855
1156.196, 141.6670
1156.678, 136.0352
1157.160, 160.3945
1157.642, 200.6826
1158.124, 259.9414
1158.606, 308.9727
1159.088, 319.3398
1159.571, 317.0273
1160.053, 333.2168
1160.535, 361.5938
1161.017, 383.8633
1161.499, 402.4854
1161.981, 402.6299
1162.463, 377.1123
1162.945, 353.2197
1163.427, 359.6553
1163.910, 386.9336
1164.392, 429.9551
1164.874, 484.8691
1165.356, 517.4932
1165.838, 501.3809
1166.320, 494.0771
1166.802, 513.4756
1167.284, 539.1104
1167.766, 532.5996
1168.249, 504.9434
1168.731, 479.1572
1169.213, 457.7090
1169.695, 448.5459
1170.177, 473.9121
1170.659, 489.1777
1171.141, 471.7617
1171.623, 430.8848
1172.106, 395.3750
1172.588, 364.7383
1173.070, 335.2842
1173.552, 297.5703
1174.034, 276.7666
1174.516, 300.0088
1174.998, 328.0400
1175.480, 332.4873
1175.963, 315.5742
1176.445, 296.7441
1176.927, 275.5000
1177.409, 262.5781
1177.891, 274.4814
1178.373, 285.8105
1178.855, 287.3242
1179.337, 278.0146
1179.819, 252.1240
1180.302, 211.1162
1180.784, 191.3076
1181.266, 197.2334
1181.748, 203.8311
1182.230, 189.7402
1182.712, 169.8975
1183.194, 156.5752
1183.676, 150.0908
1184.158, 140.7656
1184.641, 127.6182
1185.123, 121.3818
1185.605, 124.0068
1186.087, 136.0898
1186.569, 174.8945
1187.051, 211.8184
1187.533, 211.3516
1188.015, 168.9551
1188.498, 146.2275
1188.980, 145.7168
1189.462, 144.0674
1189.944, 124.8350
1190.426, 109.9570
1190.908, 135.7979
1191.390, 178.8486
1191.872, 203.3389
1192.354, 198.7549
1192.837, 196.5957
1193.319, 200.5215
1193.801, 191.4424
1194.283, 128.2559
1194.765, 64.90234
1195.247, 100.8389
1195.729, 193.9863
1196.211, 228.3760
1196.693, 149.7949
1197.176, 95.40332
1197.658, 75.14355
1198.140, 73.12988
1198.622, 73.81152
1199.104, 81.11719
1199.586, 114.9775
1200.068, 168.1543
1200.550, 184.2539
1201.033, 126.9473
1201.515, 90.46680
1201.997, 95.99512
1202.479, 117.4287
1202.961, 115.1572
1203.443, 103.8770
1203.925, 116.9287
1204.407, 161.3486
1204.890, 168.9990
1205.372, 106.7402
1205.854, 53.40723
1206.336, 34.03809
1206.818, 39.02246
1207.300, 58.42090
1207.782, 84.94922
1208.264, 103.8174
1208.746, 108.3018
1209.229, 105.2432
1209.711, 92.79688
1210.193, 80.15918
1210.675, 68.85449
1211.157, 63.41992
1211.639, 79.49316
1212.121, 111.0557
1212.603, 144.1641
1213.085, 201.0596
1213.568, 209.2188
1214.050, 137.8584
1214.532, 62.10742
1215.014, 49.15918
1215.496, 77.15625
1215.978, 84.61230
1216.460, 73.21973
1216.942, 53.82227
1217.425, 11.37695
1217.907, 10.24414
1218.389, 0.2294920
1218.871, 23.83398
1219.353, 40.70898
1219.835, 52.51855
1220.317, 65.42188
1220.799, 79.32715
1221.281, 87.82715
1221.764, 81.55664
1222.246, 77.98340
1222.728, 83.11133
1223.210, 90.54004
1223.692, 85.25195
1224.174, 74.54688
1224.656, 85.38086
1225.138, 122.4834
1225.620, 136.4697
1226.103, 64.98828
1226.585, 25.58887
1227.067, 69.86133
1227.549, 147.6855
1228.031, 135.2842
1228.513, 65.71582
1228.995, 32.57129
1229.477, 66.51465
1229.960, 86.34766
1230.442, 60.11914
1230.924, 25.11914
1231.406, 9.082031
1231.888, 35.28809
1232.370, 17.33398
1232.852, 24.92383
1233.334, 33.20410
1233.816, 39.13574
1234.299, 80.09668
1234.781, 56.73242
1235.263, 16.15820
1235.745, 17.10547
1236.227, 41.82617
1236.709, 45.55859
1237.191, 36.40820
1237.673, 42.63672
1238.156, 111.2949
1238.638, 137.5723
1239.120, 84.83398
1239.602, 31.71094
1240.084, 71.43164
1240.566, 159.8047
1241.048, 169.8594
1241.530, 116.6602
1242.012, 80.05078
1242.495, 109.3652
1242.977, 131.7031
1243.459, 135.0293
1243.941, 131.4277
1244.423, 133.8750
1244.905, 140.0742
1245.387, 149.3379
1245.869, 159.3496
1246.351, 153.8301
1246.834, 106.8359
1247.316, 78.88477
1247.798, 85.73633
1248.280, 102.3125
1248.762, 86.76172
1249.244, 58.78906
1249.726, 56.78516
1250.208, 85.24414
1250.691, 117.5859
1251.173, 158.4434
1251.655, 180.2266
1252.137, 170.7363
1252.619, 152.2812
1253.101, 163.5410
1253.583, 185.9609
1254.065, 188.5664
1254.547, 165.4863
1255.030, 142.5938
1255.512, 117.2695
1255.994, 105.9102
1256.476, 119.2812
1256.958, 141.1406
1257.440, 145.9375
1257.922, 138.3184
1258.404, 133.9902
1258.886, 133.1250
1259.369, 124.4922
1259.851, 100.6035
1260.333, 98.50781
1260.815, 148.6211
1261.297, 208.5391
1261.779, 224.1426
1262.261, 210.2031
1262.743, 189.0684
1263.226, 156.7207
1263.708, 140.2188
1264.190, 142.4121
1264.672, 125.5684
1265.154, 58.78125
1265.636, 2.728516
1266.118, 14.52539
1266.600, 90.02539
1267.083, 134.3867
1267.565, 134.7031
1268.047, 114.3066
1268.529, 68.23438
1269.011, 39.08398
1269.493, 80.60547
1269.975, 121.9688
1270.457, 91.49023
1270.939, 30.59570
1271.422, 15.61914
1271.904, 51.92578
1272.386, 97.23047
1272.868, 150.4883
1273.350, 182.4609
1273.832, 149.3457
1274.314, 114.3945
1274.796, 128.1680
1275.278, 157.4727
1275.761, 143.1465
1276.243, 87.58398
1276.725, 58.68945
1277.207, 61.33594
1277.689, 62.55078
1278.171, 23.03125
1278.653, 0.4648440
1279.135, 30.08984
1279.618, 83.11719
1280.100, 111.7871
1280.582, 117.6465
1281.064, 96.04102
1281.546, 41.96289
1282.028, 13.19336
1282.510, 55.44531
1282.992, 91.75977
1283.474, 95.37891
1283.957, 84.76758
1284.439, 95.21094
1284.921, 117.0703
1285.403, 100.0449
1285.885, 35.30664
1286.367, 2.099609
1286.849, 59.64648
1287.331, 96.42383
1287.813, 71.80664
1288.296, 27.99805
1288.778, 60.81445
1289.260, 126.7852
1289.742, 146.8477
1290.224, 106.0801
1290.706, 87.44922
1291.188, 111.8438
1291.670, 122.7480
1292.153, 97.41602
1292.635, 60.12500
1293.117, 26.00195
1293.599, 2.144531
1294.081, 3.048828
1294.563, 14.00195
1295.045, 46.56250
1295.527, 91.73242
1296.010, 89.75000
1296.492, 50.04297
1296.974, 0.0000000E+00
##END=



