##NAMES=Romeite
##RRUFFID=R060323
##IDEAL CHEMISTRY=(Ca,Fe^2+^,Mn^2+^,Na)_2_(Sb^5+^,Ti^4+^)_2_O_6_(O,OH,F)
##LOCALITY=Praborna mine, Aosta Valley, St. Marcel, Italy
##OWNER=RRUFF
##SOURCE=Michael Scott
##DESCRIPTION=Yellowish-brown octahedra, associated with red piemontite, R060905. Note that this is a fluorine rich phase.
##STATUS=The identification of this mineral is confirmed by single-crystal X-ray diffraction and chemical analysis.
##URL=rruff.info/R060323
##MEASURED CHEMISTRY=dark: (Ca_1.44_[box]_0.25_Na_0.24_Fe^2+^_0.05_Mn^2+^_0.02_)_Σ=2_(Sb^5+^_1.74_Ti^4+^_0.26_)_Σ=2_O_6_(F_0.65_(OH)_0.35_)_Σ=1_ ; light: (Ca_1.33_[box]_0.32_Na_0.26_Fe^2+^_0.06_Mn^2+^_0.03_)_Σ=2_(Sb^5+^_1.90_Ti^4+^_0.10_)_Σ=2_O_6_(F_0.56_(OH)_0.44_)_Σ=1
172.4520, 0.0000000E+00
172.9341, 1.553833
173.4163, 0.9365230
173.8984, 0.4635010
174.3805, 0.4211430
174.8626, 1.146240
175.3447, 5.527588
175.8268, 12.00977
176.3090, 17.60925
176.7911, 19.18811
177.2732, 18.64661
177.7553, 18.98376
178.2374, 20.81116
178.7195, 23.92822
179.2017, 28.94226
179.6838, 35.63599
180.1659, 41.52258
180.6480, 44.04810
181.1301, 44.33765
181.6122, 45.08081
182.0944, 46.91089
182.5765, 49.69275
183.0586, 53.66736
183.5407, 58.72852
184.0228, 63.79504
184.5049, 67.40662
184.9871, 70.05200
185.4692, 73.39929
185.9513, 78.66467
186.4334, 84.73022
186.9155, 88.90186
187.3976, 91.04614
187.8798, 92.62817
188.3619, 95.34143
188.8440, 98.97681
189.3261, 101.9612
189.8082, 103.3025
190.2903, 103.6561
190.7725, 105.6810
191.2546, 109.7484
191.7367, 113.7000
192.2188, 114.2512
192.7009, 111.5934
193.1830, 110.1903
193.6652, 112.8774
194.1473, 118.6633
194.6294, 120.6477
195.1115, 118.1608
195.5936, 114.1461
196.0757, 112.3102
196.5579, 112.6968
197.0400, 113.8710
197.5221, 115.7465
198.0042, 118.2140
198.4863, 119.3988
198.9684, 119.0126
199.4506, 117.9927
199.9327, 117.7750
200.4148, 118.4554
200.8969, 119.0710
201.3790, 119.3326
201.8611, 119.2356
202.3433, 118.3843
202.8254, 116.4301
203.3075, 114.2297
203.7896, 113.5076
204.2717, 114.5813
204.7538, 115.3713
205.2360, 115.0511
205.7181, 113.7344
206.2002, 111.2871
206.6823, 107.4275
207.1644, 103.5623
207.6465, 101.8777
208.1287, 102.0414
208.6108, 102.2600
209.0929, 101.3809
209.5750, 99.37964
210.0571, 97.30591
210.5392, 94.36511
211.0214, 91.38770
211.5035, 90.24817
211.9856, 91.55273
212.4677, 91.79224
212.9498, 88.99072
213.4319, 81.86426
213.9140, 77.49756
214.3962, 77.01953
214.8783, 78.62329
215.3604, 77.87366
215.8425, 73.58044
216.3246, 69.54199
216.8067, 67.73596
217.2889, 69.13757
217.7710, 69.29578
218.2531, 67.75867
218.7352, 65.09827
219.2173, 62.61658
219.6994, 60.28638
220.1816, 58.13367
220.6637, 56.12109
221.1458, 54.19666
221.6279, 52.68518
222.1100, 52.12781
222.5921, 51.80969
223.0743, 49.49792
223.5564, 43.82324
224.0385, 38.65771
224.5206, 36.14966
225.0027, 37.65552
225.4848, 38.09473
225.9670, 36.93213
226.4491, 34.83545
226.9312, 33.56201
227.4133, 33.53540
227.8954, 33.65186
228.3775, 33.36914
228.8597, 32.44250
229.3418, 31.64551
229.8239, 31.04407
230.3060, 30.35327
230.7881, 29.34351
231.2702, 27.68201
231.7524, 26.08203
232.2345, 24.89563
232.7166, 24.20190
233.1987, 23.66968
233.6808, 23.74011
234.1629, 23.85828
234.6451, 22.36194
235.1272, 18.20422
235.6093, 14.06958
236.0914, 11.32898
236.5735, 11.21509
237.0556, 9.659302
237.5378, 5.608154
238.0199, 0.4783940
238.5020, 1.998535
238.9841, 0.3242190
239.4662, 1.797241
239.9483, 2.909790
240.4305, 3.012939
240.9126, 1.952637
241.3947, 1.095703
241.8768, 5.080200
242.3589, 7.294922
242.8410, 6.875732
243.3232, 6.083374
243.8053, 5.899902
244.2874, 6.749268
244.7695, 7.201172
245.2516, 6.994385
245.7337, 6.498169
246.2159, 6.596313
246.6980, 7.734131
247.1801, 8.741821
247.6622, 9.119873
248.1443, 8.592407
248.6264, 8.204834
249.1086, 8.179077
249.5907, 8.162842
250.0728, 7.511108
250.5549, 6.399536
251.0370, 4.344116
251.5191, 0.7631840
252.0013, 5.316040
252.4834, 9.387695
252.9655, 10.62415
253.4476, 10.28308
253.9297, 10.60254
254.4118, 11.63989
254.8940, 13.17676
255.3761, 15.19629
255.8582, 17.81458
256.3403, 20.50793
256.8224, 23.32129
257.3046, 26.19202
257.7867, 28.88098
258.2688, 31.17725
258.7509, 33.86072
259.2330, 37.41748
259.7151, 42.22571
260.1973, 45.80505
260.6794, 47.43396
261.1615, 48.50989
261.6436, 51.19775
262.1257, 56.35352
262.6078, 61.07495
263.0900, 64.16223
263.5721, 65.35632
264.0542, 67.63147
264.5363, 71.09216
265.0184, 75.48633
265.5005, 80.92957
265.9827, 87.96057
266.4648, 94.23901
266.9469, 98.73267
267.4290, 101.3540
267.9111, 105.1327
268.3932, 110.5839
268.8754, 116.3295
269.3575, 120.8014
269.8396, 123.8539
270.3217, 126.3029
270.8038, 128.0482
271.2859, 129.1967
271.7681, 131.5217
272.2502, 135.4136
272.7323, 139.7003
273.2144, 142.8136
273.6965, 144.3723
274.1786, 147.0516
274.6608, 152.1212
275.1429, 158.9769
275.6250, 163.0275
276.1071, 163.5690
276.5892, 163.3324
277.0714, 164.5879
277.5535, 167.3978
278.0356, 171.3114
278.5177, 176.8030
278.9998, 183.2128
279.4819, 187.5968
279.9641, 189.7107
280.4462, 191.0747
280.9283, 192.7004
281.4104, 194.5759
281.8925, 197.0138
282.3746, 200.3151
282.8568, 204.0199
283.3389, 206.6030
283.8210, 207.9036
284.3031, 209.2471
284.7852, 211.6740
285.2673, 215.0852
285.7495, 218.3474
286.2316, 221.2719
286.7137, 223.9797
287.1958, 226.7605
287.6779, 229.6014
288.1600, 232.2991
288.6422, 235.0745
289.1243, 237.7604
289.6064, 238.8571
290.0885, 237.9089
290.5706, 236.2454
291.0527, 235.9978
291.5349, 237.1125
292.0170, 238.6082
292.4991, 240.1740
292.9812, 241.7517
293.4633, 243.3342
293.9454, 245.1876
294.4276, 246.0759
294.9097, 243.4559
295.3918, 237.9855
295.8739, 233.1429
296.3560, 230.7430
296.8381, 230.2094
297.3203, 230.2446
297.8024, 230.8853
298.2845, 231.2045
298.7666, 230.4200
299.2487, 228.4988
299.7308, 225.3267
300.2130, 219.8822
300.6951, 213.7974
301.1772, 209.7424
301.6593, 207.7013
302.1414, 205.9928
302.6235, 203.1844
303.1057, 199.7791
303.5878, 196.8376
304.0699, 195.5018
304.5520, 194.0458
305.0341, 190.0051
305.5162, 183.7230
305.9984, 177.6284
306.4805, 173.7532
306.9626, 171.0330
307.4447, 168.1686
307.9268, 165.1433
308.4089, 161.4258
308.8911, 156.0879
309.3732, 149.5359
309.8553, 143.1351
310.3374, 137.3064
310.8195, 132.1772
311.3016, 127.9219
311.7838, 124.5336
312.2659, 122.1332
312.7480, 122.1404
313.2301, 123.3987
313.7122, 122.9836
314.1943, 117.7739
314.6765, 111.5488
315.1586, 107.0391
315.6407, 105.0331
316.1228, 103.4052
316.6049, 101.3618
317.0870, 99.06799
317.5692, 96.88184
318.0513, 94.86963
318.5334, 93.05945
319.0155, 91.33643
319.4976, 89.71240
319.9797, 88.08997
320.4619, 86.00195
320.9440, 83.98572
321.4261, 82.67383
321.9082, 82.63367
322.3903, 82.89685
322.8724, 83.62378
323.3546, 84.86218
323.8367, 84.95081
324.3188, 82.08716
324.8009, 78.70239
325.2830, 76.69141
325.7651, 77.10107
326.2473, 77.98450
326.7294, 79.74097
327.2115, 82.15649
327.6936, 83.27722
328.1757, 81.26599
328.6578, 79.19116
329.1400, 78.59436
329.6221, 81.42664
330.1042, 83.20447
330.5863, 83.27332
331.0684, 82.19775
331.5505, 81.74158
332.0327, 82.20923
332.5148, 82.89111
332.9969, 83.48047
333.4790, 83.77942
333.9611, 84.52087
334.4432, 85.87842
334.9254, 87.50574
335.4075, 88.77246
335.8896, 89.27710
336.3717, 90.37354
336.8538, 92.95557
337.3359, 97.40027
337.8180, 99.18738
338.3001, 97.01941
338.7823, 94.18176
339.2644, 94.97705
339.7465, 100.5343
340.2286, 104.8400
340.7107, 106.2089
341.1928, 105.0575
341.6750, 103.9669
342.1571, 102.7839
342.6392, 102.1168
343.1213, 103.0182
343.6034, 105.5135
344.0855, 106.4182
344.5677, 104.6134
345.0498, 101.4886
345.5319, 100.7153
346.0140, 102.3719
346.4961, 104.2361
346.9782, 104.5686
347.4604, 103.7980
347.9425, 104.0626
348.4246, 105.7761
348.9067, 108.0099
349.3888, 109.9135
349.8709, 111.3774
350.3531, 111.7100
350.8352, 109.8088
351.3173, 106.7354
351.7994, 104.5652
352.2815, 103.4327
352.7636, 102.5695
353.2458, 101.0409
353.7279, 99.22351
354.2100, 97.95398
354.6921, 98.30493
355.1742, 98.81653
355.6563, 97.83044
356.1385, 95.43567
356.6206, 92.65234
357.1027, 88.97961
357.5848, 85.74536
358.0669, 84.70496
358.5490, 87.88342
359.0312, 91.00159
359.5133, 91.22925
359.9954, 89.15479
360.4775, 86.65332
360.9596, 85.40344
361.4417, 83.50952
361.9239, 79.11951
362.4060, 70.63037
362.8881, 63.52869
363.3702, 60.99231
363.8523, 60.91895
364.3344, 60.08594
364.8166, 57.39514
365.2987, 53.95142
365.7808, 50.02979
366.2629, 45.55273
366.7450, 41.30310
367.2271, 37.15796
367.7093, 33.43896
368.1914, 30.42749
368.6735, 29.18823
369.1556, 27.52148
369.6377, 25.13062
370.1198, 21.98755
370.6020, 18.80737
371.0841, 15.01904
371.5662, 11.75720
372.0483, 9.677856
372.5304, 9.393555
373.0125, 9.257446
373.4947, 9.840820
373.9768, 10.24255
374.4589, 8.164551
374.9410, 2.020752
375.4231, 3.255493
375.9052, 5.608398
376.3874, 4.650024
376.8695, 4.199585
377.3516, 4.356689
377.8337, 4.734131
378.3158, 4.812622
378.7979, 4.531494
379.2801, 4.361938
379.7622, 4.391479
380.2443, 4.636597
380.7264, 5.348877
381.2085, 6.631592
381.6906, 7.684937
382.1728, 7.758423
382.6549, 6.958374
383.1370, 5.943726
383.6191, 4.710205
384.1012, 3.465820
384.5833, 2.614258
385.0655, 2.150635
385.5476, 1.719360
386.0297, 0.8551030
386.5118, 0.1643070
386.9939, 0.6748050
387.4760, 0.4589840
387.9582, 0.1337890
388.4403, 0.3507080
388.9224, 0.9431150
389.4045, 1.509766
389.8866, 1.991211
390.3687, 2.349487
390.8509, 2.364990
391.3330, 2.081665
391.8151, 2.080322
392.2972, 2.961304
392.7793, 4.154785
393.2614, 5.117554
393.7436, 5.531494
394.2257, 5.903931
394.7078, 6.233887
395.1899, 6.659912
395.6720, 7.535767
396.1541, 9.509644
396.6363, 11.55701
397.1184, 13.19397
397.6005, 14.29089
398.0826, 15.27356
398.5647, 16.77026
399.0468, 18.01086
399.5290, 18.05835
400.0111, 15.27515
400.4932, 12.99792
400.9753, 11.66858
401.4574, 11.29041
401.9395, 11.95642
402.4217, 14.70337
402.9038, 17.39380
403.3859, 18.46252
403.8680, 16.96228
404.3501, 16.04761
404.8322, 15.94128
405.3144, 16.52930
405.7965, 17.63477
406.2786, 19.46863
406.7607, 21.14612
407.2428, 22.25110
407.7249, 22.77563
408.2071, 23.24011
408.6892, 23.75769
409.1713, 23.88623
409.6534, 22.83643
410.1355, 20.67041
410.6176, 18.62317
411.0998, 17.01270
411.5819, 15.78296
412.0640, 14.50037
412.5461, 13.20959
413.0282, 12.94263
413.5103, 15.83667
413.9925, 20.15063
414.4746, 21.93677
414.9567, 19.88086
415.4388, 17.18311
415.9209, 17.55444
416.4030, 19.93091
416.8852, 21.69971
417.3673, 21.39160
417.8494, 19.99976
418.3315, 18.20520
418.8136, 16.04993
419.2957, 13.68201
419.7779, 10.61340
420.2600, 7.626221
420.7421, 5.541504
421.2242, 5.050049
421.7063, 5.021362
422.1884, 5.499023
422.6706, 6.255127
423.1527, 6.467896
423.6348, 4.921265
424.1169, 3.622192
424.5990, 3.804932
425.0811, 7.142212
425.5633, 8.301392
426.0454, 5.276123
426.5275, 0.7817380
427.0096, 1.783936
427.4917, 1.585815
427.9738, 0.6198730
428.4560, 1.226807
428.9381, 3.846680
429.4202, 4.311279
429.9023, 1.674316
430.3844, 1.359375
430.8665, 2.746582
431.3487, 2.187256
431.8308, 1.891724
432.3129, 2.303955
432.7950, 2.991211
433.2771, 2.753784
433.7592, 1.411621
434.2414, 0.1079100
434.7235, 0.3310550
435.2056, 0.1137700
435.6877, 0.3154300
436.1698, 0.9754640
436.6519, 1.646729
437.1341, 1.815430
437.6162, 1.577271
438.0983, 1.255005
438.5804, 0.9405520
439.0625, 0.4885250
439.5446, 0.1677250
440.0268, 0.9672850
440.5089, 1.883789
440.9910, 3.362671
441.4731, 4.658569
441.9552, 4.824585
442.4373, 3.507080
442.9195, 2.669067
443.4016, 4.210449
443.8837, 6.460815
444.3658, 7.412964
444.8479, 5.425903
445.3300, 3.211914
445.8122, 1.941162
446.2943, 1.399170
446.7764, 0.3459470
447.2585, 5.389160
447.7406, 10.28455
448.2227, 13.24072
448.7049, 12.98499
449.1870, 13.09814
449.6691, 13.80896
450.1512, 14.82629
450.6333, 15.53467
451.1154, 15.57129
451.5976, 16.05103
452.0797, 17.35449
452.5618, 19.42126
453.0439, 21.30127
453.5260, 22.84985
454.0081, 24.50427
454.4903, 26.76123
454.9724, 29.56995
455.4545, 31.82568
455.9366, 33.17297
456.4187, 34.30701
456.9008, 36.46387
457.3830, 39.56580
457.8651, 42.63733
458.3472, 44.98657
458.8293, 47.12708
459.3114, 50.57080
459.7935, 55.27246
460.2757, 59.22449
460.7578, 59.70447
461.2399, 58.71167
461.7220, 59.11047
462.2041, 62.33435
462.6862, 65.95105
463.1684, 68.22021
463.6505, 69.68250
464.1326, 71.52954
464.6147, 74.55212
465.0968, 77.81995
465.5789, 80.97754
466.0611, 84.07275
466.5432, 86.40649
467.0253, 86.98901
467.5074, 87.15613
467.9895, 88.01599
468.4716, 90.08081
468.9538, 92.30432
469.4359, 94.65588
469.9180, 97.10620
470.4001, 99.59448
470.8822, 102.1617
471.3643, 104.7299
471.8465, 107.5492
472.3286, 110.8129
472.8107, 112.1332
473.2928, 110.7838
473.7749, 109.2998
474.2570, 111.0190
474.7392, 115.9233
475.2213, 119.8131
475.7034, 121.2300
476.1855, 121.7914
476.6676, 125.4683
477.1497, 131.9106
477.6319, 137.6664
478.1140, 139.0757
478.5961, 138.9796
479.0782, 142.4989
479.5603, 150.1410
480.0424, 158.7606
480.5246, 165.7102
481.0067, 172.0583
481.4888, 179.3602
481.9709, 188.8870
482.4530, 198.6624
482.9352, 206.5837
483.4173, 213.7250
483.8994, 223.4941
484.3815, 239.4591
484.8636, 256.2822
485.3457, 271.2020
485.8279, 283.1442
486.3100, 296.9226
486.7921, 312.8755
487.2742, 330.8130
487.7563, 350.7972
488.2384, 372.9994
488.7206, 397.0359
489.2027, 423.1147
489.6848, 451.0341
490.1669, 479.4554
490.6490, 507.3586
491.1311, 538.1753
491.6133, 572.9840
492.0954, 611.9005
492.5775, 655.1771
493.0596, 702.8848
493.5417, 753.8080
494.0238, 806.7703
494.5060, 861.8912
494.9881, 918.6061
495.4702, 975.2214
495.9523, 1034.985
496.4344, 1101.506
496.9165, 1174.336
497.3987, 1251.455
497.8808, 1333.127
498.3629, 1418.596
498.8450, 1507.094
499.3271, 1599.310
499.8092, 1694.465
500.2914, 1793.725
500.7735, 1895.475
501.2556, 2000.936
501.7377, 2110.028
502.2198, 2221.428
502.7019, 2336.576
503.1841, 2454.433
503.6662, 2572.922
504.1483, 2692.593
504.6304, 2814.608
505.1125, 2939.033
505.5946, 3066.159
506.0768, 3190.561
506.5589, 3309.335
507.0410, 3428.857
507.5231, 3554.907
508.0052, 3688.007
508.4873, 3821.621
508.9695, 3953.148
509.4516, 4083.740
509.9337, 4214.721
510.4158, 4346.065
510.8979, 4476.281
511.3800, 4607.553
511.8622, 4737.706
512.3443, 4865.036
512.8264, 4987.986
513.3085, 5101.999
513.7906, 5203.680
514.2728, 5294.118
514.7549, 5376.956
515.2370, 5457.095
515.7191, 5516.573
516.2012, 5544.929
516.6833, 5545.148
517.1655, 5522.390
517.6476, 5479.707
518.1297, 5412.996
518.6118, 5321.089
519.0939, 5204.117
519.5760, 5062.088
520.0582, 4886.105
520.5403, 4692.737
521.0224, 4489.822
521.5045, 4273.815
521.9866, 4054.626
522.4688, 3828.508
522.9509, 3603.249
523.4330, 3383.600
523.9151, 3168.424
524.3972, 2964.129
524.8793, 2773.149
525.3615, 2595.582
525.8436, 2429.355
526.3257, 2273.839
526.8078, 2129.795
527.2899, 1997.641
527.7720, 1875.382
528.2542, 1760.092
528.7363, 1652.033
529.2184, 1551.594
529.7005, 1462.018
530.1826, 1380.714
530.6647, 1304.574
531.1469, 1234.026
531.6290, 1167.563
532.1111, 1105.563
532.5932, 1047.532
533.0753, 992.7000
533.5574, 941.5974
534.0396, 892.3477
534.5217, 842.9573
535.0038, 793.6163
535.4859, 748.7739
535.9680, 711.7056
536.4501, 676.3580
536.9323, 639.1099
537.4144, 597.6267
537.8965, 559.8951
538.3786, 526.8662
538.8607, 496.5809
539.3428, 466.9539
539.8250, 437.7318
540.3071, 409.2567
540.7892, 381.9437
541.2713, 355.4948
541.7534, 330.2388
542.2355, 306.1477
542.7177, 282.9203
543.1998, 259.1044
543.6819, 236.1877
544.1640, 216.9720
544.6461, 201.7223
545.1282, 187.8567
545.6104, 174.0667
546.0925, 160.6322
546.5746, 147.8313
547.0567, 135.2946
547.5388, 124.0083
548.0209, 115.4094
548.5031, 108.3562
548.9852, 100.1354
549.4673, 87.60876
549.9494, 76.81189
550.4315, 69.98279
550.9136, 67.09949
551.3958, 62.25098
551.8779, 54.11633
552.3600, 46.23730
552.8421, 41.15686
553.3242, 39.27222
553.8063, 36.22229
554.2885, 31.48083
554.7706, 26.52173
555.2527, 23.70129
555.7348, 22.64258
556.2169, 20.92834
556.6990, 17.56384
557.1812, 13.57947
557.6633, 9.998779
558.1454, 6.954956
558.6275, 4.954346
559.1096, 5.390625
559.5917, 6.256836
560.0739, 5.966064
560.5560, 4.400146
561.0381, 2.322632
561.5202, 1.016479
562.0023, 4.068115
562.4844, 5.598389
562.9666, 3.643066
563.4487, 2.917480
563.9308, 4.572144
564.4129, 7.210205
564.8950, 8.782227
565.3771, 9.231079
565.8593, 8.670410
566.3414, 6.774536
566.8235, 3.948853
567.3056, 1.611450
567.7877, 0.3530270
568.2698, 0.8088380
568.7520, 2.396729
569.2341, 7.837036
569.7162, 9.640991
570.1983, 7.438721
570.6804, 4.413330
571.1625, 3.460205
571.6447, 3.670898
572.1268, 3.538208
572.6089, 2.460327
573.0910, 1.461426
573.5731, 1.257568
574.0552, 1.554565
574.5374, 1.851807
575.0195, 1.472778
575.5016, 1.549683
575.9837, 3.063354
576.4658, 5.767822
576.9479, 6.827881
577.4301, 5.329346
577.9122, 3.177368
578.3943, 1.240601
578.8764, 0.2720950
579.3585, 2.860474
579.8406, 6.802368
580.3228, 11.19446
580.8049, 15.50171
581.2870, 19.63550
581.7691, 22.22595
582.2512, 22.68103
582.7333, 22.22754
583.2155, 22.15527
583.6975, 22.59766
584.1796, 24.00061
584.6617, 27.27710
585.1439, 31.05237
585.6260, 33.87537
586.1081, 35.98035
586.5902, 38.61633
587.0723, 43.66577
587.5544, 48.37744
588.0366, 51.16528
588.5187, 51.53369
589.0008, 51.37732
589.4829, 50.04065
589.9650, 48.88843
590.4471, 49.12549
590.9293, 51.95276
591.4114, 53.29578
591.8935, 52.31555
592.3756, 50.40454
592.8577, 50.13171
593.3398, 51.59180
593.8220, 53.28992
594.3041, 54.81787
594.7862, 56.21387
595.2683, 57.44568
595.7504, 58.55847
596.2325, 59.93823
596.7147, 62.42004
597.1968, 64.98230
597.6789, 66.35852
598.1610, 66.44873
598.6431, 66.30737
599.1252, 66.62097
599.6074, 66.92615
600.0895, 66.83911
600.5716, 66.17664
601.0537, 65.34094
601.5358, 64.55896
602.0179, 63.58362
602.5001, 61.98071
602.9822, 59.07959
603.4643, 56.89685
603.9464, 55.67383
604.4285, 55.39526
604.9106, 56.26135
605.3928, 58.39209
605.8749, 60.38550
606.3570, 61.33862
606.8391, 61.61548
607.3212, 62.98792
607.8033, 65.35767
608.2855, 66.48669
608.7676, 63.04395
609.2497, 58.01843
609.7318, 55.51196
610.2139, 56.51221
610.6960, 57.91785
611.1782, 58.40271
611.6603, 58.23572
612.1424, 57.69592
612.6245, 56.90613
613.1066, 55.69055
613.5887, 53.48889
614.0709, 50.95642
614.5530, 49.43994
615.0351, 49.63171
615.5172, 49.47070
615.9993, 48.36499
616.4814, 46.46265
616.9636, 44.33728
617.4457, 41.95923
617.9278, 39.93030
618.4099, 39.09924
618.8920, 38.91736
619.3741, 37.27905
619.8563, 33.98486
620.3384, 31.46753
620.8205, 33.23254
621.3026, 36.37134
621.7847, 37.03748
622.2668, 33.39917
622.7490, 29.96484
623.2311, 29.23853
623.7132, 29.74365
624.1953, 29.59412
624.6774, 27.63135
625.1595, 26.06689
625.6417, 25.12793
626.1238, 24.67798
626.6059, 24.49988
627.0880, 24.70850
627.5701, 24.53735
628.0522, 23.76086
628.5344, 22.59521
629.0165, 21.91431
629.4986, 21.69983
629.9807, 21.23743
630.4628, 19.47827
630.9449, 17.23315
631.4271, 16.26965
631.9092, 16.77271
632.3913, 17.30408
632.8734, 16.05518
633.3555, 14.63672
633.8376, 14.95972
634.3198, 19.29883
634.8019, 21.57776
635.2840, 18.56750
635.7661, 13.30310
636.2482, 9.961914
636.7303, 9.324951
637.2125, 9.539917
637.6946, 10.49133
638.1767, 11.85803
638.6588, 13.08276
639.1409, 14.33081
639.6230, 14.63367
640.1052, 13.02979
640.5873, 10.42664
641.0694, 9.949341
641.5515, 11.42334
642.0336, 12.63086
642.5157, 11.82361
642.9979, 10.10461
643.4800, 8.466553
643.9621, 6.999390
644.4442, 6.119995
644.9263, 5.856323
645.4084, 6.334229
645.8906, 7.820435
646.3727, 11.74219
646.8548, 14.07935
647.3369, 13.31885
647.8190, 11.54663
648.3011, 11.39465
648.7833, 13.65930
649.2654, 14.90820
649.7475, 14.00916
650.2296, 12.28613
650.7117, 12.72131
651.1938, 15.07495
651.6760, 16.55835
652.1581, 15.27856
652.6402, 13.06274
653.1223, 12.68774
653.6044, 13.87292
654.0865, 15.30542
654.5687, 16.50403
655.0508, 17.54797
655.5329, 18.67993
656.0150, 19.94434
656.4971, 20.39050
656.9792, 19.77893
657.4614, 18.27551
657.9435, 15.65906
658.4256, 10.99988
658.9077, 8.681885
659.3898, 9.425537
659.8719, 11.14905
660.3541, 11.55652
660.8362, 10.71436
661.3183, 10.73584
661.8004, 12.24548
662.2825, 13.65515
662.7646, 12.30920
663.2468, 9.239990
663.7289, 6.985352
664.2110, 6.944702
664.6931, 7.375732
665.1752, 7.464722
665.6573, 7.145752
666.1395, 6.143677
666.6216, 2.193726
667.1037, 0.1479490
667.5858, 2.109375
668.0679, 7.959229
668.5500, 10.05957
669.0322, 6.277222
669.5143, 2.984497
669.9964, 3.437988
670.4785, 7.312622
670.9606, 9.434570
671.4427, 9.698364
671.9249, 9.091919
672.4070, 8.270752
672.8891, 7.176392
673.3712, 5.368164
673.8533, 2.652832
674.3354, 0.5721440
674.8176, 0.7960210
675.2997, 1.947510
675.7818, 2.713501
676.2639, 2.530884
676.7460, 2.210205
677.2281, 1.653442
677.7103, 1.157471
678.1924, 0.9224850
678.6745, 1.001099
679.1566, 1.378174
679.6387, 2.199829
680.1208, 3.270264
680.6030, 4.272827
681.0851, 5.201904
681.5672, 5.496460
682.0493, 4.358154
682.5314, 3.020752
683.0135, 4.473267
683.4957, 7.887695
683.9778, 10.07703
684.4599, 8.390869
684.9420, 5.624878
685.4241, 3.237549
685.9063, 1.354492
686.3884, 0.1652830
686.8705, 1.287476
687.3526, 1.914185
687.8347, 1.848022
688.3168, 0.9743650
688.7990, 0.6922610
689.2811, 1.095093
689.7632, 1.618530
690.2453, 1.844849
690.7274, 1.744141
691.2095, 1.596436
691.6917, 1.373535
692.1738, 1.106079
692.6559, 0.6800540
693.1380, 0.3498540
693.6201, 0.5634770
694.1022, 1.708740
694.5844, 2.455078
695.0665, 1.792969
695.5486, 0.3787840
696.0307, 0.9589840
696.5128, 2.337158
696.9949, 3.262573
697.4771, 3.676392
697.9592, 3.598633
698.4413, 3.069702
698.9234, 1.978394
699.4055, 0.9666750
699.8876, 3.2960000E-03
700.3698, 0.5948490
700.8519, 0.6254880
701.3340, 3.351318
701.8161, 5.449707
702.2982, 5.690918
702.7803, 4.837769
703.2625, 3.091553
703.7446, 0.7647710
704.2267, 0.5858150
704.7088, 0.9982910
705.1909, 2.598267
705.6730, 2.178833
706.1552, 0.6340330
706.6373, 1.093750
707.1194, 2.490967
707.6015, 6.059937
708.0836, 7.138550
708.5657, 5.545776
709.0479, 4.795410
709.5300, 4.920532
710.0121, 5.495239
710.4942, 6.389526
710.9763, 7.375122
711.4584, 7.752441
711.9406, 7.304077
712.4227, 7.186401
712.9048, 8.867920
713.3869, 11.01013
713.8690, 12.25977
714.3511, 12.40283
714.8333, 11.51819
715.3154, 8.022217
715.7975, 4.423584
716.2796, 3.767212
716.7617, 7.778076
717.2438, 9.661255
717.7260, 8.100098
718.2081, 4.947021
718.6902, 3.493408
719.1723, 3.517944
719.6544, 3.370605
720.1365, 2.320190
720.6187, 1.188843
721.1008, 0.4903560
721.5829, 0.4475100
722.0650, 1.559204
722.5471, 6.376587
723.0292, 10.00427
723.5114, 9.338379
723.9935, 5.406494
724.4756, 2.829956
724.9577, 2.077637
725.4398, 2.271973
725.9219, 3.500977
726.4041, 5.491821
726.8862, 6.685059
727.3683, 7.060303
727.8504, 6.957642
728.3325, 6.605347
728.8146, 5.914185
729.2968, 4.362061
729.7789, 2.100830
730.2610, 0.3852540
730.7431, 0.4470210
731.2252, 1.031006
731.7073, 1.385498
732.1895, 1.461548
732.6716, 0.9279790
733.1537, 1.746094
733.6358, 3.719238
734.1179, 3.289185
734.6000, 0.1649170
735.0822, 2.336182
735.5643, 3.137085
736.0464, 2.946533
736.5285, 1.417480
737.0106, 0.8950200
737.4927, 1.690186
737.9749, 0.6212160
738.4570, 0.8883060
738.9391, 2.009033
739.4212, 2.720093
739.9033, 3.075439
740.3854, 3.392578
740.8676, 2.675049
741.3497, 0.8541260
741.8318, 4.677612
742.3139, 6.219971
742.7960, 4.498535
743.2781, 2.860718
743.7603, 1.427856
744.2424, 0.3966060
744.7245, 0.4102780
745.2066, 1.265625
745.6887, 1.067505
746.1708, 1.109863
746.6530, 3.241821
747.1351, 2.396240
747.6172, 6.9701999E-02
748.0993, 1.712280
748.5814, 0.7674560
749.0635, 0.1604000
749.5457, 0.3657230
750.0278, 1.413452
750.5099, 0.9229740
750.9920, 2.203613
751.4741, 4.843018
751.9562, 6.392090
752.4384, 7.116089
752.9205, 7.868774
753.4026, 8.679565
753.8847, 8.236572
754.3668, 4.856445
754.8489, 1.225708
755.3311, 2.064575
755.8132, 6.014648
756.2953, 9.100830
756.7774, 8.306030
757.2595, 7.328979
757.7416, 8.117676
758.2238, 10.35803
758.7059, 12.11853
759.1880, 13.33020
759.6701, 13.90808
760.1522, 13.70935
760.6343, 12.86072
761.1165, 11.51086
761.5986, 9.548584
762.0807, 9.000488
762.5628, 12.50452
763.0449, 17.64172
763.5270, 20.06091
764.0092, 20.07385
764.4913, 20.01453
764.9734, 21.27307
765.4555, 22.90723
765.9376, 24.41101
766.4197, 25.76892
766.9019, 27.26086
767.3840, 29.18054
767.8661, 30.88232
768.3482, 32.16138
768.8303, 33.01416
769.3124, 32.78320
769.7946, 31.32092
770.2767, 30.74451
770.7588, 33.26147
771.2409, 37.42139
771.7230, 40.74585
772.2051, 43.14124
772.6873, 45.18591
773.1694, 47.16333
773.6515, 48.92078
774.1336, 50.47925
774.6157, 51.92749
775.0978, 52.52527
775.5800, 51.46655
776.0621, 50.61328
776.5442, 51.13757
777.0263, 53.11047
777.5084, 55.22559
777.9905, 57.50964
778.4727, 59.59167
778.9548, 61.57568
779.4369, 63.02612
779.9190, 62.79309
780.4011, 60.72339
780.8832, 58.95166
781.3654, 58.27185
781.8475, 58.70471
782.3296, 60.75610
782.8117, 65.81665
783.2938, 68.01904
783.7759, 65.89368
784.2581, 63.02441
784.7402, 62.09460
785.2223, 63.10742
785.7044, 64.65930
786.1865, 66.78296
786.6686, 68.58276
787.1508, 69.13794
787.6329, 68.78101
788.1150, 67.69653
788.5971, 65.67957
789.0792, 64.70813
789.5613, 66.33862
790.0435, 68.91443
790.5256, 71.21912
791.0077, 73.31482
791.4898, 74.06799
791.9719, 73.10547
792.4540, 71.98206
792.9362, 72.01782
793.4183, 73.02490
793.9004, 72.97180
794.3825, 71.53601
794.8646, 70.29858
795.3467, 71.63086
795.8289, 73.99072
796.3110, 74.98193
796.7931, 73.83215
797.2752, 72.75073
797.7573, 71.71912
798.2394, 71.66272
798.7216, 73.41931
799.2037, 77.91602
799.6858, 81.33057
800.1679, 83.81946
800.6500, 85.52942
801.1321, 85.90674
801.6143, 85.32446
802.0964, 85.83801
802.5785, 87.69104
803.0606, 89.67615
803.5427, 90.54333
804.0248, 91.25488
804.5070, 92.64697
804.9891, 94.70923
805.4712, 97.78674
805.9533, 103.7039
806.4354, 109.4681
806.9175, 112.6400
807.3997, 112.5226
807.8818, 112.4751
808.3639, 112.6588
808.8460, 113.1533
809.3281, 113.5507
809.8102, 114.2872
810.2924, 117.0278
810.7745, 122.2759
811.2566, 126.8820
811.7387, 127.9187
812.2208, 127.6598
812.7029, 128.2430
813.1851, 130.7802
813.6672, 131.9998
814.1493, 130.4120
814.6314, 129.0023
815.1135, 130.9740
815.5956, 136.6230
816.0778, 138.4044
816.5599, 135.6490
817.0420, 132.0018
817.5241, 131.2474
818.0062, 131.8123
818.4883, 130.9750
818.9705, 128.1481
819.4526, 125.8636
819.9347, 125.7819
820.4168, 126.3096
820.8989, 126.3766
821.3810, 125.9244
821.8632, 125.2841
822.3453, 124.5029
822.8274, 123.4225
823.3095, 122.1639
823.7916, 120.5889
824.2737, 117.7635
824.7559, 113.6251
825.2380, 109.5770
825.7201, 106.9397
826.2022, 104.8032
826.6843, 102.6133
827.1664, 100.3878
827.6486, 97.66785
828.1307, 93.14343
828.6128, 89.02209
829.0949, 86.42554
829.5770, 85.58533
830.0591, 85.06177
830.5413, 84.82483
831.0234, 85.12268
831.5055, 87.43494
831.9876, 89.67688
832.4697, 87.20447
832.9518, 80.38940
833.4340, 73.96570
833.9161, 71.00476
834.3982, 69.01733
834.8803, 66.34094
835.3624, 62.79199
835.8445, 60.82910
836.3267, 61.14001
836.8088, 61.31335
837.2909, 60.55933
837.7730, 58.94250
838.2551, 56.16162
838.7372, 52.36719
839.2194, 49.36792
839.7015, 49.00024
840.1836, 49.18738
840.6657, 47.76270
841.1478, 45.05676
841.6299, 43.38159
842.1121, 45.00110
842.5942, 46.07178
843.0763, 44.94849
843.5584, 42.15381
844.0405, 40.55872
844.5226, 40.19714
845.0048, 40.68701
845.4869, 42.49915
845.9690, 44.50928
846.4511, 43.99646
846.9332, 41.69470
847.4153, 40.04919
847.8975, 41.46362
848.3796, 42.57251
848.8617, 41.00793
849.3438, 37.77759
849.8259, 36.49585
850.3080, 38.50623
850.7902, 39.62915
851.2723, 38.71204
851.7544, 36.68823
852.2365, 35.48010
852.7186, 35.03711
853.2007, 35.06152
853.6829, 35.69250
854.1650, 36.38135
854.6471, 36.88525
855.1292, 37.04639
855.6113, 36.59644
856.0934, 33.63318
856.5756, 32.66333
857.0577, 35.78296
857.5398, 39.76050
858.0219, 39.28284
858.5040, 33.99634
858.9861, 30.74121
859.4683, 30.95911
859.9504, 32.16443
860.4325, 31.39709
860.9146, 29.46460
861.3967, 27.84521
861.8788, 27.30579
862.3610, 25.96924
862.8431, 21.98315
863.3252, 17.63647
863.8073, 15.24402
864.2894, 15.83838
864.7715, 14.86914
865.2537, 11.73987
865.7358, 8.773926
866.2179, 9.062012
866.7000, 11.27209
867.1821, 11.59399
867.6642, 9.597778
868.1464, 7.198242
868.6285, 5.121460
869.1106, 3.512329
869.5927, 2.518677
870.0748, 2.265259
870.5569, 2.042236
871.0391, 1.603027
871.5212, 1.605591
872.0033, 2.900146
872.4854, 5.132568
872.9675, 5.071167
873.4496, 2.861328
873.9318, 1.270142
874.4139, 3.105591
874.8960, 5.673218
875.3781, 6.778076
875.8602, 6.400269
876.3423, 5.263916
876.8245, 1.230957
877.3066, 0.5795900
877.7887, 2.444458
878.2708, 8.577881
878.7529, 9.771118
879.2350, 6.019165
879.7172, 3.570313
880.1993, 6.570557
880.6814, 10.69336
881.1635, 9.751831
881.6456, 5.397827
882.1277, 1.598511
882.6099, 0.4741210
883.0920, 1.433960
883.5741, 0.4802250
884.0562, 1.072144
884.5383, 0.8360600
885.0204, 1.636963
885.5026, 2.892090
885.9847, 2.005615
886.4668, 0.6147460
886.9489, 1.089966
887.4310, 2.743652
887.9131, 4.337402
888.3953, 5.966431
888.8774, 6.331055
889.3595, 3.372070
889.8416, 0.2149660
890.3237, 1.705078
890.8058, 0.1186520
891.2880, 0.3282470
891.7701, 1.678589
892.2522, 3.452881
892.7343, 1.796387
893.2164, 1.730957
893.6985, 2.498535
894.1807, 0.1562500
894.6628, 2.036011
895.1449, 1.870239
895.6270, 0.8656010
896.1091, 0.3896480
896.5912, 1.893677
897.0734, 1.805664
897.5555, 0.5928960
898.0376, 2.874756
898.5197, 3.779541
899.0018, 3.717529
899.4839, 4.321289
899.9661, 5.371094
900.4482, 5.625732
900.9303, 3.423462
901.4124, 1.125610
901.8945, 0.3312990
902.3766, 0.7222900
902.8588, 1.130859
903.3409, 1.451782
903.8230, 1.798950
904.3051, 2.276367
904.7872, 2.787720
905.2693, 2.904175
905.7515, 2.768555
906.2336, 2.693604
906.7157, 2.837646
907.1978, 2.860840
907.6799, 2.103882
908.1620, 1.193115
908.6442, 0.8880620
909.1263, 1.624878
909.6084, 2.576904
910.0905, 4.040039
910.5726, 5.288086
911.0547, 5.603516
911.5369, 5.103882
912.0190, 4.959839
912.5011, 5.262207
912.9832, 5.443359
913.4653, 4.727661
913.9474, 3.957153
914.4296, 4.048340
914.9117, 5.108032
915.3938, 5.285034
915.8759, 3.279175
916.3580, 1.843384
916.8401, 2.391235
917.3223, 4.420288
917.8044, 4.791870
918.2865, 3.618896
918.7686, 2.915405
919.2507, 3.988159
919.7328, 5.820313
920.2150, 8.182983
920.6971, 10.49817
921.1792, 11.37781
921.6613, 8.908081
922.1434, 7.019043
922.6255, 6.432617
923.1077, 6.554321
923.5898, 6.513794
924.0719, 6.303711
924.5540, 5.495972
925.0361, 3.814697
925.5182, 2.294922
926.0004, 2.043579
926.4825, 2.476563
926.9646, 2.762085
927.4467, 2.265747
927.9288, 3.144653
928.4109, 7.312622
928.8931, 10.73218
929.3752, 9.879150
929.8573, 4.890015
930.3394, 2.695801
930.8215, 3.311401
931.3036, 4.256958
931.7858, 3.620117
932.2679, 2.567383
932.7500, 2.255493
933.2321, 2.654053
933.7142, 2.982788
934.1964, 3.330933
934.6785, 3.232666
935.1606, 2.414429
935.6427, 1.203735
936.1248, 0.4575200
936.6069, 0.1042480
937.0891, 0.3535160
937.5712, 1.461426
938.0533, 2.075684
938.5354, 0.5581050
939.0175, 1.947021
939.4996, 3.738647
939.9818, 4.018677
940.4639, 4.026367
940.9460, 3.537109
941.4281, 3.234009
941.9102, 4.120361
942.3923, 5.916992
942.8745, 5.784546
943.3566, 3.482300
943.8387, 1.390015
944.3208, 1.483643
944.8029, 2.448120
945.2850, 3.480103
945.7672, 4.520264
946.2493, 4.582886
946.7314, 2.886108
947.2135, 2.065796
947.6956, 3.573975
948.1777, 6.277588
948.6599, 6.257324
949.1420, 4.012329
949.6241, 2.361328
950.1062, 3.356323
950.5883, 4.406128
951.0704, 2.749390
951.5526, 4.6264999E-02
952.0347, 0.2927250
952.5168, 3.687012
952.9989, 5.927612
953.4810, 5.426758
953.9631, 4.137329
954.4453, 5.088013
954.9274, 7.405396
955.4095, 7.242432
955.8916, 3.742920
956.3737, 0.8957520
956.8558, 2.036377
957.3380, 4.303467
957.8201, 5.604370
958.3022, 5.748779
958.7843, 6.067993
959.2664, 6.764160
959.7485, 6.948853
960.2307, 6.110474
960.7128, 4.533691
961.1949, 2.084473
961.6770, 0.6510010
962.1591, 1.573120
962.6412, 2.998779
963.1234, 6.521240
963.6055, 5.271118
964.0876, 1.712769
964.5697, 2.7100001E-02
965.0518, 0.6834720
965.5339, 1.210327
966.0161, 1.351563
966.4982, 1.180908
966.9803, 0.2257080
967.4624, 0.7714840
967.9445, 0.2279050
968.4266, 2.328369
968.9088, 4.275391
969.3909, 4.679199
969.8730, 4.071777
970.3551, 2.330444
970.8372, 0.3948970
971.3193, 1.647461
971.8015, 1.401245
972.2836, 0.4479980
972.7657, 1.330811
973.2478, 3.097778
973.7299, 3.707642
974.2120, 3.523193
974.6942, 3.463745
975.1763, 3.662109
975.6584, 4.265137
976.1405, 5.538452
976.6226, 6.953247
977.1047, 7.546631
977.5869, 7.457153
978.0690, 8.379639
978.5511, 10.71240
979.0332, 12.46057
979.5153, 11.52197
979.9974, 9.506714
980.4796, 7.597290
980.9617, 5.846680
981.4438, 5.573364
981.9259, 7.624512
982.4080, 9.371582
982.8901, 9.376953
983.3723, 8.314331
983.8544, 8.296265
984.3365, 9.128174
984.8186, 9.984619
985.3007, 10.64246
985.7828, 11.00952
986.2650, 10.95654
986.7471, 10.59119
987.2292, 9.948364
987.7113, 8.477661
988.1934, 8.956177
988.6755, 12.07898
989.1577, 15.41003
989.6398, 16.05310
990.1219, 15.10327
990.6040, 14.35266
991.0861, 14.01526
991.5682, 13.60669
992.0504, 12.73511
992.5325, 12.00073
993.0146, 11.79187
993.4967, 11.96497
993.9788, 11.53162
994.4609, 10.52185
994.9431, 9.864746
995.4252, 10.12781
995.9073, 10.60266
996.3894, 10.92859
996.8715, 10.97827
997.3536, 10.41650
997.8358, 7.967896
998.3179, 6.743408
998.8000, 7.053223
999.2821, 8.188965
999.7642, 9.722168
1000.246, 11.53186
1000.728, 13.01367
1001.211, 14.11816
1001.693, 14.65222
1002.175, 13.89246
1002.657, 13.06042
1003.139, 12.95898
1003.621, 13.53992
1004.103, 14.16931
1004.585, 14.80566
1005.068, 15.64124
1005.550, 16.85645
1006.032, 18.10291
1006.514, 18.87610
1006.996, 19.21545
1007.478, 19.11768
1007.960, 18.34753
1008.442, 17.90027
1008.924, 18.28516
1009.407, 18.68579
1009.889, 18.31274
1010.371, 17.15820
1010.853, 17.69678
1011.335, 20.07117
1011.817, 21.86646
1012.299, 20.82996
1012.781, 19.20300
1013.263, 18.84570
1013.746, 19.57141
1014.228, 20.64014
1014.710, 22.86060
1015.192, 23.78174
1015.674, 22.76599
1016.156, 20.65405
1016.638, 18.12561
1017.120, 15.60962
1017.603, 14.44275
1018.085, 14.94141
1018.567, 15.95410
1019.049, 17.31738
1019.531, 18.46777
1020.013, 19.01941
1020.495, 19.12183
1020.977, 19.25647
1021.459, 19.49927
1021.942, 19.26672
1022.424, 17.95740
1022.906, 16.44165
1023.388, 15.78638
1023.870, 15.81470
1024.352, 16.17566
1024.834, 17.94580
1025.316, 18.22937
1025.799, 16.35168
1026.281, 13.80322
1026.763, 11.51025
1027.245, 9.753296
1027.727, 10.80530
1028.209, 14.66333
1028.691, 18.05200
1029.173, 18.58569
1029.656, 18.05334
1030.138, 17.38452
1030.620, 16.66772
1031.102, 15.66650
1031.584, 13.97913
1032.066, 13.71204
1032.548, 15.78308
1033.030, 18.43298
1033.512, 18.84314
1033.995, 18.05542
1034.477, 18.02271
1034.959, 19.63318
1035.441, 20.22778
1035.923, 18.64355
1036.405, 16.42529
1036.887, 13.86182
1037.369, 11.23181
1037.851, 11.65881
1038.334, 14.75977
1038.816, 16.85107
1039.298, 15.05225
1039.780, 12.38171
1040.262, 10.58618
1040.744, 9.422852
1041.226, 8.325806
1041.708, 7.109985
1042.191, 6.464233
1042.673, 6.549927
1043.155, 6.747437
1043.637, 6.245483
1044.119, 5.476563
1044.601, 5.126709
1045.083, 5.241943
1045.565, 5.721313
1046.047, 7.326050
1046.530, 8.244995
1047.012, 7.523926
1047.494, 5.966309
1047.976, 6.072876
1048.458, 7.592651
1048.940, 8.429565
1049.422, 7.789795
1049.904, 7.046265
1050.386, 7.352051
1050.869, 7.993896
1051.351, 8.195313
1051.833, 7.801025
1052.315, 7.844360
1052.797, 8.545410
1053.279, 8.623291
1053.761, 6.579468
1054.243, 3.910400
1054.726, 3.137695
1055.208, 3.861938
1055.690, 5.045654
1056.172, 6.624512
1056.654, 8.319702
1057.136, 10.66211
1057.618, 12.41772
1058.100, 11.61542
1058.583, 8.746399
1059.065, 7.103638
1059.547, 6.922058
1060.029, 6.853943
1060.511, 5.838074
1060.993, 4.799438
1061.475, 4.663940
1061.957, 5.052551
1062.439, 3.949585
1062.922, 0.8765870
1063.404, 0.3801270
1063.886, 1.717102
1064.368, 4.203552
1064.850, 2.757080
1065.332, 0.2771000
1065.814, 1.611328
1066.296, 0.1709590
1066.778, 0.9746090
1067.261, 1.766479
1067.743, 1.719727
1068.225, 5.1941000E-02
1068.707, 2.551392
1069.189, 1.714294
1069.671, 1.499329
1070.153, 3.643005
1070.635, 2.525330
1071.118, 0.9519040
1071.600, 0.3083500
1072.082, 1.207520
1072.564, 1.676025
1073.046, 1.706116
1073.528, 1.223633
1074.010, 0.2125240
1074.492, 0.5696410
1074.974, 0.1973270
1075.457, 0.3900150
1075.939, 0.2158200
1076.421, 0.4885250
1076.903, 0.5623170
1077.385, 0.6913450
1077.867, 0.6990970
1078.349, 1.324829
1078.831, 3.710571
1079.313, 3.980835
1079.796, 3.145447
1080.278, 3.057617
1080.760, 4.010498
1081.242, 4.879089
1081.724, 5.504333
1082.206, 5.697083
1082.688, 5.341309
1083.170, 4.523071
1083.652, 3.150208
1084.135, 1.455444
1084.617, 0.8218380
1085.099, 2.128235
1085.581, 3.478821
1086.063, 4.180603
1086.545, 4.034546
1087.027, 2.609192
1087.509, 0.3316040
1087.992, 1.536194
1088.474, 0.9081420
1088.956, 0.1087650
1089.438, 0.7318120
1089.920, 1.217896
1090.402, 1.722412
1090.884, 2.306335
1091.366, 3.121521
1091.849, 4.327759
1092.331, 5.452087
1092.813, 6.529419
1093.295, 7.264893
1093.777, 6.920532
1094.259, 6.164551
1094.741, 6.888977
1095.223, 8.836548
1095.705, 9.567261
1096.188, 6.498962
1096.670, 4.160706
1097.152, 3.913513
1097.634, 4.820313
1098.116, 5.318176
1098.598, 5.456116
1099.080, 5.210144
1099.562, 4.495239
1100.044, 4.506348
1100.527, 7.301514
1101.009, 9.952698
1101.491, 10.20502
1101.973, 8.510437
1102.455, 7.419800
1102.937, 6.916321
1103.419, 7.037781
1103.901, 7.862305
1104.384, 9.119873
1104.866, 10.92554
1105.348, 12.76630
1105.830, 14.16107
1106.312, 15.22687
1106.794, 14.60071
1107.276, 11.70563
1107.758, 9.101501
1108.240, 8.130493
1108.723, 8.445435
1109.205, 9.980408
1109.687, 12.21527
1110.169, 13.95813
1110.651, 14.98486
1111.133, 15.16168
1111.615, 14.03540
1112.097, 12.90009
1112.579, 13.28674
1113.062, 14.63892
1113.544, 14.61340
1114.026, 13.40094
1114.508, 12.66034
1114.990, 13.97760
1115.472, 15.03888
1115.954, 14.78809
1116.436, 13.97321
1116.919, 13.99737
1117.401, 14.72601
1117.883, 13.59448
1118.365, 10.22919
1118.847, 7.342773
1119.329, 7.322571
1119.811, 8.178162
1120.293, 8.835144
1120.776, 9.178040
1121.258, 8.854126
1121.740, 7.795349
1122.222, 6.925598
1122.704, 6.434814
1123.186, 6.277161
1123.668, 6.495544
1124.150, 7.013306
1124.632, 7.905334
1125.115, 9.335876
1125.597, 8.405762
1126.079, 4.106995
1126.561, 0.7104490
1127.043, 0.3831180
1127.525, 1.654358
1128.007, 1.941040
1128.489, 1.955383
1128.971, 3.023315
1129.454, 6.066223
1129.936, 8.558899
1130.418, 10.77716
1130.900, 11.54248
1131.382, 9.452209
1131.864, 5.752319
1132.346, 4.101135
1132.828, 4.102539
1133.311, 4.065613
1133.793, 3.082886
1134.275, 2.489075
1134.757, 2.537354
1135.239, 3.095337
1135.721, 4.308960
1136.203, 6.008606
1136.685, 7.128174
1137.167, 7.707947
1137.650, 7.936462
1138.132, 7.593689
1138.614, 7.164673
1139.096, 6.750366
1139.578, 6.610352
1140.060, 7.581238
1140.542, 9.751770
1141.024, 9.519409
1141.506, 6.576660
1141.989, 4.003357
1142.471, 4.304993
1142.953, 5.619934
1143.435, 7.276062
1143.917, 8.806824
1144.399, 8.813171
1144.881, 7.056030
1145.363, 5.556519
1145.846, 4.591736
1146.328, 4.312317
1146.810, 5.488770
1147.292, 6.995483
1147.774, 7.711975
1148.256, 7.532898
1148.738, 7.751831
1149.220, 8.577087
1149.703, 9.497864
1150.185, 10.44067
1150.667, 11.22797
1151.149, 11.73364
1151.631, 11.91046
1152.113, 11.56915
1152.595, 10.51538
1153.077, 9.488647
1153.559, 8.465881
1154.042, 7.714722
1154.524, 7.364075
1155.006, 7.296387
1155.488, 7.116882
1155.970, 7.109802
1156.452, 8.066956
1156.934, 11.02240
1157.416, 12.11816
1157.898, 9.944885
1158.381, 7.964600
1158.863, 8.579163
1159.345, 10.46210
1159.827, 9.353699
1160.309, 6.415405
1160.791, 4.891235
1161.273, 7.380188
1161.755, 8.789307
1162.238, 7.382629
1162.720, 5.650940
1163.202, 5.502686
1163.684, 6.628052
1164.166, 7.422180
1164.648, 7.935974
1165.130, 8.358215
1165.612, 9.100098
1166.094, 9.263306
1166.577, 7.618408
1167.059, 6.163940
1167.541, 7.551819
1168.023, 11.24945
1168.505, 12.23846
1168.987, 10.60376
1169.469, 8.537598
1169.951, 6.414734
1170.433, 5.159180
1170.916, 5.977783
1171.398, 7.379272
1171.880, 7.260437
1172.362, 5.748596
1172.844, 5.417664
1173.326, 6.419739
1173.808, 6.934143
1174.290, 4.733276
1174.773, 2.703430
1175.255, 2.752441
1175.737, 4.102905
1176.219, 5.681396
1176.701, 7.515198
1177.183, 7.497009
1177.665, 5.180847
1178.147, 4.256958
1178.630, 10.59766
1179.112, 16.65015
1179.594, 16.08521
1180.076, 10.78497
1180.558, 6.844482
1181.040, 4.238892
1181.522, 2.859497
1182.004, 2.755676
1182.486, 3.292664
1182.969, 4.528076
1183.451, 5.632385
1183.933, 5.932983
1184.415, 5.430176
1184.897, 4.026978
1185.379, 1.467102
1185.861, 0.9806520
1186.343, 3.950867
1186.825, 6.893066
1187.308, 5.782410
1187.790, 3.443237
1188.272, 2.983948
1188.754, 1.344849
1189.236, 3.514465
1189.718, 0.2239380
1190.200, 2.423889
1190.682, 1.233459
1191.165, 0.6906130
1191.647, 0.7161250
1192.129, 0.1616820
1192.611, 1.098877
1193.093, 2.042908
1193.575, 1.892029
1194.057, 0.4390870
1194.539, 0.4282230
1195.021, 0.3947140
1195.504, 1.394592
1195.986, 0.5137330
1196.468, 0.9842530
1196.950, 0.7726440
1197.432, 0.1066280
1197.914, 0.2911990
1198.396, 2.169495
1198.878, 4.029236
1199.360, 5.207825
1199.843, 5.720215
1200.325, 5.160645
1200.807, 4.138672
1201.289, 3.613037
1201.771, 3.985535
1202.253, 3.300049
1202.735, 1.271729
1203.217, 0.1446530
1203.700, 2.205811
1204.182, 4.586060
1204.664, 2.910217
1205.146, 0.2899170
1205.628, 0.6289670
1206.110, 3.756226
1206.592, 5.944580
1207.074, 5.738708
1207.557, 4.585876
1208.039, 2.776062
1208.521, 1.094604
1209.003, 7.8856997E-02
1209.485, 0.3738400
1209.967, 1.179321
1210.449, 5.783630
1210.931, 8.734802
1211.413, 9.994080
1211.896, 9.896729
1212.378, 7.755127
1212.860, 5.212524
1213.342, 3.769470
1213.824, 3.330444
1214.306, 3.982849
1214.788, 6.620300
1215.270, 6.693359
1215.752, 3.740356
1216.235, 1.257385
1216.717, 2.744995
1217.199, 5.164307
1217.681, 5.522888
1218.163, 4.458130
1218.645, 3.432983
1219.127, 2.417908
1219.609, 2.047058
1220.092, 2.397217
1220.574, 2.891968
1221.056, 3.234253
1221.538, 3.369385
1222.020, 2.868774
1222.502, 2.216797
1222.984, 2.563660
1223.466, 4.227600
1223.948, 5.474670
1224.431, 6.202637
1224.913, 6.493591
1225.395, 6.205322
1225.877, 5.697693
1226.359, 5.157776
1226.841, 4.640991
1227.323, 4.152222
1227.805, 3.598633
1228.287, 4.029541
1228.770, 5.593872
1229.252, 6.648865
1229.734, 4.591003
1230.216, 2.817505
1230.698, 4.890198
1231.180, 8.714661
1231.662, 9.259216
1232.144, 6.189575
1232.627, 4.559509
1233.109, 4.812622
1233.591, 5.786560
1234.073, 7.513245
1234.555, 8.742859
1235.037, 8.589905
1235.519, 7.390320
1236.001, 5.222107
1236.484, 2.165955
1236.966, 2.687073
1237.448, 7.163879
1237.930, 10.76501
1238.412, 8.802612
1238.894, 6.535706
1239.376, 7.348938
1239.858, 9.570374
1240.340, 10.80890
1240.823, 11.03339
1241.305, 9.576660
1241.787, 6.470459
1242.269, 4.274231
1242.751, 5.684570
1243.233, 7.081909
1243.715, 6.560120
1244.197, 5.467346
1244.679, 6.250427
1245.162, 8.385132
1245.644, 8.704529
1246.126, 7.113708
1246.608, 6.030518
1247.090, 7.471008
1247.572, 8.710571
1248.054, 7.927856
1248.536, 6.478027
1249.019, 6.719604
1249.501, 8.147278
1249.983, 11.23450
1250.465, 15.73688
1250.947, 18.58044
1251.429, 17.21179
1251.911, 15.31213
1252.393, 13.33875
1252.875, 11.71704
1253.358, 11.13995
1253.840, 11.32935
1254.322, 11.34656
1254.804, 11.15802
1255.286, 10.76947
1255.768, 9.572449
1256.250, 8.783508
1256.732, 8.869568
1257.214, 9.174255
1257.697, 8.631165
1258.179, 7.466064
1258.661, 5.424438
1259.143, 2.912109
1259.625, 2.437195
1260.107, 5.182068
1260.589, 7.409241
1261.071, 8.550659
1261.554, 8.864075
1262.036, 8.234375
1262.518, 7.275635
1263.000, 6.564392
1263.482, 6.163208
1263.964, 6.107910
1264.446, 6.531555
1264.928, 6.283386
1265.411, 5.080017
1265.893, 4.253906
1266.375, 5.658203
1266.857, 7.363586
1267.339, 7.337708
1267.821, 8.820862
1268.303, 7.321350
1268.785, 10.43585
1269.267, 12.41602
1269.750, 12.90210
1270.232, 12.06525
1270.714, 8.206604
1271.196, 5.154358
1271.678, 6.839600
1272.160, 10.30914
1272.642, 10.64459
1273.124, 8.095032
1273.606, 6.338623
1274.089, 5.658752
1274.571, 5.607788
1275.053, 6.620789
1275.535, 7.357727
1276.017, 7.292297
1276.499, 6.777161
1276.981, 6.007751
1277.463, 5.185852
1277.946, 5.277222
1278.428, 6.203125
1278.910, 6.978333
1279.392, 7.878479
1279.874, 7.245728
1280.356, 3.944214
1280.838, 0.7824100
1281.320, 1.710083
1281.802, 4.598694
1282.285, 4.677673
1282.767, 2.463806
1283.249, 1.213135
1283.731, 2.597961
1284.213, 3.291931
1284.695, 2.922729
1285.177, 2.322693
1285.659, 2.473572
1286.141, 2.682983
1286.624, 1.790710
1287.106, 0.2633670
1287.588, 0.5591430
1288.070, 0.5593870
1288.552, 0.1621700
1289.034, 1.688721
1289.516, 2.913025
1289.998, 2.772644
1290.481, 2.196472
1290.963, 1.908325
1291.445, 1.671997
1291.927, 0.8713990
1292.409, 0.6572270
1292.891, 0.5051880
1293.373, 1.185181
1293.855, 2.632324
1294.338, 2.018921
1294.820, 1.701050
1295.302, 3.401672
1295.784, 4.617004
1296.266, 4.725403
1296.748, 3.590210
1297.230, 3.187317
1297.712, 3.487183
1298.194, 3.147095
1298.677, 5.281433
1299.159, 6.575928
1299.641, 6.755005
1300.123, 6.308655
1300.605, 5.349426
1301.087, 4.306274
1301.569, 3.016479
1302.051, 1.689819
1302.533, 0.7887570
1303.016, 0.0000000E+00
##END=



