##NAMES=Roselite
##RRUFFID=R100191
##IDEAL CHEMISTRY=Ca_2_Co^2+^(As^5+^O_4_)_2_&#183;2H_2_O
##LOCALITY=Schneeberg District, Erzgebirge, Saxony, Germany
##OWNER=RRUFF
##SOURCE=University of Arizona Mineral Museum
##DESCRIPTION=Druses of dark pink prismatic crystals
##STATUS=The identification of this mineral is confirmed by single-crystal X-ray diffraction and chemical analysis.
##URL=rruff.info/R100191
##MEASURED CHEMISTRY=Ca_1.989_(Co_0.774_Mg_0.184_Mn_0.029_Ni_0.004_Zn_0.002_)_Σ=0.993_(As_1.004_O_4_)_2_·2H_2_O
144.1204, 0.0000000E+00
144.6025, 1.199677
145.0846, 2.206848
145.5667, 3.408691
146.0488, 1.548218
146.5310, 0.2762760
147.0131, 1.104889
147.4952, 0.8156430
147.9773, 9.9976003E-02
148.4594, 0.2211300
148.9415, 0.2310490
149.4237, 0.4714050
149.9058, 0.6334230
150.3879, 1.096039
150.8700, 3.025360
151.3521, 7.149078
151.8342, 12.15717
152.3164, 17.01703
152.7985, 21.71014
153.2806, 26.36609
153.7627, 30.96213
154.2448, 35.49545
154.7269, 40.24289
155.2091, 45.07626
155.6912, 50.25278
156.1733, 56.21112
156.6554, 62.87943
157.1375, 69.42542
157.6196, 74.82333
158.1018, 78.75220
158.5839, 82.39926
159.0660, 85.75409
159.5481, 88.95709
160.0302, 92.01929
160.5123, 94.96014
160.9945, 97.85449
161.4766, 100.7551
161.9587, 103.0522
162.4408, 106.4183
162.9229, 110.6014
163.4050, 115.8563
163.8871, 122.5452
164.3693, 130.8071
164.8514, 140.2206
165.3335, 149.8434
165.8156, 159.9733
166.2977, 169.8464
166.7798, 178.6682
167.2620, 187.3499
167.7441, 197.2961
168.2262, 209.1830
168.7083, 222.5424
169.1904, 236.0471
169.6725, 249.9614
170.1547, 263.5310
170.6368, 276.1571
171.1189, 288.1016
171.6010, 300.2845
172.0831, 313.3084
172.5652, 326.6544
173.0474, 339.5034
173.5295, 351.6485
174.0116, 363.5149
174.4937, 374.8597
174.9758, 385.6985
175.4579, 397.7247
175.9401, 412.2813
176.4222, 428.2411
176.9043, 444.5000
177.3864, 461.1600
177.8685, 477.5504
178.3506, 492.5905
178.8328, 505.7217
179.3149, 519.6414
179.7970, 536.8765
180.2791, 554.6044
180.7612, 570.1348
181.2433, 582.4446
181.7255, 592.6526
182.2076, 603.2717
182.6897, 615.0750
183.1718, 625.7488
183.6539, 635.3254
184.1360, 643.5886
184.6181, 650.1737
185.1003, 654.8831
185.5824, 657.9735
186.0645, 660.3370
186.5466, 662.3790
187.0287, 662.9862
187.5108, 662.4997
187.9930, 660.4459
188.4751, 656.1944
188.9572, 649.3990
189.4393, 640.2295
189.9214, 629.5181
190.4035, 619.2910
190.8857, 605.3505
191.3678, 586.6891
191.8499, 563.8334
192.3320, 537.0950
192.8141, 506.1998
193.2962, 471.9063
193.7784, 439.6483
194.2605, 409.0181
194.7426, 380.2328
195.2247, 353.0353
195.7068, 327.6277
196.1889, 304.4183
196.6711, 283.7038
197.1532, 265.6912
197.6353, 249.8672
198.1174, 236.2477
198.5995, 224.9974
199.0816, 216.1682
199.5638, 209.7003
200.0459, 204.2609
200.5280, 198.7345
201.0101, 193.6971
201.4922, 189.6696
201.9743, 186.4682
202.4565, 183.5926
202.9386, 179.2741
203.4207, 173.4246
203.9028, 167.4987
204.3849, 162.3623
204.8670, 157.5869
205.3492, 152.6939
205.8313, 147.7629
206.3134, 142.4334
206.7955, 136.2130
207.2776, 128.9875
207.7597, 121.7383
208.2419, 114.2545
208.7240, 107.2201
209.2061, 101.6411
209.6882, 98.13580
210.1703, 95.58521
210.6524, 91.89536
211.1346, 86.39502
211.6167, 81.56747
212.0988, 78.97147
212.5809, 77.03979
213.0630, 74.10712
213.5451, 69.41818
214.0273, 63.86548
214.5094, 59.49136
214.9915, 56.78406
215.4736, 54.48453
215.9557, 52.45551
216.4378, 50.56586
216.9200, 48.49432
217.4021, 46.08353
217.8842, 43.77588
218.3663, 42.88217
218.8484, 44.30936
219.3305, 46.00186
219.8127, 48.18481
220.2948, 50.30112
220.7769, 51.54572
221.2590, 51.55029
221.7411, 50.98056
222.2232, 51.83014
222.7054, 56.22858
223.1875, 59.54950
223.6696, 61.23892
224.1517, 61.82932
224.6338, 61.70294
225.1159, 61.02081
225.5980, 60.14493
226.0802, 60.14227
226.5623, 62.49805
227.0444, 63.96735
227.5265, 63.43552
228.0086, 62.13571
228.4907, 61.59570
228.9729, 62.45190
229.4550, 64.41135
229.9371, 66.80737
230.4192, 70.05676
230.9013, 73.06677
231.3834, 75.72186
231.8656, 78.01907
232.3477, 79.77173
232.8298, 80.80746
233.3119, 81.67163
233.7940, 83.79852
234.2761, 87.92017
234.7583, 91.23810
235.2404, 92.89389
235.7225, 93.31201
236.2046, 93.27362
236.6867, 93.07031
237.1688, 92.37656
237.6510, 90.30246
238.1331, 86.66437
238.6152, 83.27304
239.0973, 80.93042
239.5794, 79.24493
240.0615, 77.45605
240.5437, 75.41052
241.0258, 73.06610
241.5079, 70.17349
241.9900, 66.71667
242.4721, 63.59494
242.9542, 61.49097
243.4364, 60.02170
243.9185, 58.20755
244.4006, 55.83365
244.8827, 53.11743
245.3648, 50.58652
245.8469, 48.15887
246.3290, 44.82605
246.8112, 39.29456
247.2933, 32.42194
247.7754, 26.84259
248.2575, 23.48636
248.7396, 20.49734
249.2217, 16.08368
249.7039, 10.70764
250.1860, 6.015686
250.6681, 3.283936
251.1502, 2.017181
251.6323, 0.2789610
252.1144, 2.322510
252.5966, 4.867645
253.0787, 6.728882
253.5608, 8.127686
254.0429, 9.605438
254.5250, 11.76016
255.0071, 14.23923
255.4893, 15.57397
255.9714, 15.07407
256.4535, 14.48325
256.9356, 14.88409
257.4177, 15.70874
257.8998, 15.97952
258.3820, 14.97025
258.8641, 13.10901
259.3462, 11.97031
259.8283, 12.12143
260.3104, 12.05298
260.7925, 11.37732
261.2747, 10.20255
261.7568, 8.632599
262.2389, 6.661896
262.7210, 4.417603
263.2031, 2.218628
263.6852, 1.9623000E-02
264.1674, 2.050354
264.6495, 3.842590
265.1316, 5.426697
265.6137, 6.773956
266.0958, 7.859070
266.5779, 8.816071
267.0601, 9.951477
267.5422, 11.29239
268.0243, 12.79031
268.5064, 14.84720
268.9885, 16.82489
269.4706, 17.90237
269.9528, 17.83206
270.4349, 17.44110
270.9170, 18.40421
271.3991, 21.62109
271.8812, 24.44977
272.3633, 26.31097
272.8455, 28.02304
273.3276, 30.26059
273.8097, 33.16437
274.2918, 36.31091
274.7739, 38.97650
275.2560, 40.57169
275.7382, 42.98788
276.2202, 46.23792
276.7024, 50.10318
277.1845, 54.79022
277.6666, 60.15054
278.1487, 65.48178
278.6308, 69.89282
279.1129, 73.02200
279.5951, 76.42764
280.0772, 79.99081
280.5593, 83.87204
281.0414, 88.49939
281.5235, 93.64929
282.0056, 98.59827
282.4878, 102.7380
282.9699, 106.1740
283.4520, 108.0255
283.9341, 107.4172
284.4162, 106.3510
284.8983, 105.5192
285.3805, 104.9095
285.8626, 104.2704
286.3447, 103.4442
286.8268, 102.4309
287.3089, 100.8532
287.7910, 97.60400
288.2732, 95.02133
288.7553, 93.83841
289.2374, 93.82321
289.7195, 94.47861
290.2016, 95.51053
290.6837, 96.94153
291.1659, 98.99316
291.6480, 101.5814
292.1301, 104.8595
292.6122, 109.1248
293.0943, 114.0322
293.5764, 119.0159
294.0586, 123.8258
294.5407, 128.7668
295.0228, 134.6974
295.5049, 142.2850
295.9870, 150.1350
296.4691, 157.8534
296.9513, 165.9643
297.4334, 175.1515
297.9155, 185.5763
298.3976, 196.7883
298.8797, 208.0191
299.3618, 219.2052
299.8440, 230.5784
300.3261, 242.6851
300.8082, 254.5518
301.2903, 265.5978
301.7724, 275.6223
302.2545, 284.8057
302.7367, 293.5802
303.2188, 302.3766
303.7009, 308.2306
304.1830, 310.0615
304.6651, 310.1784
305.1472, 309.5701
305.6294, 308.5085
306.1115, 307.3303
306.5936, 306.4677
307.0757, 305.9922
307.5578, 303.7117
308.0399, 298.0986
308.5221, 292.4507
309.0042, 287.6680
309.4863, 283.9377
309.9684, 281.4950
310.4505, 280.5069
310.9326, 281.0447
311.4148, 283.5160
311.8969, 287.5403
312.3790, 293.5089
312.8611, 301.8626
313.3432, 312.2213
313.8253, 324.0766
314.3075, 337.1067
314.7896, 351.3881
315.2717, 367.4246
315.7538, 385.2391
316.2359, 405.0906
316.7180, 428.5903
317.2001, 453.4889
317.6823, 477.2419
318.1644, 499.2631
318.6465, 520.4708
319.1286, 542.2793
319.6107, 564.7485
320.0928, 587.5811
320.5750, 611.1608
321.0571, 634.9428
321.5392, 658.3089
322.0213, 681.2020
322.5034, 704.6659
322.9855, 729.8509
323.4677, 757.2928
323.9498, 782.8325
324.4319, 804.2716
324.9140, 826.4226
325.3961, 851.4224
325.8782, 879.0539
326.3604, 908.5364
326.8425, 939.4030
327.3246, 971.5988
327.8067, 1005.528
328.2888, 1042.499
328.7709, 1079.468
329.2531, 1115.468
329.7352, 1150.979
330.2173, 1186.887
330.6994, 1223.621
331.1815, 1260.639
331.6636, 1296.794
332.1458, 1332.755
332.6279, 1366.781
333.1100, 1401.039
333.5921, 1432.151
334.0742, 1457.382
334.5563, 1475.550
335.0385, 1486.758
335.5206, 1491.196
336.0027, 1489.302
336.4848, 1477.462
336.9669, 1454.792
337.4490, 1424.049
337.9312, 1385.514
338.4133, 1340.027
338.8954, 1290.050
339.3775, 1237.490
339.8596, 1181.962
340.3417, 1127.209
340.8239, 1071.860
341.3060, 1018.662
341.7881, 968.3447
342.2702, 920.8465
342.7523, 876.0522
343.2344, 833.9519
343.7166, 794.8127
344.1987, 760.4182
344.6808, 733.8221
345.1629, 708.9450
345.6450, 684.9179
346.1271, 662.6939
346.6093, 643.5209
347.0914, 627.9443
347.5735, 615.1210
348.0556, 603.8557
348.5377, 594.5274
349.0198, 586.1916
349.5020, 579.1381
349.9841, 572.6968
350.4662, 566.6531
350.9483, 560.8947
351.4304, 555.2690
351.9125, 549.7679
352.3947, 544.5762
352.8768, 538.3239
353.3589, 530.4914
353.8410, 522.1469
354.3231, 514.2056
354.8052, 506.0377
355.2874, 496.3426
355.7695, 484.2951
356.2516, 470.0110
356.7337, 453.7456
357.2158, 433.7884
357.6979, 414.0568
358.1800, 395.4488
358.6621, 377.3173
359.1443, 359.0610
359.6264, 340.3513
360.1085, 321.4449
360.5906, 302.4845
361.0727, 283.0534
361.5548, 264.6906
362.0370, 247.9189
362.5191, 231.9387
363.0012, 216.2057
363.4833, 200.6224
363.9654, 185.8496
364.4475, 172.5160
364.9297, 160.6581
365.4118, 149.6106
365.8939, 139.5300
366.3760, 130.1967
366.8581, 121.4128
367.3402, 113.3119
367.8224, 106.2211
368.3045, 100.5664
368.7866, 95.91763
369.2687, 90.96118
369.7508, 85.45850
370.2329, 80.21051
370.7151, 75.35583
371.1972, 70.91931
371.6793, 67.02988
372.1614, 63.82706
372.6435, 60.68240
373.1256, 56.78970
373.6078, 52.10541
374.0899, 47.42325
374.5720, 42.68964
375.0541, 38.21927
375.5362, 34.53564
376.0183, 31.49808
376.5005, 28.04147
376.9826, 22.75369
377.4647, 16.36734
377.9468, 11.77908
378.4289, 9.853882
378.9110, 8.190125
379.3932, 4.656372
379.8753, 0.2498780
380.3574, 3.018127
380.8395, 3.782166
381.3216, 3.825378
381.8037, 5.622498
382.2859, 9.226257
382.7680, 12.23074
383.2501, 13.54114
383.7322, 13.59720
384.2143, 13.24713
384.6964, 12.43210
385.1786, 11.46280
385.6607, 10.28076
386.1428, 9.073181
386.6249, 8.431915
387.1070, 8.621796
387.5891, 9.040955
388.0713, 9.066040
388.5534, 8.731171
389.0355, 8.080475
389.5176, 6.795441
389.9997, 5.399506
390.4818, 4.744202
390.9640, 4.774689
391.4461, 4.077637
391.9282, 1.420868
392.4103, 2.758972
392.8924, 5.953003
393.3745, 6.652802
393.8567, 8.097839
394.3388, 12.29568
394.8209, 18.04645
395.3030, 22.86783
395.7851, 25.80707
396.2672, 27.87537
396.7494, 30.88480
397.2315, 35.15256
397.7136, 39.65073
398.1957, 44.43149
398.6778, 49.39697
399.1599, 54.68604
399.6420, 60.19534
400.1241, 65.40668
400.6063, 69.83072
401.0884, 73.46259
401.5705, 76.98727
402.0526, 81.20248
402.5347, 84.47644
403.0168, 86.06641
403.4990, 86.43939
403.9811, 86.20450
404.4632, 85.64520
404.9453, 84.97772
405.4274, 84.76758
405.9095, 85.59793
406.3917, 85.90161
406.8738, 84.80228
407.3559, 83.81604
407.8380, 84.05804
408.3201, 85.61929
408.8022, 87.81335
409.2844, 89.92914
409.7665, 91.90631
410.2486, 94.67258
410.7307, 98.72049
411.2128, 103.0747
411.6949, 107.0233
412.1771, 111.1629
412.6592, 116.7598
413.1413, 124.7083
413.6234, 133.5213
414.1055, 139.6158
414.5876, 141.7736
415.0698, 145.0118
415.5519, 151.8108
416.0340, 159.2252
416.5161, 165.5460
416.9982, 170.5248
417.4803, 174.2844
417.9625, 176.6711
418.4446, 177.8294
418.9267, 178.7764
419.4088, 179.5388
419.8909, 180.1509
420.3730, 181.1220
420.8552, 181.9567
421.3373, 181.5007
421.8194, 178.9550
422.3015, 175.3897
422.7836, 171.9889
423.2657, 168.7558
423.7479, 165.4118
424.2300, 161.9147
424.7121, 158.1774
425.1942, 154.1247
425.6763, 149.8032
426.1584, 145.0505
426.6406, 139.8244
427.1227, 134.1050
427.6048, 127.7617
428.0869, 120.6876
428.5690, 113.4885
429.0511, 106.6687
429.5333, 100.2523
430.0154, 94.18765
430.4975, 88.25351
430.9796, 82.86639
431.4617, 78.33496
431.9438, 74.56366
432.4260, 71.26010
432.9081, 68.30817
433.3902, 65.75623
433.8723, 63.76102
434.3544, 62.68460
434.8365, 61.59827
435.3187, 60.39075
435.8008, 59.21219
436.2829, 58.28571
436.7650, 57.57730
437.2471, 56.70938
437.7292, 55.18066
438.2114, 52.82635
438.6935, 51.90427
439.1756, 53.45010
439.6577, 55.29782
440.1398, 57.07349
440.6219, 58.75247
441.1040, 60.25226
441.5862, 61.56433
442.0683, 63.17935
442.5504, 66.22214
443.0325, 71.53320
443.5146, 75.90570
443.9967, 77.49823
444.4789, 79.26932
444.9610, 82.75458
445.4431, 87.74731
445.9252, 93.20728
446.4073, 98.45325
446.8894, 103.6568
447.3716, 109.3507
447.8537, 115.8540
448.3358, 121.7896
448.8179, 127.3232
449.3000, 131.7517
449.7821, 134.0069
450.2643, 133.5998
450.7464, 132.0041
451.2285, 130.2387
451.7106, 128.1917
452.1927, 126.0742
452.6748, 124.3319
453.1570, 121.9109
453.6391, 116.8046
454.1212, 109.6935
454.6033, 103.8987
455.0854, 101.0936
455.5675, 99.31015
456.0497, 96.76880
456.5318, 93.55881
457.0139, 90.48102
457.4960, 87.85571
457.9781, 85.80292
458.4602, 84.70651
458.9424, 84.87750
459.4245, 85.12735
459.9066, 84.86749
460.3887, 84.79550
460.8708, 85.83368
461.3529, 88.02350
461.8351, 90.43118
462.3172, 92.09286
462.7993, 92.92535
463.2814, 94.57852
463.7635, 97.81888
464.2456, 101.0552
464.7278, 103.6776
465.2099, 106.0741
465.6920, 108.9599
466.1741, 112.6549
466.6562, 116.5665
467.1383, 119.5072
467.6205, 121.0064
468.1026, 122.7253
468.5847, 125.0023
469.0668, 127.3286
469.5489, 129.4151
470.0310, 131.3647
470.5132, 133.5523
470.9953, 136.4930
471.4774, 139.5510
471.9595, 140.8797
472.4416, 140.0138
472.9237, 139.1714
473.4059, 139.7993
473.8880, 140.4197
474.3701, 139.4444
474.8522, 136.6382
475.3343, 133.6034
475.8164, 131.6173
476.2986, 130.1874
476.7807, 128.0787
477.2628, 125.1820
477.7449, 121.5360
478.2270, 116.5437
478.7091, 110.7496
479.1913, 106.4769
479.6734, 105.5871
480.1555, 104.2993
480.6376, 99.95288
481.1197, 93.87106
481.6018, 88.90961
482.0839, 86.03406
482.5660, 84.04681
483.0482, 81.26678
483.5303, 77.40414
484.0124, 73.79852
484.4945, 70.93835
484.9766, 67.90710
485.4587, 64.09036
485.9409, 59.64383
486.4230, 54.90448
486.9051, 49.99722
487.3872, 45.19620
487.8693, 41.34152
488.3514, 38.65839
488.8336, 36.49716
489.3157, 35.55862
489.7978, 34.44614
490.2799, 31.77438
490.7620, 27.85019
491.2441, 24.46576
491.7263, 23.47052
492.2084, 24.19464
492.6905, 23.24048
493.1726, 19.94199
493.6547, 16.59418
494.1368, 13.72739
494.6190, 11.51154
495.1011, 10.49109
495.5832, 10.94189
496.0653, 11.15247
496.5474, 9.305695
497.0295, 6.180054
497.5117, 4.306061
497.9938, 4.264343
498.4759, 4.569885
498.9580, 4.086243
499.4401, 2.899139
499.9222, 1.595276
500.4044, 0.1534420
500.8865, 1.641266
501.3686, 2.576874
501.8507, 2.992554
502.3328, 2.839172
502.8149, 2.076202
503.2971, 1.182281
503.7792, 0.8714290
504.2613, 1.423401
504.7434, 1.523743
505.2255, 0.6325680
505.7076, 0.1248170
506.1898, 0.2265930
506.6719, 0.2199710
507.1540, 1.051727
507.6361, 2.217957
508.1182, 3.339355
508.6003, 3.407745
509.0825, 1.870300
509.5646, 0.8063960
510.0467, 0.7485050
510.5288, 0.9075620
511.0109, 0.8974000
511.4930, 0.7270200
511.9752, 0.5813900
512.4573, 0.6106570
512.9394, 0.7221680
513.4215, 0.6420590
513.9036, 0.3109740
514.3857, 0.1728820
514.8679, 0.5177610
515.3500, 1.069702
515.8321, 1.476715
516.3142, 1.723785
516.7963, 1.879913
517.2784, 1.919464
517.7606, 1.915710
518.2427, 2.065735
518.7248, 2.363525
519.2069, 2.388458
519.6890, 1.757996
520.1711, 0.6631160
520.6533, 7.6080002E-02
521.1354, 0.5461430
521.6175, 0.7058720
522.0996, 0.2408750
522.5817, 1.265320
523.0638, 1.036713
523.5460, 0.4613340
524.0281, 1.911438
524.5102, 1.995453
524.9923, 0.7607420
525.4744, 0.2088930
525.9565, 0.8799440
526.4387, 1.297821
526.9208, 1.340607
527.4029, 1.213409
527.8850, 1.084076
528.3671, 1.007568
528.8492, 1.046112
529.3314, 1.429108
529.8135, 2.075134
530.2956, 2.132050
530.7777, 1.269196
531.2598, 0.4295040
531.7419, 8.0688000E-02
532.2241, 0.1708370
532.7062, 0.7696230
533.1883, 2.254150
533.6704, 3.500458
534.1525, 3.531982
534.6346, 2.788452
535.1168, 2.244019
535.5989, 2.095123
536.0810, 2.163696
536.5631, 2.302551
537.0452, 2.519989
537.5273, 2.881531
538.0095, 3.740265
538.4916, 4.353210
538.9737, 4.182861
539.4558, 3.647522
539.9379, 3.539612
540.4200, 4.090851
540.9022, 4.677490
541.3843, 4.226105
541.8664, 2.284424
542.3485, 1.551849
542.8306, 3.049438
543.3127, 4.754791
543.7948, 6.493195
544.2769, 7.891663
544.7590, 8.261902
545.2411, 7.253784
545.7233, 6.011566
546.2054, 6.056183
546.6875, 7.263763
547.1696, 8.140503
547.6517, 8.338287
548.1339, 8.429688
548.6160, 8.867645
549.0981, 9.603210
549.5802, 10.47012
550.0623, 11.92682
550.5444, 12.86292
551.0266, 12.07852
551.5087, 10.33164
551.9908, 9.470428
552.4729, 10.08337
552.9550, 11.16650
553.4371, 11.46768
553.9193, 10.80896
554.4014, 10.38449
554.8835, 9.815521
555.3656, 9.800781
555.8477, 11.14221
556.3298, 13.03848
556.8120, 14.31366
557.2941, 14.53159
557.7762, 14.11832
558.2583, 13.58893
558.7404, 12.83923
559.2225, 12.16818
559.7047, 11.50085
560.1868, 11.19565
560.6689, 11.84622
561.1510, 12.84857
561.6331, 13.02844
562.1152, 11.68710
562.5974, 10.26535
563.0795, 10.34747
563.5616, 11.53000
564.0437, 12.41022
564.5258, 12.74368
565.0079, 12.38818
565.4901, 10.72867
565.9722, 7.957092
566.4543, 7.055084
566.9364, 10.15115
567.4185, 12.85690
567.9006, 13.11829
568.3828, 12.03287
568.8649, 11.07251
569.3470, 10.68524
569.8291, 10.70282
570.3112, 10.99658
570.7933, 11.59753
571.2755, 11.85065
571.7576, 11.38312
572.2397, 11.05411
572.7218, 11.32864
573.2039, 11.65939
573.6860, 11.38568
574.1682, 10.36148
574.6503, 9.140137
575.1324, 8.160278
575.6145, 7.414856
576.0966, 6.885895
576.5787, 6.603485
577.0609, 6.390869
577.5430, 6.231781
578.0251, 6.110840
578.5072, 5.836670
578.9893, 5.049255
579.4714, 4.718048
579.9536, 5.961792
580.4357, 7.555634
580.9178, 7.813416
581.3999, 6.581177
581.8820, 4.991516
582.3641, 3.980438
582.8463, 3.537140
583.3284, 3.082977
583.8105, 2.391541
584.2926, 1.941742
584.7747, 1.895721
585.2568, 1.970886
585.7390, 1.868744
586.2211, 1.649048
586.7032, 1.697784
587.1853, 2.437897
587.6674, 3.554535
588.1495, 4.155579
588.6317, 4.171143
589.1138, 3.912476
589.5959, 3.337982
590.0780, 2.723206
590.5601, 2.484314
591.0422, 2.624329
591.5244, 2.493225
592.0065, 1.149658
592.4886, 8.3309999E-03
592.9707, 0.7452700
593.4528, 2.882385
593.9349, 4.545502
594.4171, 4.923248
594.8992, 4.326599
595.3813, 3.170105
595.8634, 0.9080510
596.3455, 0.2407230
596.8276, 0.7595830
597.3098, 1.597900
597.7919, 0.9126590
598.2740, 0.4820560
598.7561, 1.031921
599.2382, 8.6304002E-02
599.7203, 1.242950
600.2025, 1.428314
600.6846, 0.5556950
601.1667, 3.3050999E-02
601.6488, 0.1144100
602.1309, 0.1050420
602.6130, 0.5794370
603.0952, 1.141357
603.5773, 0.7920230
604.0594, 1.367065
604.5415, 3.034119
605.0236, 2.693268
605.5057, 1.238129
605.9879, 0.2117310
606.4700, 1.381653
606.9521, 1.908081
607.4342, 1.378876
607.9163, 2.6703000E-02
608.3984, 0.9430850
608.8806, 1.210449
609.3627, 1.131195
609.8448, 0.4490970
610.3269, 0.3388060
610.8090, 1.076599
611.2911, 1.602173
611.7733, 1.450531
612.2554, 0.1118160
612.7375, 2.204803
613.2196, 2.528534
613.7017, 0.8901370
614.1838, 0.3835140
614.6660, 0.5890810
615.1481, 0.1268620
615.6302, 0.9148560
616.1123, 2.457031
616.5944, 3.032959
617.0765, 1.502197
617.5587, 0.2750850
618.0408, 1.161194
618.5229, 1.317352
619.0050, 1.185822
619.4871, 0.9159850
619.9692, 0.3963010
620.4514, 0.6339110
620.9335, 2.367859
621.4156, 3.323853
621.8977, 2.496735
622.3798, 1.975098
622.8619, 2.611664
623.3441, 3.694824
623.8262, 4.352722
624.3083, 4.391724
624.7904, 4.384918
625.2725, 5.007324
625.7546, 5.904480
626.2367, 5.934509
626.7188, 4.949127
627.2009, 4.122162
627.6830, 4.101410
628.1652, 4.614044
628.6473, 5.041656
629.1294, 5.296478
629.6115, 5.736542
630.0936, 6.715546
630.5757, 7.645691
631.0579, 8.149078
631.5400, 8.234467
632.0221, 7.846649
632.5042, 6.927917
632.9863, 6.139069
633.4684, 7.022583
633.9506, 10.15982
634.4327, 12.05334
634.9148, 11.58124
635.3969, 11.01578
635.8790, 11.63080
636.3611, 12.87634
636.8433, 13.74008
637.3254, 13.81332
637.8075, 13.98492
638.2896, 15.28809
638.7717, 17.01514
639.2538, 17.57764
639.7360, 16.79956
640.2181, 16.15421
640.7002, 16.74652
641.1823, 18.22626
641.6644, 19.17761
642.1465, 19.38303
642.6287, 19.32098
643.1108, 18.64401
643.5929, 18.00790
644.0750, 17.67789
644.5571, 17.77789
645.0392, 18.58246
645.5214, 20.38779
646.0035, 22.46552
646.4856, 23.59082
646.9677, 23.76547
647.4498, 23.59268
647.9319, 23.13321
648.4141, 22.41031
648.8962, 20.95499
649.3783, 19.19199
649.8604, 18.82535
650.3425, 21.33572
650.8246, 23.43942
651.3068, 23.16879
651.7889, 22.12589
652.2710, 22.52225
652.7531, 24.45059
653.2352, 26.31314
653.7173, 26.89566
654.1995, 26.33423
654.6816, 25.00299
655.1637, 22.05850
655.6458, 20.34091
656.1279, 21.95798
656.6100, 23.51559
657.0922, 22.51251
657.5743, 19.71899
658.0564, 18.13092
658.5385, 19.74066
659.0206, 21.79974
659.5027, 21.45398
659.9849, 19.45844
660.4670, 17.78476
660.9491, 16.86902
661.4312, 16.81000
661.9133, 17.94095
662.3954, 20.07767
662.8776, 20.91730
663.3597, 19.79599
663.8418, 18.18607
664.3239, 15.02930
664.8060, 12.29959
665.2881, 12.17215
665.7703, 14.21515
666.2524, 15.97629
666.7345, 15.94632
667.2166, 14.72345
667.6987, 13.14435
668.1808, 11.22260
668.6630, 9.738190
669.1451, 8.940521
669.6272, 8.535980
670.1093, 8.464417
670.5914, 8.618103
671.0735, 8.211914
671.5557, 6.856262
672.0378, 5.407898
672.5199, 3.781708
673.0020, 2.449646
673.4841, 2.035278
673.9662, 2.515106
674.4484, 3.280945
674.9305, 3.863007
675.4126, 4.372314
675.8947, 5.309601
676.3768, 6.928802
676.8589, 8.101044
677.3411, 8.462646
677.8232, 8.358521
678.3053, 7.555725
678.7874, 6.430237
679.2695, 6.459351
679.7516, 8.675964
680.2338, 11.31238
680.7159, 13.56409
681.1980, 15.47751
681.6801, 17.06769
682.1622, 18.34378
682.6443, 19.34976
683.1265, 20.02557
683.6086, 20.53006
684.0907, 21.76608
684.5728, 24.23849
685.0549, 26.36417
685.5370, 27.39886
686.0192, 28.51999
686.5013, 30.51221
686.9834, 33.09531
687.4655, 35.44583
687.9476, 37.26627
688.4297, 38.75793
688.9119, 39.77179
689.3940, 40.62061
689.8761, 42.26053
690.3582, 44.84317
690.8403, 47.25433
691.3224, 48.63123
691.8046, 49.10587
692.2867, 49.35919
692.7688, 49.01630
693.2509, 49.18521
693.7330, 50.23328
694.2151, 51.52460
694.6973, 52.63712
695.1794, 53.71393
695.6615, 55.28101
696.1436, 57.75998
696.6257, 60.09613
697.1078, 60.83362
697.5900, 60.44443
698.0721, 60.58405
698.5542, 61.48608
699.0363, 62.84836
699.5184, 64.71194
700.0005, 66.70514
700.4827, 67.45688
700.9648, 65.43854
701.4469, 64.67142
701.9290, 66.21350
702.4111, 68.06897
702.8932, 69.17029
703.3754, 69.63571
703.8575, 69.93948
704.3396, 70.26819
704.8217, 70.51788
705.3038, 70.50391
705.7859, 70.28159
706.2681, 70.22412
706.7502, 70.43723
707.2323, 70.21817
707.7144, 68.99442
708.1965, 67.24084
708.6786, 66.06613
709.1607, 65.66534
709.6428, 65.23032
710.1249, 64.76059
710.6071, 64.18979
711.0892, 63.28741
711.5713, 62.31793
712.0534, 61.93967
712.5355, 62.31961
713.0176, 62.41162
713.4998, 60.60266
713.9819, 57.37701
714.4640, 55.55313
714.9461, 55.43246
715.4282, 54.94113
715.9103, 52.87579
716.3925, 50.36844
716.8746, 49.43784
717.3567, 50.36682
717.8388, 50.22339
718.3209, 47.61041
718.8030, 45.13409
719.2852, 44.48163
719.7673, 44.50565
720.2494, 43.33261
720.7315, 40.69711
721.2136, 38.20697
721.6957, 37.62955
722.1779, 38.22559
722.6600, 37.11264
723.1421, 34.03613
723.6242, 31.50992
724.1063, 30.56390
724.5884, 29.92188
725.0706, 28.09122
725.5527, 25.17917
726.0348, 22.77664
726.5169, 21.31705
726.9990, 19.94177
727.4811, 18.55493
727.9633, 16.98816
728.4454, 14.89957
728.9275, 12.41064
729.4096, 10.11914
729.8917, 8.436829
730.3738, 7.144165
730.8560, 5.827362
731.3381, 4.508820
731.8202, 3.218750
732.3023, 2.068634
732.7844, 0.6652830
733.2665, 1.503357
733.7487, 4.142090
734.2308, 6.161224
734.7129, 7.437836
735.1950, 8.365997
735.6771, 8.593231
736.1592, 8.886261
736.6414, 9.843262
737.1235, 11.36545
737.6056, 13.15030
738.0877, 15.10693
738.5698, 16.97760
739.0519, 18.49896
739.5341, 19.65216
740.0162, 20.14468
740.4983, 19.86218
740.9804, 19.38440
741.4625, 18.87607
741.9446, 18.44162
742.4268, 18.41415
742.9089, 19.00723
743.3910, 18.94830
743.8731, 17.35562
744.3552, 15.93253
744.8373, 15.68741
745.3195, 16.03824
745.8016, 16.12180
746.2837, 15.74921
746.7658, 15.34341
747.2479, 15.49783
747.7300, 15.79160
748.2122, 14.97507
748.6943, 13.02795
749.1764, 10.82428
749.6585, 8.482849
750.1406, 6.299652
750.6227, 4.625702
751.1049, 3.449921
751.5870, 1.999939
752.0691, 0.5954900
752.5512, 1.478088
753.0333, 4.804688
753.5154, 8.505646
753.9976, 11.51584
754.4797, 14.20050
754.9618, 18.21585
755.4439, 24.86600
755.9260, 31.62372
756.4081, 34.08899
756.8903, 33.64957
757.3724, 36.15115
757.8545, 42.40176
758.3366, 50.14716
758.8187, 58.47440
759.3008, 66.74603
759.7830, 73.26227
760.2651, 76.59122
760.7472, 81.62692
761.2293, 89.39627
761.7114, 97.57434
762.1935, 105.1665
762.6757, 112.6157
763.1578, 120.6805
763.6399, 129.4992
764.1220, 138.5374
764.6041, 147.2445
765.0862, 156.0398
765.5684, 165.6145
766.0505, 175.9257
766.5326, 186.4016
767.0147, 196.9008
767.4968, 207.5232
767.9789, 218.3625
768.4611, 229.4663
768.9432, 239.9178
769.4253, 248.9654
769.9074, 258.7312
770.3895, 270.7012
770.8716, 282.4549
771.3538, 292.0529
771.8359, 299.9495
772.3180, 307.9390
772.8001, 317.0242
773.2822, 325.4194
773.7643, 331.8478
774.2465, 336.8149
774.7286, 341.1308
775.2107, 344.7814
775.6928, 347.1562
776.1749, 347.9109
776.6570, 347.3913
777.1392, 346.1242
777.6213, 344.0107
778.1034, 342.0244
778.5855, 340.8432
779.0676, 338.4792
779.5497, 333.7754
780.0319, 327.5467
780.5140, 320.6227
780.9961, 312.9137
781.4782, 305.6182
781.9603, 299.2775
782.4424, 293.1556
782.9246, 286.7870
783.4067, 280.3470
783.8888, 274.0038
784.3709, 267.8735
784.8530, 262.2563
785.3351, 257.4148
785.8173, 252.9202
786.2994, 249.3152
786.7815, 245.7162
787.2636, 242.7640
787.7457, 240.4442
788.2278, 239.0302
788.7100, 238.6473
789.1921, 239.3507
789.6742, 241.4087
790.1563, 245.1978
790.6384, 249.5871
791.1205, 254.8459
791.6026, 260.2487
792.0847, 264.9315
792.5668, 269.7729
793.0490, 275.9899
793.5311, 283.9846
794.0132, 294.0972
794.4953, 307.0032
794.9774, 321.9469
795.4595, 337.6801
795.9417, 354.2263
796.4238, 370.7419
796.9059, 386.8573
797.3880, 405.6421
797.8701, 430.8301
798.3522, 462.2063
798.8344, 492.7716
799.3165, 520.2175
799.7986, 551.4735
800.2807, 587.8562
800.7628, 628.0849
801.2449, 671.3403
801.7271, 717.8798
802.2092, 767.8634
802.6913, 821.4605
803.1734, 877.6057
803.6555, 934.0352
804.1376, 993.4839
804.6198, 1059.214
805.1019, 1130.350
805.5840, 1205.287
806.0661, 1282.903
806.5482, 1362.981
807.0303, 1443.935
807.5125, 1526.386
807.9946, 1614.619
808.4767, 1709.092
808.9588, 1809.093
809.4409, 1915.194
809.9230, 2024.715
810.4052, 2134.711
810.8873, 2245.163
811.3694, 2357.004
811.8515, 2469.866
812.3336, 2583.957
812.8157, 2699.844
813.2979, 2816.141
813.7800, 2932.972
814.2621, 3048.113
814.7442, 3157.054
815.2263, 3257.757
815.7084, 3351.052
816.1906, 3439.707
816.6727, 3519.594
817.1548, 3582.557
817.6369, 3628.180
818.1190, 3657.908
818.6011, 3672.100
819.0833, 3673.333
819.5654, 3665.385
820.0475, 3648.297
820.5296, 3618.546
821.0117, 3572.939
821.4938, 3520.648
821.9760, 3465.025
822.4581, 3402.567
822.9402, 3330.671
823.4223, 3249.862
823.9044, 3162.765
824.3865, 3065.346
824.8687, 2969.152
825.3508, 2876.430
825.8329, 2788.153
826.3150, 2705.460
826.7971, 2628.400
827.2792, 2556.143
827.7614, 2487.967
828.2435, 2427.214
828.7256, 2379.666
829.2077, 2342.843
829.6898, 2306.532
830.1719, 2270.660
830.6541, 2241.234
831.1362, 2220.806
831.6183, 2207.040
832.1004, 2197.654
832.5825, 2192.638
833.0646, 2188.207
833.5468, 2183.061
834.0289, 2180.668
834.5110, 2184.817
834.9931, 2188.541
835.4752, 2186.982
835.9573, 2181.565
836.4395, 2176.843
836.9216, 2175.168
837.4037, 2170.244
837.8858, 2158.902
838.3679, 2142.560
838.8500, 2124.095
839.3322, 2101.730
839.8143, 2070.087
840.2964, 2027.739
840.7785, 1979.535
841.2606, 1931.724
841.7427, 1877.773
842.2249, 1819.800
842.7070, 1761.070
843.1891, 1694.534
843.6712, 1627.916
844.1533, 1559.638
844.6354, 1487.444
845.1176, 1412.832
845.5997, 1344.063
846.0818, 1284.452
846.5639, 1225.977
847.0460, 1168.283
847.5281, 1112.015
848.0103, 1055.126
848.4924, 1000.529
848.9745, 952.6431
849.4566, 912.3792
849.9387, 875.7882
850.4208, 840.5585
850.9030, 808.0355
851.3851, 779.6155
851.8672, 754.4926
852.3493, 731.3119
852.8314, 709.8541
853.3135, 689.7183
853.7957, 670.6181
854.2778, 653.1025
854.7599, 639.0174
855.2420, 628.3592
855.7241, 619.3774
856.2062, 612.0920
856.6884, 605.3469
857.1705, 598.7281
857.6526, 592.2178
858.1347, 585.6081
858.6168, 578.7161
859.0989, 572.6583
859.5811, 567.2063
860.0632, 562.7265
860.5453, 560.1617
861.0274, 557.8018
861.5095, 553.7034
861.9916, 548.4469
862.4738, 544.8848
862.9559, 545.5516
863.4380, 544.9426
863.9201, 538.3088
864.4022, 529.2501
864.8843, 522.6354
865.3665, 517.7322
865.8486, 510.9504
866.3307, 500.8058
866.8128, 489.1774
867.2949, 478.6403
867.7770, 468.6654
868.2592, 456.6003
868.7413, 442.4465
869.2234, 427.4754
869.7055, 411.8394
870.1876, 396.1180
870.6697, 381.1673
871.1519, 366.6509
871.6340, 350.7448
872.1161, 331.8891
872.5981, 314.6380
873.0803, 300.3164
873.5624, 286.5666
874.0445, 272.7269
874.5266, 258.7801
875.0087, 244.2935
875.4908, 229.2709
875.9730, 214.9411
876.4551, 201.4100
876.9372, 189.2755
877.4193, 179.5527
877.9014, 171.0595
878.3835, 162.0298
878.8657, 152.5025
879.3478, 143.9415
879.8299, 137.3629
880.3120, 131.5730
880.7941, 124.3067
881.2762, 116.4849
881.7584, 111.7321
882.2405, 110.0450
882.7226, 107.6014
883.2047, 102.5902
883.6868, 97.20770
884.1689, 94.74619
884.6511, 95.05820
885.1332, 93.11630
885.6153, 87.96680
886.0974, 83.18851
886.5795, 80.17798
887.0616, 76.81134
887.5438, 70.99808
888.0259, 63.52521
888.5080, 56.72302
888.9901, 50.86926
889.4722, 45.19278
889.9543, 39.20554
890.4365, 33.73160
890.9186, 29.49319
891.4007, 25.89978
891.8828, 22.10388
892.3649, 18.01126
892.8470, 14.39923
893.3292, 12.13638
893.8113, 9.966492
894.2934, 6.348633
894.7755, 2.162506
895.2576, 1.002411
895.7397, 3.047638
896.2219, 4.678162
896.7040, 6.234650
897.1861, 7.822540
897.6682, 9.931366
898.1503, 10.49225
898.6324, 12.96100
899.1146, 11.65466
899.5967, 10.75092
900.0788, 10.94644
900.5609, 11.88528
901.0430, 13.42236
901.5251, 15.35751
902.0073, 16.41452
902.4894, 16.29944
902.9715, 15.92404
903.4536, 14.92886
903.9357, 14.15485
904.4178, 14.15802
904.9000, 14.50235
905.3821, 14.53963
905.8642, 14.19266
906.3463, 14.04166
906.8284, 14.55919
907.3105, 14.89432
907.7927, 14.54903
908.2748, 13.88731
908.7569, 13.16188
909.2390, 12.49216
909.7211, 12.16508
910.2032, 12.41385
910.6854, 12.36365
911.1675, 10.69876
911.6496, 8.504837
912.1317, 7.808701
912.6138, 8.222794
913.0959, 8.024796
913.5781, 6.727554
914.0602, 5.254257
914.5423, 4.446976
915.0244, 4.150879
915.5065, 4.044754
915.9886, 4.134384
916.4708, 3.797546
916.9529, 3.001480
917.4350, 1.411865
917.9171, 1.529160
918.3992, 4.689056
918.8813, 5.951111
919.3635, 4.981812
919.8456, 4.703354
920.3277, 5.431732
920.8098, 6.334961
921.2919, 7.243790
921.7740, 8.272415
922.2562, 9.481369
922.7383, 10.87645
923.2204, 12.49411
923.7025, 14.44353
924.1846, 16.33798
924.6667, 18.09148
925.1489, 19.74843
925.6310, 21.53139
926.1131, 23.12415
926.5952, 24.09184
927.0773, 24.38887
927.5594, 24.27361
928.0416, 23.75748
928.5237, 23.10754
929.0058, 22.40640
929.4879, 21.79703
929.9700, 21.59016
930.4521, 21.69733
930.9343, 21.66844
931.4164, 21.32672
931.8985, 21.13086
932.3806, 21.96423
932.8627, 21.23041
933.3448, 22.69667
933.8270, 20.53902
934.3091, 19.05029
934.7912, 18.73196
935.2733, 19.16928
935.7554, 20.19533
936.2375, 21.47620
936.7197, 22.15059
937.2018, 22.07159
937.6839, 22.21115
938.1660, 22.67923
938.6481, 23.07645
939.1302, 23.10677
939.6124, 23.20796
940.0945, 23.88187
940.5766, 25.06036
941.0587, 26.14691
941.5408, 27.60521
942.0229, 28.27106
942.5051, 26.98717
942.9872, 26.10048
943.4693, 27.44016
943.9514, 29.51799
944.4335, 29.93370
944.9156, 28.49020
945.3978, 27.94051
945.8799, 30.17079
946.3620, 32.36066
946.8441, 32.71344
947.3262, 32.58881
947.8083, 33.59679
948.2905, 35.35339
948.7726, 36.44733
949.2547, 36.35609
949.7368, 35.98293
950.2189, 35.73473
950.7010, 35.89328
951.1832, 37.17273
951.6653, 39.08638
952.1474, 40.60905
952.6295, 41.48904
953.1116, 41.55832
953.5938, 40.60558
954.0759, 39.42125
954.5580, 39.35699
955.0400, 40.23718
955.5222, 41.37149
956.0043, 42.76672
956.4864, 43.19383
956.9685, 42.38116
957.4506, 41.63196
957.9327, 42.30173
958.4149, 43.84660
958.8970, 43.95676
959.3791, 42.24042
959.8612, 41.04158
960.3433, 40.79710
960.8254, 40.55276
961.3076, 39.80246
961.7897, 38.98836
962.2718, 38.78166
962.7539, 39.18457
963.2360, 39.02037
963.7181, 37.61421
964.2003, 36.74756
964.6824, 37.22021
965.1645, 37.53406
965.6466, 36.34006
966.1287, 34.70210
966.6108, 34.74695
967.0930, 36.92055
967.5751, 37.94907
968.0572, 36.30058
968.5393, 34.40298
969.0214, 33.07962
969.5035, 32.22861
969.9857, 31.74771
970.4678, 31.44798
970.9499, 31.22604
971.4320, 31.17828
971.9141, 30.75150
972.3962, 29.04907
972.8784, 27.25235
973.3605, 26.82968
973.8426, 26.81987
974.3247, 25.25401
974.8068, 22.40117
975.2889, 20.75360
975.7711, 21.93376
976.2532, 23.77814
976.7353, 23.59575
977.2174, 22.29256
977.6995, 21.83990
978.1816, 22.04124
978.6638, 21.52594
979.1459, 20.02176
979.6280, 18.90863
980.1101, 19.44475
980.5922, 18.21559
981.0743, 19.95602
981.5565, 17.90848
982.0386, 17.42880
982.5207, 18.67685
983.0028, 19.88449
983.4849, 20.40439
983.9670, 20.23294
984.4492, 19.25648
984.9313, 17.70598
985.4134, 16.64279
985.8955, 16.10451
986.3776, 15.86281
986.8597, 15.95299
987.3419, 16.07109
987.8240, 16.10654
988.3061, 16.06062
988.7882, 15.91269
989.2703, 15.66093
989.7524, 15.44907
990.2346, 15.19206
990.7167, 15.20146
991.1988, 15.86952
991.6809, 16.32918
992.1630, 16.07474
992.6451, 15.38376
993.1273, 14.60980
993.6094, 13.67967
994.0915, 13.30026
994.5736, 14.14490
995.0557, 14.56627
995.5378, 13.94380
996.0200, 13.12567
996.5021, 12.47745
996.9842, 12.09721
997.4663, 12.27693
997.9484, 13.19531
998.4305, 13.69579
998.9127, 13.08662
999.3948, 12.48434
999.8769, 12.67926
1000.359, 12.81056
1000.841, 11.86385
1001.323, 10.24161
1001.805, 9.036255
1002.287, 8.548737
1002.770, 8.414810
1003.252, 8.712509
1003.734, 9.090500
1004.216, 9.340057
1004.698, 9.427429
1005.180, 9.364532
1005.662, 9.146011
1006.144, 8.692627
1006.627, 7.928894
1007.109, 7.137222
1007.591, 6.310135
1008.073, 5.786407
1008.555, 6.395645
1009.037, 7.471634
1009.519, 7.460480
1010.001, 6.361343
1010.483, 5.703094
1010.966, 6.443558
1011.448, 7.348648
1011.930, 6.635834
1012.412, 5.220795
1012.894, 5.025742
1013.376, 5.747620
1013.858, 6.055786
1014.340, 5.714050
1014.823, 5.723541
1015.305, 6.897202
1015.787, 8.178741
1016.269, 7.478180
1016.751, 5.405121
1017.233, 4.233749
1017.715, 3.988556
1018.197, 4.164490
1018.679, 4.604019
1019.162, 5.005707
1019.644, 5.169769
1020.126, 4.963898
1020.608, 3.929214
1021.090, 2.146698
1021.572, 0.4702300
1022.054, 1.088013
1022.536, 1.622116
1023.018, 0.7501220
1023.501, 0.4581450
1023.983, 1.096390
1024.465, 1.233871
1024.947, 0.9836730
1025.429, 0.2888790
1025.911, 0.1982730
1026.393, 0.5596010
1026.875, 4.1182999E-02
1027.358, 2.285492
1027.840, 4.224731
1028.322, 3.762375
1028.804, 1.593842
1029.286, 0.6187440
1029.768, 1.094162
1030.250, 1.764404
1030.732, 2.737625
1031.214, 3.431198
1031.697, 3.725281
1032.179, 3.475693
1032.661, 2.310944
1033.143, 0.5208280
1033.625, 0.4145050
1034.107, 0.1669920
1034.589, 0.1175080
1035.071, 0.4829860
1035.553, 0.7674560
1036.036, 0.6479190
1036.518, 0.7541200
1037.000, 2.115067
1037.482, 4.329178
1037.964, 5.015198
1038.446, 3.116043
1038.928, 1.757111
1039.410, 1.218109
1039.893, 0.8555450
1040.375, 0.2295680
1040.857, 0.1330870
1041.339, 0.4843290
1041.821, 1.854691
1042.303, 2.831787
1042.785, 3.665253
1043.267, 3.600052
1043.750, 1.324036
1044.232, 0.2258150
1044.714, 0.5687710
1045.196, 2.040161
1045.678, 2.670807
1046.160, 2.521133
1046.642, 2.142090
1047.124, 1.317307
1047.606, 0.8915250
1048.089, 1.033890
1048.571, 1.455429
1049.053, 2.625031
1049.535, 3.658829
1050.017, 3.388046
1050.499, 2.123383
1050.981, 1.315781
1051.463, 1.373795
1051.945, 1.688095
1052.428, 2.302521
1052.910, 2.936401
1053.392, 3.658325
1053.874, 4.184509
1054.356, 4.177567
1054.838, 3.738174
1055.320, 3.148438
1055.802, 2.223511
1056.285, 2.003601
1056.767, 3.840881
1057.249, 5.231445
1057.731, 4.175400
1058.213, 2.603149
1058.695, 2.514572
1059.177, 3.698120
1059.659, 4.817856
1060.141, 5.697739
1060.624, 6.077835
1061.106, 5.195847
1061.588, 4.512527
1062.070, 4.710587
1062.552, 5.487717
1063.034, 7.018784
1063.516, 8.763275
1063.998, 9.355392
1064.480, 8.314301
1064.963, 7.375381
1065.445, 7.094376
1065.927, 7.252533
1066.409, 8.203232
1066.891, 9.157562
1067.373, 9.211304
1067.855, 8.658234
1068.337, 8.433624
1068.820, 8.809067
1069.302, 8.782440
1069.784, 7.187454
1070.266, 5.983917
1070.748, 6.761002
1071.230, 7.915070
1071.712, 8.055298
1072.194, 7.334976
1072.677, 6.220490
1073.159, 4.844498
1073.641, 3.824509
1074.123, 3.442368
1074.605, 3.439224
1075.087, 3.960724
1075.569, 4.571243
1076.051, 5.110565
1076.533, 5.393753
1077.016, 4.940033
1077.498, 3.774292
1077.980, 2.724686
1078.462, 2.031296
1078.944, 1.662933
1079.426, 1.829788
1079.908, 2.081375
1080.390, 2.021561
1080.872, 1.914383
1081.354, 2.312958
1081.837, 3.148438
1082.319, 3.424652
1082.801, 2.472504
1083.283, 1.456345
1083.765, 0.3491520
1084.247, 2.4429001E-02
1084.729, 1.937546
1085.211, 4.423416
1085.694, 4.806396
1086.176, 3.137985
1086.658, 1.398224
1087.140, 2.2476001E-02
1087.622, 0.6994320
1088.104, 0.1025390
1088.586, 1.072388
1089.068, 1.507996
1089.551, 1.546844
1090.033, 1.210480
1090.515, 0.6743620
1090.997, 0.3958740
1091.479, 0.4909210
1091.961, 0.8465880
1092.443, 1.906723
1092.925, 2.627960
1093.407, 2.171906
1093.890, 1.357620
1094.372, 0.9459080
1094.854, 0.8779140
1095.336, 0.8336330
1095.818, 0.7523190
1096.300, 0.5545200
1096.782, 0.1034550
1097.264, 0.3209080
1097.746, 0.7819670
1098.229, 1.017563
1098.711, 0.7786100
1099.193, 0.1816560
1099.675, 0.7745360
1100.157, 2.079330
1100.639, 2.508545
1101.121, 0.6391750
1101.603, 0.5597530
1102.086, 0.2697750
1102.568, 1.412781
1103.050, 2.123383
1103.532, 2.312271
1104.014, 1.682236
1104.496, 0.3472600
1104.978, 0.4586030
1105.460, 8.5449003E-02
1105.943, 0.1397400
1106.425, 1.100937
1106.907, 2.255997
1107.389, 3.263153
1107.871, 3.471924
1108.353, 1.554550
1108.835, 1.852341
1109.317, 3.732819
1109.799, 3.146637
1110.281, 2.823151
1110.764, 3.470642
1111.246, 3.714386
1111.728, 2.638977
1112.210, 1.490372
1112.692, 1.566833
1113.174, 2.261337
1113.656, 1.881683
1114.138, 5.0949000E-02
1114.621, 1.155563
1115.103, 1.949005
1115.585, 1.720474
1116.067, 0.8860170
1116.549, 2.830658
1117.031, 1.665756
1117.513, 0.6940770
1117.995, 1.043991
1118.478, 0.6450350
1118.960, 1.726608
1119.442, 2.096832
1119.924, 2.046707
1120.406, 1.269135
1120.888, 0.7890930
1121.370, 1.232178
1121.852, 1.868408
1122.334, 1.842896
1122.817, 1.286057
1123.299, 0.8748780
1123.781, 0.5505520
1124.263, 0.7185520
1124.745, 1.671585
1125.227, 1.991440
1125.709, 1.025131
1126.191, 2.3117000E-02
1126.673, 6.1935000E-02
1127.156, 0.7226560
1127.638, 0.9556880
1128.120, 0.7349550
1128.602, 0.9568790
1129.084, 1.704224
1129.566, 1.953506
1130.048, 1.446671
1130.530, 0.9151610
1131.013, 0.7511140
1131.495, 0.9617000
1131.977, 1.751114
1132.459, 2.809631
1132.941, 2.230881
1133.423, 0.2007140
1133.905, 0.4385990
1134.387, 0.5562590
1134.870, 1.219315
1135.352, 0.7754520
1135.834, 0.3691710
1136.316, 1.207947
1136.798, 0.7817080
1137.280, 2.326752
1137.762, 1.201401
1138.244, 1.200333
1138.726, 2.116425
1139.208, 2.302811
1139.691, 1.480759
1140.173, 0.9889070
1140.655, 1.721024
1141.137, 2.603012
1141.619, 1.924118
1142.101, 2.541489
1142.583, 1.107468
1143.065, 2.318909
1143.548, 2.489166
1144.030, 1.697418
1144.512, 1.364868
1144.994, 2.016403
1145.476, 2.667435
1145.958, 2.516922
1146.440, 2.121170
1146.922, 2.040131
1147.405, 2.011261
1147.887, 1.508698
1148.369, 0.9307100
1148.851, 1.347443
1149.333, 2.721893
1149.815, 3.474472
1150.297, 2.620300
1150.779, 1.680618
1151.261, 1.489822
1151.744, 1.598770
1152.226, 1.764664
1152.708, 1.987381
1153.190, 2.474808
1153.672, 2.288925
1154.154, 2.943954
1154.636, 1.971893
1155.118, 1.279831
1155.600, 0.9259950
1156.083, 1.294846
1156.565, 3.492264
1157.047, 5.509949
1157.529, 5.983002
1158.011, 5.310059
1158.493, 3.808502
1158.975, 1.535767
1159.457, 0.4679720
1159.940, 1.767273
1160.422, 2.661667
1160.904, 2.650070
1161.386, 2.847794
1161.868, 4.103363
1162.350, 5.123535
1162.832, 4.433075
1163.314, 4.780594
1163.796, 4.371658
1164.279, 3.353027
1164.761, 3.280823
1165.243, 1.375488
1165.725, 1.030807
1166.207, 3.638779
1166.689, 5.756302
1167.171, 5.161133
1167.653, 3.518753
1168.135, 3.191162
1168.618, 3.992813
1169.100, 4.952179
1169.582, 6.004837
1170.064, 5.319260
1170.546, 2.801544
1171.028, 1.354187
1171.510, 1.938156
1171.992, 3.055557
1172.474, 3.530762
1172.957, 3.467117
1173.439, 2.885574
1173.921, 2.110504
1174.403, 1.763336
1174.885, 1.773895
1175.367, 1.838364
1175.849, 1.961258
1176.331, 2.560272
1176.814, 3.697281
1177.296, 4.295654
1177.778, 2.876221
1178.260, 1.138199
1178.742, 1.060120
1179.224, 1.886307
1179.706, 2.931137
1180.188, 3.903259
1180.671, 4.499939
1181.153, 4.633423
1181.635, 4.183487
1182.117, 2.885468
1182.599, 1.778809
1183.081, 1.497726
1183.563, 1.487045
1184.045, 1.429382
1184.527, 1.443573
1185.010, 1.776047
1185.492, 2.251328
1185.974, 2.504501
1186.456, 2.490067
1186.938, 2.228226
1187.420, 1.168228
1187.902, 0.6887050
1188.384, 1.603271
1188.866, 2.408676
1189.349, 2.331268
1189.831, 1.965790
1190.313, 1.774399
1190.795, 1.801346
1191.277, 2.402359
1191.759, 3.902435
1192.241, 4.478790
1192.723, 3.898163
1193.206, 2.923538
1193.688, 1.480804
1194.170, 0.6353760
1194.652, 1.077194
1195.134, 2.151810
1195.616, 3.035690
1196.098, 3.624130
1196.580, 3.132767
1197.063, 3.628174
1197.545, 1.696243
1198.027, 2.913330
1198.509, 2.906021
1198.991, 1.102463
1199.473, 0.1124110
1199.955, 0.9931640
1200.437, 2.804871
1200.919, 3.315506
1201.401, 3.073730
1201.884, 3.075928
1202.366, 3.052795
1202.848, 2.235535
1203.330, 0.8879550
1203.812, 0.1288600
1204.294, 0.5174560
1204.776, 0.1896970
1205.258, 1.237778
1205.741, 2.733627
1206.223, 4.131058
1206.705, 4.796204
1207.187, 3.271927
1207.669, 1.450226
1208.151, 2.232483
1208.633, 4.744644
1209.115, 5.438568
1209.598, 3.351822
1210.080, 1.666489
1210.562, 0.3797150
1211.044, 0.2380680
1211.526, 2.563599
1212.008, 4.681580
1212.490, 5.143906
1212.972, 4.799942
1213.454, 4.642319
1213.937, 4.642838
1214.419, 4.604385
1214.901, 4.560196
1215.383, 4.159546
1215.865, 3.229889
1216.347, 3.221451
1216.829, 4.628189
1217.311, 5.329010
1217.793, 4.009995
1218.276, 2.197144
1218.758, 1.908798
1219.240, 2.676010
1219.722, 3.336838
1220.204, 3.878754
1220.686, 4.166992
1221.168, 4.296036
1221.650, 4.872131
1222.133, 5.847870
1222.615, 5.915436
1223.097, 4.217789
1223.579, 2.538666
1224.061, 3.022827
1224.543, 3.732468
1225.025, 2.425674
1225.507, 0.5510250
1225.990, 0.4677430
1226.472, 0.5132750
1226.954, 0.7302400
1227.436, 3.022873
1227.918, 4.148712
1228.400, 2.763855
1228.882, 1.569565
1229.364, 1.192276
1229.846, 1.103729
1230.328, 1.261993
1230.811, 1.476120
1231.293, 1.656372
1231.775, 1.755783
1232.257, 1.619949
1232.739, 1.256836
1233.221, 1.424484
1233.703, 2.359528
1234.185, 2.721527
1234.668, 2.311630
1235.150, 1.845886
1235.632, 1.527084
1236.114, 1.470886
1236.596, 1.779617
1237.078, 2.319778
1237.560, 3.052963
1238.042, 3.717560
1238.525, 3.100388
1239.007, 3.356827
1239.489, 3.137268
1239.971, 2.413147
1240.453, 2.427521
1240.935, 1.235184
1241.417, 0.4713440
1241.899, 1.252197
1242.381, 2.357666
1242.864, 3.342194
1243.346, 3.795792
1243.828, 2.749100
1244.310, 1.509842
1244.792, 1.879227
1245.274, 3.172867
1245.756, 3.215729
1246.238, 1.670135
1246.720, 0.5127260
1247.203, 6.2119000E-02
1247.685, 1.6372999E-02
1248.167, 0.5155790
1248.649, 1.169815
1249.131, 2.062485
1249.613, 2.673248
1250.095, 2.534180
1250.577, 1.937378
1251.059, 1.321991
1251.542, 0.7696990
1252.024, 1.572800
1252.506, 3.717804
1252.988, 4.738251
1253.470, 4.436386
1253.952, 3.393707
1254.434, 1.890030
1254.916, 1.077179
1255.399, 1.826645
1255.881, 2.857880
1256.363, 2.990723
1256.845, 2.772995
1257.327, 3.471146
1257.809, 2.968445
1258.291, 3.803009
1258.773, 2.503998
1259.255, 1.738678
1259.738, 1.798462
1260.220, 2.366058
1260.702, 3.655258
1261.184, 4.530197
1261.666, 4.678207
1262.148, 4.265427
1262.630, 2.623749
1263.112, 1.211426
1263.594, 1.089783
1264.077, 1.849274
1264.559, 3.047928
1265.041, 4.539993
1265.523, 4.971436
1266.005, 5.380005
1266.487, 5.580841
1266.969, 4.758789
1267.451, 4.846115
1267.934, 3.579529
1268.416, 1.894470
1268.898, 0.3296200
1269.380, 0.7072300
1269.862, 0.6476140
1270.344, 8.7631002E-02
1270.826, 1.103073
1271.308, 2.090454
1271.791, 2.341599
1272.273, 2.191330
1272.755, 2.519119
1273.237, 3.281586
1273.719, 3.746201
1274.201, 3.655075
1274.683, 3.133041
1275.165, 1.587112
1275.647, 0.6077420
1276.130, 1.046707
1276.612, 1.941727
1277.094, 3.249847
1277.576, 3.173553
1278.058, 2.036987
1278.540, 2.957733
1279.022, 2.972992
1279.504, 2.539063
1279.986, 3.087509
1280.469, 1.355103
1280.951, 0.5061490
1281.433, 1.088821
1281.915, 1.430298
1282.397, 0.8629610
1282.879, 0.2390750
1283.361, 0.2918550
1283.843, 0.5410610
1284.326, 0.4490200
1284.808, 0.0000000E+00
##END=



