##NAMES=Rostite
##RRUFFID=R061001
##IDEAL CHEMISTRY=AlSO_4_(OH)&#183;5H_2_O
##LOCALITY=Kladno, Bohmen, Czech Republic
##OWNER=RRUFF
##SOURCE=Michael Scott
##DESCRIPTION=Chalky white nodular aggregates
##STATUS=The identification of this mineral has been confirmed by X-ray diffraction.
##URL=rruff.info/R061001
177.9298, 0.0000000E+00
178.4119, 30.48096
178.8940, 56.73389
179.3761, 50.17529
179.8582, 20.87744
180.3403, 0.7260740
180.8225, 0.5537110
181.3046, 11.67285
181.7867, 18.12842
182.2688, 18.13623
182.7509, 18.01855
183.2330, 24.20605
183.7152, 35.73242
184.1973, 49.64844
184.6794, 72.80957
185.1615, 97.72021
185.6436, 94.79443
186.1257, 57.07178
186.6079, 16.05908
187.0900, 19.81982
187.5721, 64.57471
188.0542, 110.5923
188.5363, 138.0859
189.0184, 149.5278
189.5006, 158.6138
189.9827, 166.3359
190.4648, 171.6929
190.9469, 175.0498
191.4290, 176.4907
191.9111, 169.8696
192.3932, 141.6816
192.8754, 95.19385
193.3575, 72.24121
193.8396, 84.73828
194.3217, 117.9243
194.8038, 131.7764
195.2859, 124.6660
195.7681, 113.8970
196.2502, 112.5981
196.7323, 122.1460
197.2144, 128.0186
197.6965, 126.4663
198.1786, 119.5947
198.6608, 116.2764
199.1429, 117.3452
199.6250, 118.8247
200.1071, 117.3989
200.5892, 114.2417
201.0714, 107.0962
201.5535, 89.68750
202.0356, 65.50391
202.5177, 64.61133
202.9998, 95.23828
203.4819, 130.7095
203.9641, 132.4941
204.4462, 92.26953
204.9283, 59.16162
205.4104, 51.26465
205.8925, 69.97754
206.3746, 82.59717
206.8568, 89.44141
207.3389, 90.16846
207.8210, 82.48096
208.3031, 63.86865
208.7852, 46.35400
209.2673, 34.25439
209.7495, 28.09473
210.2316, 27.17969
210.7137, 35.57275
211.1958, 46.20996
211.6779, 42.27197
212.1600, 16.64990
212.6422, 5.077637
213.1243, 8.359863
213.6064, 14.38867
214.0885, 26.03564
214.5706, 21.49414
215.0527, 6.680176
215.5349, 1.355957
216.0170, 0.8750000
216.4991, 2.214844
216.9812, 5.327148
217.4633, 11.40137
217.9454, 11.95020
218.4276, 7.222656
218.9097, 0.3979490
219.3918, 1.018555
219.8739, 15.75244
220.3560, 30.95020
220.8381, 38.64160
221.3203, 37.66797
221.8024, 31.82275
222.2845, 18.66992
222.7666, 0.1616210
223.2487, 9.637695
223.7308, 9.121094
224.2129, 1.527832
224.6951, 12.82227
225.1772, 42.89062
225.6593, 62.78271
226.1414, 68.63525
226.6235, 59.66064
227.1056, 52.32617
227.5878, 43.81152
228.0699, 40.21777
228.5520, 48.64258
229.0341, 78.43848
229.5162, 101.3838
229.9983, 110.6602
230.4805, 106.2524
230.9626, 98.82178
231.4447, 84.32666
231.9268, 67.16504
232.4089, 54.71191
232.8910, 47.28906
233.3732, 43.44531
233.8553, 46.43555
234.3374, 57.61816
234.8195, 68.33984
235.3016, 84.13574
235.7837, 95.32568
236.2659, 93.32031
236.7480, 70.68408
237.2301, 48.41797
237.7122, 31.37598
238.1943, 19.69824
238.6764, 13.83105
239.1586, 13.60938
239.6407, 18.00098
240.1228, 27.75732
240.6049, 48.43506
241.0870, 65.75635
241.5691, 75.15430
242.0513, 75.03613
242.5334, 71.95117
243.0155, 62.40723
243.4976, 51.49219
243.9797, 49.08936
244.4618, 61.91406
244.9440, 71.69092
245.4261, 70.27002
245.9082, 50.73633
246.3903, 41.19727
246.8724, 46.02734
247.3545, 58.72314
247.8367, 66.66260
248.3188, 69.06787
248.8009, 67.96191
249.2830, 63.78418
249.7651, 55.54199
250.2472, 47.44629
250.7294, 37.93701
251.2115, 29.65137
251.6936, 29.75342
252.1757, 45.95068
252.6578, 58.89893
253.1399, 59.31689
253.6220, 39.06006
254.1042, 28.17529
254.5863, 32.35400
255.0684, 44.06348
255.5505, 41.37598
256.0326, 10.96387
256.5147, 11.96631
256.9969, 8.134766
257.4790, 38.49707
257.9611, 68.25146
258.4432, 76.40576
258.9253, 67.60986
259.4074, 53.77295
259.8896, 28.95508
260.3717, 9.216797
260.8538, 3.745605
261.3359, 18.01025
261.8180, 29.79883
262.3001, 37.50195
262.7823, 42.27490
263.2644, 48.63379
263.7465, 58.03223
264.2286, 65.89600
264.7107, 69.76807
265.1928, 69.94580
265.6750, 65.09570
266.1571, 52.39746
266.6392, 35.84033
267.1213, 27.78760
267.6034, 30.34912
268.0855, 37.04102
268.5677, 46.53955
269.0498, 61.71533
269.5319, 66.79785
270.0140, 58.50537
270.4961, 40.38867
270.9782, 22.62158
271.4604, 4.003906
271.9425, 9.733398
272.4246, 13.35547
272.9067, 4.900879
273.3888, 0.8442380
273.8709, 0.6748050
274.3531, 3.879883
274.8352, 13.39502
275.3173, 58.76953
275.7994, 97.82568
276.2815, 104.3979
276.7636, 74.92920
277.2458, 49.10498
277.7279, 29.84717
278.2100, 17.44238
278.6921, 15.61865
279.1742, 26.67822
279.6563, 36.60645
280.1385, 30.85059
280.6206, 8.660645
281.1027, 5.969727
281.5848, 35.98877
282.0669, 80.20508
282.5490, 86.44336
283.0312, 50.30566
283.5133, 10.15137
283.9954, 8.670898
284.4775, 6.787109
284.9596, 1.737793
285.4417, 6.399902
285.9239, 14.40527
286.4060, 12.00439
286.8881, 1.446289
287.3702, 11.14453
287.8523, 5.173828
288.3344, 14.80811
288.8166, 34.93311
289.2987, 55.10303
289.7808, 71.93994
290.2629, 79.17285
290.7450, 76.70850
291.2271, 66.19336
291.7093, 39.04541
292.1914, 2.121582
292.6735, 12.68018
293.1556, 4.299316
293.6377, 33.50195
294.1198, 45.61963
294.6020, 41.80176
295.0841, 32.05566
295.5662, 15.08643
296.0483, 3.076660
296.5304, 3.422852
297.0125, 20.43555
297.4947, 52.33936
297.9768, 71.15088
298.4589, 78.56787
298.9410, 82.30371
299.4231, 86.79541
299.9052, 90.57227
300.3873, 86.91992
300.8694, 70.22217
301.3516, 60.41162
301.8337, 92.77734
302.3158, 154.6768
302.7979, 200.9678
303.2800, 192.8867
303.7621, 158.5215
304.2443, 135.0566
304.7264, 127.1807
305.2085, 130.8750
305.6906, 146.6260
306.1727, 170.1582
306.6548, 189.5674
307.1370, 198.0981
307.6191, 199.7383
308.1012, 197.3555
308.5833, 190.8271
309.0654, 183.6353
309.5475, 175.9741
310.0297, 169.6421
310.5118, 167.9438
310.9939, 178.8252
311.4760, 191.2476
311.9581, 197.6436
312.4402, 196.8726
312.9224, 188.8394
313.4045, 166.1240
313.8866, 138.0615
314.3687, 117.7578
314.8508, 116.6475
315.3329, 123.1050
315.8151, 134.9727
316.2972, 154.3999
316.7793, 158.6699
317.2614, 119.7925
317.7435, 66.50439
318.2256, 32.82617
318.7078, 43.63232
319.1899, 63.68164
319.6720, 79.90967
320.1541, 91.14648
320.6362, 103.9907
321.1183, 123.6885
321.6005, 144.0859
322.0826, 158.9097
322.5647, 163.7153
323.0468, 165.7075
323.5289, 167.3042
324.0110, 168.7881
324.4932, 165.5444
324.9753, 142.7915
325.4574, 123.1729
325.9395, 124.1123
326.4216, 182.2266
326.9037, 223.8223
327.3859, 233.2031
327.8680, 212.5415
328.3501, 192.5273
328.8322, 169.2251
329.3143, 149.6548
329.7964, 137.5024
330.2786, 133.2642
330.7607, 138.5249
331.2428, 161.1313
331.7249, 195.5469
332.2070, 210.6807
332.6891, 195.4023
333.1713, 174.8657
333.6534, 163.4341
334.1355, 165.8296
334.6176, 167.3887
335.0997, 167.3560
335.5818, 165.8701
336.0640, 163.1689
336.5461, 157.4224
337.0282, 152.5371
337.5103, 154.8608
337.9924, 169.9658
338.4745, 166.4639
338.9567, 135.4648
339.4388, 92.89795
339.9209, 70.87549
340.4030, 71.85400
340.8851, 85.49316
341.3672, 115.3350
341.8494, 160.7974
342.3315, 187.8799
342.8136, 200.8477
343.2957, 198.2539
343.7778, 170.7554
344.2599, 119.3579
344.7421, 71.82715
345.2242, 38.30859
345.7063, 19.06836
346.1884, 17.97852
346.6705, 36.74170
347.1526, 62.24854
347.6348, 78.51660
348.1169, 86.88672
348.5990, 96.57520
349.0811, 118.7471
349.5632, 141.5767
350.0453, 133.0327
350.5275, 91.49023
351.0096, 51.03076
351.4917, 44.37354
351.9738, 60.01807
352.4559, 71.18311
352.9380, 65.11182
353.4202, 53.74561
353.9023, 53.04785
354.3844, 62.25244
354.8665, 69.66992
355.3486, 61.59131
355.8307, 47.74902
356.3129, 41.36816
356.7950, 51.04053
357.2771, 62.48438
357.7592, 64.51904
358.2413, 59.24609
358.7234, 54.37402
359.2056, 50.24414
359.6877, 50.11572
360.1698, 59.54346
360.6519, 90.89551
361.1340, 108.4160
361.6161, 79.83447
362.0982, 26.19336
362.5804, 7.050293
363.0625, 16.95703
363.5446, 48.18799
364.0267, 59.60010
364.5088, 38.39014
364.9909, 26.96533
365.4731, 48.24072
365.9552, 81.28857
366.4373, 96.28564
366.9194, 72.84473
367.4015, 46.34131
367.8836, 24.96045
368.3658, 8.801270
368.8479, 1.020020
369.3300, 5.439941
369.8121, 3.052734
370.2942, 8.392578
370.7763, 44.02783
371.2585, 66.95215
371.7406, 65.57471
372.2227, 40.74512
372.7048, 28.83545
373.1869, 36.77051
373.6690, 48.56201
374.1512, 52.20654
374.6333, 44.79443
375.1154, 36.79932
375.5975, 27.84912
376.0796, 19.48975
376.5617, 20.11377
377.0439, 33.31201
377.5260, 43.91064
378.0081, 39.31885
378.4902, 18.46582
378.9723, 7.075195
379.4544, 9.793457
379.9366, 18.75195
380.4187, 17.00049
380.9008, 4.405273
381.3829, 3.696777
381.8650, 8.265137
382.3471, 33.13818
382.8293, 34.53613
383.3114, 7.062012
383.7935, 23.12158
384.2756, 21.32910
384.7577, 5.528320
385.2398, 29.69238
385.7220, 37.23682
386.2041, 36.11328
386.6862, 37.96631
387.1683, 42.65283
387.6504, 48.63770
388.1325, 55.74072
388.6147, 63.10205
389.0968, 69.53760
389.5789, 80.43359
390.0610, 84.60596
390.5431, 66.15820
391.0252, 30.44336
391.5074, 2.428223
391.9895, 3.569336
392.4716, 13.74316
392.9537, 14.56494
393.4358, 6.916504
393.9179, 20.50635
394.4001, 4.017578
394.8822, 28.98193
395.3643, 47.80664
395.8464, 24.54639
396.3285, 0.4990230
396.8106, 1.822266
397.2928, 32.43164
397.7749, 48.00977
398.2570, 12.88965
398.7391, 36.96777
399.2212, 53.92432
399.7033, 8.793945
400.1855, 53.38721
400.6676, 53.08838
401.1497, 4.199707
401.6318, 24.72559
402.1139, 26.69775
402.5960, 15.60693
403.0782, 0.6293950
403.5603, 23.61914
404.0424, 36.90723
404.5245, 30.68506
405.0066, 12.01807
405.4887, 14.99902
405.9709, 46.21777
406.4530, 79.53271
406.9351, 100.7778
407.4172, 109.8081
407.8993, 107.3135
408.3814, 90.55811
408.8636, 67.03955
409.3457, 44.28271
409.8278, 22.73975
410.3099, 17.92236
410.7920, 56.79688
411.2741, 119.1826
411.7563, 132.4819
412.2384, 89.66748
412.7205, 41.58154
413.2026, 47.61084
413.6847, 89.45459
414.1668, 119.0317
414.6490, 103.6318
415.1311, 79.13086
415.6132, 92.21582
416.0953, 138.6064
416.5774, 179.2998
417.0595, 186.1401
417.5417, 176.3647
418.0238, 167.9048
418.5059, 164.9287
418.9880, 164.3389
419.4701, 169.4082
419.9522, 176.2217
420.4344, 173.5708
420.9165, 142.1738
421.3986, 115.6797
421.8807, 114.5723
422.3628, 150.6802
422.8449, 180.1255
423.3270, 193.8335
423.8091, 196.7915
424.2913, 195.4790
424.7734, 177.1304
425.2555, 168.8232
425.7376, 179.9961
426.2197, 211.0146
426.7018, 231.2563
427.1840, 236.5586
427.6661, 236.1006
428.1482, 235.1860
428.6303, 229.9990
429.1124, 233.0479
429.5945, 246.7202
430.0767, 268.6528
430.5588, 295.6963
431.0409, 331.2202
431.5230, 358.0801
432.0051, 359.7271
432.4872, 337.0234
432.9694, 337.8721
433.4515, 369.2720
433.9336, 407.3994
434.4157, 417.0742
434.8978, 401.8833
435.3799, 387.6992
435.8621, 386.2456
436.3442, 391.9839
436.8263, 394.7808
437.3084, 394.8281
437.7905, 391.5840
438.2726, 375.2378
438.7548, 356.9595
439.2369, 357.7705
439.7190, 397.6904
440.2011, 435.8853
440.6832, 431.4814
441.1653, 397.8960
441.6475, 369.8882
442.1296, 376.0244
442.6117, 390.1699
443.0938, 390.4106
443.5759, 368.0059
444.0580, 354.4463
444.5402, 372.1445
445.0223, 400.8154
445.5044, 415.4712
445.9865, 402.0317
446.4686, 384.2476
446.9507, 364.9688
447.4329, 344.1943
447.9150, 329.9487
448.3971, 325.4844
448.8792, 324.7061
449.3613, 324.5645
449.8434, 328.9175
450.3256, 325.2241
450.8077, 308.3433
451.2898, 283.9893
451.7719, 267.3066
452.2540, 259.3657
452.7361, 262.9346
453.2183, 288.5605
453.7004, 335.1284
454.1825, 345.7529
454.6646, 314.1792
455.1467, 270.2969
455.6288, 244.4053
456.1110, 235.6743
456.5931, 238.8027
457.0752, 263.0967
457.5573, 297.1816
458.0394, 306.7749
458.5215, 294.1421
459.0037, 275.5156
459.4858, 252.7041
459.9679, 233.6401
460.4500, 230.2002
460.9321, 248.2031
461.4142, 269.6758
461.8964, 289.7285
462.3785, 303.9756
462.8606, 304.4980
463.3427, 265.7969
463.8248, 231.2754
464.3069, 228.5078
464.7891, 260.5449
465.2712, 285.8096
465.7533, 295.3066
466.2354, 292.9990
466.7175, 281.6738
467.1996, 230.9736
467.6818, 208.6963
468.1639, 238.6416
468.6460, 301.5186
469.1281, 331.9893
469.6102, 313.5879
470.0923, 287.1641
470.5745, 266.1562
471.0566, 249.0205
471.5387, 249.4131
472.0208, 276.5850
472.5029, 305.5752
472.9850, 302.5166
473.4672, 265.8301
473.9493, 226.0527
474.4314, 188.8037
474.9135, 156.0713
475.3956, 135.3447
475.8777, 126.6152
476.3599, 121.0752
476.8420, 113.9785
477.3241, 105.7236
477.8062, 95.32422
478.2883, 81.50000
478.7704, 75.11816
479.2526, 95.55469
479.7347, 130.6191
480.2168, 154.4648
480.6989, 141.2842
481.1810, 122.7129
481.6631, 122.9648
482.1453, 142.8027
482.6274, 156.1377
483.1095, 153.2480
483.5916, 138.1494
484.0737, 113.3623
484.5558, 50.55762
485.0379, 13.47461
485.5201, 28.93652
486.0022, 77.00977
486.4843, 103.9189
486.9664, 95.11133
487.4485, 83.30859
487.9306, 78.51465
488.4128, 81.85938
488.8949, 87.73047
489.3770, 100.4678
489.8591, 109.7695
490.3412, 102.4131
490.8233, 76.14551
491.3055, 53.60352
491.7876, 39.12891
492.2697, 30.87793
492.7518, 24.67676
493.2339, 21.40723
493.7160, 21.13672
494.1982, 26.54102
494.6803, 32.67871
495.1624, 29.94531
495.6445, 17.20215
496.1266, 2.854492
496.6087, 11.65625
497.0909, 21.49609
497.5730, 18.24805
498.0551, 18.68359
498.5372, 55.60742
499.0193, 67.42578
499.5014, 57.54297
499.9836, 46.42969
500.4657, 42.76465
500.9478, 41.78125
501.4299, 41.25977
501.9120, 41.96191
502.3941, 41.58984
502.8763, 36.69336
503.3584, 30.20801
503.8405, 27.39746
504.3226, 31.02148
504.8047, 33.23535
505.2868, 29.39258
505.7690, 21.24512
506.2511, 26.91016
506.7332, 52.24414
507.2153, 77.35059
507.6974, 87.12793
508.1795, 81.10645
508.6617, 82.41211
509.1438, 95.45215
509.6259, 108.8848
510.1080, 102.4336
510.5901, 79.64062
511.0722, 60.88574
511.5544, 57.10254
512.0365, 60.69922
512.5186, 62.69531
513.0007, 62.77246
513.4828, 57.59277
513.9650, 36.45996
514.4471, 12.66406
514.9292, 0.6230470
515.4113, 5.421875
515.8934, 15.69434
516.3755, 31.56445
516.8576, 48.15332
517.3397, 58.17090
517.8218, 46.32031
518.3040, 40.96777
518.7861, 58.45020
519.2682, 100.0186
519.7503, 116.2061
520.2324, 86.33496
520.7145, 52.22266
521.1967, 38.11621
521.6788, 49.18262
522.1609, 68.01953
522.6430, 101.7812
523.1251, 134.7773
523.6072, 131.1943
524.0894, 87.07715
524.5715, 55.06738
525.0536, 56.28223
525.5357, 82.33691
526.0178, 115.9893
526.4999, 157.1152
526.9821, 180.3496
527.4642, 148.2588
527.9463, 88.61230
528.4284, 53.40137
528.9105, 55.37891
529.3926, 66.77832
529.8748, 63.43848
530.3569, 54.06641
530.8390, 53.61719
531.3211, 87.66406
531.8032, 113.8125
532.2853, 110.3555
532.7675, 78.64941
533.2496, 44.46484
533.7317, 2.098633
534.2138, 38.05469
534.6959, 49.44336
535.1780, 19.10254
535.6602, 2.429688
536.1423, 15.25879
536.6244, 19.83203
537.1065, 13.88379
537.5886, 8.412109
538.0707, 20.71582
538.5529, 13.96191
539.0350, 7.412109
539.5171, 25.45605
539.9992, 39.99902
540.4813, 51.39160
540.9634, 60.50391
541.4456, 66.52930
541.9277, 64.14355
542.4098, 50.73828
542.8919, 40.34180
543.3740, 51.93262
543.8561, 75.82129
544.3383, 94.93066
544.8204, 106.9893
545.3025, 108.4170
545.7846, 89.98145
546.2667, 56.83984
546.7488, 30.36523
547.2310, 17.40820
547.7131, 13.77246
548.1952, 21.33301
548.6773, 50.39844
549.1594, 59.62695
549.6415, 34.50488
550.1237, 0.9853520
550.6058, 24.93652
551.0879, 38.31738
551.5700, 35.61719
552.0521, 9.846680
552.5342, 28.93262
553.0164, 52.91504
553.4985, 61.79199
553.9806, 58.74219
554.4627, 38.51855
554.9448, 6.421875
555.4269, 18.05566
555.9091, 34.35449
556.3912, 39.79688
556.8733, 23.40332
557.3554, 4.351563
557.8375, 27.53809
558.3196, 46.75977
558.8018, 51.91992
559.2839, 21.51367
559.7660, 27.12109
560.2481, 58.27539
560.7302, 56.79199
561.2123, 37.98145
561.6945, 2.429688
562.1766, 65.90918
562.6587, 104.9736
563.1408, 102.0547
563.6229, 86.92188
564.1050, 74.73438
564.5872, 63.67188
565.0693, 61.59863
565.5514, 73.56055
566.0335, 88.61816
566.5156, 85.06055
566.9977, 61.46484
567.4799, 46.74902
567.9620, 56.08203
568.4441, 76.49023
568.9262, 68.46680
569.4083, 35.30957
569.8904, 12.89355
570.3726, 39.41211
570.8547, 84.87207
571.3368, 110.5098
571.8189, 110.5850
572.3010, 101.9434
572.7831, 87.09570
573.2653, 72.37012
573.7474, 64.49902
574.2295, 70.26367
574.7116, 77.68945
575.1937, 88.06836
575.6758, 98.74316
576.1580, 99.88379
576.6401, 77.64355
577.1222, 64.23633
577.6043, 72.59375
578.0864, 104.4072
578.5685, 128.0400
579.0507, 143.1807
579.5328, 151.6416
580.0149, 155.3896
580.4970, 154.1914
580.9791, 143.1719
581.4612, 118.9414
581.9434, 92.94141
582.4255, 80.19922
582.9076, 78.88379
583.3897, 84.09668
583.8718, 95.32129
584.3539, 110.6240
584.8361, 131.0625
585.3182, 155.1338
585.8003, 176.1416
586.2824, 186.0244
586.7645, 195.2783
587.2466, 212.2109
587.7288, 242.7588
588.2109, 262.9609
588.6930, 262.3018
589.1751, 254.9043
589.6572, 253.4922
590.1393, 265.4902
590.6215, 265.6416
591.1036, 244.8008
591.5857, 215.4033
592.0678, 206.8555
592.5499, 221.5469
593.0320, 248.8438
593.5142, 293.5264
593.9963, 343.5381
594.4784, 356.5342
594.9605, 333.8867
595.4426, 309.7783
595.9247, 310.7803
596.4069, 326.9912
596.8890, 345.0723
597.3711, 362.2021
597.8532, 380.0488
598.3353, 401.3311
598.8174, 423.6045
599.2996, 443.9189
599.7817, 467.6494
600.2638, 481.9980
600.7459, 470.6279
601.2280, 445.3428
601.7101, 452.4268
602.1923, 514.7783
602.6744, 570.6406
603.1565, 590.4014
603.6386, 574.2930
604.1207, 590.2734
604.6028, 645.5654
605.0850, 702.1680
605.5671, 721.8135
606.0492, 712.1191
606.5313, 705.6816
607.0134, 705.8643
607.4955, 713.8857
607.9777, 739.7402
608.4598, 772.4707
608.9419, 793.6846
609.4240, 788.8994
609.9061, 778.9639
610.3882, 772.1416
610.8704, 767.6602
611.3525, 764.2881
611.8346, 758.2354
612.3167, 756.6230
612.7988, 765.2939
613.2809, 786.6709
613.7631, 797.2549
614.2452, 794.3594
614.7273, 787.3896
615.2094, 783.0439
615.6915, 780.8467
616.1736, 776.4854
616.6558, 769.2402
617.1379, 760.5830
617.6200, 747.5205
618.1021, 731.8877
618.5842, 727.3955
619.0663, 744.1543
619.5485, 770.5273
620.0306, 802.2314
620.5127, 832.6152
620.9948, 836.9365
621.4769, 764.3516
621.9590, 691.2178
622.4412, 673.0723
622.9233, 721.8750
623.4054, 751.5469
623.8875, 728.0059
624.3696, 692.0723
624.8517, 671.6572
625.3339, 678.6396
625.8160, 673.4609
626.2981, 648.9277
626.7802, 620.0137
627.2623, 613.2363
627.7444, 630.0850
628.2266, 638.1621
628.7087, 625.4951
629.1908, 602.6748
629.6729, 594.1514
630.1550, 596.4043
630.6371, 591.6768
631.1193, 557.4551
631.6014, 519.4385
632.0835, 503.9775
632.5656, 510.9502
633.0477, 523.5957
633.5298, 547.6982
634.0120, 566.3271
634.4941, 566.0010
634.9762, 531.0215
635.4583, 505.2383
635.9404, 496.2305
636.4225, 492.3301
636.9047, 477.8740
637.3868, 446.9121
637.8689, 427.1367
638.3510, 425.2852
638.8331, 434.9297
639.3152, 444.8779
639.7973, 454.6621
640.2794, 457.7305
640.7615, 448.8633
641.2437, 432.6816
641.7258, 412.8662
642.2079, 389.4746
642.6900, 372.4531
643.1721, 379.2041
643.6542, 388.6631
644.1364, 381.0547
644.6185, 346.8223
645.1006, 321.6426
645.5827, 315.7246
646.0648, 321.4912
646.5469, 333.5576
647.0291, 365.5674
647.5112, 373.8877
647.9933, 346.5576
648.4754, 302.4746
648.9575, 274.5645
649.4396, 262.3672
649.9218, 268.3711
650.4039, 300.9863
650.8860, 345.4658
651.3681, 371.3711
651.8502, 379.5996
652.3323, 376.7529
652.8145, 358.9746
653.2966, 339.6416
653.7787, 328.4209
654.2608, 322.5859
654.7429, 313.5762
655.2250, 296.7354
655.7072, 280.3730
656.1893, 269.2100
656.6714, 264.8408
657.1535, 260.2285
657.6356, 256.8701
658.1177, 252.0693
658.5999, 241.4111
659.0820, 223.1621
659.5641, 209.8799
660.0462, 206.0195
660.5283, 204.4512
661.0104, 190.6631
661.4926, 166.7471
661.9747, 142.5469
662.4568, 116.6748
662.9389, 97.32812
663.4210, 99.43555
663.9031, 119.9531
664.3853, 140.0850
664.8674, 143.0420
665.3495, 144.1826
665.8316, 155.7256
666.3137, 181.8672
666.7958, 196.6963
667.2780, 195.8135
667.7601, 185.5293
668.2422, 165.9316
668.7243, 129.6318
669.2064, 113.9150
669.6885, 124.5078
670.1707, 144.8623
670.6528, 157.7197
671.1349, 164.2314
671.6170, 160.5449
672.0991, 141.7617
672.5812, 119.1494
673.0634, 103.4463
673.5455, 94.99023
674.0276, 89.92969
674.5097, 83.59668
674.9918, 77.16113
675.4739, 67.82520
675.9561, 57.39062
676.4382, 55.19238
676.9203, 72.71484
677.4024, 86.99902
677.8845, 85.73730
678.3666, 66.27344
678.8488, 66.73242
679.3309, 92.04395
679.8130, 121.6494
680.2951, 141.2031
680.7772, 151.1973
681.2593, 156.0752
681.7415, 156.1172
682.2236, 150.4385
682.7057, 130.6035
683.1878, 106.5361
683.6699, 94.21777
684.1520, 104.0645
684.6342, 115.7393
685.1163, 120.2656
685.5984, 120.9053
686.0805, 123.2373
686.5626, 134.1699
687.0447, 140.6025
687.5269, 145.1182
688.0090, 143.5928
688.4911, 112.9365
688.9732, 41.79395
689.4553, 8.436523
689.9374, 1.109375
690.4196, 46.09570
690.9017, 65.00684
691.3838, 57.44629
691.8659, 47.65625
692.3480, 54.80957
692.8301, 67.28906
693.3123, 71.88379
693.7944, 66.62207
694.2765, 63.63965
694.7586, 74.41797
695.2407, 85.79199
695.7228, 92.70312
696.2050, 92.94238
696.6871, 92.60938
697.1692, 97.01758
697.6513, 96.28320
698.1334, 72.36816
698.6155, 20.20605
699.0977, 8.568359
699.5798, 9.7699999E-04
700.0619, 24.11719
700.5440, 23.68359
701.0261, 6.104492
701.5082, 1.208984
701.9904, 25.22949
702.4725, 55.32031
702.9546, 62.18457
703.4367, 51.33887
703.9188, 40.12988
704.4009, 35.32812
704.8831, 30.31348
705.3652, 21.74707
705.8473, 9.676758
706.3294, 0.8808590
706.8115, 10.22949
707.2936, 17.16113
707.7758, 23.92676
708.2579, 30.06348
708.7400, 9.400391
709.2221, 42.19824
709.7042, 80.34473
710.1863, 42.99707
710.6685, 30.55664
711.1506, 64.45898
711.6327, 41.57422
712.1148, 12.34375
712.5969, 12.69922
713.0790, 22.28418
713.5612, 19.62207
714.0433, 16.77637
714.5254, 42.53809
715.0075, 51.00586
715.4896, 49.14941
715.9717, 46.22949
716.4539, 40.70508
716.9360, 40.90625
717.4181, 51.96191
717.9002, 65.69434
718.3823, 62.04395
718.8644, 43.50879
719.3466, 24.27832
719.8287, 13.22461
720.3108, 3.429688
720.7929, 20.75488
721.2750, 52.25391
721.7571, 63.27344
722.2393, 18.85840
722.7214, 28.24121
723.2035, 53.22559
723.6856, 54.09668
724.1677, 50.53320
724.6498, 37.08496
725.1320, 27.80078
725.6141, 33.42188
726.0962, 54.14648
726.5783, 66.39648
727.0604, 70.56445
727.5425, 64.56641
728.0247, 29.96582
728.5068, 11.80078
728.9889, 10.47754
729.4710, 51.27734
729.9531, 98.28809
730.4352, 54.95410
730.9174, 13.76074
731.3995, 41.87012
731.8816, 34.45801
732.3637, 77.98828
732.8458, 64.64746
733.3279, 24.54102
733.8101, 4.660156
734.2922, 23.01758
734.7743, 31.07129
735.2564, 27.39258
735.7385, 16.19141
736.2206, 4.250977
736.7028, 8.654297
737.1849, 23.26172
737.6670, 46.05078
738.1491, 64.97852
738.6312, 64.60059
739.1133, 51.41113
739.5955, 43.10645
740.0776, 50.15723
740.5597, 59.08398
741.0418, 65.42773
741.5239, 69.40918
742.0060, 73.48730
742.4882, 77.43066
742.9703, 80.74414
743.4524, 79.93359
743.9345, 77.02051
744.4166, 92.36426
744.8987, 125.6367
745.3809, 149.7158
745.8630, 132.4121
746.3451, 100.5967
746.8272, 93.28027
747.3093, 113.8428
747.7914, 0.3535160
748.2736, 96.48340
748.7557, 149.3906
749.2378, 161.4150
749.7199, 10.09961
750.2020, 69.66699
750.6841, 44.69336
751.1663, 16.25684
751.6484, 105.4648
752.1305, 22.16602
752.6126, 65.14258
753.0947, 66.63086
753.5768, 107.3789
754.0590, 63.07520
754.5411, 45.02441
755.0232, 112.0420
755.5053, 131.9414
755.9874, 77.80078
756.4695, 73.19238
756.9517, 65.23145
757.4338, 60.53418
757.9159, 61.70996
758.3980, 63.01562
758.8801, 63.52637
759.3622, 64.44727
759.8444, 71.15625
760.3265, 84.48633
760.8086, 89.95801
761.2907, 77.77930
761.7728, 64.54395
762.2549, 89.33887
762.7370, 139.0947
763.2191, 171.3447
763.7012, 146.6221
764.1833, 115.1084
764.6655, 102.7344
765.1476, 107.7324
765.6297, 120.9648
766.1118, 157.3301
766.5939, 183.0732
767.0760, 185.1484
767.5582, 165.9082
768.0403, 151.4434
768.5224, 138.3916
769.0045, 131.4434
769.4866, 140.8545
769.9688, 160.9463
770.4509, 176.3008
770.9330, 186.5283
771.4151, 193.6514
771.8972, 205.9521
772.3793, 211.3799
772.8615, 196.9951
773.3436, 160.0361
773.8257, 135.4072
774.3078, 140.0840
774.7899, 146.0127
775.2720, 136.1445
775.7542, 107.2656
776.2363, 103.1855
776.7184, 127.5938
777.2005, 157.9004
777.6826, 174.1172
778.1647, 181.2715
778.6469, 191.8037
779.1290, 206.8496
779.6111, 220.3779
780.0932, 231.4570
780.5753, 240.8857
781.0574, 248.3770
781.5396, 254.8184
782.0217, 256.0801
782.5038, 245.6738
782.9859, 235.7148
783.4680, 238.7891
783.9501, 257.7695
784.4323, 270.4775
784.9144, 275.4023
785.3965, 273.7305
785.8786, 264.8516
786.3607, 249.3623
786.8428, 230.4043
787.3250, 205.2236
787.8071, 191.3525
788.2892, 204.3320
788.7713, 232.1191
789.2534, 262.5439
789.7355, 316.3359
790.2177, 348.1748
790.6998, 348.1162
791.1819, 330.7793
791.6640, 314.6074
792.1461, 298.9688
792.6282, 289.3086
793.1104, 288.0957
793.5925, 292.1533
794.0746, 299.3672
794.5567, 307.6143
795.0388, 312.4736
795.5209, 312.7227
796.0031, 308.9600
796.4852, 291.6787
796.9673, 272.4541
797.4494, 274.4912
797.9315, 312.0742
798.4136, 353.0381
798.8958, 395.2695
799.3779, 436.1572
799.8600, 474.7227
800.3421, 510.5156
800.8242, 512.7100
801.3063, 454.3965
801.7885, 378.9521
802.2706, 349.9805
802.7527, 353.3701
803.2348, 355.2900
803.7169, 325.7119
804.1990, 307.9170
804.6812, 329.8730
805.1633, 378.9131
805.6454, 409.3574
806.1275, 421.3838
806.6096, 415.3779
807.0917, 381.4346
807.5739, 336.0400
808.0560, 339.3516
808.5381, 385.9639
809.0202, 425.0264
809.5023, 428.0635
809.9844, 412.7588
810.4666, 396.5908
810.9487, 381.1543
811.4308, 377.0322
811.9129, 406.6055
812.3950, 428.0801
812.8771, 421.2373
813.3593, 393.5752
813.8414, 381.0811
814.3235, 387.9473
814.8056, 392.4199
815.2877, 382.3359
815.7698, 366.4072
816.2520, 374.0322
816.7341, 400.7314
817.2162, 421.5488
817.6983, 417.2695
818.1804, 406.0469
818.6625, 398.7764
819.1447, 395.9268
819.6268, 395.8027
820.1089, 399.8037
820.5910, 404.8662
821.0731, 411.5703
821.5552, 418.7881
822.0374, 417.8926
822.5195, 407.5117
823.0016, 403.5654
823.4837, 425.3721
823.9658, 453.9551
824.4479, 447.0605
824.9301, 411.4795
825.4122, 383.0029
825.8943, 379.3320
826.3764, 387.4414
826.8585, 405.6035
827.3406, 432.2549
827.8228, 450.2988
828.3049, 457.8740
828.7870, 459.7891
829.2691, 455.8184
829.7512, 448.0430
830.2333, 447.1738
830.7155, 452.8291
831.1976, 457.0820
831.6797, 456.3926
832.1618, 451.2256
832.6439, 440.2295
833.1260, 424.4170
833.6082, 409.3193
834.0903, 394.8281
834.5724, 383.7930
835.0545, 380.7031
835.5366, 383.4219
836.0187, 369.5605
836.5009, 334.1250
836.9830, 304.8330
837.4651, 295.1182
837.9472, 300.8584
838.4293, 322.7451
838.9114, 355.4678
839.3936, 370.5469
839.8757, 328.6709
840.3578, 284.7529
840.8399, 277.4990
841.3220, 303.1650
841.8041, 313.3350
842.2863, 292.0811
842.7684, 277.9160
843.2505, 290.6445
843.7326, 320.9600
844.2147, 320.3291
844.6968, 290.0811
845.1790, 262.4688
845.6611, 265.8340
846.1432, 273.8545
846.6253, 254.3506
847.1074, 212.5557
847.5895, 170.1094
848.0717, 117.9385
848.5538, 87.02637
849.0359, 100.5146
849.5180, 144.0391
850.0001, 152.5205
850.4822, 118.6895
850.9644, 86.96777
851.4465, 77.45898
851.9286, 79.48340
852.4107, 68.27930
852.8928, 47.64355
853.3749, 32.08398
853.8571, 30.23730
854.3392, 34.57324
854.8213, 43.71680
855.3034, 56.30664
855.7855, 67.07031
856.2676, 74.89160
856.7498, 83.98242
857.2319, 95.20801
857.7140, 103.2637
858.1961, 104.6270
858.6782, 100.9756
859.1603, 93.48926
859.6425, 75.72754
860.1246, 62.44336
860.6067, 79.47168
861.0888, 111.6475
861.5709, 124.8867
862.0530, 92.93262
862.5352, 59.64355
863.0173, 24.66895
863.4994, 1.456055
863.9815, 8.705078
864.4636, 58.13965
864.9457, 96.64746
865.4279, 111.5938
865.9100, 108.2051
866.3921, 86.14160
866.8742, 52.69434
867.3563, 22.49121
867.8384, 1.437500
868.3206, 17.19141
868.8027, 18.30469
869.2848, 12.08594
869.7669, 10.87500
870.2490, 17.45996
870.7311, 21.82031
871.2133, 23.50488
871.6954, 21.04199
872.1775, 7.807617
872.6596, 14.02832
873.1417, 40.37891
873.6238, 76.65430
874.1060, 97.55566
874.5881, 66.76172
875.0702, 17.74316
875.5523, 11.26172
876.0344, 1.657227
876.5165, 12.41113
876.9987, 21.75879
877.4808, 27.89258
877.9629, 25.83008
878.4450, 17.80664
878.9271, 21.18652
879.4092, 38.34473
879.8914, 55.80273
880.3735, 59.60645
880.8556, 59.05273
881.3377, 66.99316
881.8198, 93.12891
882.3019, 98.24902
882.7841, 46.59277
883.2662, 1.469727
883.7483, 1.578125
884.2304, 54.68652
884.7125, 77.07520
885.1946, 61.66797
885.6768, 44.44043
886.1588, 69.11230
886.6409, 105.3408
887.1230, 99.82910
887.6052, 49.20996
888.0873, 21.79395
888.5694, 78.77734
889.0515, 139.6768
889.5336, 158.1006
890.0157, 132.4688
890.4979, 108.7900
890.9800, 86.07422
891.4621, 73.28125
891.9442, 81.58301
892.4263, 101.4170
892.9084, 112.3438
893.3906, 114.5811
893.8727, 111.5352
894.3548, 94.35059
894.8369, 82.18848
895.3190, 88.36035
895.8011, 110.3740
896.2833, 128.0400
896.7654, 141.5586
897.2475, 153.0703
897.7296, 169.8047
898.2117, 179.3516
898.6938, 132.6797
899.1760, 45.98047
899.6581, 13.47559
900.1402, 1.913086
900.6223, 35.41211
901.1044, 60.33594
901.5865, 76.75098
902.0687, 82.30762
902.5508, 69.79590
903.0329, 61.13770
903.5150, 61.41211
903.9971, 63.04883
904.4792, 49.82617
904.9614, 24.90723
905.4435, 5.469727
905.9256, 5.775391
906.4077, 6.294922
906.8898, 17.89355
907.3719, 48.84375
907.8541, 64.99512
908.3362, 56.83691
908.8183, 40.90039
909.3004, 10.99512
909.7825, 16.86719
910.2646, 26.87012
910.7468, 20.01660
911.2289, 4.793945
911.7110, 18.95410
912.1931, 39.34473
912.6752, 52.06641
913.1573, 52.70801
913.6395, 28.26562
914.1216, 29.52539
914.6037, 57.46191
915.0858, 24.87012
915.5679, 12.14844
916.0500, 24.51562
916.5322, 14.61426
917.0143, 14.22559
917.4964, 23.48730
917.9785, 37.74805
918.4606, 64.44043
918.9427, 87.27441
919.4249, 85.27832
919.9070, 61.79688
920.3891, 38.02832
920.8712, 0.8906250
921.3533, 12.89844
921.8354, 26.30957
922.3176, 95.14941
922.7997, 120.0410
923.2818, 100.5410
923.7639, 78.19238
924.2460, 61.43359
924.7281, 58.57617
925.2103, 94.48730
925.6924, 148.7324
926.1745, 182.9082
926.6566, 188.4033
927.1387, 165.3838
927.6208, 86.89941
928.1030, 4.211914
928.5851, 8.292969
929.0672, 52.72363
929.5493, 111.4648
930.0314, 163.0967
930.5135, 188.0020
930.9957, 138.0381
931.4778, 60.39258
931.9599, 19.01074
932.4420, 33.28418
932.9241, 49.44922
933.4063, 60.79883
933.8884, 64.54980
934.3705, 56.79102
934.8526, 36.85156
935.3347, 14.99316
935.8168, 9.277344
936.2990, 24.96387
936.7811, 26.02930
937.2632, 12.50098
937.7453, 27.83691
938.2274, 89.39453
938.7095, 126.9023
939.1917, 101.4102
939.6738, 77.83691
940.1559, 77.07324
940.6380, 93.21875
941.1201, 108.2246
941.6022, 122.0146
942.0844, 114.9893
942.5665, 66.04395
943.0486, 11.99609
943.5307, 1.101563
944.0128, 12.24414
944.4949, 24.16113
944.9771, 30.78711
945.4592, 28.42188
945.9413, 10.12402
946.4234, 10.39355
946.9055, 14.97168
947.3876, 3.823242
947.8698, 15.55957
948.3519, 44.52148
948.8340, 66.18164
949.3161, 52.53125
949.7982, 27.87305
950.2803, 20.01172
950.7625, 36.29883
951.2446, 55.98242
951.7267, 78.52637
952.2088, 100.2783
952.6909, 124.7705
953.1730, 149.6406
953.6552, 130.2305
954.1373, 69.03906
954.6194, 24.33594
955.1015, 49.11133
955.5836, 96.04492
956.0657, 125.2588
956.5479, 139.8818
957.0300, 164.2334
957.5121, 230.9521
957.9942, 257.5996
958.4763, 208.4961
958.9584, 122.7822
959.4406, 91.19727
959.9227, 107.5400
960.4048, 137.9229
960.8869, 178.2910
961.3690, 214.1504
961.8511, 230.1885
962.3333, 237.9453
962.8154, 252.5811
963.2975, 276.0947
963.7796, 308.9141
964.2617, 358.7100
964.7438, 405.0107
965.2260, 421.7686
965.7081, 416.6650
966.1902, 410.0713
966.6723, 403.8848
967.1544, 417.2979
967.6365, 473.0146
968.1187, 543.4590
968.6008, 603.5723
969.0829, 654.9287
969.5650, 747.9453
970.0471, 904.3613
970.5292, 1029.564
971.0114, 1061.977
971.4935, 1058.355
971.9756, 1162.992
972.4577, 1346.316
972.9398, 1519.988
973.4219, 1629.425
973.9041, 1736.672
974.3862, 1853.467
974.8683, 1990.088
975.3504, 2165.018
975.8325, 2384.760
976.3146, 2605.050
976.7968, 2819.561
977.2789, 3045.962
977.7610, 3323.643
978.2431, 3620.129
978.7252, 3885.823
979.2073, 4108.766
979.6895, 4324.259
980.1716, 4564.820
980.6537, 4772.491
981.1358, 4931.533
981.6179, 5039.401
982.1000, 5017.248
982.5822, 4863.766
983.0643, 4661.367
983.5464, 4420.775
984.0285, 4180.070
984.5106, 3979.616
984.9927, 3817.180
985.4749, 3685.155
985.9570, 3570.345
986.4391, 3505.580
986.9212, 3508.019
987.4033, 3551.160
987.8854, 3595.340
988.3676, 3641.156
988.8497, 3701.994
989.3318, 3787.355
989.8139, 3851.944
990.2960, 3875.938
990.7781, 3844.660
991.2603, 3746.167
991.7424, 3574.772
992.2245, 3352.585
992.7066, 3074.626
993.1887, 2758.333
993.6708, 2376.687
994.1530, 1969.616
994.6351, 1668.221
995.1172, 1459.370
995.5993, 1275.438
996.0814, 1070.201
996.5635, 892.6934
997.0457, 777.8145
997.5278, 706.2930
998.0099, 632.9590
998.4920, 553.5928
998.9741, 495.4971
999.4562, 469.5879
999.9384, 450.7979
1000.420, 397.3154
1000.903, 331.7744
1001.385, 291.2168
1001.867, 292.6621
1002.349, 295.6328
1002.831, 298.8408
1003.313, 291.7266
1003.795, 264.0068
1004.277, 215.4502
1004.760, 172.6113
1005.242, 136.3799
1005.724, 116.8164
1006.206, 137.6230
1006.688, 161.6377
1007.170, 152.7568
1007.652, 120.1172
1008.134, 100.7344
1008.616, 101.1006
1009.099, 104.8271
1009.581, 106.0801
1010.063, 113.4316
1010.545, 162.8213
1011.027, 231.1895
1011.509, 236.1963
1011.991, 141.5410
1012.473, 53.77344
1012.955, 30.04492
1013.438, 39.54395
1013.920, 62.36230
1014.402, 102.9072
1014.884, 103.9131
1015.366, 58.83887
1015.848, 20.37402
1016.330, 38.87695
1016.812, 76.09668
1017.294, 67.24707
1017.777, 25.96484
1018.259, 1.751953
1018.741, 30.59277
1019.223, 53.36035
1019.705, 55.64941
1020.187, 48.17578
1020.669, 50.89062
1021.151, 62.26465
1021.634, 68.24902
1022.116, 65.21387
1022.598, 61.12891
1023.080, 59.56055
1023.562, 61.69141
1024.044, 69.37207
1024.526, 83.90137
1025.008, 98.55078
1025.490, 116.4043
1025.973, 124.9229
1026.455, 115.8975
1026.937, 93.37305
1027.419, 57.81738
1027.901, 15.70020
1028.383, 9.307617
1028.865, 6.075195
1029.347, 24.55664
1029.830, 38.48438
1030.312, 47.44824
1030.794, 51.70703
1031.276, 51.73633
1031.758, 37.25391
1032.240, 4.460938
1032.722, 21.17578
1033.204, 3.446289
1033.687, 25.95703
1034.169, 28.85938
1034.651, 2.769531
1035.133, 8.094727
1035.615, 29.18262
1036.097, 66.27734
1036.579, 88.64551
1037.061, 96.84668
1037.543, 86.44922
1038.026, 62.49902
1038.508, 43.99805
1038.990, 48.35840
1039.472, 45.93652
1039.954, 4.733398
1040.436, 37.24805
1040.918, 30.43555
1041.400, 37.94922
1041.882, 69.88184
1042.365, 58.36523
1042.847, 40.37793
1043.329, 52.55957
1043.811, 73.69238
1044.293, 83.98730
1044.775, 81.75195
1045.257, 62.07617
1045.739, 10.66016
1046.222, 36.40527
1046.704, 75.81445
1047.186, 98.68555
1047.668, 75.41113
1048.150, 17.91895
1048.632, 32.51270
1049.114, 65.17285
1049.596, 85.98145
1050.078, 90.18164
1050.561, 89.54980
1051.043, 96.94922
1051.525, 115.8320
1052.007, 105.7764
1052.489, 62.05469
1052.971, 39.37695
1053.453, 105.4062
1053.935, 190.2783
1054.417, 202.4395
1054.900, 161.6904
1055.382, 134.2422
1055.864, 154.4336
1056.346, 158.7061
1056.828, 133.4268
1057.310, 97.92773
1057.792, 74.22070
1058.274, 64.36328
1058.757, 82.64648
1059.239, 135.1211
1059.721, 171.7471
1060.203, 151.8154
1060.685, 118.5518
1061.167, 96.56738
1061.649, 85.76660
1062.131, 85.35840
1062.614, 96.23828
1063.096, 94.02148
1063.578, 61.53516
1064.060, 21.17871
1064.542, 12.28613
1065.024, 32.99707
1065.506, 30.59473
1065.988, 21.71289
1066.470, 57.69141
1066.953, 75.47070
1067.435, 81.83008
1067.917, 77.64062
1068.399, 67.59277
1068.881, 60.20508
1069.363, 57.34766
1069.845, 70.82129
1070.327, 132.8662
1070.809, 180.9600
1071.292, 183.7969
1071.774, 160.2334
1072.256, 153.2217
1072.738, 162.2314
1073.220, 167.4209
1073.702, 163.9629
1074.184, 158.8125
1074.666, 157.9355
1075.148, 159.0400
1075.631, 158.4141
1076.113, 154.1328
1076.595, 167.5801
1077.077, 209.9629
1077.559, 228.6934
1078.041, 183.2490
1078.523, 111.1465
1079.005, 69.97461
1079.488, 58.73633
1079.970, 74.09961
1080.452, 147.1152
1080.934, 201.3096
1081.416, 221.3555
1081.898, 226.4971
1082.380, 228.6689
1082.862, 230.5049
1083.344, 263.0908
1083.827, 324.9082
1084.309, 370.5479
1084.791, 346.4482
1085.273, 318.7881
1085.755, 338.8926
1086.237, 386.0645
1086.719, 394.3818
1087.201, 357.5488
1087.683, 328.5273
1088.166, 320.3164
1088.648, 321.3574
1089.130, 322.8701
1089.612, 324.1240
1090.094, 323.4805
1090.576, 318.5713
1091.058, 319.2988
1091.540, 329.0879
1092.023, 334.3662
1092.505, 324.8574
1092.987, 308.3936
1093.469, 309.6855
1093.951, 320.4277
1094.433, 319.5615
1094.915, 276.6875
1095.397, 252.9766
1095.880, 275.7070
1096.362, 310.7988
1096.844, 332.6826
1097.326, 340.8291
1097.808, 319.5059
1098.290, 267.3486
1098.772, 228.0967
1099.254, 243.5518
1099.736, 268.0566
1100.219, 279.2168
1100.701, 276.3164
1101.183, 257.9795
1101.665, 219.2139
1102.147, 192.6328
1102.629, 183.0127
1103.111, 191.4756
1103.593, 244.0752
1104.075, 298.4561
1104.558, 301.5137
1105.040, 241.5752
1105.522, 198.7109
1106.004, 183.9404
1106.486, 178.4863
1106.968, 176.8975
1107.450, 176.8506
1107.932, 172.7969
1108.415, 166.6074
1108.897, 162.9316
1109.379, 167.3936
1109.861, 170.9336
1110.343, 163.7666
1110.825, 153.4248
1111.307, 143.9775
1111.789, 136.5908
1112.271, 146.4385
1112.754, 171.8379
1113.236, 197.2910
1113.718, 234.9893
1114.200, 247.9023
1114.682, 188.4297
1115.164, 102.2910
1115.646, 69.09375
1116.128, 95.07031
1116.610, 113.9492
1117.093, 119.3721
1117.575, 120.2666
1118.057, 129.5137
1118.539, 134.7930
1119.021, 115.0664
1119.503, 74.99414
1119.985, 70.60156
1120.467, 120.4619
1120.950, 148.8662
1121.432, 128.8330
1121.914, 101.4326
1122.396, 135.2354
1122.878, 196.7109
1123.360, 233.4346
1123.842, 230.7344
1124.324, 233.6982
1124.807, 250.6641
1125.289, 269.5518
1125.771, 281.0928
1126.253, 292.2461
1126.735, 335.0938
1127.217, 395.8838
1127.699, 431.0879
1128.181, 401.2920
1128.663, 379.6309
1129.146, 398.4102
1129.628, 423.9434
1130.110, 430.9102
1130.592, 420.0186
1131.074, 396.9590
1131.556, 364.3330
1132.038, 347.4697
1132.520, 388.3086
1133.002, 422.0693
1133.485, 403.4023
1133.967, 357.7197
1134.449, 333.4658
1134.931, 334.7822
1135.413, 329.8457
1135.895, 313.1309
1136.377, 301.1768
1136.859, 311.4062
1137.342, 329.2158
1137.824, 344.6758
1138.306, 353.7686
1138.788, 340.3672
1139.270, 295.3408
1139.752, 261.7158
1140.234, 250.4932
1140.716, 253.3740
1141.198, 276.8164
1141.681, 299.4395
1142.163, 288.2354
1142.645, 231.9453
1143.127, 182.7910
1143.609, 142.3799
1144.091, 115.3145
1144.573, 106.0693
1145.055, 109.4854
1145.537, 124.6270
1146.020, 142.8154
1146.502, 140.3877
1146.984, 88.43945
1147.466, 67.76367
1147.948, 104.6387
1148.430, 151.2734
1148.912, 185.2432
1149.394, 200.9160
1149.877, 153.2812
1150.359, 61.93066
1150.841, 3.877930
1151.323, 45.72266
1151.805, 92.84277
1152.287, 116.5547
1152.769, 131.5859
1153.251, 158.4297
1153.734, 194.1045
1154.216, 202.3096
1154.698, 182.7158
1155.180, 156.6133
1155.662, 129.1309
1156.144, 108.0703
1156.626, 94.11914
1157.108, 91.54785
1157.590, 118.2988
1158.073, 174.6689
1158.555, 207.1396
1159.037, 208.2910
1159.519, 181.9014
1160.001, 91.42090
1160.483, 8.194336
1160.965, 1.711914
1161.447, 56.79883
1161.929, 78.88184
1162.412, 64.80469
1162.894, 53.60156
1163.376, 56.29980
1163.858, 64.36914
1164.340, 74.86719
1164.822, 83.01758
1165.304, 87.31641
1165.786, 89.23730
1166.269, 58.26270
1166.751, 17.77734
1167.233, 62.91504
1167.715, 34.67383
1168.197, 23.88965
1168.679, 72.37305
1169.161, 103.9355
1169.643, 104.5469
1170.125, 45.71582
1170.608, 24.86328
1171.090, 51.74023
1171.572, 83.31055
1172.054, 91.53027
1172.536, 85.68262
1173.018, 74.79297
1173.500, 63.82031
1173.982, 64.58496
1174.464, 102.9688
1174.947, 113.2891
1175.429, 76.64941
1175.911, 51.88477
1176.393, 124.6309
1176.875, 233.6729
1177.357, 228.4121
1177.839, 132.2988
1178.321, 63.72168
1178.804, 101.1055
1179.286, 116.6943
1179.768, 83.20020
1180.250, 39.50586
1180.732, 33.17871
1181.214, 53.53320
1181.696, 80.74609
1182.178, 110.9297
1182.661, 124.9453
1183.143, 96.51855
1183.625, 73.91895
1184.107, 70.56445
1184.589, 76.97852
1185.071, 77.94727
1185.553, 74.80957
1186.035, 68.45410
1186.517, 58.35840
1187.000, 60.60352
1187.482, 95.00879
1187.964, 130.0840
1188.446, 160.2002
1188.928, 178.2998
1189.410, 155.7285
1189.892, 103.4463
1190.374, 66.42090
1190.856, 59.47461
1191.339, 46.61035
1191.821, 13.37695
1192.303, 56.82129
1192.785, 42.35254
1193.267, 11.57227
1193.749, 23.07520
1194.231, 0.5332030
1194.713, 25.21094
1195.195, 44.40234
1195.678, 50.94922
1196.160, 33.17285
1196.642, 8.673828
1197.124, 8.187500
1197.606, 19.90527
1198.088, 62.06152
1198.570, 126.2139
1199.052, 156.7441
1199.535, 96.02441
1200.017, 46.66113
1200.499, 79.77539
1200.981, 128.8955
1201.463, 133.2236
1201.945, 93.61719
1202.427, 67.54297
1202.909, 54.43750
1203.391, 50.54492
1203.874, 60.62402
1204.356, 71.31934
1204.838, 73.63965
1205.320, 74.40625
1205.802, 87.55859
1206.284, 112.3105
1206.766, 92.56543
1207.248, 30.79688
1207.730, 4.815430
1208.213, 61.77832
1208.695, 129.8584
1209.177, 133.7627
1209.659, 111.0234
1210.141, 116.5098
1210.623, 148.7451
1211.105, 149.3760
1211.587, 114.0586
1212.070, 85.04980
1212.552, 98.74805
1213.034, 120.1816
1213.516, 136.4619
1213.998, 144.5693
1214.480, 133.2422
1214.962, 104.2012
1215.444, 97.12793
1215.927, 118.0684
1216.409, 128.8057
1216.891, 87.86914
1217.373, 44.17090
1217.855, 20.76953
1218.337, 17.46387
1218.819, 45.81250
1219.301, 101.6484
1219.783, 119.7510
1220.266, 85.01758
1220.748, 57.00000
1221.230, 92.27539
1221.712, 131.4502
1222.194, 139.9014
1222.676, 123.5928
1223.158, 91.52344
1223.640, 47.94824
1224.122, 35.73438
1224.605, 68.59961
1225.087, 104.9668
1225.569, 130.9775
1226.051, 149.7139
1226.533, 167.1201
1227.015, 177.1543
1227.497, 141.0254
1227.979, 68.07715
1228.462, 19.29785
1228.944, 13.13672
1229.426, 30.65332
1229.908, 88.73633
1230.390, 139.3271
1230.872, 148.4961
1231.354, 126.7402
1231.836, 124.9902
1232.318, 139.9414
1232.801, 154.9170
1233.283, 168.1143
1233.765, 170.1396
1234.247, 136.4346
1234.729, 109.8281
1235.211, 121.4092
1235.693, 161.3945
1236.175, 179.2695
1236.657, 178.1582
1237.140, 172.9023
1237.622, 172.0615
1238.104, 161.2334
1238.586, 118.1123
1239.068, 82.82031
1239.550, 86.86328
1240.032, 119.6113
1240.514, 131.1270
1240.997, 125.8721
1241.479, 116.9648
1241.961, 106.0107
1242.443, 99.14258
1242.925, 96.33789
1243.407, 100.8662
1243.889, 115.4404
1244.371, 136.4512
1244.854, 147.8174
1245.336, 152.3477
1245.818, 160.2764
1246.300, 178.5156
1246.782, 186.6709
1247.264, 195.4121
1247.746, 198.3037
1248.228, 201.1533
1248.710, 204.1758
1249.193, 174.0801
1249.675, 121.0859
1250.157, 84.90527
1250.639, 98.06836
1251.121, 101.3965
1251.603, 86.39941
1252.085, 72.73047
1252.567, 83.50684
1253.049, 104.0762
1253.532, 95.31738
1254.014, 71.82715
1254.496, 82.07520
1254.978, 187.5625
1255.460, 237.4736
1255.942, 212.5830
1256.424, 170.3594
1256.906, 164.2393
1257.389, 169.2256
1257.871, 140.4336
1258.353, 92.37109
1258.835, 77.62695
1259.317, 123.9551
1259.799, 137.5674
1260.281, 109.9795
1260.763, 73.25781
1261.245, 50.63867
1261.728, 39.99609
1262.210, 49.28418
1262.692, 68.24121
1263.174, 66.12793
1263.656, 36.83789
1264.138, 12.16992
1264.620, 6.040039
1265.102, 20.28711
1265.584, 43.98438
1266.067, 51.84863
1266.549, 0.4121090
1267.031, 78.95703
1267.513, 98.18066
1267.995, 50.17188
1268.477, 39.77930
1268.959, 75.56348
1269.441, 124.2471
1269.924, 178.9854
1270.406, 219.2559
1270.888, 224.6904
1271.370, 210.7168
1271.852, 200.2207
1272.334, 192.5361
1272.816, 179.7217
1273.298, 161.5049
1273.781, 146.0898
1274.263, 130.9160
1274.745, 132.7061
1275.227, 174.3779
1275.709, 219.5898
1276.191, 203.1191
1276.673, 141.2031
1277.155, 102.1162
1277.637, 90.29102
1278.120, 81.43945
1278.602, 51.18555
1279.084, 44.19727
1279.566, 80.93652
1280.048, 126.4160
1280.530, 124.9170
1281.012, 97.16992
1281.494, 96.24316
1281.976, 122.7500
1282.459, 130.7646
1282.941, 73.65039
1283.423, 36.39062
1283.905, 81.14453
1284.387, 140.9971
1284.869, 154.8301
1285.351, 145.0195
1285.833, 137.0068
1286.316, 132.2695
1286.798, 123.7686
1287.280, 107.0537
1287.762, 101.6807
1288.244, 112.4561
1288.726, 125.0615
1289.208, 130.0576
1289.690, 124.9961
1290.172, 99.68652
1290.655, 65.68359
1291.137, 61.78027
1291.619, 95.91797
1292.101, 94.52930
1292.583, 45.01855
1293.065, 2.098633
1293.547, 22.20410
1294.029, 52.75293
1294.511, 58.61328
1294.994, 45.67773
1295.476, 23.20410
1295.958, 11.54980
1296.440, 45.57227
1296.922, 80.25098
1297.404, 89.83691
1297.886, 38.53027
1298.368, 1.121094
1298.851, 5.345703
1299.333, 32.47461
1299.815, 21.35938
1300.297, 0.0000000E+00
##END=



