##NAMES=Roweite
##RRUFFID=R130073
##IDEAL CHEMISTRY=Ca_2_Mn^2+^_2_B_4_O_7_(OH)_6_
##LOCALITY=Solongo B deposit, Vitim Plateau, Buriatia (Buryatia) Republic, Transbaikalia (Zabaykalye), Eastern-Siberian Region, Russia
##OWNER=RRUFF
##SOURCE=Michael Scott
##DESCRIPTION=Yellow crystals, associated with calcite and colorless frolovite, R070469
##STATUS=The identification of this mineral has been confirmed only by single crystal X-ray diffraction.
##URL=rruff.info/R130073
92.04205, 0.0000000E+00
92.52417, 0.1786800
93.00629, 5.494843
93.48840, 12.93668
93.97052, 17.92938
94.45264, 17.63879
94.93475, 16.48846
95.41687, 16.34100
95.89898, 17.74609
96.38110, 20.02637
96.86321, 22.71652
97.34533, 25.34189
97.82745, 26.97409
98.30956, 28.24368
98.79168, 29.87961
99.27380, 30.79779
99.75591, 30.06772
100.2380, 28.18030
100.7201, 26.58868
101.2023, 26.00595
101.6844, 26.42337
102.1665, 27.31122
102.6486, 28.45547
103.1307, 30.12448
103.6128, 32.60178
104.0950, 35.90652
104.5771, 39.77142
105.0592, 44.09161
105.5413, 48.73471
106.0234, 53.57614
106.5055, 58.61948
106.9877, 63.74594
107.4698, 68.58127
107.9519, 72.42877
108.4340, 76.78964
108.9161, 82.30795
109.3982, 88.78461
109.8804, 95.68085
110.3625, 102.5660
110.8446, 109.4096
111.3267, 116.5215
111.8088, 124.7454
112.2909, 132.5068
112.7731, 139.2870
113.2552, 144.9736
113.7373, 149.5560
114.2194, 152.9660
114.7015, 155.0566
115.1836, 155.8550
115.6658, 155.4771
116.1479, 154.1294
116.6300, 151.6825
117.1121, 148.1929
117.5942, 144.1096
118.0763, 140.2991
118.5584, 136.9474
119.0406, 133.3075
119.5227, 128.8908
120.0048, 123.6650
120.4869, 118.4459
120.9690, 113.4556
121.4511, 108.3745
121.9333, 102.9920
122.4154, 97.62155
122.8975, 92.17769
123.3796, 86.37022
123.8617, 79.93024
124.3438, 73.83902
124.8260, 68.75729
125.3081, 64.29129
125.7902, 60.21017
126.2723, 56.45581
126.7544, 53.00568
127.2365, 49.90952
127.7187, 47.23068
128.2008, 44.78595
128.6829, 42.79674
129.1650, 40.89691
129.6471, 38.54805
130.1292, 35.30243
130.6114, 31.25818
131.0935, 27.91992
131.5756, 26.02145
132.0577, 24.18622
132.5398, 22.11948
133.0219, 19.82494
133.5041, 17.48517
133.9862, 15.19588
134.4683, 12.88875
134.9504, 11.14005
135.4325, 10.15843
135.9146, 9.432205
136.3968, 8.700836
136.8789, 7.933517
137.3610, 7.265045
137.8431, 6.963531
138.3252, 7.175827
138.8073, 6.845688
139.2895, 5.536514
139.7716, 3.803665
140.2537, 2.274414
140.7358, 1.110260
141.2179, 0.1029970
141.7000, 1.063324
142.1821, 2.376953
142.6643, 3.441483
143.1464, 3.997864
143.6285, 4.148743
144.1106, 4.260162
144.5927, 4.339874
145.0748, 4.477264
145.5570, 4.803375
146.0391, 5.291656
146.5212, 5.707764
147.0033, 5.755325
147.4854, 5.374832
147.9675, 5.116013
148.4497, 5.249756
148.9318, 5.429581
149.4139, 5.479797
149.8960, 4.780472
150.3781, 3.945282
150.8602, 3.051941
151.3424, 1.994934
151.8245, 1.168411
152.3066, 0.6821440
152.7887, 0.3530580
153.2708, 0.1127930
153.7529, 7.8293003E-02
154.2351, 0.3147280
154.7172, 0.8433230
155.1993, 2.016266
155.6814, 3.084991
156.1635, 3.934998
156.6456, 4.682526
157.1278, 5.482346
157.6099, 6.416489
158.0920, 7.433548
158.5741, 8.311768
159.0562, 8.742798
159.5383, 9.391632
160.0205, 10.61018
160.5026, 12.18536
160.9847, 13.60364
161.4668, 14.52307
161.9489, 15.08275
162.4310, 15.92812
162.9131, 17.19397
163.3953, 18.57614
163.8774, 19.92818
164.3595, 21.25768
164.8416, 22.57245
165.3237, 23.85605
165.8058, 25.13815
166.2880, 26.47597
166.7701, 27.86307
167.2522, 29.32359
167.7343, 30.90140
168.2164, 32.61401
168.6985, 34.35649
169.1807, 36.16747
169.6628, 37.94444
170.1449, 39.57048
170.6270, 41.07610
171.1091, 42.35472
171.5912, 43.05089
172.0734, 42.71149
172.5555, 42.62927
173.0376, 43.51677
173.5197, 44.89259
174.0018, 46.08493
174.4839, 46.69737
174.9661, 46.80138
175.4482, 46.83212
175.9303, 46.84457
176.4124, 46.70348
176.8945, 46.20117
177.3766, 45.53238
177.8588, 45.07033
178.3409, 45.14029
178.8230, 45.74983
179.3051, 45.87650
179.7872, 45.12320
180.2693, 44.28690
180.7515, 43.52505
181.2336, 42.86845
181.7157, 42.33121
182.1978, 41.93648
182.6799, 41.70592
183.1620, 41.40878
183.6441, 40.96420
184.1263, 40.53677
184.6084, 40.24042
185.0905, 40.05792
185.5726, 39.86646
186.0547, 39.54663
186.5368, 39.07484
187.0190, 38.67915
187.5011, 38.43654
187.9832, 38.20206
188.4653, 37.80942
188.9474, 37.25836
189.4296, 36.79507
189.9117, 36.71985
190.3938, 37.02216
190.8759, 37.19177
191.3580, 37.01791
191.8401, 36.75040
192.3223, 36.68874
192.8044, 36.89243
193.2865, 37.20470
193.7686, 37.54301
194.2507, 37.88281
194.7328, 38.12726
195.2150, 38.30046
195.6971, 38.35616
196.1792, 38.09406
196.6613, 37.25784
197.1434, 36.60655
197.6255, 36.97255
198.1077, 37.97589
198.5898, 38.65005
199.0719, 38.22459
199.5540, 36.96747
200.0361, 36.15999
200.5182, 36.26598
201.0004, 36.29466
201.4825, 35.70160
201.9646, 34.63301
202.4467, 33.45659
202.9288, 32.41574
203.4109, 31.48701
203.8930, 30.46989
204.3752, 29.38948
204.8573, 28.21858
205.3394, 26.84898
205.8215, 25.38475
206.3036, 24.04712
206.7857, 23.06297
207.2679, 22.46004
207.7500, 21.88565
208.2321, 21.31509
208.7142, 20.81268
209.1963, 20.38376
209.6784, 20.03113
210.1606, 19.77884
210.6427, 19.68341
211.1248, 19.77531
211.6069, 19.67046
212.0890, 19.09972
212.5711, 18.61865
213.0533, 18.50256
213.5354, 18.69156
214.0175, 18.96806
214.4996, 19.14093
214.9817, 19.19067
215.4638, 19.26668
215.9460, 19.48662
216.4281, 19.62523
216.9102, 19.51379
217.3923, 19.19049
217.8744, 18.85266
218.3565, 18.68541
218.8387, 18.71809
219.3208, 18.61752
219.8029, 17.97653
220.2850, 17.53883
220.7671, 17.96661
221.2492, 19.18272
221.7314, 20.38005
222.2135, 20.83453
222.6956, 20.48026
223.1777, 20.36703
223.6598, 20.70973
224.1419, 21.13301
224.6240, 21.32643
225.1062, 21.28354
225.5883, 21.25633
226.0704, 21.51846
226.5525, 22.00328
227.0346, 22.21378
227.5167, 21.87755
227.9989, 21.40454
228.4810, 21.14124
228.9631, 21.10451
229.4452, 21.21263
229.9273, 21.43294
230.4094, 21.75926
230.8916, 22.17503
231.3737, 22.73152
231.8558, 23.36716
232.3379, 24.07098
232.8200, 24.86530
233.3021, 25.42265
233.7843, 25.31303
234.2664, 24.88586
234.7485, 24.63336
235.2306, 24.63429
235.7127, 24.84752
236.1948, 25.30980
236.6770, 26.11198
237.1591, 26.87439
237.6412, 27.36533
238.1233, 27.67368
238.6054, 27.92325
239.0875, 28.18025
239.5697, 28.40555
240.0518, 28.49089
240.5339, 28.38426
241.0160, 28.23061
241.4981, 28.27631
241.9802, 28.25253
242.4624, 27.79660
242.9445, 26.69385
243.4266, 25.33452
243.9087, 24.43910
244.3908, 24.24590
244.8729, 23.92162
245.3550, 23.21182
245.8372, 22.26938
246.3193, 21.20851
246.8014, 20.06563
247.2835, 18.85252
247.7656, 17.52966
248.2477, 15.96341
248.7299, 14.62996
249.2120, 13.67314
249.6941, 12.89261
250.1762, 12.16722
250.6583, 11.45421
251.1404, 10.78035
251.6226, 10.19116
252.1047, 9.724350
252.5868, 9.267761
253.0689, 8.854202
253.5510, 8.418900
254.0331, 7.832657
254.5153, 7.092804
254.9974, 6.410004
255.4795, 6.158264
255.9616, 6.667099
256.4437, 6.905823
256.9258, 6.628479
257.4080, 6.282211
257.8901, 6.175690
258.3722, 6.361374
258.8543, 6.670044
259.3364, 6.878983
259.8185, 6.966599
260.3007, 6.988556
260.7828, 6.858017
261.2649, 6.744217
261.7470, 6.729568
262.2291, 6.833603
262.7112, 7.051804
263.1934, 7.398285
263.6755, 7.941589
264.1576, 8.354965
264.6397, 8.635086
265.1218, 8.820068
265.6039, 8.938629
266.0861, 8.984161
266.5682, 8.903946
267.0503, 8.610992
267.5324, 8.027252
268.0145, 7.763733
268.4966, 8.116318
268.9788, 8.454468
269.4609, 8.417145
269.9430, 8.059906
270.4251, 7.679947
270.9072, 7.519531
271.3893, 7.588120
271.8715, 7.663239
272.3536, 8.007477
272.8357, 8.105728
273.3178, 7.493851
273.7999, 6.417526
274.2820, 5.582230
274.7642, 5.519470
275.2463, 6.132950
275.7284, 6.225830
276.2105, 5.336807
276.6926, 4.559326
277.1747, 4.351135
277.6568, 4.529877
278.1389, 4.677734
278.6211, 4.571243
279.1032, 4.269241
279.5853, 3.996216
280.0674, 3.724091
280.5495, 3.504181
281.0316, 3.444977
281.5138, 3.436386
281.9959, 3.244354
282.4780, 2.741669
282.9601, 2.087097
283.4422, 1.709976
283.9243, 1.713806
284.4065, 1.743256
284.8886, 1.708618
285.3707, 1.662354
285.8528, 1.744797
286.3349, 2.029800
286.8170, 2.283264
287.2992, 2.051300
287.7813, 1.188004
288.2634, 0.3935850
288.7455, 0.3731990
289.2276, 0.9523320
289.7097, 1.006317
290.1919, 0.4381710
290.6740, 0.2123110
291.1561, 0.2002260
291.6382, 0.6009830
292.1203, 1.057587
292.6024, 0.7071990
293.0846, 0.1621250
293.5667, 0.1019130
294.0488, 0.6049800
294.5309, 1.111313
295.0130, 1.022720
295.4951, 0.3371430
295.9773, 4.9759001E-02
296.4594, 0.6083070
296.9415, 1.278610
297.4236, 1.436615
297.9057, 1.094147
298.3878, 0.7336880
298.8700, 0.7278900
299.3521, 0.9988250
299.8342, 1.017410
300.3163, 0.4147640
300.7984, 0.1005100
301.2805, 1.2070000E-02
301.7627, 0.6225280
302.2448, 1.118423
302.7269, 1.158356
303.2090, 0.8766480
303.6911, 0.7008060
304.1732, 0.6466670
304.6554, 0.6527100
305.1375, 0.8044430
305.6196, 1.002686
306.1017, 0.9426270
306.5838, 0.4360200
307.0659, 0.2474670
307.5481, 0.5489650
308.0302, 0.3957060
308.5123, 0.2670290
308.9944, 0.2888030
309.4765, 0.4404600
309.9586, 0.6952210
310.4408, 1.048752
310.9229, 1.486084
311.4050, 1.946991
311.8871, 2.408279
312.3692, 3.139557
312.8513, 4.395111
313.3335, 5.854691
313.8156, 7.193802
314.2977, 8.365570
314.7798, 9.349045
315.2619, 10.03159
315.7440, 10.44469
316.2262, 11.06197
316.7083, 12.09029
317.1904, 13.21678
317.6725, 14.12067
318.1546, 14.82024
318.6367, 15.65028
319.1188, 16.87224
319.6010, 18.41534
320.0831, 19.87663
320.5652, 21.33829
321.0473, 22.64983
321.5294, 23.64671
322.0115, 24.40247
322.4937, 25.20020
322.9758, 26.18037
323.4579, 27.26477
323.9400, 28.21544
324.4221, 28.93799
324.9042, 29.75757
325.3864, 30.89203
325.8685, 32.18919
326.3506, 33.41565
326.8327, 34.53065
327.3148, 35.44109
327.7969, 35.94949
328.2791, 36.03154
328.7612, 35.99753
329.2433, 35.76321
329.7254, 35.50562
330.2075, 35.52251
330.6896, 35.86581
331.1718, 36.13182
331.6539, 35.85910
332.1360, 34.99466
332.6181, 34.31976
333.1002, 34.12321
333.5823, 33.92691
334.0645, 33.38483
334.5466, 32.50029
335.0287, 31.43118
335.5108, 30.25990
335.9929, 28.99464
336.4750, 27.75542
336.9572, 26.63257
337.4393, 25.42421
337.9214, 23.79123
338.4035, 21.99272
338.8856, 20.81209
339.3677, 20.75505
339.8499, 21.20096
340.3320, 20.34422
340.8141, 17.24698
341.2962, 14.75235
341.7783, 13.60661
342.2604, 13.28041
342.7426, 13.23438
343.2247, 13.31615
343.7068, 13.35971
344.1889, 13.11108
344.6710, 12.40741
345.1531, 11.87903
345.6353, 11.46123
346.1174, 11.27301
346.5995, 11.44365
347.0816, 11.94942
347.5637, 12.66510
348.0458, 13.51974
348.5280, 14.53775
349.0101, 15.42532
349.4922, 16.00609
349.9743, 16.59932
350.4564, 17.26389
350.9385, 18.07506
351.4207, 19.20110
351.9028, 20.76318
352.3849, 22.61981
352.8670, 24.21442
353.3491, 25.16692
353.8312, 26.32764
354.3134, 27.89565
354.7955, 29.66356
355.2776, 31.54254
355.7597, 33.47946
356.2418, 35.17853
356.7239, 36.11513
357.2061, 35.67618
357.6882, 35.72696
358.1703, 36.64362
358.6524, 37.74625
359.1345, 38.58281
359.6166, 39.09723
360.0987, 39.47708
360.5808, 39.91638
361.0630, 40.43134
361.5451, 40.95798
362.0272, 41.47133
362.5093, 42.00897
362.9914, 42.58296
363.4735, 43.18631
363.9557, 43.83539
364.4378, 44.56612
364.9199, 45.31403
365.4020, 45.79695
365.8841, 45.81511
366.3662, 45.82358
366.8484, 45.88745
367.3305, 45.96362
367.8126, 46.04041
368.2947, 46.10548
368.7768, 46.08977
369.2589, 45.90982
369.7411, 45.62444
370.2232, 44.99065
370.7053, 43.79764
371.1874, 42.44858
371.6695, 41.06148
372.1516, 39.69312
372.6338, 38.40602
373.1159, 37.36658
373.5980, 36.55516
374.0801, 35.16579
374.5622, 32.46024
375.0443, 30.07872
375.5265, 28.88472
376.0086, 28.27304
376.4907, 27.28098
376.9728, 25.36884
377.4549, 22.96518
377.9370, 20.98784
378.4192, 19.49298
378.9013, 18.27904
379.3834, 17.59354
379.8655, 16.97945
380.3476, 16.05504
380.8297, 14.74739
381.3119, 13.32391
381.7940, 12.03499
382.2761, 10.87642
382.7582, 9.757813
383.2403, 8.531586
383.7224, 7.530655
384.2046, 7.066803
384.6867, 7.013992
385.1688, 6.899399
385.6509, 6.447327
386.1330, 5.765396
386.6151, 5.036987
387.0973, 4.206192
387.5794, 3.539398
388.0615, 3.302444
388.5436, 3.300797
389.0257, 3.286865
389.5078, 3.264145
389.9900, 3.124283
390.4721, 2.585938
390.9542, 1.735367
391.4363, 1.307968
391.9184, 1.669601
392.4005, 2.414291
392.8827, 3.052994
393.3648, 3.611343
393.8469, 3.897003
394.3290, 3.674927
394.8111, 3.185120
395.2932, 2.770187
395.7754, 2.468216
396.2575, 2.319321
396.7396, 2.429977
397.2217, 2.769516
397.7038, 2.948074
398.1859, 2.761612
398.6681, 2.574982
399.1501, 2.702591
399.6323, 3.053162
400.1144, 3.281769
400.5965, 3.209396
401.0786, 2.914566
401.5607, 2.613556
402.0428, 2.289169
402.5250, 1.986130
403.0071, 1.700348
403.4892, 1.451294
403.9713, 1.312668
404.4534, 1.285828
404.9355, 1.196259
405.4177, 0.8143460
405.8998, 5.1665999E-02
406.3819, 0.4895780
406.8640, 0.6993560
407.3461, 0.8377080
407.8282, 1.014236
408.3104, 1.206253
408.7925, 1.356537
409.2746, 1.452789
409.7567, 1.510712
410.2388, 1.499619
410.7209, 1.289001
411.2031, 1.122620
411.6852, 1.146255
412.1673, 1.145767
412.6494, 0.9058840
413.1315, 0.3863070
413.6136, 0.2715760
414.0958, 0.9259190
414.5779, 1.650131
415.0600, 2.134766
415.5421, 2.012924
416.0242, 1.988327
416.5063, 2.401138
416.9885, 3.140228
417.4706, 3.887375
417.9527, 4.430313
418.4348, 4.846176
418.9169, 5.425934
419.3990, 6.259903
419.8812, 7.052826
420.3633, 7.805511
420.8454, 8.428192
421.3275, 8.757996
421.8096, 8.745987
422.2917, 8.703934
422.7739, 8.980743
423.2560, 9.558609
423.7381, 10.09361
424.2202, 10.57230
424.7023, 10.93582
425.1844, 11.05859
425.6666, 11.01933
426.1487, 11.11092
426.6308, 11.63124
427.1129, 12.27341
427.5950, 12.50961
428.0771, 12.31198
428.5593, 12.19798
429.0414, 12.57130
429.5235, 13.13461
430.0056, 13.23141
430.4877, 12.69115
430.9698, 12.07132
431.4520, 11.57643
431.9341, 11.20979
432.4162, 11.05627
432.8983, 11.17610
433.3804, 11.22922
433.8625, 10.71808
434.3447, 9.525360
434.8268, 8.810867
435.3089, 9.165588
435.7910, 9.537628
436.2731, 9.121994
436.7552, 8.087692
437.2374, 7.131393
437.7195, 6.668320
438.2016, 6.566040
438.6837, 6.333298
439.1658, 5.895157
439.6479, 5.417343
440.1301, 4.850342
440.6122, 4.284744
441.0943, 3.811752
441.5764, 3.450272
442.0585, 3.150696
442.5406, 2.853928
443.0227, 2.545074
443.5049, 2.346802
443.9870, 2.450577
444.4691, 2.468750
444.9512, 2.155655
445.4333, 1.702179
445.9154, 1.430069
446.3976, 1.516632
446.8797, 1.825439
447.3618, 2.047546
447.8439, 2.124207
448.3260, 2.288361
448.8081, 2.660294
449.2903, 3.077408
449.7724, 3.386139
450.2545, 3.604950
450.7366, 3.948990
451.2187, 4.705063
451.7008, 5.746902
452.1830, 6.510788
452.6651, 6.931686
453.1472, 7.203247
453.6293, 7.451691
454.1114, 7.616867
454.5935, 7.580246
455.0757, 7.272629
455.5578, 6.844986
456.0399, 6.411362
456.5220, 5.962418
457.0041, 5.429550
457.4862, 4.759354
457.9684, 4.069855
458.4505, 3.535248
458.9326, 3.154205
459.4147, 2.743744
459.8968, 2.158691
460.3789, 1.616196
460.8611, 1.314148
461.3432, 1.242661
461.8253, 1.316467
462.3074, 1.539795
462.7895, 1.811646
463.2716, 1.695938
463.7538, 0.6290590
464.2359, 0.1083220
464.7180, 5.7204999E-02
465.2001, 0.2424770
465.6822, 0.1690060
466.1643, 0.3650050
466.6465, 0.9199370
467.1286, 0.9846040
467.6107, 0.4851230
468.0928, 0.1889040
468.5749, 0.2247310
469.0570, 0.3103640
469.5392, 0.4799040
470.0213, 0.6366730
470.5034, 0.6686100
470.9855, 0.5209200
471.4676, 0.1366880
471.9497, 0.6788940
472.4319, 2.098831
472.9140, 3.127106
473.3961, 3.287872
473.8782, 3.287872
474.3603, 3.526978
474.8424, 3.970154
475.3246, 4.374893
475.8067, 4.592697
476.2888, 4.676498
476.7709, 4.709961
477.2530, 4.674423
477.7351, 4.710541
478.2173, 4.905350
478.6994, 5.205429
479.1815, 5.588394
479.6636, 6.158630
480.1457, 6.422180
480.6278, 5.908875
481.1100, 4.975372
481.5920, 4.253265
482.0742, 3.854233
482.5563, 3.612595
483.0384, 3.403244
483.5205, 3.226685
484.0026, 3.048920
484.4847, 2.778259
484.9669, 2.603989
485.4490, 2.770325
485.9311, 3.048645
486.4132, 2.944565
486.8953, 2.278702
487.3774, 1.499222
487.8596, 1.393127
488.3417, 2.373444
488.8238, 2.890472
489.3059, 2.624298
489.7880, 2.282135
490.2701, 2.030273
490.7523, 1.987381
491.2344, 2.391327
491.7165, 3.459366
492.1986, 4.855713
492.6807, 5.597061
493.1628, 5.405228
493.6450, 5.325485
494.1271, 5.557571
494.6092, 5.990234
495.0913, 6.646317
495.5734, 7.485916
496.0555, 8.285904
496.5377, 8.763931
497.0198, 9.090851
497.5019, 9.778183
497.9840, 10.90582
498.4661, 12.07278
498.9482, 13.12366
499.4304, 14.05544
499.9125, 14.81953
500.3946, 15.25285
500.8767, 15.91937
501.3588, 17.16542
501.8409, 18.82159
502.3231, 20.58151
502.8052, 22.37836
503.2873, 24.39736
503.7694, 26.80861
504.2515, 29.64511
504.7336, 32.73196
505.2158, 36.12206
505.6979, 39.64400
506.1800, 42.93370
506.6621, 46.39632
507.1442, 50.65993
507.6263, 55.95119
508.1085, 61.94374
508.5906, 68.16293
509.0727, 74.75011
509.5548, 81.00185
510.0369, 86.91839
510.5190, 92.50568
511.0012, 98.38873
511.4833, 103.8643
511.9654, 107.7305
512.4475, 109.4127
512.9296, 109.1280
513.4117, 107.1238
513.8939, 103.2978
514.3760, 98.43388
514.8581, 92.32407
515.3402, 85.49976
515.8223, 78.15343
516.3044, 70.43189
516.7866, 63.23733
517.2687, 57.01855
517.7508, 51.45725
518.2329, 46.10777
518.7150, 40.98178
519.1971, 36.31607
519.6793, 32.18657
520.1614, 28.62504
520.6435, 25.88867
521.1256, 24.11759
521.6077, 22.46805
522.0898, 20.79848
522.5720, 19.22861
523.0541, 17.83714
523.5362, 16.62296
524.0183, 15.55132
524.5004, 14.61986
524.9825, 13.86519
525.4647, 13.33283
525.9468, 12.99323
526.4289, 12.90168
526.9110, 13.39891
527.3931, 13.89068
527.8752, 13.71681
528.3574, 12.93377
528.8395, 12.32860
529.3216, 12.77044
529.8037, 14.01698
530.2858, 14.54704
530.7679, 14.05939
531.2501, 13.54949
531.7322, 13.42426
532.2143, 13.50607
532.6964, 13.63356
533.1785, 13.78358
533.6606, 13.98058
534.1428, 14.18382
534.6249, 14.45611
535.1070, 14.97895
535.5891, 15.79092
536.0712, 16.64494
536.5533, 17.34167
537.0355, 17.91901
537.5176, 18.60246
537.9997, 19.17030
538.4818, 20.10273
538.9639, 21.70140
539.4460, 23.66731
539.9282, 25.69810
540.4103, 27.69870
540.8924, 29.63681
541.3745, 31.45499
541.8566, 33.14780
542.3387, 34.89912
542.8209, 36.63887
543.3029, 38.51958
543.7850, 40.77074
544.2672, 43.07758
544.7493, 45.25827
545.2314, 47.22700
545.7135, 48.54046
546.1956, 48.55855
546.6777, 47.36274
547.1599, 45.92017
547.6420, 44.31914
548.1241, 42.40311
548.6062, 40.05422
549.0883, 37.32893
549.5704, 34.16815
550.0526, 30.33082
550.5347, 26.57991
551.0168, 23.41682
551.4989, 20.66797
551.9810, 17.90170
552.4631, 15.02127
552.9453, 12.38184
553.4274, 10.33952
553.9095, 8.892593
554.3916, 7.572586
554.8737, 6.533089
555.3558, 5.416893
555.8380, 3.803894
556.3201, 2.196808
556.8022, 1.337425
557.2843, 1.355637
557.7664, 1.651550
558.2485, 1.525063
558.7307, 0.9589690
559.2128, 0.5145570
559.6949, 0.3037190
560.1770, 6.1928000E-02
560.6591, 0.3703310
561.1412, 0.8482740
561.6234, 1.207726
562.1055, 1.405502
562.5876, 1.487816
563.0697, 1.493019
563.5518, 1.414818
564.0339, 1.184181
564.5161, 0.7497630
564.9982, 0.3890760
565.4803, 0.3627170
565.9624, 0.5759890
566.4445, 0.5880660
566.9266, 0.2231060
567.4088, 9.1095001E-02
567.8909, 9.8816000E-02
568.3730, 2.7649000E-02
568.8551, 0.2056660
569.3372, 0.6653210
569.8193, 1.138817
570.3015, 1.338570
570.7836, 1.296577
571.2657, 1.637253
571.7478, 2.865211
572.2299, 3.799934
572.7120, 3.864723
573.1942, 3.816879
573.6763, 4.471718
574.1584, 5.895424
574.6405, 7.364998
575.1226, 8.216141
575.6047, 8.586067
576.0869, 8.959572
576.5690, 9.247406
577.0511, 9.927872
577.5332, 11.44654
578.0153, 13.37339
578.4974, 14.88772
578.9796, 15.78333
579.4617, 17.14489
579.9438, 19.74368
580.4259, 22.80608
580.9080, 25.39696
581.3901, 27.51434
581.8723, 29.73888
582.3544, 32.40073
582.8365, 35.55498
583.3186, 39.33456
583.8007, 44.37056
584.2828, 49.07884
584.7650, 53.21245
585.2471, 57.30505
585.7292, 61.47641
586.2113, 65.87171
586.6934, 70.76237
587.1755, 76.29299
587.6577, 82.42743
588.1398, 88.92646
588.6219, 95.71887
589.1040, 103.4883
589.5861, 112.4582
590.0682, 122.5023
590.5504, 133.1623
591.0325, 144.5174
591.5146, 157.1499
591.9967, 171.0380
592.4788, 186.4113
592.9609, 203.5964
593.4431, 222.3088
593.9252, 242.1129
594.4073, 262.8643
594.8894, 283.8686
595.3715, 304.4189
595.8536, 324.8977
596.3358, 343.2440
596.8179, 361.0779
597.3000, 375.3500
597.7821, 385.7616
598.2642, 391.7036
598.7463, 392.5889
599.2285, 388.1932
599.7106, 378.5406
600.1927, 362.6211
600.6748, 340.5669
601.1569, 317.4185
601.6390, 292.9715
602.1212, 268.4728
602.6033, 244.0141
603.0854, 220.2075
603.5675, 198.4892
604.0496, 178.8850
604.5317, 161.4999
605.0139, 146.7379
605.4960, 133.9548
605.9781, 122.1987
606.4602, 111.4190
606.9423, 102.2657
607.4244, 95.32810
607.9066, 90.36395
608.3887, 86.22984
608.8708, 83.02304
609.3529, 80.62760
609.8350, 79.09201
610.3171, 78.28999
610.7993, 78.59203
611.2814, 79.60664
611.7635, 80.25970
612.2456, 79.89271
612.7277, 78.71610
613.2098, 77.19277
613.6920, 75.33625
614.1741, 72.80531
614.6562, 69.34262
615.1383, 65.37979
615.6204, 61.22803
616.1025, 56.90572
616.5847, 52.54332
617.0668, 47.91029
617.5489, 43.50406
618.0310, 39.61620
618.5131, 36.18221
618.9952, 33.10133
619.4774, 30.34458
619.9595, 27.80222
620.4416, 25.32052
620.9237, 22.87146
621.4058, 20.86937
621.8879, 19.74835
622.3701, 18.58961
622.8522, 17.08926
623.3343, 15.49981
623.8164, 14.05166
624.2985, 12.82371
624.7806, 11.85565
625.2628, 11.30795
625.7448, 10.99957
626.2269, 10.41169
626.7090, 9.503723
627.1912, 8.709534
627.6733, 8.215775
628.1554, 7.954498
628.6375, 7.886322
629.1196, 8.123154
629.6017, 8.026253
630.0839, 7.175224
630.5660, 6.251778
631.0481, 5.736671
631.5302, 5.533737
632.0123, 5.358208
632.4944, 5.081390
632.9766, 4.700180
633.4587, 4.161736
633.9408, 3.392044
634.4229, 2.841415
634.9050, 2.653282
635.3871, 2.514709
635.8693, 2.295113
636.3514, 2.031105
636.8335, 1.773033
637.3156, 1.529373
637.7977, 1.313278
638.2798, 1.211418
638.7620, 1.122406
639.2441, 0.7633820
639.7262, 0.1214220
640.2083, 0.3609160
640.6904, 0.3445890
641.1725, 1.5015000E-02
641.6547, 8.0000000E-06
642.1368, 0.8929440
642.6189, 1.210518
643.1010, 0.4828800
643.5831, 0.3977660
644.0652, 0.9851230
644.5474, 1.240524
645.0295, 1.209534
645.5116, 0.8849410
645.9937, 0.4328000
646.4758, 8.5564002E-02
646.9579, 0.1567080
647.4401, 0.2345280
647.9222, 7.6447003E-02
648.4043, 0.1189190
648.8864, 0.2645720
649.3685, 0.3262710
649.8506, 0.1728440
650.3328, 0.4679720
650.8149, 0.9175950
651.2970, 0.7587810
651.7791, 0.3463360
652.2612, 6.7139000E-02
652.7433, 1.9958001E-02
653.2255, 1.2970000E-03
653.7076, 6.8428002E-02
654.1897, 0.1748500
654.6718, 0.2816310
655.1539, 0.4546130
655.6360, 0.4688950
656.1182, 0.2082820
656.6003, 0.1503830
657.0824, 0.6412580
657.5645, 1.161118
658.0466, 1.398903
658.5287, 1.055832
659.0109, 0.6802980
659.4930, 0.8641430
659.9751, 1.427292
660.4572, 1.898407
660.9393, 2.177383
661.4214, 2.280548
661.9036, 2.173599
662.3857, 1.894432
662.8678, 1.850159
663.3499, 2.545563
663.8320, 2.804260
664.3141, 2.026237
664.7963, 1.159225
665.2784, 0.9556810
665.7605, 1.392982
666.2426, 2.041084
666.7247, 2.721481
667.2068, 3.321571
667.6890, 3.621666
668.1711, 3.627975
668.6532, 3.489380
669.1353, 3.114281
669.6174, 2.910614
670.0995, 3.428947
670.5817, 4.562782
671.0638, 5.191750
671.5459, 4.895721
672.0280, 4.588219
672.5101, 4.539047
672.9922, 4.632790
673.4744, 4.713745
673.9565, 4.786224
674.4386, 5.025948
674.9207, 5.624115
675.4028, 6.395432
675.8849, 6.690407
676.3671, 6.390610
676.8492, 6.123177
677.3313, 5.869896
677.8134, 5.849815
678.2955, 6.424477
678.7776, 7.390465
679.2598, 7.997078
679.7419, 7.770462
680.2240, 7.534286
680.7061, 7.861755
681.1882, 8.458595
681.6703, 8.847351
682.1525, 8.958412
682.6346, 9.039116
683.1167, 9.293411
683.5988, 9.684006
684.0809, 10.04579
684.5630, 10.44748
685.0452, 10.66885
685.5273, 10.43691
686.0094, 10.22964
686.4915, 10.43167
686.9736, 10.92941
687.4557, 11.22793
687.9379, 11.04766
688.4200, 10.75214
688.9021, 10.65412
689.3842, 10.69713
689.8663, 10.74516
690.3484, 10.76896
690.8306, 10.78756
691.3127, 10.79110
691.7948, 10.80965
692.2769, 11.05625
692.7590, 11.85394
693.2411, 12.41555
693.7233, 12.55798
694.2054, 12.66447
694.6875, 12.87384
695.1696, 13.19234
695.6517, 13.64150
696.1339, 14.33447
696.6160, 14.89062
697.0981, 14.69155
697.5802, 13.96561
698.0623, 13.53695
698.5444, 13.57075
699.0266, 13.85896
699.5087, 14.28196
699.9908, 14.72288
700.4729, 14.98335
700.9550, 15.01681
701.4371, 15.10354
701.9193, 15.32349
702.4014, 15.46782
702.8835, 15.25549
703.3656, 14.88769
703.8477, 14.86202
704.3298, 15.42672
704.8120, 16.04072
705.2941, 16.02464
705.7762, 15.49512
706.2583, 14.87844
706.7404, 14.17022
707.2225, 13.66801
707.7046, 13.64558
708.1867, 13.82600
708.6688, 13.57062
709.1509, 12.71224
709.6331, 12.02071
710.1152, 11.55138
710.5973, 11.22251
711.0794, 11.05129
711.5615, 10.96312
712.0436, 10.84659
712.5258, 10.66133
713.0079, 10.44238
713.4900, 10.27473
713.9721, 10.14846
714.4542, 9.914169
714.9363, 9.558044
715.4185, 9.087379
715.9006, 8.423492
716.3827, 7.727692
716.8648, 7.363251
717.3469, 7.462814
717.8290, 7.143112
718.3112, 5.762886
718.7933, 4.548561
719.2754, 4.261749
719.7575, 4.463257
720.2396, 4.435074
720.7217, 4.022713
721.2039, 3.710182
721.6860, 4.145073
722.1681, 5.024788
722.6502, 5.017372
723.1323, 3.994347
723.6144, 3.183914
724.0966, 3.034981
724.5787, 3.160080
725.0608, 3.184135
725.5429, 3.105545
726.0250, 2.836197
726.5071, 2.008606
726.9893, 1.424385
727.4714, 1.528122
727.9535, 1.934807
728.4356, 2.259880
728.9177, 2.426216
729.3998, 2.495728
729.8820, 2.491508
730.3641, 2.459885
730.8462, 2.543823
731.3283, 2.750954
731.8104, 2.812981
732.2925, 2.625000
732.7747, 2.400604
733.2568, 2.278809
733.7389, 2.267212
734.2210, 2.376625
734.7031, 2.697136
735.1852, 2.994850
735.6674, 3.305183
736.1495, 3.508217
736.6316, 3.413063
737.1137, 3.125420
737.5958, 2.958290
738.0779, 3.075371
738.5601, 3.278473
739.0422, 3.334503
739.5243, 3.233749
740.0064, 2.781013
740.4885, 1.845703
740.9706, 1.109421
741.4528, 1.040474
741.9349, 1.352348
742.4170, 1.440475
742.8991, 1.319130
743.3812, 0.9646300
743.8633, 2.4490001E-02
744.3455, 0.7839580
744.8276, 0.9854050
745.3097, 0.8425220
745.7918, 0.7775340
746.2739, 0.9092330
746.7560, 1.069031
747.2382, 1.112526
747.7203, 1.053917
748.2024, 0.9548720
748.6845, 0.8171540
749.1666, 0.4558870
749.6487, 0.3450780
750.1309, 1.001617
750.6130, 0.7006530
751.0951, 0.6373140
751.5772, 1.413727
752.0593, 1.401596
752.5414, 1.175995
753.0236, 0.6458360
753.5057, 0.1134720
753.9878, 0.1077880
754.4699, 5.6099001E-02
754.9520, 2.0691000E-02
755.4341, 0.1700210
755.9163, 0.4015580
756.3984, 0.6585770
756.8805, 0.8876110
757.3626, 0.7311480
757.8447, 9.5252998E-02
758.3268, 0.3141020
758.8090, 9.4687998E-02
759.2911, 1.017532
759.7732, 1.424690
760.2553, 0.9207530
760.7374, 0.6217270
761.2195, 0.7193300
761.7017, 0.8102040
762.1838, 0.5410080
762.6659, 0.1992110
763.1480, 0.3480220
763.6301, 1.165512
764.1122, 1.890938
764.5944, 1.778275
765.0765, 1.313400
765.5586, 1.320175
766.0407, 1.734123
766.5228, 1.940697
767.0049, 1.678551
767.4871, 1.451157
767.9692, 1.974075
768.4513, 3.292374
768.9334, 4.274246
769.4155, 4.781326
769.8976, 5.173553
770.3798, 5.384926
770.8619, 5.629410
771.3440, 6.020317
771.8261, 6.584267
772.3082, 7.395683
772.7903, 8.644279
773.2725, 9.926743
773.7546, 10.77555
774.2367, 11.55373
774.7188, 12.87749
775.2009, 14.77534
775.6830, 16.86565
776.1652, 18.92911
776.6473, 20.92361
777.1294, 22.63237
777.6115, 23.93098
778.0936, 25.79884
778.5757, 28.34187
779.0579, 31.38806
779.5400, 35.00082
780.0221, 39.00002
780.5042, 42.94870
780.9863, 46.72835
781.4684, 51.14907
781.9506, 56.42757
782.4327, 62.37885
782.9148, 68.82056
783.3969, 75.90778
783.8790, 84.16576
784.3611, 93.57212
784.8433, 102.9750
785.3254, 111.1421
785.8075, 118.6085
786.2896, 127.2996
786.7717, 137.2231
787.2538, 145.8389
787.7360, 152.7637
788.2181, 157.4630
788.7002, 159.3294
789.1823, 158.4641
789.6644, 155.6463
790.1465, 151.1384
790.6286, 144.3817
791.1107, 134.1916
791.5928, 122.7925
792.0750, 110.9197
792.5571, 99.08636
793.0392, 87.78587
793.5213, 77.19685
794.0034, 67.50002
794.4855, 58.90469
794.9677, 51.27837
795.4498, 44.40883
795.9319, 38.28929
796.4140, 33.30796
796.8961, 29.63611
797.3782, 26.79527
797.8604, 24.18573
798.3425, 21.80058
798.8246, 19.45676
799.3067, 16.95571
799.7888, 14.83878
800.2709, 13.34445
800.7531, 12.21342
801.2352, 11.36011
801.7173, 10.73708
802.1994, 10.16663
802.6815, 9.679977
803.1636, 9.217003
803.6458, 8.626770
804.1279, 8.098946
804.6100, 7.961632
805.0921, 8.136101
805.5742, 8.259056
806.0563, 8.137177
806.5385, 7.821136
807.0206, 7.272766
807.5027, 6.538651
807.9848, 6.259338
808.4669, 6.534882
808.9490, 6.865608
809.4312, 7.062500
809.9133, 7.196503
810.3954, 7.337639
810.8775, 7.514565
811.3596, 7.589348
811.8417, 7.452026
812.3239, 7.313011
812.8060, 7.270157
813.2881, 7.223717
813.7702, 7.082993
814.2523, 6.844711
814.7344, 6.538383
815.2166, 6.130775
815.6987, 5.764427
816.1808, 5.621506
816.6629, 5.635597
817.1450, 5.522026
817.6271, 5.294754
818.1093, 5.391930
818.5914, 6.097130
819.0735, 7.069031
819.5556, 7.641479
820.0377, 7.753647
820.5198, 7.797943
821.0020, 7.520058
821.4841, 7.657501
821.9662, 8.704056
822.4483, 10.15524
822.9304, 11.53262
823.4125, 12.82582
823.8947, 13.93041
824.3768, 14.72855
824.8589, 15.44587
825.3410, 16.18179
825.8231, 16.89391
826.3052, 17.44952
826.7874, 17.91865
827.2695, 18.63396
827.7516, 19.86006
828.2337, 21.05495
828.7158, 21.38383
829.1979, 21.01348
829.6801, 20.66331
830.1622, 20.40002
830.6443, 19.90152
831.1264, 19.00459
831.6085, 17.79042
832.0906, 16.32963
832.5728, 14.55669
833.0549, 13.06844
833.5370, 12.08175
834.0191, 11.08451
834.5012, 9.903847
834.9833, 8.724236
835.4655, 7.621788
835.9476, 6.638588
836.4297, 5.900642
836.9118, 5.560440
837.3939, 5.292206
837.8760, 4.940010
838.3582, 4.548958
838.8403, 4.107155
839.3224, 3.674385
839.8045, 3.462868
840.2866, 3.576279
840.7687, 3.691727
841.2509, 3.201622
841.7330, 2.280632
842.2151, 2.053185
842.6972, 2.585358
843.1793, 2.966759
843.6614, 2.769363
844.1436, 2.604118
844.6257, 3.277580
845.1078, 4.758957
845.5899, 5.678505
846.0720, 5.748924
846.5541, 5.650345
847.0363, 5.147171
847.5184, 4.778488
848.0005, 5.034424
848.4826, 5.656555
848.9647, 6.033516
849.4468, 5.974434
849.9290, 5.828278
850.4111, 5.651314
850.8932, 5.587021
851.3753, 5.843124
851.8574, 6.321022
852.3395, 6.825996
852.8217, 7.278152
853.3038, 7.607491
853.7859, 7.710930
854.2680, 7.664268
854.7501, 7.746574
855.2322, 7.958054
855.7144, 7.919334
856.1965, 7.481400
856.6786, 7.118568
857.1607, 7.227440
857.6428, 7.651085
858.1249, 7.900803
858.6071, 8.050377
859.0892, 7.855309
859.5713, 6.924011
860.0534, 6.114037
860.5355, 5.833496
861.0176, 5.774178
861.4998, 5.596756
861.9819, 5.259865
862.4640, 4.808868
862.9461, 4.051247
863.4282, 3.339729
863.9103, 2.925880
864.3925, 2.732239
864.8746, 2.637672
865.3567, 2.606552
865.8388, 2.719566
866.3209, 3.065193
866.8030, 3.318810
867.2852, 2.755882
867.7673, 1.606041
868.2494, 1.187500
868.7315, 1.618378
869.2136, 1.945480
869.6957, 1.679787
870.1779, 1.290871
870.6600, 1.504333
871.1421, 2.335022
871.6242, 2.634048
872.1063, 2.011337
872.5884, 1.544411
873.0705, 1.583786
873.5526, 1.689331
874.0347, 1.542458
874.5168, 1.233490
874.9990, 1.024246
875.4811, 0.9446260
875.9632, 1.036133
876.4453, 1.525192
876.9274, 1.974396
877.4095, 2.058182
877.8917, 1.885406
878.3738, 1.644989
878.8559, 1.394432
879.3380, 1.110298
879.8201, 0.6746980
880.3022, 0.3144840
880.7844, 0.5123370
881.2665, 1.112869
881.7486, 1.564453
882.2307, 1.777573
882.7128, 1.842873
883.1949, 1.802017
883.6771, 1.711578
884.1592, 1.717293
884.6413, 1.857719
885.1234, 1.748642
885.6055, 1.171120
886.0876, 0.9082030
886.5698, 1.485580
887.0519, 2.229973
887.5340, 2.371002
888.0161, 1.942734
888.4982, 1.508827
888.9803, 0.9688950
889.4625, 0.5878830
889.9446, 0.5059810
890.4267, 0.5059050
890.9088, 0.4330600
891.3909, 0.3312300
891.8730, 0.3059460
892.3552, 0.3856740
892.8373, 0.5374220
893.3194, 0.8682790
893.8015, 1.154167
894.2836, 1.089882
894.7657, 0.8126830
895.2479, 0.6211850
895.7300, 0.5723040
896.2121, 0.5212860
896.6942, 0.3481830
897.1763, 0.1545940
897.6584, 0.1551970
898.1406, 0.3352130
898.6227, 0.5902480
899.1048, 0.9274980
899.5869, 1.102654
900.0690, 0.9611510
900.5511, 0.7136000
901.0333, 0.7003250
901.5154, 0.9429860
901.9975, 0.9084090
902.4796, 0.3477250
902.9617, 2.9487999E-02
903.4438, 6.8297997E-02
903.9260, 9.7480997E-02
904.4081, 0.5751270
904.8902, 1.163628
905.3723, 1.301079
905.8544, 0.7315290
906.3365, 0.2845610
906.8187, 2.3960001E-03
907.3008, 4.4144001E-02
907.7829, 0.9338380
908.2650, 2.042198
908.7471, 2.472313
909.2292, 2.142250
909.7114, 1.692711
910.1935, 1.442787
910.6756, 1.333496
911.1577, 1.391724
911.6398, 1.506493
912.1219, 1.457161
912.6041, 1.256989
913.0862, 1.043587
913.5683, 0.8821870
914.0504, 0.8503110
914.5325, 1.146370
915.0146, 1.667641
915.4968, 1.764282
915.9789, 1.419197
916.4610, 1.282265
916.9431, 1.571243
917.4252, 1.842430
917.9073, 1.728653
918.3895, 1.309166
918.8716, 0.8430180
919.3537, 0.1902540
919.8358, 0.1508790
920.3179, 6.8741001E-02
920.8000, 0.2406850
921.2822, 2.3293000E-02
921.7643, 0.2966610
922.2464, 0.3862990
922.7285, 0.2531740
923.2106, 0.1784520
923.6927, 0.2552340
924.1749, 0.3219830
924.6570, 0.1292420
925.1391, 9.2299998E-02
925.6212, 0.8082200
926.1033, 1.865997
926.5854, 2.349411
927.0676, 1.978279
927.5497, 1.482765
928.0318, 1.357697
928.5139, 1.326126
928.9960, 1.041832
929.4781, 0.6607280
929.9603, 0.5690770
930.4424, 0.7601930
930.9245, 0.7982100
931.4066, 0.3785100
931.8887, 0.1760410
932.3708, 0.2854690
932.8530, 8.4999003E-02
933.3351, 0.1054920
933.8172, 0.3760910
934.2993, 0.9553530
934.7814, 1.899445
935.2635, 2.751472
935.7457, 2.960335
936.2278, 2.670769
936.7099, 2.763145
937.1920, 3.336716
937.6741, 3.848129
938.1563, 4.180397
938.6384, 4.569405
939.1205, 5.141647
939.6026, 5.859856
940.0847, 6.698639
940.5668, 7.710037
941.0490, 8.526428
941.5311, 8.904434
942.0132, 9.431488
942.4953, 10.50822
942.9774, 11.51057
943.4595, 11.96305
943.9417, 11.97615
944.4238, 11.88437
944.9059, 11.76343
945.3880, 11.49593
945.8701, 10.77831
946.3522, 10.17608
946.8344, 10.36833
947.3165, 10.74294
947.7986, 10.30862
948.2807, 9.105705
948.7628, 8.155579
949.2449, 8.170387
949.7271, 8.188538
950.2092, 6.959724
950.6913, 5.327835
951.1734, 4.653496
951.6555, 4.797867
952.1376, 5.007591
952.6198, 5.003189
953.1019, 4.809303
953.5840, 4.376945
954.0661, 3.861122
954.5482, 3.701012
955.0303, 3.829376
955.5124, 3.749550
955.9945, 3.392082
956.4766, 3.176628
956.9587, 3.346062
957.4409, 3.674942
957.9230, 3.800240
958.4051, 3.726433
958.8872, 3.730103
959.3693, 3.886215
959.8514, 3.750031
960.3336, 3.064568
960.8157, 2.448601
961.2978, 2.451630
961.7799, 2.823090
962.2620, 2.848564
962.7441, 2.437889
963.2263, 1.952599
963.7084, 0.9578930
964.1905, 0.4884800
964.6726, 1.355057
965.1547, 2.406212
965.6368, 2.546120
966.1190, 1.971741
966.6011, 1.713554
967.0832, 2.193573
967.5653, 2.391045
968.0474, 1.734329
968.5295, 1.121140
969.0117, 1.207474
969.4938, 1.569260
969.9759, 1.594528
970.4580, 1.242142
970.9401, 0.9284590
971.4222, 0.7940370
971.9044, 0.8136290
972.3865, 1.089729
972.8686, 1.419411
973.3507, 1.552391
973.8328, 1.562500
974.3149, 1.671440
974.7971, 1.936455
975.2792, 2.200699
975.7613, 2.346771
976.2434, 2.415840
976.7255, 2.403107
977.2076, 2.368019
977.6898, 2.527328
978.1719, 2.859306
978.6540, 2.922661
979.1361, 2.498322
979.6182, 2.027931
980.1003, 2.157539
980.5825, 2.698090
981.0646, 2.923790
981.5467, 2.876366
982.0288, 3.021774
982.5109, 3.466797
982.9930, 3.851990
983.4752, 3.901199
983.9573, 3.685242
984.4394, 3.350975
984.9215, 2.949409
985.4036, 2.953804
985.8857, 3.418793
986.3679, 3.814484
986.8500, 4.037285
987.3321, 4.116074
987.8142, 3.998947
988.2963, 3.763580
988.7784, 3.737244
989.2606, 4.042358
989.7427, 4.248344
990.2248, 4.219917
990.7069, 4.254982
991.1890, 4.470886
991.6711, 4.795845
992.1533, 5.189873
992.6354, 5.627083
993.1175, 5.986748
993.5996, 6.163338
994.0817, 6.451614
994.5638, 6.957611
995.0460, 7.456680
995.5281, 7.830696
996.0102, 8.175507
996.4923, 8.511269
996.9744, 8.885895
997.4565, 9.578766
997.9387, 10.83011
998.4208, 12.08616
998.9029, 13.12920
999.3850, 14.21310
999.8671, 15.56316
1000.349, 17.00944
1000.831, 18.43993
1001.313, 19.76523
1001.796, 20.51296
1002.278, 20.17698
1002.760, 19.68719
1003.242, 19.51308
1003.724, 19.44807
1004.206, 19.21873
1004.688, 18.97181
1005.170, 19.00777
1005.653, 19.39673
1006.135, 20.00169
1006.617, 20.83272
1007.099, 21.71847
1007.581, 22.44150
1008.063, 23.15044
1008.545, 23.97066
1009.027, 24.98020
1009.509, 26.34553
1009.992, 28.10657
1010.474, 30.09710
1010.956, 32.43414
1011.438, 34.60789
1011.920, 35.56894
1012.402, 35.84042
1012.884, 36.71160
1013.366, 38.19428
1013.849, 39.61315
1014.331, 40.66541
1014.813, 41.22429
1015.295, 40.99328
1015.777, 40.28986
1016.259, 40.06343
1016.741, 40.12123
1017.223, 39.45956
1017.705, 37.92924
1018.188, 36.40949
1018.670, 35.36187
1019.152, 34.39218
1019.634, 32.85108
1020.116, 30.88918
1020.598, 29.46533
1021.080, 28.49782
1021.562, 27.06590
1022.044, 24.97865
1022.527, 22.90184
1023.009, 21.16642
1023.491, 19.67261
1023.973, 18.27406
1024.455, 16.98468
1024.937, 16.09583
1025.419, 15.66459
1025.901, 15.13160
1026.384, 14.34973
1026.866, 13.64903
1027.348, 13.25569
1027.830, 13.03125
1028.312, 12.70425
1028.794, 12.24477
1029.276, 11.82674
1029.758, 11.48292
1030.240, 11.12349
1030.723, 10.68942
1031.205, 10.35203
1031.687, 10.30838
1032.169, 10.32681
1032.651, 9.871361
1033.133, 8.820663
1033.615, 8.401360
1034.097, 9.080948
1034.579, 9.337425
1035.062, 8.652458
1035.544, 7.828117
1036.026, 7.325142
1036.508, 7.086876
1036.990, 7.056946
1037.472, 7.344345
1037.954, 7.328156
1038.436, 6.721298
1038.919, 6.234100
1039.401, 6.075134
1039.883, 5.963997
1040.365, 5.647202
1040.847, 5.263107
1041.329, 5.132317
1041.811, 5.330002
1042.293, 5.381622
1042.776, 5.079544
1043.258, 4.954094
1043.740, 5.197632
1044.222, 5.427025
1044.704, 5.330101
1045.186, 5.076767
1045.668, 5.056694
1046.150, 5.364571
1046.632, 5.397667
1047.115, 4.864700
1047.597, 4.382294
1048.079, 3.935677
1048.561, 3.696625
1049.043, 4.042152
1049.525, 4.604996
1050.007, 4.551918
1050.489, 3.699440
1050.971, 3.282303
1051.454, 4.025757
1051.936, 4.567055
1052.418, 4.338142
1052.900, 3.927132
1053.382, 3.712959
1053.864, 3.647743
1054.346, 3.605255
1054.828, 3.568146
1055.311, 3.508293
1055.793, 3.282333
1056.275, 3.217010
1056.757, 3.730026
1057.239, 4.148071
1057.721, 3.853386
1058.203, 3.151512
1058.685, 2.548958
1059.167, 2.134171
1059.650, 1.957146
1060.132, 2.230804
1060.614, 2.479874
1061.096, 2.525711
1061.578, 2.478134
1062.060, 2.342590
1062.542, 2.209564
1063.024, 2.275604
1063.506, 2.541245
1063.989, 2.625839
1064.471, 2.236031
1064.953, 1.860085
1065.435, 1.640205
1065.917, 1.567291
1066.399, 1.774612
1066.881, 2.053223
1067.363, 2.061592
1067.846, 1.779701
1068.328, 1.522034
1068.810, 1.463112
1069.292, 1.348999
1069.774, 0.8214490
1070.256, 0.4455030
1070.738, 0.9269640
1071.220, 1.671799
1071.703, 1.732086
1072.185, 1.100319
1072.667, 0.6278310
1073.149, 0.7577900
1073.631, 0.7866440
1074.113, 7.0998996E-02
1074.595, 0.5327300
1075.077, 8.0185004E-02
1075.559, 0.6605830
1076.042, 0.5245060
1076.524, 0.4094470
1077.006, 1.112946
1077.488, 1.282814
1077.970, 1.044846
1078.452, 8.8356003E-02
1078.934, 1.012344
1079.416, 0.6577000
1079.898, 0.1029970
1080.380, 0.1240920
1080.863, 0.4772950
1081.345, 0.8206330
1081.827, 0.5859680
1082.309, 0.3330460
1082.791, 0.2983930
1083.273, 0.3372880
1083.755, 0.4703450
1084.237, 0.5464550
1084.720, 0.3042530
1085.202, 0.1144710
1085.684, 0.3248670
1086.166, 0.2214050
1086.648, 5.1360998E-02
1087.130, 0.7599260
1087.612, 1.214890
1088.094, 0.7998960
1088.577, 0.1939770
1089.059, 5.0223999E-02
1089.541, 0.2234950
1090.023, 0.2450260
1090.505, 1.7212000E-02
1090.987, 2.9510001E-02
1091.469, 0.8337480
1091.951, 1.426208
1092.433, 1.236877
1092.916, 0.8088070
1093.398, 0.5141980
1093.880, 0.3129200
1094.362, 5.0163001E-02
1094.844, 0.2819440
1095.326, 0.4846950
1095.808, 0.5196840
1096.290, 0.3783650
1096.772, 0.2044450
1097.255, 0.6827160
1097.737, 0.4927140
1098.219, 0.1212310
1098.701, 0.4220810
1099.183, 1.289368
1099.665, 1.508286
1100.147, 0.2880860
1100.629, 0.5228580
1101.112, 0.1196980
1101.594, 0.4099200
1102.076, 0.5718840
1102.558, 0.5594330
1103.040, 0.6197200
1103.522, 0.7127000
1104.004, 0.5973970
1104.486, 0.1155170
1104.969, 0.1797260
1105.451, 2.0271000E-02
1105.933, 0.1471940
1106.415, 0.1977310
1106.897, 0.5087510
1107.379, 0.2983020
1107.861, 0.2490540
1108.343, 0.6811520
1108.825, 0.9765240
1109.307, 1.091408
1109.790, 0.7168200
1110.272, 0.5965040
1110.754, 1.245041
1111.236, 1.802124
1111.718, 1.547562
1112.200, 0.9669040
1112.682, 0.9420320
1113.164, 1.525017
1113.647, 1.741089
1114.129, 1.128899
1114.611, 0.9251860
1115.093, 1.587402
1115.575, 2.165199
1116.057, 2.183777
1116.539, 1.955414
1117.021, 1.824112
1117.504, 1.784554
1117.986, 1.807144
1118.468, 2.007591
1118.950, 1.972832
1119.432, 1.506569
1119.914, 1.220238
1120.396, 1.292892
1120.878, 1.554848
1121.360, 1.890717
1121.843, 2.278397
1122.325, 2.667915
1122.807, 3.091515
1123.289, 3.308197
1123.771, 3.267471
1124.253, 3.194031
1124.735, 3.136444
1125.217, 3.045784
1125.699, 2.875648
1126.182, 2.687798
1126.664, 2.592850
1127.146, 2.585571
1127.628, 2.563004
1128.110, 2.516853
1128.592, 2.547127
1129.074, 2.684784
1129.556, 2.704987
1130.039, 2.472679
1130.521, 2.290619
1131.003, 2.553955
1131.485, 3.078812
1131.967, 3.224068
1132.449, 2.970238
1132.931, 2.500160
1133.413, 1.813148
1133.896, 1.339325
1134.378, 1.183418
1134.860, 1.226891
1135.342, 1.465485
1135.824, 1.689194
1136.306, 1.377998
1136.788, 0.6923600
1137.270, 0.5082240
1137.752, 0.7503740
1138.234, 1.100494
1138.717, 1.487244
1139.199, 1.848015
1139.681, 2.156342
1140.163, 2.295677
1140.645, 2.114662
1141.127, 1.701332
1141.609, 1.043968
1142.091, 0.3497700
1142.574, 0.1031340
1143.056, 0.2587280
1143.538, 0.5613940
1144.020, 0.9239270
1144.502, 1.270798
1144.984, 1.591194
1145.466, 1.707245
1145.948, 1.217354
1146.431, 0.5892180
1146.913, 0.3817210
1147.395, 0.5118330
1147.877, 0.8451460
1148.359, 1.274483
1148.841, 1.577606
1149.323, 1.659889
1149.805, 1.638329
1150.287, 1.494652
1150.770, 1.380241
1151.252, 1.461700
1151.734, 1.584152
1152.216, 1.577621
1152.698, 1.448860
1153.180, 1.246910
1153.662, 0.9935990
1154.144, 0.9773030
1154.626, 1.505318
1155.109, 2.003029
1155.591, 2.443321
1156.073, 2.624245
1156.555, 2.231728
1157.037, 1.638031
1157.519, 1.282532
1158.001, 1.176308
1158.483, 1.155846
1158.966, 1.392174
1159.448, 1.510406
1159.930, 1.500481
1160.412, 1.312904
1160.894, 0.6685560
1161.376, 0.1463390
1161.858, 0.2921300
1162.340, 0.7921140
1162.822, 0.9540020
1163.305, 0.7804260
1163.787, 0.5587840
1164.269, 0.1915890
1164.751, 1.1971000E-02
1165.233, 7.1617000E-02
1165.715, 0.2262270
1166.197, 0.3369600
1166.679, 0.4046330
1167.161, 0.4162520
1167.644, 0.3998340
1168.126, 0.4799650
1168.608, 0.6609040
1169.090, 0.9155880
1169.572, 1.251457
1170.054, 1.242226
1170.536, 0.7632060
1171.018, 0.3231890
1171.500, 0.2855760
1171.983, 0.3849410
1172.465, 0.1238250
1172.947, 0.3222500
1173.429, 0.3429180
1173.911, 2.5169000E-02
1174.393, 0.4090580
1174.875, 0.8544690
1175.357, 0.9968110
1175.840, 0.7315220
1176.322, 0.2902830
1176.804, 0.2537690
1177.286, 0.6123580
1177.768, 0.2072370
1178.250, 0.4497990
1178.732, 0.4855120
1179.214, 0.2358630
1179.697, 0.5975490
1180.179, 1.503029
1180.661, 1.962852
1181.143, 1.505821
1181.625, 1.090446
1182.107, 1.375099
1182.589, 1.801315
1183.071, 2.081245
1183.553, 2.259819
1184.036, 2.441544
1184.518, 2.540283
1185.000, 2.203003
1185.482, 1.445854
1185.964, 1.358459
1186.446, 3.002136
1186.928, 4.010849
1187.410, 3.390709
1187.892, 2.812737
1188.375, 3.214661
1188.857, 3.760078
1189.339, 3.569290
1189.821, 2.935722
1190.303, 2.728226
1190.785, 3.042320
1191.267, 3.216316
1191.749, 3.202675
1192.232, 3.161667
1192.714, 3.060387
1193.196, 3.134995
1193.678, 3.573616
1194.160, 4.031685
1194.642, 4.064941
1195.124, 3.791626
1195.606, 3.643059
1196.089, 3.606651
1196.571, 3.910973
1197.053, 4.532852
1197.535, 4.785278
1198.017, 4.515503
1198.499, 4.248611
1198.981, 4.316147
1199.463, 4.452362
1199.945, 4.210114
1200.427, 3.862976
1200.910, 4.117104
1201.392, 4.626022
1201.874, 4.503860
1202.356, 3.941101
1202.838, 3.853020
1203.320, 4.403740
1203.802, 4.772568
1204.284, 4.364761
1204.767, 4.023911
1205.249, 4.562004
1205.731, 5.188126
1206.213, 5.130287
1206.695, 4.839226
1207.177, 4.930199
1207.659, 5.286514
1208.141, 5.407547
1208.624, 5.174706
1209.106, 5.085915
1209.588, 5.466827
1210.070, 5.692696
1210.552, 5.490013
1211.034, 5.274582
1211.516, 5.198235
1211.998, 5.258324
1212.480, 5.516655
1212.963, 5.897636
1213.445, 6.114815
1213.927, 6.156158
1214.409, 6.060997
1214.891, 5.757896
1215.373, 5.621628
1215.855, 5.758728
1216.337, 5.886452
1216.819, 5.850365
1217.302, 5.757713
1217.784, 5.709488
1218.266, 5.760254
1218.748, 6.226219
1219.230, 6.953331
1219.712, 7.028511
1220.194, 6.567459
1220.676, 6.442856
1221.159, 6.805809
1221.641, 7.187408
1222.123, 7.337517
1222.605, 7.386360
1223.087, 7.488335
1223.569, 7.535004
1224.051, 7.312920
1224.533, 7.027008
1225.016, 6.911186
1225.498, 6.971550
1225.980, 7.231300
1226.462, 7.626457
1226.944, 7.837814
1227.426, 7.804832
1227.908, 7.429222
1228.390, 6.261757
1228.872, 5.280960
1229.354, 4.866531
1229.837, 4.828781
1230.319, 5.332207
1230.801, 5.878693
1231.283, 5.421555
1231.765, 4.060524
1232.247, 3.494644
1232.729, 4.161896
1233.211, 4.192177
1233.694, 3.241142
1234.176, 2.639450
1234.658, 2.858055
1235.140, 3.209564
1235.622, 3.216278
1236.104, 2.978165
1236.586, 2.597412
1237.068, 2.153633
1237.551, 2.017754
1238.033, 2.120720
1238.515, 2.143715
1238.997, 2.082733
1239.479, 2.103775
1239.961, 2.246590
1240.443, 2.440002
1240.925, 2.678444
1241.407, 2.741783
1241.890, 2.169334
1242.372, 1.581017
1242.854, 1.693901
1243.336, 2.063713
1243.818, 2.135887
1244.300, 1.996841
1244.782, 1.975655
1245.264, 2.112305
1245.746, 2.145607
1246.229, 2.049530
1246.711, 1.768936
1247.193, 0.9550630
1247.675, 0.4166410
1248.157, 0.5320660
1248.639, 0.8860700
1249.121, 1.266418
1249.603, 1.628067
1250.085, 1.918678
1250.568, 2.124756
1251.050, 2.008781
1251.532, 1.548836
1252.014, 0.8844070
1252.496, 5.5699999E-04
1252.978, 0.2542500
1253.460, 0.3745800
1253.942, 0.9338530
1254.425, 0.7478410
1254.907, 0.3749850
1255.389, 0.6876600
1255.871, 1.272949
1256.353, 1.416176
1256.835, 1.218590
1257.317, 0.6360240
1257.799, 5.1399000E-02
1258.281, 0.1269230
1258.764, 0.4223860
1259.246, 0.7250750
1259.728, 0.3272170
1260.210, 2.7580000E-02
1260.692, 0.1131740
1261.174, 0.2380600
1261.656, 0.1534500
1262.138, 0.3914720
1262.620, 0.3680340
1263.103, 1.428673
1263.585, 1.527191
1264.067, 0.8190230
1264.549, 0.6807170
1265.031, 1.359985
1265.513, 1.767273
1265.995, 1.867424
1266.477, 1.799049
1266.960, 1.572144
1267.442, 1.303047
1267.924, 1.047485
1268.406, 0.8672180
1268.888, 0.8602520
1269.370, 0.9025960
1269.852, 0.7583470
1270.334, 0.5429000
1270.817, 0.6869890
1271.299, 1.061409
1271.781, 1.267014
1272.263, 1.291115
1272.745, 1.220169
1273.227, 1.100708
1273.709, 0.8592380
1274.191, 0.7802350
1274.673, 0.7035290
1275.156, 0.4757000
1275.638, 0.3928380
1276.120, 0.8586040
1276.602, 1.412315
1277.084, 1.506035
1277.566, 1.240746
1278.048, 0.9515380
1278.530, 0.5824740
1279.012, 0.8251420
1279.495, 2.066177
1279.977, 2.423492
1280.459, 1.506165
1280.941, 0.7384490
1281.423, 0.6498180
1281.905, 0.6731870
1282.387, 0.3339390
1282.869, 1.8745000E-02
1283.352, 0.2710110
1283.834, 0.8937070
1284.316, 0.5090710
1284.798, 0.0000000E+00
##END=



