##NAMES=Rubicline
##RRUFFID=R070044
##IDEAL CHEMISTRY=RbAlSi_3_O_8_
##LOCALITY=Vasin Myl'k Mount, Voron'l Tundry, Kola Peninsula, Russia
##OWNER=RRUFF
##SOURCE=Michael Scott
##DESCRIPTION=Colorless fragment embedded in epoxy
##STATUS=The identification of this mineral is not yet confirmed.
##URL=rruff.info/R070044
152.5912, 0.0000000E+00
153.0733, 26.88477
153.5554, 59.82715
154.0376, 74.88623
154.5197, 75.62939
155.0018, 124.9517
155.4839, 100.9541
155.9660, 67.50684
156.4481, 31.73926
156.9303, 3.181641
157.4124, 19.95215
157.8945, 10.82373
158.3766, 43.31689
158.8587, 56.27637
159.3409, 40.51123
159.8230, 33.30176
160.3051, 48.02197
160.7872, 79.51416
161.2693, 118.3770
161.7514, 171.1338
162.2336, 224.0435
162.7157, 270.1963
163.1978, 310.5747
163.6799, 339.2329
164.1620, 340.1104
164.6441, 324.5664
165.1263, 323.8467
165.6084, 361.7490
166.0905, 416.8911
166.5726, 469.4282
167.0547, 502.1958
167.5368, 547.2446
168.0190, 641.7153
168.5011, 776.1587
168.9832, 896.2163
169.4653, 963.0972
169.9474, 998.0034
170.4295, 1026.912
170.9117, 1075.574
171.3938, 1109.072
171.8759, 1084.245
172.3580, 1003.205
172.8401, 912.8584
173.3222, 841.0317
173.8044, 785.9180
174.2865, 745.7646
174.7686, 722.0503
175.2507, 711.5161
175.7328, 712.7573
176.2149, 726.3086
176.6971, 744.0166
177.1792, 751.2612
177.6613, 754.8452
178.1434, 774.0552
178.6255, 832.3521
179.1076, 909.4585
179.5898, 968.3926
180.0719, 1004.135
180.5540, 1031.548
181.0361, 1067.739
181.5182, 1111.183
182.0003, 1154.438
182.4825, 1192.369
182.9646, 1226.969
183.4467, 1263.708
183.9288, 1305.492
184.4109, 1345.077
184.8930, 1374.836
185.3752, 1394.339
185.8573, 1400.379
186.3394, 1389.727
186.8215, 1363.405
187.3036, 1323.820
187.7857, 1266.357
188.2679, 1202.718
188.7500, 1168.460
189.2321, 1158.672
189.7142, 1146.656
190.1963, 1100.725
190.6784, 1009.151
191.1606, 925.7505
191.6427, 867.6069
192.1248, 831.1577
192.6069, 793.6538
193.0890, 752.3047
193.5712, 715.3931
194.0533, 700.2153
194.5354, 706.8286
195.0175, 704.3550
195.4996, 681.2788
195.9817, 642.6079
196.4639, 614.2661
196.9460, 595.8667
197.4281, 589.1279
197.9102, 600.5762
198.3923, 631.9341
198.8744, 659.5308
199.3566, 672.1113
199.8387, 671.4829
200.3208, 685.0293
200.8029, 712.3911
201.2850, 754.6875
201.7671, 820.9580
202.2493, 916.8228
202.7314, 1001.590
203.2135, 1054.909
203.6956, 1074.704
204.1777, 1114.218
204.6598, 1176.579
205.1420, 1254.206
205.6241, 1338.611
206.1062, 1431.938
206.5883, 1521.113
207.0704, 1603.356
207.5525, 1680.405
208.0347, 1741.199
208.5168, 1789.982
208.9989, 1818.672
209.4810, 1810.157
209.9631, 1760.549
210.4452, 1686.379
210.9274, 1587.350
211.4095, 1459.656
211.8916, 1319.405
212.3737, 1162.062
212.8558, 996.1182
213.3379, 842.6328
213.8201, 696.5483
214.3022, 572.3447
214.7843, 480.4629
215.2664, 430.6465
215.7485, 382.5249
216.2306, 331.0620
216.7128, 279.1138
217.1949, 239.3462
217.6770, 218.8525
218.1591, 199.0850
218.6412, 165.4888
219.1233, 104.6611
219.6055, 68.89209
220.0876, 73.92432
220.5697, 107.6714
221.0518, 112.5649
221.5339, 73.18848
222.0160, 27.26270
222.4982, 0.7739260
222.9803, 2.956055
223.4624, 1.469238
223.9445, 9.339355
224.4266, 27.17529
224.9087, 35.11475
225.3909, 24.00391
225.8730, 14.70020
226.3551, 25.45898
226.8372, 73.40332
227.3193, 104.5835
227.8014, 109.1216
228.2836, 89.01953
228.7657, 68.73877
229.2478, 47.06396
229.7299, 26.21729
230.2120, 6.698242
230.6942, 16.54590
231.1763, 27.86670
231.6584, 19.96924
232.1405, 6.420898
232.6226, 20.79590
233.1047, 21.33252
233.5869, 11.85205
234.0690, 7.017090
234.5511, 45.99902
235.0332, 72.76123
235.5153, 75.93750
235.9974, 55.08008
236.4796, 53.11572
236.9617, 82.39844
237.4438, 118.8765
237.9259, 138.6899
238.4080, 130.2837
238.8901, 126.1743
239.3723, 132.8472
239.8544, 150.7388
240.3365, 169.1040
240.8186, 184.2383
241.3007, 203.1968
241.7828, 234.3970
242.2650, 286.7520
242.7471, 335.3467
243.2292, 372.0981
243.7113, 394.9883
244.1934, 433.3281
244.6755, 492.6396
245.1577, 562.4917
245.6398, 632.2847
246.1219, 703.0815
246.6040, 771.9756
247.0861, 837.4106
247.5682, 898.8276
248.0504, 966.4912
248.5325, 1044.333
249.0146, 1125.489
249.4967, 1202.167
249.9788, 1272.921
250.4609, 1343.327
250.9431, 1424.162
251.4252, 1521.385
251.9073, 1562.518
252.3894, 1538.614
252.8715, 1466.484
253.3536, 1362.214
253.8358, 1209.807
254.3179, 1054.946
254.8000, 904.1489
255.2821, 755.5586
255.7642, 637.9785
256.2463, 559.2627
256.7285, 503.8862
257.2106, 451.9688
257.6927, 399.2515
258.1748, 358.9487
258.6569, 335.0557
259.1390, 328.1343
259.6212, 331.2461
260.1033, 348.4126
260.5854, 371.2432
261.0675, 388.6050
261.5496, 395.3545
262.0317, 409.0229
262.5139, 437.3950
262.9960, 481.3130
263.4781, 514.9780
263.9602, 530.8003
264.4423, 545.3560
264.9244, 582.9824
265.4066, 653.9043
265.8887, 716.7363
266.3708, 755.0020
266.8529, 767.2656
267.3350, 800.0527
267.8171, 863.0322
268.2993, 931.7842
268.7814, 974.5615
269.2635, 986.6172
269.7456, 991.0547
270.2277, 996.8271
270.7098, 1004.145
271.1920, 987.3022
271.6741, 939.8691
272.1562, 880.5654
272.6383, 827.2314
273.1204, 778.6133
273.6025, 743.8213
274.0847, 729.1128
274.5668, 733.3643
275.0489, 731.1899
275.5310, 720.1152
276.0131, 708.5698
276.4952, 704.9580
276.9774, 709.3154
277.4595, 721.7583
277.9416, 742.8574
278.4237, 772.4707
278.9058, 806.8467
279.3879, 845.3857
279.8701, 891.1655
280.3522, 949.1260
280.8343, 1019.871
281.3164, 1092.438
281.7986, 1157.613
282.2807, 1220.824
282.7628, 1318.960
283.2449, 1456.898
283.7270, 1608.595
284.2091, 1742.904
284.6913, 1858.225
285.1734, 1987.983
285.6555, 2150.771
286.1376, 2336.410
286.6197, 2497.759
287.1018, 2630.432
287.5840, 2768.209
288.0661, 2955.060
288.5482, 3182.941
289.0303, 3389.507
289.5124, 3566.740
289.9945, 3705.662
290.4767, 3786.342
290.9588, 3809.897
291.4409, 3764.912
291.9230, 3628.195
292.4051, 3409.896
292.8872, 3152.542
293.3694, 2849.134
293.8515, 2528.042
294.3336, 2231.846
294.8157, 1958.498
295.2978, 1715.353
295.7799, 1505.761
296.2621, 1325.480
296.7442, 1167.191
297.2263, 1028.642
297.7084, 908.6777
298.1905, 810.2207
298.6726, 732.8276
299.1548, 663.8525
299.6369, 593.6797
300.1190, 525.5264
300.6011, 467.4907
301.0832, 421.8740
301.5653, 384.7422
302.0475, 353.3911
302.5296, 327.6436
303.0117, 303.4067
303.4938, 270.0376
303.9759, 236.9316
304.4580, 220.7686
304.9402, 230.5073
305.4223, 243.7080
305.9044, 236.5068
306.3865, 214.4839
306.8686, 195.4751
307.3507, 189.6313
307.8329, 191.3062
308.3150, 196.7056
308.7971, 208.3496
309.2792, 215.3760
309.7613, 207.8516
310.2434, 189.3555
310.7256, 167.8066
311.2077, 140.3389
311.6898, 115.6416
312.1719, 104.0254
312.6540, 109.7217
313.1361, 113.0713
313.6183, 86.35742
314.1004, 51.70215
314.5825, 45.35645
315.0646, 118.9707
315.5467, 196.2715
316.0288, 231.2676
316.5110, 213.9766
316.9931, 195.5469
317.4752, 186.1660
317.9573, 188.6016
318.4394, 205.2246
318.9215, 258.6660
319.4037, 306.8213
319.8858, 328.6953
320.3679, 319.5957
320.8500, 319.4961
321.3321, 336.1660
321.8142, 367.9502
322.2964, 412.5811
322.7785, 487.0762
323.2606, 556.8789
323.7427, 608.5811
324.2248, 641.3857
324.7069, 687.8936
325.1891, 753.0664
325.6712, 832.3408
326.1533, 922.3525
326.6354, 1061.762
327.1175, 1168.421
327.5996, 1223.077
328.0818, 1229.863
328.5639, 1243.351
329.0460, 1299.480
329.5281, 1333.485
330.0102, 1304.936
330.4923, 1171.782
330.9745, 1041.196
331.4566, 917.2588
331.9387, 800.5967
332.4208, 696.8311
332.9029, 612.3389
333.3850, 533.6201
333.8672, 451.8730
334.3493, 359.1162
334.8314, 285.6846
335.3135, 236.4346
335.7956, 205.8037
336.2777, 179.8965
336.7599, 157.7061
337.2420, 142.6074
337.7241, 138.3555
338.2062, 147.8350
338.6883, 152.1699
339.1704, 151.4287
339.6526, 145.2676
340.1347, 132.4092
340.6168, 112.4072
341.0989, 88.74805
341.5810, 59.97461
342.0631, 26.62305
342.5453, 1.670898
343.0274, 15.99121
343.5095, 22.26660
343.9916, 6.237305
344.4737, 31.04102
344.9558, 63.26953
345.4380, 80.27637
345.9201, 85.82422
346.4022, 95.32324
346.8843, 109.6836
347.3664, 117.2891
347.8485, 98.76855
348.3307, 62.27539
348.8128, 39.57617
349.2949, 45.51855
349.7770, 64.29102
350.2591, 69.84570
350.7412, 63.08984
351.2234, 53.62891
351.7055, 49.97070
352.1876, 48.25879
352.6697, 41.30762
353.1519, 25.84668
353.6340, 7.728516
354.1161, 13.45605
354.5982, 34.13477
355.0803, 41.22852
355.5624, 11.17773
356.0446, 28.28613
356.5267, 46.19629
357.0088, 31.20605
357.4909, 14.89160
357.9730, 25.01074
358.4551, 48.40137
358.9373, 58.78711
359.4194, 29.43359
359.9015, 4.666016
360.3836, 21.44629
360.8657, 16.19531
361.3478, 9.597656
361.8300, 11.81738
362.3121, 16.45898
362.7942, 15.82227
363.2763, 2.918945
363.7584, 10.90430
364.2405, 24.60645
364.7227, 38.37109
365.2048, 43.17676
365.6869, 30.79590
366.1690, 12.32227
366.6511, 3.831055
367.1332, 20.60156
367.6154, 30.69727
368.0975, 28.29492
368.5796, 15.78320
369.0617, 12.17188
369.5438, 31.55566
370.0259, 46.91699
370.5081, 43.19043
370.9902, 7.931641
371.4723, 24.85352
371.9544, 61.38770
372.4365, 93.50195
372.9186, 95.95605
373.4008, 49.66016
373.8829, 6.820313
374.3650, 4.999023
374.8471, 23.44824
375.3292, 38.17676
375.8113, 36.16992
376.2935, 24.70410
376.7756, 11.83203
377.2577, 3.627930
377.7398, 9.815430
378.2219, 1.342773
378.7040, 27.27637
379.1862, 38.93945
379.6683, 34.42188
380.1504, 26.12695
380.6325, 29.00195
381.1146, 42.60059
381.5967, 52.54688
382.0789, 51.67188
382.5610, 44.80176
383.0431, 44.76172
383.5252, 51.40430
384.0073, 57.19141
384.4894, 49.32520
384.9716, 37.43750
385.4537, 46.58203
385.9358, 90.15332
386.4179, 135.9238
386.9000, 139.3955
387.3821, 112.5713
387.8643, 91.68945
388.3464, 108.6758
388.8285, 135.6982
389.3106, 141.2539
389.7927, 117.8271
390.2748, 97.27539
390.7570, 108.4619
391.2391, 134.0469
391.7212, 148.9297
392.2033, 120.6895
392.6854, 98.22070
393.1675, 111.1094
393.6497, 160.6475
394.1318, 208.3096
394.6139, 247.4297
395.0960, 276.4658
395.5781, 294.9170
396.0602, 286.3975
396.5424, 285.1104
397.0245, 301.3252
397.5066, 331.7422
397.9887, 358.1074
398.4708, 383.1836
398.9529, 400.4443
399.4351, 405.8037
399.9172, 384.2383
400.3993, 378.6543
400.8814, 399.2021
401.3635, 431.5947
401.8456, 446.2324
402.3278, 429.6182
402.8099, 417.4229
403.2920, 421.3477
403.7741, 442.3086
404.2562, 470.5615
404.7383, 508.1885
405.2205, 548.8008
405.7026, 585.6602
406.1847, 618.7129
406.6668, 648.8291
407.1489, 677.2207
407.6310, 702.1719
408.1132, 720.1299
408.5953, 731.7803
409.0774, 729.4961
409.5595, 696.9219
410.0416, 641.9150
410.5237, 602.7275
411.0059, 587.7148
411.4880, 585.3574
411.9701, 570.5361
412.4522, 548.8857
412.9343, 548.9639
413.4164, 612.6592
413.8986, 700.2373
414.3807, 749.4268
414.8628, 752.1240
415.3449, 749.5312
415.8270, 786.9902
416.3091, 838.8076
416.7913, 863.6045
417.2734, 850.0928
417.7555, 800.2383
418.2376, 691.8516
418.7197, 535.5107
419.2018, 404.8115
419.6840, 349.7979
420.1661, 322.3818
420.6482, 287.5791
421.1303, 223.4668
421.6124, 172.2734
422.0945, 152.5117
422.5767, 152.5469
423.0588, 142.1191
423.5409, 102.2471
424.0230, 64.80664
424.5052, 39.27734
424.9873, 25.17969
425.4694, 24.15039
425.9515, 48.22949
426.4336, 79.69629
426.9157, 94.00879
427.3979, 81.77441
427.8800, 68.91016
428.3621, 64.68555
428.8442, 69.10547
429.3263, 55.82324
429.8084, 15.62500
430.2906, 21.88770
430.7727, 30.77148
431.2548, 9.662109
431.7369, 12.40723
432.2190, 35.05859
432.7011, 53.45605
433.1833, 48.92578
433.6654, 22.41113
434.1475, 2.445313
434.6296, 14.99805
435.1117, 16.87109
435.5938, 5.480469
436.0760, 22.13965
436.5581, 45.96191
437.0402, 42.13672
437.5223, 19.17969
438.0044, 5.476563
438.4865, 31.75977
438.9687, 51.36133
439.4508, 54.48047
439.9329, 42.98633
440.4150, 27.35645
440.8971, 16.32617
441.3792, 2.043945
441.8614, 26.25684
442.3435, 88.12988
442.8256, 127.5479
443.3077, 102.0332
443.7898, 43.79590
444.2719, 11.38184
444.7541, 40.86816
445.2362, 77.55566
445.7183, 105.8018
446.2004, 125.6553
446.6825, 133.1152
447.1646, 114.2490
447.6468, 92.71680
448.1289, 87.91992
448.6110, 106.6787
449.0931, 130.8281
449.5752, 162.5420
450.0573, 197.9414
450.5395, 217.2969
451.0216, 212.4570
451.5037, 211.5742
451.9858, 232.4062
452.4679, 276.3936
452.9500, 317.9180
453.4322, 357.2266
453.9143, 390.7822
454.3964, 408.5234
454.8785, 411.7002
455.3606, 421.9023
455.8427, 456.0225
456.3249, 498.2666
456.8070, 509.4385
457.2891, 490.6953
457.7712, 464.7393
458.2533, 446.7998
458.7354, 434.2188
459.2176, 422.8408
459.6997, 411.9717
460.1818, 401.8086
460.6639, 390.6729
461.1460, 380.3936
461.6281, 374.9785
462.1103, 373.6123
462.5924, 379.7822
463.0745, 395.8496
463.5566, 422.2031
464.0387, 456.2021
464.5208, 500.2891
465.0030, 550.4727
465.4851, 603.0645
465.9672, 665.6621
466.4493, 722.0176
466.9314, 758.1982
467.4135, 783.6475
467.8957, 840.4727
468.3778, 944.9463
468.8599, 1059.958
469.3420, 1171.096
469.8241, 1278.234
470.3062, 1378.964
470.7884, 1464.502
471.2705, 1555.737
471.7526, 1686.201
472.2347, 1860.571
472.7168, 2035.160
473.1989, 2196.205
473.6811, 2349.099
474.1632, 2512.881
474.6453, 2686.272
475.1274, 2865.471
475.6095, 3040.481
476.0916, 3218.757
476.5738, 3427.716
477.0559, 3681.528
477.5380, 3931.742
478.0201, 4153.172
478.5022, 4330.424
478.9843, 4425.834
479.4665, 4429.708
479.9486, 4339.452
480.4307, 4121.882
480.9128, 3779.986
481.3949, 3433.602
481.8770, 3125.245
482.3592, 2839.560
482.8413, 2560.332
483.3234, 2267.553
483.8055, 2003.550
484.2876, 1785.983
484.7697, 1603.851
485.2519, 1433.066
485.7340, 1252.375
486.2161, 1104.605
486.6982, 1002.439
487.1803, 949.4502
487.6624, 913.5225
488.1446, 899.4150
488.6267, 893.8643
489.1088, 883.9014
489.5909, 865.6855
490.0730, 860.1816
490.5551, 872.1963
491.0373, 897.0400
491.5194, 920.0957
492.0015, 940.8809
492.4836, 977.2822
492.9657, 1046.170
493.4479, 1139.825
493.9300, 1230.524
494.4121, 1316.126
494.8942, 1408.068
495.3763, 1507.800
495.8585, 1621.520
496.3406, 1763.432
496.8227, 1943.034
497.3048, 2140.102
497.7869, 2334.321
498.2690, 2534.332
498.7512, 2753.126
499.2333, 3008.312
499.7154, 3275.105
500.1975, 3533.639
500.6796, 3775.649
501.1617, 4037.624
501.6439, 4317.160
502.1260, 4624.962
502.6081, 4974.280
503.0902, 5390.659
503.5723, 5809.918
504.0544, 6232.266
504.5366, 6653.850
505.0187, 7070.283
505.5008, 7495.557
505.9829, 7883.566
506.4650, 8244.480
506.9471, 8591.116
507.4293, 8734.279
507.9114, 8665.793
508.3935, 8415.740
508.8756, 7979.774
509.3577, 7375.117
509.8398, 6720.999
510.3220, 6029.659
510.8041, 5341.598
511.2862, 4719.076
511.7683, 4160.672
512.2504, 3658.298
512.7325, 3205.200
513.2147, 2804.742
513.6968, 2472.084
514.1789, 2212.523
514.6610, 1985.891
515.1431, 1768.957
515.6252, 1573.241
516.1074, 1412.415
516.5895, 1316.788
517.0716, 1228.108
517.5537, 1133.008
518.0358, 1032.234
518.5179, 934.0195
519.0001, 820.0742
519.4822, 727.7070
519.9643, 677.0586
520.4464, 686.5684
520.9285, 670.1064
521.4106, 618.7920
521.8928, 552.6279
522.3749, 492.2900
522.8570, 436.5713
523.3391, 395.2002
523.8212, 373.2998
524.3033, 364.7754
524.7855, 360.0488
525.2676, 358.3926
525.7497, 341.9131
526.2318, 279.5820
526.7139, 199.0791
527.1960, 158.8955
527.6782, 165.5000
528.1603, 186.4736
528.6424, 194.2705
529.1245, 194.0273
529.6066, 194.0615
530.0887, 205.7148
530.5709, 208.2041
531.0530, 179.2227
531.5351, 131.0820
532.0172, 103.1016
532.4993, 136.7422
532.9814, 165.1289
533.4636, 155.2949
533.9457, 93.09668
534.4278, 48.53613
534.9099, 30.05273
535.3920, 22.12793
535.8741, 10.64941
536.3563, 7.700195
536.8384, 19.49609
537.3205, 23.29199
537.8026, 19.22754
538.2847, 4.462891
538.7668, 21.69824
539.2490, 45.48535
539.7311, 61.56055
540.2132, 70.38965
540.6953, 67.72949
541.1774, 50.11426
541.6595, 35.17578
542.1417, 44.57520
542.6238, 63.65918
543.1059, 67.17090
543.5880, 42.15723
544.0701, 15.26074
544.5522, 0.3847660
545.0344, 1.693359
545.5165, 7.399414
545.9986, 44.78027
546.4807, 74.32422
546.9628, 76.52832
547.4449, 50.00781
547.9271, 35.15332
548.4092, 52.29785
548.8913, 68.92676
549.3734, 64.48438
549.8555, 23.12891
550.3376, 1.493164
550.8198, 4.178711
551.3019, 5.500977
551.7840, 15.33496
552.2661, 26.32812
552.7482, 22.93652
553.2303, 7.972656
553.7125, 50.91895
554.1946, 57.63867
554.6767, 29.85059
555.1588, 1.061523
555.6409, 16.67578
556.1230, 20.51270
556.6052, 14.70801
557.0873, 2.062500
557.5694, 15.04980
558.0515, 8.052734
558.5336, 9.209961
559.0157, 21.16504
559.4979, 11.05371
559.9800, 3.895508
560.4621, 18.17090
560.9442, 45.07031
561.4263, 55.62598
561.9084, 23.36426
562.3906, 3.442383
562.8727, 9.000977
563.3548, 9.448242
563.8369, 26.69141
564.3190, 44.02832
564.8011, 57.78027
565.2833, 63.05371
565.7654, 58.74414
566.2475, 58.88770
566.7296, 66.08301
567.2117, 76.30469
567.6938, 83.94727
568.1760, 88.86621
568.6581, 90.71777
569.1402, 88.79297
569.6223, 83.92188
570.1044, 69.37793
570.5865, 48.36719
571.0687, 45.25293
571.5508, 100.3105
572.0329, 164.2646
572.5150, 191.6963
572.9971, 163.6309
573.4792, 141.4512
573.9614, 143.9043
574.4435, 161.4238
574.9256, 183.3447
575.4077, 221.4414
575.8898, 246.7188
576.3719, 250.9404
576.8541, 240.6162
577.3362, 238.9531
577.8183, 250.3047
578.3004, 258.2998
578.7825, 253.5566
579.2646, 237.5186
579.7468, 229.3613
580.2289, 229.9492
580.7110, 232.8379
581.1931, 235.8633
581.6752, 236.6309
582.1573, 228.3516
582.6395, 209.3887
583.1216, 182.3584
583.6037, 145.4785
584.0858, 103.0732
584.5679, 61.95215
585.0500, 4.600586
585.5322, 31.29883
586.0143, 9.966797
586.4964, 58.70801
586.9785, 100.3545
587.4606, 77.24805
587.9427, 43.14844
588.4249, 20.06055
588.9070, 8.005859
589.3891, 8.091797
589.8712, 27.87695
590.3533, 49.79492
590.8354, 53.23535
591.3176, 35.44922
591.7997, 24.36426
592.2818, 25.62500
592.7639, 33.69824
593.2460, 38.29395
593.7281, 40.19043
594.2103, 44.48438
594.6924, 54.23438
595.1745, 67.35547
595.6566, 89.52344
596.1387, 118.0830
596.6208, 125.7842
597.1030, 65.49902
597.5851, 1.243164
598.0672, 21.05078
598.5493, 34.21875
599.0315, 73.82031
599.5136, 63.31543
599.9957, 33.14160
600.4778, 18.34082
600.9600, 34.66309
601.4421, 39.16504
601.9242, 20.13086
602.4063, 10.81836
602.8884, 19.61719
603.3705, 2.261719
603.8527, 17.63086
604.3348, 33.19531
604.8169, 43.26270
605.2990, 38.24121
605.7811, 18.19336
606.2632, 0.8271480
606.7454, 6.207031
607.2275, 21.71582
607.7096, 25.47559
608.1917, 11.74609
608.6738, 0.6054690
609.1559, 1.225586
609.6381, 7.337891
610.1202, 22.21191
610.6023, 60.45605
611.0844, 84.30664
611.5665, 73.63770
612.0486, 41.30078
612.5308, 22.94531
613.0129, 23.18945
613.4950, 29.45996
613.9771, 43.64355
614.4592, 64.47852
614.9413, 57.34277
615.4235, 14.93750
615.9056, 25.41406
616.3877, 36.79492
616.8698, 22.99707
617.3519, 8.208984
617.8340, 60.17578
618.3162, 105.0156
618.7983, 102.7090
619.2804, 75.12305
619.7625, 60.20996
620.2446, 80.84180
620.7267, 102.8564
621.2089, 104.7910
621.6910, 94.14844
622.1731, 91.11035
622.6552, 111.4834
623.1373, 129.3486
623.6194, 135.3174
624.1016, 129.6396
624.5837, 127.8135
625.0658, 130.8809
625.5479, 136.0400
626.0300, 141.7227
626.5121, 147.8672
626.9943, 153.8457
627.4764, 158.8701
627.9585, 168.7891
628.4406, 202.5967
628.9227, 249.7588
629.4048, 274.3828
629.8870, 261.0020
630.3691, 234.5029
630.8512, 210.3984
631.3333, 193.0918
631.8154, 191.3232
632.2975, 225.8428
632.7797, 259.9531
633.2618, 277.0576
633.7439, 278.2041
634.2260, 278.2637
634.7081, 275.8965
635.1902, 276.1113
635.6724, 283.6797
636.1545, 301.9521
636.6366, 301.8545
637.1187, 276.5928
637.6008, 248.9209
638.0829, 241.6738
638.5651, 253.6689
639.0472, 267.2373
639.5293, 278.1953
640.0114, 284.8594
640.4935, 285.2871
640.9756, 280.5176
641.4578, 272.6299
641.9399, 252.9053
642.4220, 240.0928
642.9041, 250.1533
643.3862, 275.3154
643.8683, 300.5156
644.3505, 325.0752
644.8326, 343.5410
645.3147, 349.2002
645.7968, 341.9795
646.2789, 336.8125
646.7610, 333.5059
647.2432, 332.2588
647.7253, 335.3613
648.2074, 343.4980
648.6895, 342.1475
649.1716, 329.6250
649.6537, 313.3838
650.1359, 303.2930
650.6180, 296.5771
651.1001, 283.2939
651.5822, 259.9238
652.0643, 231.4580
652.5464, 196.5576
653.0286, 160.6982
653.5107, 133.8623
653.9928, 111.3818
654.4749, 108.0342
654.9570, 151.8994
655.4391, 229.9727
655.9213, 252.6553
656.4034, 171.0322
656.8855, 99.25293
657.3676, 86.57910
657.8497, 136.6475
658.3318, 152.5205
658.8140, 126.3965
659.2961, 97.42773
659.7782, 106.8770
660.2603, 142.0107
660.7424, 148.0215
661.2245, 116.8252
661.7067, 82.58301
662.1888, 83.33887
662.6709, 101.7295
663.1530, 110.4551
663.6351, 95.51074
664.1172, 77.10059
664.5994, 60.55469
665.0815, 48.25098
665.5636, 44.50781
666.0457, 55.07031
666.5278, 68.57812
667.0099, 89.19336
667.4921, 113.2275
667.9742, 114.4883
668.4563, 86.49609
668.9384, 57.67773
669.4205, 39.12207
669.9026, 31.24121
670.3848, 40.07422
670.8669, 66.02148
671.3490, 90.70605
671.8311, 97.54492
672.3132, 94.87695
672.7953, 95.61621
673.2775, 103.2676
673.7596, 103.3584
674.2417, 76.80078
674.7238, 48.51465
675.2059, 42.79004
675.6880, 92.81934
676.1702, 124.4043
676.6523, 124.1152
677.1344, 107.6113
677.6165, 104.5039
678.0986, 121.0938
678.5807, 126.3535
679.0629, 109.2549
679.5450, 78.37500
680.0271, 52.32324
680.5092, 31.72656
680.9913, 25.70605
681.4734, 48.89062
681.9556, 83.58301
682.4377, 116.8906
682.9198, 145.7148
683.4019, 149.7148
683.8840, 89.23145
684.3661, 21.31348
684.8483, 14.25586
685.3304, 3.447266
685.8125, 2.465820
686.2946, 4.423828
686.7767, 12.84961
687.2589, 13.78320
687.7410, 4.788086
688.2231, 0.2597660
688.7052, 3.615234
689.1873, 5.484375
689.6694, 13.21875
690.1516, 47.06055
690.6337, 67.44629
691.1158, 62.56152
691.5979, 49.00195
692.0800, 40.98730
692.5621, 38.01074
693.0443, 38.78027
693.5264, 48.64746
694.0085, 56.22168
694.4906, 59.51172
694.9727, 57.42969
695.4548, 42.40234
695.9370, 9.567383
696.4191, 40.28418
696.9012, 19.01172
697.3833, 50.24316
697.8654, 73.92188
698.3475, 44.01855
698.8297, 15.26172
699.3118, 41.86230
699.7939, 100.4609
700.2760, 118.4941
700.7581, 90.30762
701.2402, 50.71875
701.7224, 5.191406
702.2045, 26.02930
702.6866, 14.49316
703.1687, 71.91602
703.6508, 137.8516
704.1329, 150.4141
704.6151, 129.8955
705.0972, 100.2852
705.5793, 50.99219
706.0614, 15.26660
706.5435, 4.352539
707.0256, 8.105469
707.5078, 12.31641
707.9899, 56.65723
708.4720, 84.33398
708.9541, 74.74902
709.4362, 49.99219
709.9183, 46.43164
710.4005, 58.96875
710.8826, 70.36426
711.3647, 65.23633
711.8468, 61.59668
712.3289, 73.36426
712.8110, 99.48047
713.2932, 121.3467
713.7753, 135.9785
714.2574, 145.1973
714.7395, 149.7549
715.2216, 149.6689
715.7037, 145.3223
716.1859, 137.9824
716.6680, 122.3516
717.1501, 86.04688
717.6322, 36.11133
718.1143, 2.477539
718.5964, 12.51660
719.0786, 9.465820
719.5607, 29.00195
720.0428, 78.18848
720.5249, 104.9414
721.0070, 94.92285
721.4891, 78.42188
721.9713, 61.24219
722.4534, 45.71191
722.9355, 35.37012
723.4176, 34.25586
723.8997, 30.87109
724.3818, 23.28613
724.8640, 13.65234
725.3461, 4.878906
725.8282, 3.106445
726.3103, 5.955078
726.7924, 3.257813
727.2745, 6.527344
727.7567, 33.41992
728.2388, 70.86133
728.7209, 98.24023
729.2030, 102.3057
729.6851, 95.00098
730.1672, 74.69336
730.6494, 45.53223
731.1315, 33.56836
731.6136, 64.71289
732.0957, 92.36523
732.5778, 101.9424
733.0599, 93.88965
733.5421, 76.35254
734.0242, 46.34473
734.5063, 21.16406
734.9884, 14.82910
735.4705, 23.09570
735.9526, 33.70020
736.4348, 46.46094
736.9169, 54.97266
737.3990, 46.70508
737.8811, 35.72656
738.3632, 38.15527
738.8453, 60.81055
739.3275, 81.35059
739.8096, 99.65137
740.2917, 109.0693
740.7739, 101.6963
741.2560, 60.90039
741.7381, 46.46191
742.2202, 70.07129
742.7023, 104.0137
743.1844, 108.5029
743.6666, 87.19336
744.1487, 74.19043
744.6308, 80.45605
745.1129, 89.66504
745.5950, 77.47461
746.0771, 54.79883
746.5593, 43.55566
747.0414, 54.01562
747.5235, 75.41699
748.0056, 111.2070
748.4877, 154.5654
748.9698, 187.4316
749.4520, 205.9043
749.9341, 218.7266
750.4162, 223.8037
750.8983, 226.0303
751.3804, 246.8447
751.8625, 286.2344
752.3447, 320.7725
752.8268, 329.3984
753.3089, 330.9121
753.7910, 361.2939
754.2731, 413.5713
754.7552, 463.0205
755.2374, 488.8350
755.7195, 510.4756
756.2016, 537.0439
756.6837, 569.4102
757.1658, 610.9023
757.6479, 661.2441
758.1301, 720.8525
758.6122, 795.8486
759.0943, 887.9619
759.5764, 946.3125
760.0585, 965.0078
760.5406, 985.7510
761.0228, 1051.305
761.5049, 1139.545
761.9870, 1209.741
762.4691, 1258.197
762.9512, 1284.672
763.4333, 1294.193
763.9155, 1278.567
764.3976, 1225.846
764.8797, 1112.974
765.3618, 1016.280
765.8439, 952.8936
766.3260, 894.5625
766.8082, 810.4395
767.2903, 693.7148
767.7724, 603.9756
768.2545, 548.7432
768.7366, 512.5771
769.2188, 484.0801
769.7009, 458.9170
770.1830, 425.6035
770.6651, 378.9639
771.1472, 329.4619
771.6293, 280.8066
772.1115, 234.7783
772.5936, 193.8359
773.0757, 150.3613
773.5578, 124.2549
774.0399, 128.4570
774.5220, 143.4072
775.0042, 129.3057
775.4863, 79.71191
775.9684, 48.43750
776.4505, 51.83203
776.9326, 72.74316
777.4147, 85.46484
777.8969, 89.64258
778.3790, 84.67578
778.8611, 58.11621
779.3432, 34.02148
779.8253, 25.86426
780.3074, 31.96191
780.7896, 47.99414
781.2717, 103.5625
781.7538, 130.7256
782.2359, 103.2559
782.7180, 39.54297
783.2001, 14.53418
783.6823, 33.21094
784.1644, 48.89746
784.6465, 35.76367
785.1286, 10.66699
785.6107, 9.746094
786.0928, 28.62109
786.5750, 46.95020
787.0571, 46.28516
787.5392, 47.97461
788.0213, 78.82910
788.5034, 134.1494
788.9855, 146.9229
789.4677, 71.39355
789.9498, 4.990234
790.4319, 15.71582
790.9140, 5.403320
791.3961, 22.40527
791.8782, 35.72266
792.3604, 38.66504
792.8425, 16.81152
793.3246, 14.07812
793.8067, 27.99023
794.2888, 25.85156
794.7709, 10.28418
795.2531, 35.12988
795.7352, 80.36914
796.2173, 104.6777
796.6994, 104.1855
797.1815, 93.14160
797.6636, 57.80664
798.1458, 34.40137
798.6279, 53.34961
799.1100, 114.1416
799.5921, 131.9150
800.0742, 103.9180
800.5563, 74.00195
801.0385, 77.85645
801.5206, 101.8125
802.0027, 129.0645
802.4848, 158.2207
802.9669, 183.3711
803.4490, 194.8857
803.9312, 206.6123
804.4133, 229.1846
804.8954, 264.6885
805.3775, 303.8662
805.8596, 349.0264
806.3417, 393.3223
806.8239, 423.1914
807.3060, 443.5381
807.7881, 501.7959
808.2702, 603.9951
808.7523, 699.3467
809.2344, 735.7402
809.7166, 743.9443
810.1987, 757.2100
810.6808, 780.9365
811.1629, 811.4961
811.6450, 840.1592
812.1271, 881.1074
812.6093, 949.0469
813.0914, 1062.032
813.5735, 1141.989
814.0556, 1186.027
814.5377, 1204.516
815.0198, 1207.767
815.5020, 1194.846
815.9841, 1159.927
816.4662, 1100.369
816.9483, 1031.731
817.4304, 963.1748
817.9125, 892.4033
818.3947, 816.9844
818.8768, 740.1250
819.3589, 652.2900
819.8410, 537.5898
820.3231, 427.5166
820.8052, 353.7539
821.2874, 317.1816
821.7695, 297.0615
822.2516, 294.7617
822.7337, 290.8105
823.2158, 254.1602
823.6979, 204.6406
824.1801, 181.3604
824.6622, 199.6758
825.1443, 218.1113
825.6264, 220.8779
826.1085, 210.5459
826.5906, 188.1426
827.0728, 142.6494
827.5549, 107.7256
828.0370, 82.34082
828.5191, 68.75488
829.0012, 78.06738
829.4833, 105.5879
829.9655, 109.5391
830.4476, 80.76270
830.9297, 48.50781
831.4118, 43.97852
831.8939, 50.90918
832.3760, 47.03516
832.8582, 17.39746
833.3403, 1.789063
833.8224, 5.651367
834.3045, 22.76172
834.7866, 36.48047
835.2687, 46.99219
835.7509, 52.38574
836.2330, 51.36523
836.7151, 49.48242
837.1972, 53.55664
837.6793, 61.74707
838.1614, 70.90430
838.6436, 81.67871
839.1257, 87.92871
839.6078, 83.79102
840.0899, 74.40527
840.5720, 64.62305
841.0541, 54.82031
841.5363, 45.26855
842.0184, 34.54590
842.5005, 25.94238
842.9826, 22.36523
843.4647, 24.04395
843.9468, 36.59863
844.4290, 62.03809
844.9111, 88.03516
845.3932, 107.5078
845.8753, 117.7637
846.3574, 111.2783
846.8395, 77.79199
847.3217, 58.29297
847.8038, 77.71484
848.2859, 104.4814
848.7680, 119.9102
849.2501, 126.0439
849.7322, 105.7393
850.2144, 52.00781
850.6965, 2.000977
851.1786, 18.08301
851.6607, 10.33691
852.1428, 10.13770
852.6249, 21.87402
853.1071, 30.50781
853.5892, 24.70605
854.0713, 13.19629
854.5534, 2.786133
855.0355, 5.063477
855.5176, 12.49609
855.9998, 14.00098
856.4819, 24.66992
856.9640, 71.82227
857.4461, 147.6875
857.9282, 159.9482
858.4103, 100.1016
858.8925, 35.61133
859.3746, 34.24707
859.8567, 57.88477
860.3388, 66.68652
860.8209, 54.03223
861.3030, 45.54785
861.7852, 54.39648
862.2673, 62.51758
862.7494, 59.79395
863.2315, 45.28516
863.7136, 35.89355
864.1957, 31.21094
864.6779, 35.28613
865.1600, 64.04199
865.6421, 97.89160
866.1242, 94.98145
866.6063, 56.88379
867.0884, 30.86914
867.5706, 54.07227
868.0527, 84.45605
868.5348, 99.41113
869.0169, 99.22559
869.4990, 90.36621
869.9811, 67.23828
870.4633, 50.24902
870.9454, 55.85449
871.4275, 75.21191
871.9096, 70.10254
872.3917, 45.31445
872.8738, 33.93262
873.3560, 71.82324
873.8381, 115.7080
874.3202, 139.9678
874.8023, 144.2393
875.2844, 133.9902
875.7665, 101.7852
876.2487, 70.99316
876.7308, 49.85156
877.2129, 35.28320
877.6950, 11.22852
878.1771, 20.70703
878.6592, 39.32812
879.1414, 31.67871
879.6235, 8.182617
880.1056, 35.95996
880.5877, 88.18066
881.0698, 114.6895
881.5520, 69.40430
882.0341, 40.79492
882.5162, 56.78809
882.9984, 97.14844
883.4805, 110.8389
883.9626, 96.19141
884.4447, 80.81055
884.9268, 71.44922
885.4089, 67.41016
885.8911, 74.77637
886.3732, 85.63672
886.8553, 84.07422
887.3374, 49.66016
887.8195, 24.98535
888.3016, 22.57324
888.7838, 28.69922
889.2659, 28.68359
889.7480, 17.39648
890.2301, 25.46582
890.7122, 63.02051
891.1943, 103.3057
891.6765, 105.0547
892.1586, 83.36133
892.6407, 73.38477
893.1228, 86.91406
893.6049, 100.0332
894.0870, 96.23242
894.5692, 87.86426
895.0513, 88.54590
895.5334, 108.7900
896.0155, 108.9121
896.4976, 81.05664
896.9797, 52.35254
897.4619, 55.89648
897.9440, 80.75977
898.4261, 81.35547
898.9082, 52.93066
899.3903, 37.59570
899.8724, 88.29883
900.3546, 146.5332
900.8367, 163.1777
901.3188, 123.0234
901.8009, 96.66895
902.2830, 90.76660
902.7651, 88.29785
903.2473, 80.49609
903.7294, 67.89648
904.2115, 48.27637
904.6936, 22.78613
905.1757, 8.471680
905.6578, 27.06152
906.1400, 52.75977
906.6221, 67.17969
907.1042, 70.21387
907.5863, 68.91309
908.0684, 59.56250
908.5505, 52.75293
909.0327, 51.50879
909.5148, 56.41406
909.9969, 63.48047
910.4790, 72.03223
910.9611, 83.11523
911.4432, 102.3145
911.9254, 120.8477
912.4075, 134.6895
912.8896, 140.4541
913.3717, 130.9365
913.8538, 93.40820
914.3359, 52.08984
914.8181, 1.946289
915.3002, 47.92090
915.7823, 41.91797
916.2644, 14.32812
916.7465, 68.12207
917.2286, 111.9980
917.7108, 135.7246
918.1929, 112.9834
918.6750, 69.16406
919.1571, 38.12695
919.6392, 29.37988
920.1213, 31.45215
920.6035, 51.82617
921.0856, 72.49902
921.5677, 75.66211
922.0498, 60.14551
922.5319, 58.21484
923.0140, 72.57520
923.4962, 86.93848
923.9783, 87.22168
924.4604, 79.10840
924.9425, 68.99609
925.4246, 57.80566
925.9067, 43.53809
926.3889, 16.01270
926.8710, 4.812500
927.3531, 11.91602
927.8352, 5.259766
928.3173, 22.86719
928.7994, 73.29492
929.2816, 108.2441
929.7637, 88.47656
930.2458, 51.83008
930.7279, 46.48828
931.2100, 65.20703
931.6921, 79.71680
932.1743, 72.69922
932.6564, 69.40430
933.1385, 80.74121
933.6206, 97.62207
934.1027, 92.18457
934.5848, 63.36523
935.0670, 47.89551
935.5491, 58.89941
936.0312, 77.83691
936.5133, 95.17480
936.9954, 105.5723
937.4775, 96.73438
937.9597, 36.79102
938.4418, 2.028320
938.9239, 23.97559
939.4060, 58.74316
939.8881, 58.13770
940.3702, 20.59570
940.8524, 7.8130001E-03
941.3345, 1.661133
941.8166, 9.802734
942.2987, 8.784180
942.7808, 6.039063
943.2629, 16.01465
943.7451, 43.25195
944.2272, 48.73535
944.7093, 12.03516
945.1914, 57.67480
945.6735, 43.87305
946.1556, 23.23828
946.6378, 59.45508
947.1199, 64.80469
947.6020, 61.38184
948.0841, 60.34473
948.5662, 59.87891
949.0483, 53.36621
949.5305, 44.71094
950.0126, 47.43848
950.4947, 78.25195
950.9768, 105.2090
951.4589, 124.2988
951.9410, 134.8350
952.4232, 131.6660
952.9053, 116.1006
953.3874, 104.5312
953.8695, 103.0967
954.3516, 102.2471
954.8337, 89.95703
955.3159, 73.61719
955.7980, 62.26172
956.2801, 54.97070
956.7622, 59.95996
957.2443, 85.78711
957.7264, 111.7070
958.2086, 118.7910
958.6907, 108.2139
959.1728, 80.94043
959.6549, 37.09180
960.1370, 14.30957
960.6191, 68.10059
961.1013, 134.9404
961.5834, 160.6523
962.0655, 140.6357
962.5476, 116.7139
963.0297, 77.64062
963.5118, 64.70117
963.9940, 102.1729
964.4761, 173.2861
964.9582, 230.4277
965.4403, 272.0176
965.9224, 296.3516
966.4045, 282.5176
966.8867, 272.1973
967.3688, 294.6641
967.8509, 336.0039
968.3330, 369.6006
968.8151, 393.8105
969.2972, 407.6162
969.7794, 404.0830
970.2615, 405.5703
970.7436, 452.6143
971.2257, 526.6650
971.7078, 581.2529
972.1899, 605.3682
972.6721, 623.8623
973.1542, 647.6514
973.6363, 672.8164
974.1184, 696.5781
974.6005, 715.0439
975.0826, 738.1875
975.5648, 765.9990
976.0469, 799.7275
976.5290, 850.7949
977.0111, 902.9111
977.4932, 927.1943
977.9753, 927.4238
978.4575, 921.6885
978.9396, 931.6963
979.4217, 919.5244
979.9038, 863.7773
980.3859, 782.0576
980.8680, 712.2168
981.3502, 655.0059
981.8323, 603.8018
982.3144, 557.9746
982.7965, 515.3506
983.2786, 475.5234
983.7607, 437.1846
984.2429, 397.0146
984.7250, 348.9102
985.2071, 313.1289
985.6892, 303.1699
986.1713, 293.2959
986.6534, 258.6885
987.1356, 201.3896
987.6177, 162.1904
988.0998, 141.6934
988.5819, 130.7451
989.0640, 126.1025
989.5461, 125.8164
990.0283, 130.9766
990.5104, 140.2803
990.9925, 143.9980
991.4746, 141.2949
991.9567, 133.8174
992.4388, 121.1484
992.9210, 104.6963
993.4031, 76.72363
993.8852, 46.65527
994.3673, 51.12012
994.8494, 128.4277
995.3315, 187.7998
995.8137, 159.1348
996.2958, 98.09180
996.7779, 71.33594
997.2600, 89.52930
997.7421, 88.48340
998.2242, 62.44727
998.7064, 39.43164
999.1885, 46.60449
999.6706, 71.83887
1000.153, 99.40527
1000.635, 127.1104
1001.117, 147.1592
1001.599, 156.7725
1002.081, 159.5781
1002.563, 145.4648
1003.045, 118.4229
1003.528, 124.4561
1004.010, 164.4668
1004.492, 184.6572
1004.974, 156.1631
1005.456, 119.9336
1005.938, 119.9238
1006.420, 140.1533
1006.902, 156.3496
1007.384, 166.2266
1007.867, 164.5049
1008.349, 140.2695
1008.831, 123.0928
1009.313, 156.1094
1009.795, 222.4736
1010.277, 237.8330
1010.759, 199.3643
1011.241, 169.2432
1011.724, 206.6309
1012.206, 247.3984
1012.688, 246.0557
1013.170, 208.4434
1013.652, 189.1006
1014.134, 191.1670
1014.616, 200.1240
1015.098, 215.4971
1015.580, 227.7168
1016.063, 212.8418
1016.545, 185.3906
1017.027, 171.7969
1017.509, 195.6211
1017.991, 206.7686
1018.473, 187.9805
1018.955, 158.7412
1019.437, 136.8711
1019.919, 122.2695
1020.402, 90.08398
1020.884, 38.80762
1021.366, 4.527344
1021.848, 23.32422
1022.330, 20.59082
1022.812, 13.69336
1023.294, 74.09180
1023.776, 107.4180
1024.259, 101.3770
1024.741, 88.73145
1025.223, 73.76367
1025.705, 63.78711
1026.187, 83.07129
1026.669, 119.8418
1027.151, 137.2822
1027.633, 112.6113
1028.115, 94.69141
1028.598, 113.9404
1029.080, 144.2979
1029.562, 162.8242
1030.044, 168.8203
1030.526, 167.8193
1031.008, 159.6953
1031.490, 145.6748
1031.972, 113.7646
1032.455, 85.20312
1032.937, 94.25195
1033.419, 133.1279
1033.901, 153.5449
1034.383, 127.4805
1034.865, 109.0352
1035.347, 112.1699
1035.829, 124.7031
1036.312, 117.7764
1036.794, 97.81934
1037.276, 94.99121
1037.758, 121.9727
1038.240, 145.6025
1038.722, 152.5615
1039.204, 141.6602
1039.686, 105.4873
1040.168, 38.17285
1040.651, 1.228516
1041.133, 2.927734
1041.615, 6.693359
1042.097, 25.82422
1042.579, 46.32910
1043.061, 54.45996
1043.543, 53.85449
1044.025, 56.44922
1044.507, 65.86328
1044.990, 80.77539
1045.472, 107.5771
1045.954, 131.7578
1046.436, 125.2178
1046.918, 93.75586
1047.400, 70.80371
1047.882, 62.19043
1048.364, 55.41504
1048.847, 34.83887
1049.329, 17.87207
1049.811, 22.26367
1050.293, 47.81055
1050.775, 59.93750
1051.257, 52.71191
1051.739, 66.69629
1052.221, 148.1084
1052.703, 229.8818
1053.186, 176.3408
1053.668, 47.07031
1054.150, 30.94043
1054.632, 48.10059
1055.114, 88.48145
1055.596, 48.25098
1056.078, 6.429688
1056.560, 3.125000
1057.042, 63.74805
1057.525, 92.05176
1058.007, 83.02832
1058.489, 56.16113
1058.971, 2.855469
1059.453, 49.97461
1059.935, 46.57227
1060.417, 3.164063
1060.899, 22.15723
1061.382, 27.63867
1061.864, 25.46777
1062.346, 16.91602
1062.828, 7.220703
1063.310, 2.715820
1063.792, 6.797852
1064.274, 7.463867
1064.756, 57.47363
1065.239, 85.73340
1065.721, 82.49902
1066.203, 65.27539
1066.685, 36.85938
1067.167, 3.721680
1067.649, 5.021484
1068.131, 35.65625
1068.613, 64.95020
1069.095, 80.68262
1069.578, 85.99023
1070.060, 80.27832
1070.542, 65.71191
1071.024, 43.30859
1071.506, 11.47754
1071.988, 14.52246
1072.470, 34.12207
1072.952, 36.54785
1073.434, 1.854492
1073.917, 54.17285
1074.399, 93.39160
1074.881, 115.8115
1075.363, 129.6094
1075.845, 140.2627
1076.327, 134.7100
1076.809, 99.10645
1077.291, 53.53418
1077.774, 52.40723
1078.256, 81.38867
1078.738, 101.9062
1079.220, 98.32031
1079.702, 86.53809
1080.184, 64.04590
1080.666, 44.82812
1081.148, 37.64258
1081.630, 42.41309
1082.113, 63.47949
1082.595, 100.4141
1083.077, 135.8135
1083.559, 168.0000
1084.041, 184.7734
1084.523, 165.1631
1085.005, 121.0596
1085.487, 95.40625
1085.969, 91.69629
1086.452, 99.31348
1086.934, 120.2266
1087.416, 139.8486
1087.898, 119.9551
1088.380, 95.03613
1088.862, 131.7178
1089.344, 249.9268
1089.826, 327.2881
1090.309, 318.0674
1090.791, 292.5205
1091.273, 272.1914
1091.755, 259.8477
1092.237, 264.7803
1092.719, 285.7227
1093.201, 319.4717
1093.683, 380.5605
1094.166, 427.7354
1094.648, 428.8779
1095.130, 414.6855
1095.612, 414.3789
1096.094, 427.9990
1096.576, 458.7959
1097.058, 507.5352
1097.540, 551.1543
1098.022, 578.8799
1098.505, 588.3242
1098.987, 565.2754
1099.469, 521.2383
1099.951, 501.9824
1100.433, 522.6953
1100.915, 529.2139
1101.397, 511.8496
1101.879, 481.1191
1102.362, 439.6660
1102.844, 398.3477
1103.326, 378.6338
1103.808, 385.2676
1104.290, 387.5352
1104.772, 375.1387
1105.254, 360.1201
1105.736, 344.4346
1106.219, 330.5342
1106.701, 330.2793
1107.183, 339.2344
1107.665, 341.4121
1108.147, 329.6445
1108.629, 305.6553
1109.111, 251.3379
1109.593, 199.2988
1110.075, 181.5049
1110.557, 201.5361
1111.040, 209.8340
1111.522, 206.5156
1112.004, 197.7969
1112.486, 193.8281
1112.968, 187.9053
1113.450, 165.2959
1113.932, 138.1123
1114.414, 143.4326
1114.897, 200.5078
1115.379, 225.3125
1115.861, 203.1611
1116.343, 167.4727
1116.825, 158.9473
1117.307, 157.3916
1117.789, 132.0781
1118.271, 84.00098
1118.754, 74.06934
1119.236, 141.7236
1119.718, 192.9346
1120.200, 198.3018
1120.682, 174.9473
1121.164, 148.0605
1121.646, 121.7129
1122.128, 109.4121
1122.610, 120.0928
1123.093, 123.9629
1123.575, 96.25098
1124.057, 72.14062
1124.539, 72.28027
1125.021, 93.72070
1125.503, 122.9434
1125.985, 155.7979
1126.467, 160.0596
1126.949, 86.63672
1127.432, 20.37500
1127.914, 19.02637
1128.396, 49.42383
1128.878, 60.55176
1129.360, 50.62207
1129.842, 27.60449
1130.324, 9.593750
1130.806, 39.49805
1131.289, 42.03906
1131.771, 30.43164
1132.253, 9.137695
1132.735, 18.24121
1133.217, 38.28125
1133.699, 48.34375
1134.181, 62.00098
1134.663, 85.19336
1135.146, 99.76074
1135.628, 70.58691
1136.110, 25.96387
1136.592, 7.054688
1137.074, 20.43164
1137.556, 33.95117
1138.038, 49.62891
1138.520, 56.14746
1139.002, 43.95898
1139.484, 27.67383
1139.967, 46.47559
1140.449, 84.71582
1140.931, 104.3896
1141.413, 89.79395
1141.895, 71.85156
1142.377, 44.64355
1142.859, 34.19922
1143.341, 67.65137
1143.824, 130.7588
1144.306, 149.3506
1144.788, 129.6221
1145.270, 103.7354
1145.752, 76.40723
1146.234, 59.06445
1146.716, 58.82129
1147.198, 69.70215
1147.681, 89.18848
1148.163, 117.2080
1148.645, 136.7617
1149.127, 146.9971
1149.609, 145.8408
1150.091, 113.6611
1150.573, 89.69629
1151.055, 107.7979
1151.537, 149.3262
1152.020, 164.2510
1152.502, 149.4551
1152.984, 138.5840
1153.466, 137.7480
1153.948, 133.0664
1154.430, 99.72852
1154.912, 64.75293
1155.394, 60.09277
1155.876, 86.08691
1156.359, 83.83008
1156.841, 42.38379
1157.323, 21.89941
1157.805, 43.61621
1158.287, 83.41699
1158.769, 120.0127
1159.251, 150.2959
1159.733, 171.0684
1160.216, 183.0732
1160.698, 173.1631
1161.180, 132.4453
1161.662, 94.14160
1162.144, 73.27246
1162.626, 66.80664
1163.108, 84.18555
1163.590, 109.0166
1164.073, 105.4814
1164.555, 26.30078
1165.037, 11.38867
1165.519, 16.41016
1166.001, 56.87891
1166.483, 72.08301
1166.965, 68.93262
1167.447, 62.06543
1167.929, 54.48145
1168.411, 57.16211
1168.894, 101.8252
1169.376, 115.6455
1169.858, 64.37598
1170.340, 9.470703
1170.822, 47.93652
1171.304, 146.3457
1171.786, 154.5400
1172.268, 69.64844
1172.751, 4.097656
1173.233, 13.80859
1173.715, 1.859375
1174.197, 36.21973
1174.679, 78.32617
1175.161, 110.3252
1175.643, 131.9912
1176.125, 139.8125
1176.608, 133.2520
1177.090, 114.2471
1177.572, 64.01758
1178.054, 22.50586
1178.536, 15.38672
1179.018, 32.66211
1179.500, 36.51270
1179.982, 28.52539
1180.464, 27.51172
1180.947, 40.69141
1181.429, 53.44238
1181.911, 50.88867
1182.393, 47.36719
1182.875, 56.03125
1183.357, 75.95898
1183.839, 91.41016
1184.321, 101.7363
1184.803, 89.48633
1185.286, 23.47266
1185.768, 33.33691
1186.250, 13.23047
1186.732, 37.98047
1187.214, 69.10254
1187.696, 77.54297
1188.178, 70.29980
1188.660, 45.91113
1189.143, 25.93652
1189.625, 20.72168
1190.107, 29.18652
1190.589, 65.01562
1191.071, 106.3232
1191.553, 116.2139
1192.035, 85.63770
1192.517, 60.75000
1193.000, 43.48340
1193.482, 28.95215
1193.964, 3.313477
1194.446, 20.61035
1194.928, 31.14160
1195.410, 121.8975
1195.892, 158.5625
1196.374, 126.6592
1196.856, 87.82129
1197.339, 45.01074
1197.821, 17.42383
1198.303, 39.12305
1198.785, 73.58398
1199.267, 85.20117
1199.749, 74.23340
1200.231, 59.11133
1200.713, 36.39160
1201.195, 28.60059
1201.678, 42.89160
1202.160, 60.47461
1202.642, 55.91992
1203.124, 45.18652
1203.606, 47.30859
1204.088, 64.27344
1204.570, 77.00293
1205.052, 84.41016
1205.535, 92.08301
1206.017, 106.0811
1206.499, 108.9834
1206.981, 58.84082
1207.463, 5.289063
1207.945, 32.91895
1208.427, 10.20312
1208.909, 17.55371
1209.391, 50.79590
1209.874, 84.04297
1210.356, 120.0059
1210.838, 145.4443
1211.320, 135.0674
1211.802, 103.3262
1212.284, 67.12891
1212.766, 19.18457
1213.248, 10.12793
1213.730, 47.97656
1214.213, 93.45508
1214.695, 136.6191
1215.177, 161.6045
1215.659, 122.2666
1216.141, 55.07031
1216.623, 28.32324
1217.105, 76.76953
1217.587, 113.8418
1218.070, 141.0420
1218.552, 149.7666
1219.034, 118.3867
1219.516, 76.43066
1219.998, 66.27051
1220.480, 77.41113
1220.962, 85.08301
1221.444, 86.43945
1221.927, 80.78223
1222.409, 67.07910
1222.891, 48.73145
1223.373, 25.28906
1223.855, 5.521484
1224.337, 5.293945
1224.819, 19.04883
1225.301, 26.01953
1225.783, 11.20508
1226.266, 32.24805
1226.748, 103.3594
1227.230, 167.1562
1227.712, 150.2500
1228.194, 106.9492
1228.676, 106.2383
1229.158, 139.4893
1229.640, 149.0264
1230.122, 126.0518
1230.605, 92.98730
1231.087, 48.70215
1231.569, 17.97754
1232.051, 40.77246
1232.533, 76.18262
1233.015, 74.75000
1233.497, 39.04492
1233.979, 21.16797
1234.462, 25.27148
1234.944, 37.11230
1235.426, 54.54199
1235.908, 74.00586
1236.390, 96.21582
1236.872, 115.4531
1237.354, 125.6943
1237.836, 126.1416
1238.318, 121.5244
1238.801, 111.1230
1239.283, 99.88770
1239.765, 87.81055
1240.247, 79.95801
1240.729, 98.75684
1241.211, 112.5986
1241.693, 68.91016
1242.175, 26.48438
1242.658, 33.52344
1243.140, 55.70020
1243.622, 127.7314
1244.104, 151.2607
1244.586, 153.8193
1245.068, 163.5996
1245.550, 162.9551
1246.032, 119.1758
1246.515, 37.33594
1246.997, 29.12109
1247.479, 95.54004
1247.961, 128.0830
1248.443, 69.37891
1248.925, 5.966797
1249.407, 3.324219
1249.889, 30.90625
1250.371, 68.62207
1250.854, 113.0332
1251.336, 132.7266
1251.818, 129.3740
1252.300, 121.9590
1252.782, 119.4648
1253.264, 112.6787
1253.746, 85.02539
1254.228, 60.25586
1254.710, 63.02246
1255.193, 90.34375
1255.675, 93.61035
1256.157, 74.86035
1256.639, 52.59766
1257.121, 41.41602
1257.603, 35.44922
1258.085, 38.83594
1258.567, 42.20605
1259.050, 34.34766
1259.532, 19.08691
1260.014, 27.14844
1260.496, 53.67578
1260.978, 74.43066
1261.460, 77.70605
1261.942, 74.77832
1262.424, 64.73730
1262.906, 54.78027
1263.389, 47.07031
1263.871, 44.44824
1264.353, 66.26562
1264.835, 105.4541
1265.317, 133.8066
1265.799, 141.8320
1266.281, 132.1543
1266.763, 99.86621
1267.245, 62.59570
1267.728, 23.58691
1268.210, 4.379883
1268.692, 31.08496
1269.174, 108.5088
1269.656, 152.4609
1270.138, 110.8408
1270.620, 73.07715
1271.102, 41.32227
1271.585, 24.23047
1272.067, 38.84766
1272.549, 68.11328
1273.031, 83.36816
1273.513, 85.75879
1273.995, 97.06445
1274.477, 141.1924
1274.959, 152.6328
1275.442, 122.3770
1275.924, 83.09082
1276.406, 52.34375
1276.888, 38.02051
1277.370, 65.49512
1277.852, 117.3545
1278.334, 135.1875
1278.816, 109.3301
1279.298, 84.59766
1279.781, 63.57520
1280.263, 57.30078
1280.745, 100.1475
1281.227, 138.1133
1281.709, 110.5449
1282.191, 48.61328
1282.673, 30.03418
1283.155, 56.58105
1283.637, 81.42285
1284.120, 100.2490
1284.602, 108.9385
1285.084, 91.32324
1285.566, 77.14258
1286.048, 87.88770
1286.530, 108.6357
1287.012, 123.7773
1287.494, 130.7344
1287.977, 102.8848
1288.459, 40.41504
1288.941, 2.760742
1289.423, 52.61426
1289.905, 96.06543
1290.387, 105.0420
1290.869, 90.21680
1291.351, 52.85938
1291.833, 7.189453
1292.316, 3.885742
1292.798, 22.37305
1293.280, 66.06934
1293.762, 163.9834
1294.244, 208.8311
1294.726, 167.5039
1295.208, 100.1846
1295.690, 85.27148
1296.172, 100.0176
1296.655, 114.8867
1297.137, 125.1953
1297.619, 115.2539
1298.101, 66.56641
1298.583, 52.64844
1299.065, 98.91016
1299.547, 143.4062
1300.029, 106.3418
1300.512, 43.00781
1300.994, 5.275391
1301.476, 2.929688
1301.958, 10.76172
1302.440, 50.65039
1302.922, 72.30469
1303.404, 45.54102
1303.886, 21.04492
1304.369, 0.0000000E+00
##END=



