##NAMES=Rudenkoite
##RRUFFID=R070048
##IDEAL CHEMISTRY=Sr_3_Al_3.5_Si_3.5_O_10_(OH,O)_8_Cl_2_&#183;H_2_O
##LOCALITY=80 km SEE of Aldan, Yakutia, Russia
##OWNER=RRUFF
##SOURCE=Michael Scott
##DESCRIPTION=White fragment embedded in epoxy, co-type material
##STATUS=The identification of this mineral is not yet confirmed.
##URL=rruff.info/R070048
156.9303, 0.0000000E+00
157.4124, 0.5976560
157.8945, 19.61133
158.3766, 49.44531
158.8587, 74.33545
159.3409, 92.13477
159.8230, 105.2705
160.3051, 106.9189
160.7872, 103.2231
161.2693, 108.6035
161.7514, 151.1201
162.2336, 189.1914
162.7157, 202.6748
163.1978, 178.4229
163.6799, 139.1733
164.1620, 111.6816
164.6441, 92.13379
165.1263, 72.56104
165.6084, 49.61523
166.0905, 29.60449
166.5726, 18.90820
167.0547, 26.18799
167.5368, 34.22070
168.0190, 25.62305
168.5011, 4.268066
168.9832, 6.541016
169.4653, 19.52197
169.9474, 59.17578
170.4295, 85.34570
170.9117, 74.62256
171.3938, 56.43115
171.8759, 63.20020
172.3580, 94.22803
172.8401, 129.4443
173.3222, 155.0215
173.8044, 174.3970
174.2865, 191.9502
174.7686, 209.6714
175.2507, 226.6172
175.7328, 240.8926
176.2150, 252.3101
176.6971, 259.1567
177.1792, 258.9331
177.6613, 252.5908
178.1434, 242.9761
178.6255, 228.5166
179.1077, 209.3828
179.5898, 194.2837
180.0719, 188.0244
180.5540, 196.4419
181.0361, 199.2524
181.5182, 198.6226
182.0004, 204.9253
182.4825, 222.3130
182.9646, 248.9453
183.4467, 253.6260
183.9288, 221.3975
184.4109, 193.4331
184.8931, 187.8457
185.3752, 206.3667
185.8573, 234.6357
186.3394, 243.3052
186.8215, 242.2192
187.3036, 240.6660
187.7858, 239.2266
188.2679, 238.2788
188.7500, 237.9844
189.2321, 238.4604
189.7142, 236.8286
190.1963, 226.1943
190.6785, 208.1436
191.1606, 201.2295
191.6427, 214.1221
192.1248, 238.0249
192.6069, 244.1411
193.0890, 230.7075
193.5712, 210.2646
194.0533, 193.1968
194.5354, 179.5054
195.0175, 166.6089
195.4996, 154.1899
195.9817, 142.0420
196.4639, 129.1001
196.9460, 114.9780
197.4281, 101.3037
197.9102, 90.52832
198.3923, 82.92285
198.8744, 74.42969
199.3566, 61.67139
199.8387, 45.46338
200.3208, 40.84619
200.8029, 51.57617
201.2850, 65.93848
201.7671, 68.87988
202.2493, 59.24756
202.7314, 43.97510
203.2135, 20.72559
203.6956, 11.39795
204.1777, 24.21387
204.6598, 11.05225
205.1420, 12.25000
205.6241, 20.57080
206.1062, 10.11914
206.5883, 1.813477
207.0704, 7.810059
207.5526, 6.287598
208.0347, 10.10156
208.5168, 23.01611
208.9989, 37.86865
209.4810, 37.37744
209.9631, 13.88330
210.4453, 4.863770
210.9274, 2.201172
211.4095, 32.07861
211.8916, 45.42725
212.3737, 28.10107
212.8558, 5.907715
213.3380, 18.15479
213.8201, 0.8901370
214.3022, 15.99463
214.7843, 7.489746
215.2664, 32.63721
215.7485, 60.78369
216.2307, 70.04932
216.7128, 66.72217
217.1949, 72.51709
217.6770, 91.56982
218.1591, 111.8149
218.6412, 126.0190
219.1234, 130.4312
219.6055, 140.1357
220.0876, 156.3325
220.5697, 177.6738
221.0518, 201.9482
221.5339, 230.5444
222.0161, 261.4795
222.4982, 293.3457
222.9803, 328.9111
223.4624, 359.7842
223.9445, 383.6973
224.4266, 401.7544
224.9088, 423.7485
225.3909, 452.4780
225.8730, 481.2681
226.3551, 503.2725
226.8372, 512.3726
227.3193, 529.4736
227.8015, 559.3149
228.2836, 600.6787
228.7657, 635.6704
229.2478, 659.1724
229.7299, 682.7114
230.2120, 716.2539
230.6942, 766.1455
231.1763, 814.0479
231.6584, 860.6650
232.1405, 906.0015
232.6226, 931.0742
233.1047, 922.8809
233.5869, 907.9263
234.0690, 910.6572
234.5511, 944.1084
235.0332, 970.6411
235.5153, 983.8472
235.9974, 983.6353
236.4796, 978.8462
236.9617, 974.2422
237.4438, 960.4736
237.9259, 927.6060
238.4080, 869.1318
238.8902, 804.0317
239.3723, 732.5049
239.8544, 654.2412
240.3365, 581.5508
240.8186, 510.6289
241.3007, 448.6587
241.7829, 404.9141
242.2650, 392.0327
242.7471, 374.5283
243.2292, 341.8613
243.7113, 291.8047
244.1934, 257.4336
244.6756, 249.1753
245.1577, 247.2573
245.6398, 228.7275
246.1219, 180.0068
246.6040, 139.0645
247.0861, 114.9814
247.5683, 109.1343
248.0504, 105.0938
248.5325, 103.4570
249.0146, 103.0850
249.4967, 103.8809
249.9788, 83.25830
250.4610, 103.3076
250.9431, 112.5122
251.4252, 111.6577
251.9073, 57.70410
252.3894, 82.25244
252.8715, 81.42920
253.3537, 83.74121
253.8358, 131.7417
254.3179, 107.8003
254.8000, 151.6187
255.2821, 170.3433
255.7642, 180.7002
256.2464, 179.9092
256.7285, 173.5195
257.2106, 167.7036
257.6927, 161.7290
258.1748, 157.9697
258.6570, 158.6768
259.1391, 164.8081
259.6212, 164.6543
260.1033, 154.6201
260.5854, 141.8237
261.0675, 136.3682
261.5497, 142.7271
262.0318, 142.1216
262.5139, 126.8228
262.9960, 95.43604
263.4781, 82.60156
263.9602, 96.22559
264.4424, 116.5757
264.9245, 117.2407
265.4066, 88.52979
265.8887, 70.28857
266.3708, 80.48682
266.8529, 121.0483
267.3351, 127.9502
267.8172, 90.82861
268.2993, 39.11133
268.7814, 9.786133
269.2635, 7.791504
269.7456, 2.375488
270.2278, 16.29102
270.7099, 47.48926
271.1920, 63.52637
271.6741, 62.12598
272.1562, 54.46240
272.6383, 51.42676
273.1205, 52.87256
273.6026, 54.13574
274.0847, 54.55615
274.5668, 54.05371
275.0489, 49.53174
275.5310, 39.02637
276.0132, 28.64453
276.4953, 28.58154
276.9774, 41.45068
277.4595, 45.16846
277.9416, 31.04248
278.4237, 0.9833980
278.9059, 26.26025
279.3880, 51.13965
279.8701, 72.00635
280.3522, 80.56445
280.8343, 75.26270
281.3164, 88.64307
281.7986, 137.0845
282.2807, 212.0830
282.7628, 270.2266
283.2449, 310.2817
283.7270, 336.5288
284.2091, 346.1875
284.6913, 339.9385
285.1734, 343.4736
285.6555, 369.1953
286.1376, 408.5986
286.6197, 427.6157
287.1018, 423.6357
287.5840, 418.1440
288.0661, 438.3120
288.5482, 479.9683
289.0303, 505.0771
289.5124, 497.2622
289.9945, 470.1387
290.4767, 457.4458
290.9588, 459.6250
291.4409, 468.7495
291.9230, 478.9136
292.4051, 490.3550
292.8872, 504.4204
293.3694, 523.7695
293.8515, 543.8521
294.3336, 555.5547
294.8157, 559.1108
295.2978, 559.9741
295.7799, 562.9800
296.2621, 566.9844
296.7442, 568.7539
297.2263, 568.1128
297.7084, 564.3438
298.1905, 555.7441
298.6726, 542.6182
299.1548, 527.0044
299.6369, 508.6133
300.1190, 488.9844
300.6011, 469.3101
301.0832, 444.4180
301.5653, 430.7773
302.0475, 455.2368
302.5296, 464.5386
303.0117, 459.5044
303.4938, 397.0864
303.9759, 408.8706
304.4580, 390.9775
304.9402, 398.1738
305.4223, 456.2705
305.9044, 514.6895
306.3865, 570.0918
306.8686, 608.5244
307.3507, 600.9219
307.8329, 583.5444
308.3150, 597.3677
308.7971, 657.1650
309.2792, 723.3267
309.7613, 763.1479
310.2434, 788.0381
310.7256, 821.7061
311.2077, 889.7031
311.6898, 962.1860
312.1719, 1013.509
312.6540, 1036.069
313.1361, 1055.834
313.6183, 1080.655
314.1004, 1112.879
314.5825, 1156.792
315.0646, 1222.330
315.5468, 1293.188
316.0289, 1360.646
316.5110, 1424.269
316.9931, 1486.399
317.4752, 1541.299
317.9573, 1597.143
318.4395, 1664.658
318.9216, 1747.737
319.4037, 1841.529
319.8858, 1947.831
320.3679, 2067.994
320.8500, 2184.916
321.3322, 2290.766
321.8143, 2393.009
322.2964, 2498.844
322.7785, 2623.067
323.2606, 2737.445
323.7427, 2829.812
324.2249, 2899.397
324.7070, 2980.014
325.1891, 3086.620
325.6712, 3199.218
326.1533, 3303.093
326.6354, 3403.920
327.1176, 3488.581
327.5997, 3554.094
328.0818, 3600.522
328.5639, 3639.019
329.0460, 3689.359
329.5281, 3717.390
330.0103, 3701.431
330.4924, 3617.851
330.9745, 3526.217
331.4566, 3431.324
331.9387, 3331.549
332.4208, 3220.602
332.9030, 3098.548
333.3851, 2967.511
333.8672, 2826.178
334.3493, 2668.714
334.8314, 2517.120
335.3135, 2374.565
335.7957, 2239.631
336.2778, 2103.890
336.7599, 1961.539
337.2420, 1829.415
337.7241, 1713.043
338.2062, 1613.720
338.6884, 1528.417
339.1705, 1458.244
339.6526, 1401.748
340.1347, 1358.129
340.6168, 1329.263
341.0989, 1303.527
341.5811, 1273.126
342.0632, 1238.938
342.5453, 1225.337
343.0274, 1236.202
343.5095, 1255.391
343.9916, 1260.476
344.4738, 1252.281
344.9559, 1252.768
345.4380, 1266.369
345.9201, 1294.634
346.4022, 1352.849
346.8843, 1444.112
347.3665, 1531.135
347.8486, 1569.464
348.3307, 1572.464
348.8128, 1592.344
349.2949, 1650.125
349.7770, 1727.029
350.2592, 1792.165
350.7413, 1846.668
351.2234, 1902.605
351.7055, 1976.777
352.1876, 2057.169
352.6697, 2121.263
353.1519, 2160.175
353.6340, 2189.992
354.1161, 2225.386
354.5982, 2265.583
355.0803, 2306.791
355.5624, 2357.763
356.0446, 2403.935
356.5267, 2429.506
357.0088, 2430.301
357.4909, 2416.488
357.9730, 2397.728
358.4551, 2369.272
358.9373, 2322.000
359.4194, 2236.781
359.9015, 2142.591
360.3836, 2061.681
360.8657, 2002.623
361.3478, 1922.677
361.8300, 1786.282
362.3121, 1628.192
362.7942, 1491.898
363.2763, 1400.626
363.7584, 1316.056
364.2405, 1225.150
364.7227, 1124.363
365.2048, 1029.065
365.6869, 930.0469
366.1690, 840.2661
366.6511, 767.0190
367.1332, 725.1851
367.6154, 685.0376
368.0975, 644.7266
368.5796, 603.5620
369.0617, 559.1416
369.5438, 501.3076
370.0259, 449.4082
370.5081, 414.2109
370.9902, 409.9766
371.4723, 393.5518
371.9544, 357.2378
372.4365, 311.9268
372.9186, 287.3066
373.4008, 295.3032
373.8829, 299.9272
374.3650, 278.9233
374.8471, 236.3657
375.3292, 244.0986
375.8113, 244.0312
376.2935, 236.7480
376.7756, 191.5425
377.2577, 202.2642
377.7398, 194.8242
378.2220, 189.5527
378.7041, 185.0205
379.1862, 198.4717
379.6683, 205.1953
380.1504, 205.4834
380.6325, 193.5664
381.1147, 171.9619
381.5968, 163.3345
382.0789, 179.3799
382.5610, 207.6348
383.0431, 220.9712
383.5252, 219.7881
384.0074, 217.8110
384.4895, 229.1787
384.9716, 247.0830
385.4537, 256.4780
385.9358, 254.1597
386.4179, 243.4775
386.9001, 220.4424
387.3822, 190.5312
387.8643, 170.3931
388.3464, 176.3003
388.8285, 193.2378
389.3106, 208.2173
389.7928, 220.8262
390.2749, 226.6919
390.7570, 214.8013
391.2391, 196.0649
391.7212, 186.3853
392.2033, 199.1045
392.6855, 216.4766
393.1676, 231.2515
393.6497, 243.0503
394.1318, 251.2080
394.6139, 256.8789
395.0960, 258.1987
395.5782, 253.8184
396.0603, 236.4565
396.5424, 221.0713
397.0245, 211.4136
397.5066, 206.4736
397.9887, 200.6196
398.4709, 182.1509
398.9530, 171.8384
399.4351, 180.6221
399.9172, 230.9741
400.3993, 259.5659
400.8814, 259.1338
401.3636, 239.4302
401.8457, 217.2520
402.3278, 183.6196
402.8099, 164.0918
403.2920, 171.4834
403.7741, 209.2310
404.2563, 236.6904
404.7384, 252.7129
405.2205, 259.9199
405.7026, 259.7051
406.1847, 251.2983
406.6668, 239.9648
407.1490, 221.7261
407.6311, 203.1719
408.1132, 216.6221
408.5953, 265.5752
409.0774, 310.6465
409.5595, 315.8101
410.0417, 288.4419
410.5238, 262.0781
411.0059, 241.8203
411.4880, 224.4404
411.9701, 206.6953
412.4522, 187.8867
412.9344, 165.1582
413.4165, 130.0752
413.8986, 92.35303
414.3807, 68.51367
414.8628, 61.12451
415.3449, 55.15625
415.8271, 37.91211
416.3092, 14.26221
416.7913, 7.820801
417.2734, 24.73877
417.7555, 39.68555
418.2376, 74.46045
418.7198, 61.39258
419.2019, 58.64795
419.6840, 65.48877
420.1661, 121.0488
420.6482, 105.7622
421.1303, 114.0288
421.6125, 119.9507
422.0946, 84.81934
422.5767, 115.5151
423.0588, 74.06250
423.5409, 79.67041
424.0230, 78.92041
424.5052, 77.39697
424.9873, 75.36279
425.4694, 71.46240
425.9515, 65.09619
426.4336, 57.16357
426.9157, 49.87451
427.3979, 46.68164
427.8800, 36.21045
428.3621, 12.17773
428.8442, 23.23682
429.3263, 42.73047
429.8084, 38.10254
430.2906, 38.76416
430.7727, 73.42627
431.2548, 143.8184
431.7369, 202.1938
432.2190, 240.0630
432.7011, 267.8330
433.1833, 305.3799
433.6654, 352.7725
434.1475, 402.0688
434.6296, 446.9028
435.1117, 490.3828
435.5938, 542.0059
436.0760, 602.2529
436.5581, 669.2520
437.0402, 749.8472
437.5223, 835.5225
438.0045, 907.9282
438.4866, 942.5562
438.9687, 975.5835
439.4508, 1043.724
439.9329, 1141.692
440.4150, 1239.765
440.8972, 1328.808
441.3793, 1406.627
441.8614, 1469.177
442.3435, 1506.503
442.8256, 1548.679
443.3077, 1625.700
443.7899, 1713.150
444.2720, 1766.213
444.7541, 1732.764
445.2362, 1701.809
445.7183, 1716.867
446.2004, 1797.588
446.6826, 1821.017
447.1647, 1745.711
447.6468, 1639.014
448.1289, 1557.701
448.6110, 1535.596
449.0931, 1475.793
449.5753, 1354.437
450.0574, 1187.899
450.5395, 1044.506
451.0216, 930.9126
451.5037, 829.8325
451.9858, 730.5425
452.4680, 632.7515
452.9501, 553.9834
453.4322, 497.3447
453.9143, 454.8813
454.3964, 422.2559
454.8785, 398.3828
455.3607, 363.1943
455.8428, 301.5107
456.3249, 227.3052
456.8070, 170.4956
457.2891, 130.5552
457.7712, 105.1411
458.2534, 100.7612
458.7355, 107.4297
459.2176, 108.5796
459.6997, 97.71875
460.1818, 86.94141
460.6639, 83.95654
461.1461, 88.40967
461.6282, 99.70117
462.1103, 124.9507
462.5924, 150.9634
463.0745, 168.8374
463.5566, 176.4385
464.0388, 188.3789
464.5209, 204.1704
465.0030, 228.8472
465.4851, 266.7852
465.9672, 332.1328
466.4493, 395.9551
466.9315, 453.8960
467.4136, 507.2383
467.8957, 562.2461
468.3778, 612.2441
468.8599, 671.9546
469.3420, 751.7236
469.8242, 861.4492
470.3063, 949.8975
470.7884, 1008.266
471.2705, 1057.459
471.7526, 1127.124
472.2347, 1219.400
472.7169, 1312.811
473.1990, 1401.357
473.6811, 1486.270
474.1632, 1574.426
474.6453, 1664.957
475.1274, 1751.546
475.6096, 1829.057
476.0917, 1897.438
476.5738, 1962.296
477.0559, 2022.860
477.5380, 2080.731
478.0201, 2137.395
478.5023, 2194.136
478.9844, 2241.592
479.4665, 2273.425
479.9486, 2299.344
480.4307, 2321.739
480.9128, 2345.185
481.3950, 2359.062
481.8771, 2370.587
482.3592, 2366.035
482.8413, 2334.050
483.3234, 2255.013
483.8055, 2172.541
484.2877, 2093.024
484.7698, 2015.896
485.2519, 1940.850
485.7340, 1885.913
486.2161, 1814.053
486.6982, 1707.362
487.1804, 1557.652
487.6625, 1429.766
488.1446, 1329.305
488.6267, 1245.339
489.1088, 1171.407
489.5909, 1111.650
490.0731, 1040.692
490.5552, 953.3433
491.0373, 855.9600
491.5194, 761.7949
492.0015, 671.5342
492.4836, 589.4941
492.9658, 515.7998
493.4479, 452.6416
493.9300, 416.6396
494.4121, 411.0332
494.8942, 399.6006
495.3763, 332.5830
495.8585, 238.4473
496.3406, 167.5977
496.8227, 153.2754
497.3048, 148.4756
497.7869, 117.7139
498.2690, 67.45117
498.7512, 19.59766
499.2333, 29.58496
499.7154, 63.61230
500.1975, 67.47461
500.6797, 29.75684
501.1618, 6.4452998E-02
501.6439, 6.788086
502.1260, 3.584961
502.6081, 4.910156
503.0902, 18.82812
503.5724, 25.95801
504.0545, 18.52734
504.5366, 1.575195
505.0187, 1.069336
505.5008, 22.45801
505.9829, 48.37012
506.4651, 74.45020
506.9472, 102.1758
507.4293, 104.9619
507.9114, 76.11914
508.3935, 42.08105
508.8756, 40.91016
509.3578, 68.11816
509.8399, 89.61133
510.3220, 90.77246
510.8041, 84.63672
511.2862, 89.65332
511.7683, 105.4893
512.2504, 130.2832
512.7325, 167.9824
513.2147, 211.6133
513.6968, 255.1602
514.1789, 299.3887
514.6610, 336.2715
515.1431, 358.0928
515.6252, 371.2871
516.1074, 383.4980
516.5895, 390.3555
517.0716, 403.4082
517.5537, 428.0625
518.0358, 462.6494
518.5179, 496.4316
519.0001, 536.9209
519.4822, 568.3203
519.9643, 582.5352
520.4464, 572.8750
520.9285, 571.5195
521.4106, 585.0264
521.8928, 598.4150
522.3749, 591.7109
522.8570, 562.6934
523.3391, 533.1182
523.8212, 510.1543
524.3033, 487.8594
524.7855, 445.0801
525.2676, 382.2783
525.7497, 325.0449
526.2318, 290.0596
526.7139, 270.2910
527.1960, 255.2695
527.6782, 244.8750
528.1603, 230.9580
528.6424, 205.2227
529.1245, 172.1309
529.6066, 137.9443
530.0887, 96.96484
530.5709, 63.97656
531.0530, 48.05664
531.5352, 46.19336
532.0173, 49.25391
532.4994, 68.02734
532.9815, 79.73633
533.4636, 68.41602
533.9457, 21.61426
534.4279, 4.281250
534.9100, 28.49023
535.3921, 71.76758
535.8742, 115.0449
536.3563, 158.2061
536.8384, 201.0293
537.3206, 241.1680
537.8027, 281.9922
538.2848, 331.0938
538.7669, 388.5625
539.2490, 448.9062
539.7311, 510.0723
540.2133, 571.3359
540.6954, 627.8174
541.1775, 678.3906
541.6596, 738.9932
542.1417, 826.8438
542.6238, 933.0039
543.1060, 1042.689
543.5881, 1154.436
544.0702, 1264.891
544.5523, 1363.368
545.0344, 1459.604
545.5165, 1572.408
545.9987, 1723.172
546.4808, 1878.062
546.9629, 2026.961
547.4450, 2169.346
547.9271, 2301.066
548.4092, 2420.383
548.8914, 2532.126
549.3735, 2636.694
549.8556, 2728.428
550.3377, 2829.071
550.8198, 2944.834
551.3019, 3063.020
551.7841, 3160.911
552.2662, 3235.588
552.7483, 3316.461
553.2304, 3421.897
553.7125, 3532.859
554.1946, 3589.195
554.6768, 3592.594
555.1589, 3582.157
555.6410, 3589.542
556.1231, 3598.781
556.6052, 3584.054
557.0873, 3541.974
557.5695, 3480.413
558.0516, 3399.388
558.5337, 3305.976
559.0158, 3206.643
559.4979, 3090.812
559.9800, 2982.439
560.4622, 2891.412
560.9443, 2815.317
561.4264, 2739.983
561.9085, 2666.817
562.3906, 2591.805
562.8727, 2511.107
563.3549, 2421.735
563.8370, 2342.822
564.3191, 2285.221
564.8012, 2226.747
565.2833, 2141.632
565.7654, 2026.975
566.2476, 1928.146
566.7297, 1850.415
567.2118, 1792.170
567.6939, 1757.308
568.1760, 1743.896
568.6581, 1734.446
569.1403, 1722.345
569.6224, 1709.358
570.1045, 1699.299
570.5866, 1693.221
571.0687, 1687.169
571.5508, 1673.051
572.0330, 1659.020
572.5151, 1650.514
572.9972, 1647.681
573.4793, 1652.560
573.9614, 1670.049
574.4435, 1693.789
574.9257, 1715.809
575.4078, 1728.198
575.8899, 1749.316
576.3720, 1785.815
576.8541, 1832.669
577.3362, 1868.045
577.8184, 1880.424
578.3005, 1913.854
578.7826, 1992.042
579.2647, 2111.091
579.7468, 2229.990
580.2289, 2347.936
580.7111, 2472.543
581.1932, 2609.140
581.6753, 2760.022
582.1574, 2928.968
582.6395, 3118.759
583.1216, 3320.536
583.6038, 3518.311
584.0859, 3719.489
584.5680, 3944.332
585.0501, 4242.695
585.5322, 4534.168
586.0143, 4773.521
586.4965, 4968.848
586.9786, 5171.508
587.4607, 5403.354
587.9428, 5634.461
588.4249, 5852.177
588.9070, 6059.337
589.3892, 6246.584
589.8713, 6400.976
590.3534, 6552.514
590.8355, 6734.116
591.3176, 6949.573
591.7997, 7176.284
592.2819, 7424.303
592.7640, 7655.220
593.2461, 7805.507
593.7282, 7875.069
594.2103, 7869.949
594.6924, 7808.526
595.1746, 7665.786
595.6567, 7398.740
596.1388, 7010.859
596.6209, 6557.110
597.1030, 6029.384
597.5851, 5472.531
598.0673, 4911.578
598.5494, 4343.793
599.0315, 3810.267
599.5136, 3299.493
599.9957, 2839.195
600.4778, 2457.808
600.9600, 2182.929
601.4421, 1932.980
601.9242, 1702.110
602.4063, 1491.769
602.8884, 1309.409
603.3705, 1157.916
603.8527, 1025.197
604.3348, 907.5879
604.8169, 804.3701
605.2990, 715.3740
605.7811, 641.3867
606.2632, 581.6670
606.7454, 549.9678
607.2275, 528.2480
607.7096, 485.2637
608.1917, 410.2686
608.6738, 339.8428
609.1559, 297.8252
609.6381, 274.3516
610.1202, 256.4990
610.6023, 242.1045
611.0844, 230.8799
611.5665, 230.8672
612.0486, 234.8652
612.5308, 218.8350
613.0129, 162.8066
613.4950, 118.5098
613.9771, 105.3623
614.4592, 121.8613
614.9413, 129.7363
615.4235, 128.2197
615.9056, 122.0488
616.3877, 114.6387
616.8698, 105.4922
617.3519, 92.65137
617.8340, 75.91895
618.3162, 56.26172
618.7983, 30.81055
619.2804, 3.933594
619.7625, 18.47559
620.2446, 43.32031
620.7267, 50.86719
621.2089, 10.20508
621.6910, 55.84668
622.1731, 92.49805
622.6552, 57.83887
623.1373, 20.41602
623.6194, 1.225586
624.1016, 7.250000
624.5837, 3.808594
625.0658, 14.12207
625.5479, 33.99219
626.0300, 51.77344
626.5121, 67.50684
626.9943, 60.41406
627.4764, 27.03711
627.9585, 14.96777
628.4406, 52.27393
628.9227, 82.25391
629.4048, 95.74561
629.8870, 85.32959
630.3691, 68.44238
630.8512, 63.64404
631.3333, 65.21436
631.8154, 61.45557
632.2975, 40.11377
632.7797, 19.82129
633.2618, 8.909180
633.7439, 6.840820
634.2260, 5.931641
634.7081, 6.929688
635.1902, 7.297852
635.6724, 6.421875
636.1545, 4.666016
636.6366, 1.131836
637.1187, 12.95312
637.6008, 24.39355
638.0829, 31.41309
638.5651, 33.33594
639.0472, 22.01465
639.5293, 7.423828
640.0114, 37.80322
640.4935, 55.02539
640.9756, 56.82129
641.4578, 36.78027
641.9399, 43.45996
642.4220, 109.7275
642.9041, 97.64355
643.3862, 30.87305
643.8683, 16.48535
644.3505, 11.99512
644.8326, 7.202148
645.3147, 34.59863
645.7968, 70.91895
646.2789, 83.64844
646.7610, 56.84473
647.2432, 31.58789
647.7253, 38.59375
648.2074, 81.67188
648.6895, 106.4658
649.1716, 110.7568
649.6537, 100.0225
650.1359, 69.21289
650.6180, 27.71777
651.1001, 5.279297
651.5822, 14.78125
652.0643, 32.85645
652.5464, 33.47070
653.0286, 27.19434
653.5107, 34.40723
653.9929, 89.16113
654.4750, 132.4893
654.9571, 130.7021
655.4392, 91.98730
655.9213, 76.56445
656.4034, 110.9014
656.8856, 137.0820
657.3677, 127.2998
657.8498, 78.70703
658.3319, 64.40332
658.8140, 90.25195
659.2961, 126.9180
659.7783, 157.2646
660.2604, 179.2168
660.7425, 178.1035
661.2246, 148.3340
661.7067, 119.3613
662.1888, 127.4336
662.6710, 153.2119
663.1531, 166.7607
663.6352, 153.3008
664.1173, 134.2783
664.5994, 109.1934
665.0815, 86.15234
665.5637, 81.32129
666.0458, 125.9766
666.5279, 155.1807
667.0100, 147.6621
667.4921, 113.3291
667.9742, 112.0264
668.4564, 154.4346
668.9385, 191.4609
669.4206, 193.7852
669.9027, 168.4365
670.3848, 152.1455
670.8669, 144.9287
671.3491, 145.1406
671.8312, 161.4258
672.3133, 180.3105
672.7954, 178.8730
673.2775, 149.0586
673.7596, 124.2139
674.2418, 125.1748
674.7239, 138.4648
675.2060, 150.4326
675.6881, 154.5078
676.1702, 163.1016
676.6523, 186.7715
677.1345, 210.8516
677.6166, 201.8477
678.0987, 144.7529
678.5808, 112.5107
679.0629, 136.7090
679.5450, 190.1709
680.0272, 197.0498
680.5093, 161.4189
680.9914, 127.7451
681.4735, 127.1768
681.9556, 137.0762
682.4377, 120.0195
682.9199, 80.88184
683.4020, 63.37793
683.8841, 116.7607
684.3662, 180.9326
684.8483, 214.6562
685.3304, 204.1953
685.8126, 196.5215
686.2947, 196.8545
686.7768, 198.0674
687.2589, 197.1123
687.7410, 197.2139
688.2231, 185.7578
688.7053, 154.7246
689.1874, 125.6396
689.6695, 141.8975
690.1516, 192.5303
690.6337, 214.3193
691.1158, 178.2607
691.5980, 127.1699
692.0801, 101.1924
692.5622, 95.63379
693.0443, 99.47559
693.5264, 123.5703
694.0085, 141.0234
694.4907, 132.7617
694.9728, 105.2607
695.4549, 97.37793
695.9370, 127.8066
696.4191, 153.2832
696.9012, 155.5703
697.3834, 135.0264
697.8655, 124.1963
698.3476, 125.3838
698.8297, 129.4541
699.3118, 129.6514
699.7939, 131.2832
700.2761, 137.8721
700.7582, 149.4561
701.2403, 162.3760
701.7224, 184.8594
702.2045, 202.8428
702.6866, 192.9219
703.1688, 125.9189
703.6509, 88.97266
704.1330, 135.3516
704.6151, 211.1455
705.0972, 251.4717
705.5793, 239.1221
706.0615, 228.0820
706.5436, 222.7119
707.0257, 220.5986
707.5078, 215.3828
707.9899, 206.8457
708.4720, 204.4668
708.9542, 212.7568
709.4363, 229.4258
709.9184, 246.3770
710.4005, 265.1406
710.8826, 293.6855
711.3647, 358.8174
711.8469, 417.4873
712.3290, 440.0625
712.8111, 429.0107
713.2932, 413.2666
713.7753, 376.6768
714.2574, 361.1562
714.7396, 390.2227
715.2217, 470.1465
715.7038, 517.1055
716.1859, 524.3096
716.6680, 521.8896
717.1501, 533.7725
717.6323, 555.9580
718.1144, 569.8896
718.5965, 573.4023
719.0786, 575.2861
719.5607, 588.2939
720.0428, 602.6523
720.5250, 603.6816
721.0071, 583.3838
721.4892, 564.6914
721.9713, 565.8027
722.4534, 573.6895
722.9355, 572.1973
723.4177, 543.7998
723.8998, 528.7754
724.3819, 533.0518
724.8640, 546.9492
725.3461, 565.7305
725.8282, 585.3516
726.3104, 589.0215
726.7925, 566.3613
727.2746, 529.7070
727.7567, 492.5439
728.2388, 455.7012
728.7209, 424.9678
729.2031, 405.8564
729.6852, 391.7031
730.1673, 377.1963
730.6494, 362.0303
731.1315, 358.3271
731.6136, 394.5781
732.0958, 416.6357
732.5779, 401.5127
733.0600, 349.3643
733.5421, 313.0215
734.0242, 294.1475
734.5063, 284.2803
734.9885, 280.1953
735.4706, 280.5439
735.9527, 280.8447
736.4348, 280.8867
736.9169, 281.1797
737.3990, 282.4150
737.8812, 283.4004
738.3633, 283.8701
738.8454, 285.1504
739.3275, 280.5420
739.8096, 262.4004
740.2917, 240.8760
740.7739, 224.6787
741.2560, 215.0508
741.7381, 210.2324
742.2202, 211.6797
742.7023, 213.7627
743.1844, 206.4570
743.6666, 191.4111
744.1487, 183.4385
744.6308, 187.8525
745.1129, 195.6367
745.5950, 201.1738
746.0771, 219.6123
746.5593, 232.8008
747.0414, 233.7559
747.5235, 223.4697
748.0056, 158.8594
748.4877, 171.4473
748.9698, 157.3525
749.4520, 144.9971
749.9341, 176.9521
750.4162, 135.6875
750.8983, 173.0742
751.3804, 183.4316
751.8625, 210.7051
752.3447, 133.2373
752.8268, 132.1699
753.3089, 134.8301
753.7910, 130.1309
754.2731, 120.2227
754.7552, 116.8760
755.2374, 133.8584
755.7195, 153.0869
756.2016, 168.3467
756.6837, 179.5361
757.1658, 169.0322
757.6479, 118.8936
758.1301, 70.64648
758.6122, 42.95020
759.0943, 35.93457
759.5764, 44.22266
760.0585, 70.29004
760.5406, 92.31934
761.0228, 84.25098
761.5049, 60.70410
761.9870, 55.89844
762.4691, 74.22559
762.9512, 48.87109
763.4333, 80.44238
763.9155, 96.82227
764.3976, 98.82324
764.8797, 43.39160
765.3618, 62.11621
765.8439, 51.12109
766.3260, 38.90918
766.8082, 68.08301
767.2903, 21.01953
767.7724, 49.54688
768.2545, 47.90332
768.7366, 60.07520
769.2188, 42.35254
769.7009, 18.21484
770.1830, 50.35547
770.6651, 27.39062
771.1472, 8.877930
771.6293, 44.38574
772.1115, 70.97656
772.5936, 77.52734
773.0757, 28.12012
773.5578, 3.006836
774.0399, 21.99609
774.5220, 60.89453
775.0042, 76.08789
775.4863, 64.33789
775.9684, 51.90332
776.4505, 45.45508
776.9326, 40.87305
777.4148, 24.34375
777.8969, 2.743164
778.3790, 52.00977
778.8611, 16.45605
779.3433, 3.917969
779.8254, 9.933594
780.3075, 41.45996
780.7896, 18.70215
781.2717, 25.65918
781.7538, 33.84570
782.2360, 0.6699220
782.7181, 43.74219
783.2002, 11.25098
783.6823, 8.936523
784.1644, 7.189453
784.6465, 6.577148
785.1287, 11.10840
785.6108, 14.26074
786.0929, 23.06445
786.5750, 5.840820
787.0571, 22.83594
787.5392, 21.31543
788.0214, 11.82422
788.5035, 19.19727
788.9856, 34.57422
789.4677, 84.75488
789.9498, 114.4082
790.4319, 92.15918
790.9141, 25.46484
791.3962, 14.81543
791.8783, 65.54980
792.3604, 113.0439
792.8425, 103.2715
793.3246, 65.58594
793.8068, 55.12500
794.2889, 70.97070
794.7710, 74.33984
795.2531, 109.7607
795.7352, 129.9873
796.2173, 135.8369
796.6995, 84.26074
797.1816, 106.8389
797.6637, 99.69727
798.1458, 91.33691
798.6279, 124.3545
799.1100, 81.13086
799.5922, 113.4971
800.0743, 115.6855
800.5564, 137.1182
801.0385, 150.2109
801.5206, 146.9209
802.0027, 146.7832
802.4849, 151.9150
802.9670, 157.8057
803.4491, 165.2539
803.9312, 170.7158
804.4133, 170.3984
804.8954, 161.1865
805.3776, 159.7861
805.8597, 170.3086
806.3418, 180.5156
806.8239, 174.9600
807.3060, 157.3896
807.7881, 162.5732
808.2703, 194.2344
808.7524, 223.8818
809.2345, 218.7998
809.7166, 201.4502
810.1987, 197.7529
810.6808, 214.0205
811.1630, 235.8408
811.6451, 264.5391
812.1272, 292.9141
812.6093, 317.2969
813.0914, 341.8545
813.5735, 344.6201
814.0557, 318.5195
814.5378, 290.5166
815.0199, 288.4297
815.5020, 307.3672
815.9841, 333.8311
816.4662, 367.0098
816.9484, 400.4863
817.4305, 429.0645
817.9126, 456.1309
818.3947, 486.6436
818.8768, 528.6826
819.3589, 555.4160
819.8411, 553.6670
820.3232, 547.9629
820.8053, 561.8721
821.2874, 597.3682
821.7695, 630.9512
822.2516, 659.8174
822.7338, 690.0059
823.2159, 730.9941
823.6980, 776.5381
824.1801, 814.9766
824.6622, 843.1201
825.1443, 865.5186
825.6265, 866.3330
826.1086, 872.2314
826.5907, 912.3672
827.0728, 1003.223
827.5549, 1094.138
828.0370, 1190.945
828.5192, 1282.927
829.0013, 1349.956
829.4834, 1398.856
829.9655, 1463.530
830.4476, 1553.388
830.9297, 1656.494
831.4119, 1765.065
831.8940, 1880.877
832.3761, 2009.140
832.8582, 2166.157
833.3403, 2302.005
833.8224, 2385.927
834.3046, 2453.252
834.7867, 2533.724
835.2688, 2632.425
835.7509, 2737.280
836.2330, 2849.056
836.7151, 2959.380
837.1973, 3057.528
837.6794, 3138.861
838.1615, 3190.091
838.6436, 3208.396
839.1257, 3222.844
839.6078, 3268.728
840.0900, 3315.354
840.5721, 3324.824
841.0542, 3277.381
841.5363, 3238.136
842.0184, 3225.710
842.5005, 3191.387
842.9827, 3076.149
843.4648, 2887.922
843.9469, 2720.941
844.4290, 2586.448
844.9111, 2458.711
845.3932, 2307.439
845.8754, 2151.201
846.3575, 2014.806
846.8396, 1912.545
847.3217, 1798.639
847.8038, 1640.082
848.2859, 1480.368
848.7681, 1353.339
849.2502, 1268.208
849.7323, 1173.160
850.2144, 1061.163
850.6965, 961.1377
851.1786, 926.6553
851.6608, 922.8145
852.1429, 854.4160
852.6250, 701.3994
853.1071, 574.1650
853.5892, 563.2822
854.0714, 592.5029
854.5535, 601.2930
855.0356, 574.4658
855.5177, 553.1807
855.9998, 535.8779
856.4819, 526.7969
856.9641, 537.8984
857.4462, 564.5918
857.9283, 557.6982
858.4104, 514.4150
858.8925, 472.3740
859.3746, 472.9658
859.8568, 485.1113
860.3389, 470.9570
860.8210, 421.7148
861.3031, 391.4971
861.7852, 413.9209
862.2673, 439.9668
862.7495, 445.6436
863.2316, 429.8955
863.7137, 415.6582
864.1958, 402.3828
864.6779, 394.2314
865.1600, 398.8721
865.6422, 408.6045
866.1243, 408.5996
866.6064, 399.0781
867.0885, 392.2588
867.5706, 404.0820
868.0527, 411.8389
868.5349, 397.4072
869.0170, 361.7598
869.4991, 340.0254
869.9812, 337.3320
870.4633, 333.4131
870.9454, 311.4258
871.4276, 281.2129
871.9097, 285.1436
872.3918, 317.2764
872.8739, 337.0117
873.3560, 312.7314
873.8381, 274.2441
874.3203, 235.0195
874.8024, 144.3096
875.2845, 170.9727
875.7666, 182.4395
876.2487, 179.5195
876.7308, 119.1738
877.2130, 132.9697
877.6951, 117.0518
878.1772, 99.89648
878.6593, 124.1152
879.1414, 72.08887
879.6235, 95.64453
880.1057, 89.01465
880.5878, 96.18945
881.0699, 73.45898
881.5520, 59.95215
882.0341, 76.35840
882.5162, 76.19043
882.9984, 49.99512
883.4805, 58.01660
883.9626, 4.881836
884.4447, 5.395508
884.9268, 29.04492
885.4089, 4.313477
885.8911, 12.85547
886.3732, 8.715820
886.8553, 53.00391
887.3374, 9.666016
887.8195, 12.38574
888.3016, 10.29688
888.7838, 8.935547
889.2659, 17.26172
889.7480, 38.92773
890.2301, 56.39746
890.7122, 69.53027
891.1943, 72.19043
891.6765, 41.79980
892.1586, 3.327148
892.6407, 18.54590
893.1228, 14.74902
893.6049, 50.12207
894.0870, 66.88672
894.5692, 71.04102
895.0513, 67.66211
895.5334, 55.27539
896.0155, 40.24414
896.4976, 20.56738
896.9797, 3.571289
897.4619, 3.406250
897.9440, 1.688477
898.4261, 9.442383
898.9082, 30.58105
899.3903, 40.64844
899.8724, 14.43066
900.3546, 20.96875
900.8367, 47.37012
901.3188, 62.75000
901.8010, 60.18848
902.2831, 23.95703
902.7652, 3.4180000E-02
903.2473, 23.99414
903.7294, 85.01953
904.2115, 113.4629
904.6937, 111.5664
905.1758, 104.8398
905.6579, 107.8721
906.1400, 114.8955
906.6221, 123.5068
907.1042, 132.8799
907.5864, 137.9541
908.0685, 128.2178
908.5506, 130.2402
909.0327, 158.3057
909.5148, 201.3809
909.9969, 216.5498
910.4791, 206.1260
910.9612, 192.5742
911.4433, 181.6553
911.9254, 176.5674
912.4075, 182.2793
912.8896, 196.0645
913.3718, 211.6221
913.8539, 235.6514
914.3360, 250.6719
914.8181, 256.6045
915.3002, 250.8389
915.7823, 218.7969
916.2645, 162.0879
916.7466, 137.3301
917.2287, 164.9160
917.7108, 198.0957
918.1929, 181.4268
918.6750, 141.7920
919.1572, 116.1807
919.6393, 122.0225
920.1214, 123.7090
920.6035, 115.0977
921.0856, 101.1709
921.5677, 80.70898
922.0499, 52.53906
922.5320, 53.81348
923.0141, 89.14453
923.4962, 123.4990
923.9783, 113.3574
924.4604, 91.61035
924.9426, 110.5684
925.4247, 178.3516
925.9068, 207.3398
926.3889, 122.8145
926.8710, 45.10352
927.3531, 27.99707
927.8353, 66.89746
928.3174, 91.37207
928.7995, 101.3135
929.2816, 99.90039
929.7637, 73.20312
930.2458, 46.65430
930.7280, 64.89844
931.2101, 112.9814
931.6922, 137.0801
932.1743, 93.92676
932.6564, 51.57715
933.1385, 20.88770
933.6207, 4.972656
934.1028, 17.80566
934.5849, 60.52637
935.0670, 99.84473
935.5491, 130.2988
936.0313, 146.4727
936.5134, 130.0645
936.9955, 98.91113
937.4776, 82.83789
937.9597, 104.8555
938.4418, 119.3477
938.9240, 116.6699
939.4061, 105.4814
939.8882, 88.75098
940.3703, 65.31934
940.8524, 73.01562
941.3345, 119.0723
941.8167, 158.1475
942.2988, 136.1562
942.7809, 91.31934
943.2630, 69.04590
943.7451, 78.72656
944.2272, 84.72266
944.7094, 71.26855
945.1915, 58.92676
945.6736, 46.92871
946.1557, 37.05469
946.6378, 53.86035
947.1199, 96.79004
947.6021, 138.4756
948.0842, 171.5742
948.5663, 190.4658
949.0484, 178.0010
949.5305, 147.0869
950.0126, 135.5742
950.4948, 175.8164
950.9769, 200.6152
951.4590, 189.7695
951.9411, 162.5781
952.4232, 162.0596
952.9053, 186.6650
953.3875, 211.3213
953.8696, 226.9307
954.3517, 247.6504
954.8338, 300.5625
955.3159, 359.9883
955.7980, 392.1689
956.2802, 374.2227
956.7623, 352.3496
957.2444, 316.8389
957.7265, 299.2080
958.2086, 338.2949
958.6907, 423.8135
959.1729, 479.4961
959.6550, 500.6836
960.1371, 513.2441
960.6192, 526.1631
961.1013, 546.6670
961.5834, 595.0283
962.0656, 672.3809
962.5477, 688.3184
963.0298, 599.6562
963.5119, 531.8926
963.9940, 538.4756
964.4761, 599.3457
964.9583, 666.4004
965.4404, 734.2256
965.9225, 777.7725
966.4046, 764.6455
966.8867, 745.1865
967.3688, 750.9648
967.8510, 769.6016
968.3331, 776.9268
968.8152, 770.3789
969.2973, 753.9307
969.7794, 722.7207
970.2615, 694.8408
970.7437, 703.2373
971.2258, 733.3496
971.7079, 747.6631
972.1900, 737.2119
972.6721, 725.7324
973.1542, 723.2500
973.6364, 727.0469
974.1185, 733.7822
974.6006, 742.0771
975.0827, 772.9707
975.5648, 836.0020
976.0469, 873.7939
976.5291, 822.1445
977.0112, 734.0029
977.4933, 699.7207
977.9754, 712.3682
978.4575, 737.2344
978.9396, 783.4004
979.4218, 811.2354
979.9039, 796.5498
980.3860, 759.7734
980.8681, 754.7363
981.3502, 784.2783
981.8323, 780.9688
982.3145, 718.4600
982.7966, 650.5322
983.2787, 652.3809
983.7608, 685.5703
984.2429, 692.1494
984.7250, 636.7979
985.2072, 609.7959
985.6893, 640.7646
986.1714, 676.8516
986.6535, 676.7783
987.1356, 642.7949
987.6177, 609.1719
988.0999, 577.0186
988.5820, 562.5039
989.0641, 600.0303
989.5462, 641.2852
990.0283, 639.6709
990.5104, 600.5664
990.9926, 586.6123
991.4747, 615.0264
991.9568, 637.4512
992.4389, 633.0752
992.9210, 624.2500
993.4031, 671.2852
993.8853, 756.4199
994.3674, 819.2129
994.8495, 827.7871
995.3316, 833.5400
995.8137, 858.2041
996.2958, 897.2480
996.7780, 944.9814
997.2601, 1003.726
997.7422, 1062.039
998.2243, 1118.282
998.7064, 1178.563
999.1885, 1245.847
999.6707, 1321.373
1000.153, 1415.413
1000.635, 1525.773
1001.117, 1629.497
1001.599, 1700.513
1002.081, 1782.111
1002.563, 1887.997
1003.045, 2017.170
1003.528, 2170.771
1004.010, 2347.656
1004.492, 2533.999
1004.974, 2727.790
1005.456, 2919.735
1005.938, 3086.100
1006.420, 3246.395
1006.902, 3429.741
1007.385, 3651.053
1007.867, 3885.646
1008.349, 4139.140
1008.831, 4391.820
1009.313, 4623.971
1009.795, 4841.160
1010.277, 5075.541
1010.759, 5327.826
1011.241, 5561.127
1011.724, 5743.333
1012.206, 5907.535
1012.688, 6087.097
1013.170, 6271.094
1013.652, 6381.446
1014.134, 6407.881
1014.616, 6414.740
1015.098, 6433.198
1015.581, 6421.213
1016.063, 6312.549
1016.545, 6126.369
1017.027, 5893.494
1017.509, 5601.168
1017.991, 5294.635
1018.473, 4980.271
1018.955, 4664.633
1019.437, 4352.969
1019.920, 4043.608
1020.402, 3753.834
1020.884, 3485.699
1021.366, 3214.841
1021.848, 2904.467
1022.330, 2601.652
1022.812, 2348.774
1023.294, 2142.635
1023.776, 1930.176
1024.259, 1680.979
1024.741, 1491.203
1025.223, 1407.534
1025.705, 1369.768
1026.187, 1239.037
1026.669, 1049.319
1027.151, 904.0947
1027.633, 851.2129
1028.116, 808.0674
1028.598, 733.8867
1029.080, 653.9873
1029.562, 592.8428
1030.044, 555.6914
1030.526, 494.4326
1031.008, 406.0469
1031.490, 332.4951
1031.973, 325.1865
1032.455, 337.3389
1032.937, 309.3564
1033.419, 247.7949
1033.901, 201.5469
1034.383, 183.3916
1034.865, 178.7188
1035.347, 187.5273
1035.829, 205.2822
1036.312, 230.4775
1036.794, 258.0361
1037.276, 262.1572
1037.758, 231.5078
1038.240, 197.8223
1038.722, 176.9580
1039.204, 164.4453
1039.686, 159.3535
1040.168, 164.4736
1040.651, 149.1348
1041.133, 110.6377
1041.615, 70.91211
1042.097, 39.12891
1042.579, 18.20508
1043.061, 15.77246
1043.543, 28.10059
1044.025, 42.49805
1044.508, 58.40723
1044.990, 71.82520
1045.472, 82.13574
1045.954, 89.85059
1046.436, 95.15527
1046.918, 98.27051
1047.400, 101.2031
1047.882, 104.6357
1048.365, 104.3496
1048.847, 83.88477
1049.329, 68.94727
1049.811, 92.61621
1050.293, 154.6172
1050.775, 162.5957
1051.257, 106.0332
1051.739, 47.49023
1052.221, 7.274414
1052.703, 10.60254
1053.186, 16.57715
1053.668, 68.66309
1054.150, 102.7080
1054.632, 99.55176
1055.114, 81.37207
1055.596, 38.96973
1056.078, 0.2851560
1056.560, 2.141602
1057.043, 26.85742
1057.525, 46.65918
1058.007, 54.70703
1058.489, 55.07715
1058.971, 45.60742
1059.453, 33.80273
1059.935, 20.79492
1060.417, 8.973633
1060.900, 10.88672
1061.382, 28.85742
1061.864, 47.45703
1062.346, 63.62891
1062.828, 75.60449
1063.310, 83.60840
1063.792, 84.96094
1064.274, 73.68945
1064.756, 40.16504
1065.239, 16.75195
1065.721, 10.40332
1066.203, 7.727539
1066.685, 3.844727
1067.167, 19.68457
1067.649, 7.203125
1068.131, 27.14746
1068.613, 44.90430
1069.095, 7.122070
1069.578, 33.31543
1070.060, 47.67969
1070.542, 48.78320
1071.024, 64.35059
1071.506, 99.29980
1071.988, 96.59961
1072.470, 42.13574
1072.952, 9.645508
1073.435, 15.06250
1073.917, 61.70996
1074.399, 65.76953
1074.881, 17.09277
1075.363, 15.14648
1075.845, 23.87305
1076.327, 19.53027
1076.809, 2.180664
1077.292, 25.91602
1077.774, 0.7841800
1078.256, 52.75098
1078.738, 76.48535
1079.220, 30.77148
1079.702, 12.65332
1080.184, 40.04883
1080.666, 46.35938
1081.148, 18.59082
1081.630, 44.69434
1082.113, 81.13672
1082.595, 90.25000
1083.077, 89.17188
1083.559, 91.58203
1084.041, 86.80273
1084.523, 51.44238
1085.005, 1.670898
1085.488, 5.208008
1085.970, 44.67090
1086.452, 95.12109
1086.934, 140.5469
1087.416, 172.4844
1087.898, 172.8691
1088.380, 155.8613
1088.862, 141.9922
1089.344, 134.4521
1089.827, 128.8994
1090.309, 120.4258
1090.791, 119.6611
1091.273, 132.8359
1091.755, 156.0195
1092.237, 181.4893
1092.719, 206.3877
1093.201, 220.4189
1093.683, 216.1914
1094.166, 203.1562
1094.648, 166.1992
1095.130, 136.2393
1095.612, 153.1553
1096.094, 226.5615
1096.576, 242.6611
1097.058, 197.9570
1097.540, 154.3271
1098.023, 163.8467
1098.505, 189.4189
1098.987, 203.4961
1099.469, 205.3115
1099.951, 196.9785
1100.433, 170.5352
1100.915, 159.0068
1101.397, 168.9336
1101.880, 191.8750
1102.362, 230.6621
1102.844, 270.1016
1103.326, 280.1201
1103.808, 252.5000
1104.290, 228.8174
1104.772, 223.9365
1105.254, 216.9912
1105.736, 193.1748
1106.219, 167.2295
1106.701, 198.3516
1107.183, 266.3320
1107.665, 302.5088
1108.147, 267.2510
1108.629, 224.5752
1109.111, 191.2256
1109.593, 175.4072
1110.075, 190.1934
1110.558, 240.3242
1111.040, 257.6748
1111.522, 242.4697
1112.004, 222.6172
1112.486, 213.8867
1112.968, 210.7041
1113.450, 208.9863
1113.932, 209.3164
1114.415, 215.8096
1114.897, 236.6143
1115.379, 234.5273
1115.861, 193.9805
1116.343, 162.4395
1116.825, 225.0518
1117.307, 312.0967
1117.789, 309.2910
1118.271, 209.8682
1118.754, 147.4170
1119.236, 158.0312
1119.718, 184.8281
1120.200, 217.2676
1120.682, 245.6484
1121.164, 247.2217
1121.646, 229.7793
1122.128, 212.8799
1122.610, 202.2881
1123.093, 192.8135
1123.575, 181.2705
1124.057, 170.7061
1124.539, 160.6055
1125.021, 151.4092
1125.503, 156.5107
1125.985, 173.7686
1126.467, 185.7471
1126.950, 172.1729
1127.432, 156.8027
1127.914, 161.3838
1128.396, 170.1240
1128.878, 157.9883
1129.360, 119.3721
1129.842, 93.83984
1130.324, 85.91113
1130.807, 91.95508
1131.289, 114.1875
1131.771, 136.9189
1132.253, 157.7529
1132.735, 176.3926
1133.217, 167.5938
1133.699, 118.0059
1134.181, 79.87793
1134.663, 61.37695
1135.146, 54.99414
1135.628, 61.10059
1136.110, 72.83887
1136.592, 81.61035
1137.074, 86.46289
1137.556, 86.89941
1138.038, 76.82324
1138.520, 76.91699
1139.002, 101.7549
1139.485, 135.0137
1139.967, 133.8369
1140.449, 111.9639
1140.931, 102.3867
1141.413, 120.8203
1141.895, 132.2861
1142.377, 122.5361
1142.859, 108.6172
1143.342, 100.1836
1143.824, 97.87988
1144.306, 97.32520
1144.788, 97.86523
1145.270, 96.24023
1145.752, 87.90332
1146.234, 80.60059
1146.716, 77.04297
1147.198, 76.46875
1147.681, 79.02930
1148.163, 85.32715
1148.645, 92.68848
1149.127, 101.3418
1149.609, 99.25977
1150.091, 53.73535
1150.573, 19.08398
1151.055, 48.42285
1151.537, 113.0869
1152.020, 135.7080
1152.502, 111.4873
1152.984, 85.14551
1153.466, 61.37109
1153.948, 49.53809
1154.430, 76.16699
1154.912, 106.1787
1155.394, 100.2295
1155.877, 57.21973
1156.359, 38.09473
1156.841, 46.75879
1157.323, 63.66699
1157.805, 85.41699
1158.287, 107.7783
1158.769, 140.0127
1159.251, 162.7197
1159.734, 136.2119
1160.216, 28.19141
1160.698, 6.417969
1161.180, 113.6924
1161.662, 202.4043
1162.144, 191.5469
1162.626, 124.8994
1163.108, 61.14160
1163.590, 10.83984
1164.073, 4.267578
1164.555, 55.25586
1165.037, 89.53223
1165.519, 74.89648
1166.001, 64.07520
1166.483, 119.1074
1166.965, 204.2373
1167.447, 195.5146
1167.929, 117.2666
1168.412, 67.37500
1168.894, 132.3203
1169.376, 165.7412
1169.858, 127.9609
1170.340, 69.12988
1170.822, 54.00293
1171.304, 68.59180
1171.786, 53.17676
1172.269, 7.251953
1172.751, 21.64062
1173.233, 0.6259770
1173.715, 34.66992
1174.197, 83.03613
1174.679, 126.6982
1175.161, 124.4219
1175.643, 83.29199
1176.125, 43.36719
1176.608, 10.06055
1177.090, 10.34375
1177.572, 6.500977
1178.054, 4.214844
1178.536, 15.76270
1179.018, 25.01074
1179.500, 14.37207
1179.982, 12.61230
1180.464, 10.45117
1180.947, 39.87109
1181.429, 94.75586
1181.911, 147.5791
1182.393, 169.7861
1182.875, 123.9980
1183.357, 17.30664
1183.839, 15.51660
1184.321, 23.41602
1184.804, 62.93652
1185.286, 70.41602
1185.768, 71.23633
1186.250, 90.11328
1186.732, 109.8857
1187.214, 108.4473
1187.696, 81.72363
1188.178, 74.29980
1188.661, 87.32617
1189.143, 87.44434
1189.625, 27.61230
1190.107, 27.74316
1190.589, 9.233398
1191.071, 44.26758
1191.553, 62.14844
1192.035, 28.70996
1192.517, 25.12598
1193.000, 56.77930
1193.482, 88.55371
1193.964, 88.03809
1194.446, 78.99707
1194.928, 82.72656
1195.410, 96.49805
1195.892, 110.4014
1196.374, 124.9248
1196.856, 134.0645
1197.339, 136.8193
1197.821, 131.7217
1198.303, 109.0117
1198.785, 84.35840
1199.267, 73.28516
1199.749, 75.63770
1200.231, 77.92285
1200.713, 77.12500
1201.196, 85.04199
1201.678, 105.3896
1202.160, 130.5322
1202.642, 149.2852
1203.124, 160.4785
1203.606, 182.6426
1204.088, 211.3711
1204.570, 182.7178
1205.052, 67.33691
1205.535, 8.420898
1206.017, 65.72168
1206.499, 144.9336
1206.981, 106.8721
1207.463, 22.33691
1207.945, 2.562500
1208.427, 75.53223
1208.909, 124.0967
1209.392, 141.2275
1209.874, 141.3096
1210.356, 134.9150
1210.838, 127.1475
1211.320, 121.2930
1211.802, 127.2168
1212.284, 137.4023
1212.766, 154.7842
1213.249, 154.6064
1213.731, 144.2217
1214.213, 124.9990
1214.695, 88.09570
1215.177, 57.67871
1215.659, 83.92090
1216.141, 130.5449
1216.623, 153.5801
1217.105, 131.7197
1217.588, 110.1484
1218.070, 88.59180
1218.552, 74.85449
1219.034, 88.30566
1219.516, 103.9404
1219.998, 72.88965
1220.480, 18.88672
1220.962, 1.2695000E-02
1221.444, 53.08496
1221.927, 71.01074
1222.409, 40.94531
1222.891, 16.69629
1223.373, 63.40820
1223.855, 124.1758
1224.337, 121.8350
1224.819, 76.56836
1225.301, 78.37988
1225.784, 178.9912
1226.266, 213.0293
1226.748, 157.0195
1227.230, 78.40039
1227.712, 22.53906
1228.194, 4.130859
1228.676, 28.54102
1229.158, 102.7988
1229.641, 126.6455
1230.123, 72.11621
1230.605, 46.54004
1231.087, 69.88477
1231.569, 99.01270
1232.051, 97.16602
1232.533, 83.51953
1233.015, 88.88281
1233.497, 110.7422
1233.979, 123.6641
1234.462, 129.1436
1234.944, 107.8691
1235.426, 44.65625
1235.908, 3.739258
1236.390, 39.16309
1236.872, 101.0156
1237.354, 95.21875
1237.836, 20.70703
1238.319, 1.393555
1238.801, 48.09473
1239.283, 74.41992
1239.765, 70.48730
1240.247, 48.41211
1240.729, 21.67383
1241.211, 0.1074220
1241.693, 0.0000000E+00
##END=



