##NAMES=Russellite
##RRUFFID=R060860
##IDEAL CHEMISTRY=Bi_2_WO_6_
##LOCALITY=Castle-an-Dimas mine, Saint Columb Major, Cornwall, England
##OWNER=RRUFF
##SOURCE=Michael Scott
##DESCRIPTION=Brownish-yellow granular
##STATUS=The identification of this mineral has been confirmed by X-ray diffraction and chemical analysis
##URL=rruff.info/R060860
##MEASURED CHEMISTRY=lighter phase: (Bi_1.94_Fe^3+^_0.06_)_Σ=2_W_1.00_O_6_; darker phase: (Bi_1.95_Fe^3+^_0.05_)_Σ=2_W_1.00_O_6_; 
135.5044, 0.0000000E+00
135.9865, 8.851563
136.4686, 23.00586
136.9508, 109.9199
137.4329, 213.5156
137.9150, 319.4668
138.3971, 424.3984
138.8792, 515.4414
139.3613, 592.8945
139.8434, 719.7129
140.3256, 915.8457
140.8077, 1134.145
141.2898, 1326.402
141.7719, 1477.889
142.2540, 1624.715
142.7361, 1773.033
143.2183, 1925.697
143.7004, 2067.133
144.1825, 2189.762
144.6646, 2312.439
145.1467, 2451.074
145.6288, 2596.814
146.1110, 2766.330
146.5931, 2964.869
147.0752, 3219.316
147.5573, 3434.189
148.0394, 3594.264
148.5215, 3712.209
149.0037, 3828.828
149.4858, 3962.410
149.9679, 4078.217
150.4500, 4163.516
150.9321, 4192.109
151.4142, 4221.699
151.8964, 4258.945
152.3785, 4303.266
152.8606, 4359.938
153.3427, 4512.037
153.8248, 4660.908
154.3069, 4766.340
154.7890, 4774.402
155.2712, 4778.262
155.7533, 4823.105
156.2354, 4904.176
156.7175, 4938.252
157.1996, 4894.324
157.6817, 4813.916
158.1639, 4710.805
158.6460, 4573.828
159.1281, 4434.277
159.6102, 4300.902
160.0923, 4181.914
160.5744, 4048.723
161.0566, 3880.377
161.5387, 3690.484
162.0208, 3499.029
162.5029, 3301.477
162.9850, 3109.852
163.4671, 2936.779
163.9493, 2795.527
164.4314, 2636.172
164.9135, 2428.332
165.3956, 2185.158
165.8777, 1934.148
166.3598, 1676.633
166.8420, 1424.455
167.3241, 1186.801
167.8062, 965.0020
168.2883, 762.0977
168.7704, 585.9492
169.2525, 432.5391
169.7346, 284.8984
170.2168, 115.7793
170.6989, 12.90763
171.1810, 52.88344
171.6631, 75.13399
172.1452, 80.61174
172.6273, 19.08035
173.1095, 44.07727
173.5916, 34.39763
174.0737, 23.29606
174.5558, 60.47158
175.0379, 8.686522
175.5201, 45.09635
176.0022, 46.30044
176.4843, 63.61736
176.9664, 46.04347
177.4485, 39.24624
177.9306, 67.35101
178.4128, 76.13017
178.8949, 54.53978
179.3770, 72.88094
179.8591, 19.87706
180.3412, 29.47944
180.8233, 66.09359
181.3055, 46.25741
181.7876, 65.23649
182.2697, 69.43260
182.7518, 6.446381
183.2339, 60.29699
183.7160, 23.11328
184.1982, 63.99609
184.6803, 82.89062
185.1624, 107.9336
185.6445, 193.0312
186.1266, 329.5234
186.6087, 455.2109
187.0908, 525.4336
187.5730, 552.3008
188.0551, 579.8594
188.5372, 611.5508
189.0193, 648.4766
189.5014, 698.1250
189.9835, 761.5703
190.4657, 824.4258
190.9478, 877.1914
191.4299, 921.8672
191.9120, 966.5117
192.3941, 1015.059
192.8762, 1061.629
193.3584, 1076.090
193.8405, 1067.000
194.3226, 1062.641
194.8047, 1082.324
195.2868, 1125.953
195.7689, 1183.203
196.2511, 1264.500
196.7332, 1355.484
197.2153, 1391.930
197.6974, 1363.398
198.1795, 1335.145
198.6616, 1365.547
199.1438, 1459.129
199.6259, 1567.152
200.1080, 1686.953
200.5901, 1814.738
201.0722, 1920.094
201.5543, 2000.820
202.0364, 2067.250
202.5186, 2121.238
203.0007, 2156.668
203.4828, 2214.672
203.9649, 2316.652
204.4470, 2457.105
204.9291, 2548.016
205.4113, 2573.090
205.8934, 2579.809
206.3755, 2621.234
206.8576, 2700.168
207.3397, 2801.617
207.8218, 2942.051
208.3040, 3126.145
208.7861, 3210.848
209.2682, 3158.859
209.7503, 3061.234
210.2324, 3049.430
210.7145, 3153.848
211.1967, 3253.359
211.6788, 3306.332
212.1609, 3306.156
212.6430, 3319.902
213.1251, 3350.855
213.6072, 3393.984
214.0894, 3444.410
214.5715, 3507.660
215.0536, 3565.273
215.5357, 3602.871
216.0178, 3608.988
216.4999, 3649.328
216.9820, 3743.203
217.4642, 3853.402
217.9463, 3903.250
218.4284, 3854.406
218.9105, 3817.219
219.3926, 3847.508
219.8747, 3983.891
220.3569, 4057.594
220.8390, 4043.637
221.3211, 3978.574
221.8032, 3949.039
222.2853, 3975.504
222.7674, 4004.059
223.2496, 4011.473
223.7317, 3995.734
224.2138, 3968.277
224.6959, 3923.648
225.1780, 3870.680
225.6601, 3831.445
226.1423, 3805.254
226.6244, 3794.410
227.1065, 3802.934
227.5886, 3844.824
228.0707, 3865.543
228.5528, 3851.297
229.0350, 3813.391
229.5171, 3791.305
229.9992, 3788.434
230.4813, 3796.605
230.9634, 3811.094
231.4455, 3833.008
231.9276, 3864.383
232.4098, 3917.461
232.8919, 3982.680
233.3740, 4009.395
233.8561, 3982.152
234.3382, 3939.637
234.8203, 3901.246
235.3025, 3857.508
235.7846, 3840.402
236.2667, 3851.508
236.7488, 3891.598
237.2309, 3963.301
237.7130, 4082.176
238.1952, 4213.664
238.6773, 4340.406
239.1594, 4470.375
239.6415, 4575.133
240.1236, 4635.277
240.6057, 4662.832
241.0879, 4739.406
241.5700, 4891.094
242.0521, 5057.160
242.5342, 5196.301
243.0163, 5287.051
243.4984, 5392.719
243.9806, 5518.984
244.4627, 5663.785
244.9448, 5820.445
245.4269, 6005.355
245.9090, 6178.680
246.3911, 6309.945
246.8732, 6365.695
247.3554, 6444.699
247.8375, 6570.266
248.3196, 6732.648
248.8017, 6855.227
249.2838, 6925.480
249.7659, 6969.863
250.2481, 7006.723
250.7302, 7036.801
251.2123, 7062.551
251.6944, 7086.312
252.1765, 7109.113
252.6586, 7130.949
253.1408, 7157.852
253.6229, 7181.129
254.1050, 7194.203
254.5871, 7192.594
255.0692, 7195.352
255.5513, 7205.230
256.0334, 7222.258
256.5156, 7244.391
256.9977, 7269.566
257.4798, 7302.098
257.9619, 7350.770
258.4440, 7434.922
258.9261, 7480.953
259.4083, 7465.797
259.8904, 7397.164
260.3725, 7344.590
260.8546, 7293.180
261.3367, 7276.738
261.8188, 7332.543
262.3010, 7497.180
262.7831, 7625.598
263.2652, 7687.059
263.7473, 7693.273
264.2294, 7730.094
264.7115, 7811.234
265.1937, 7897.547
265.6758, 7953.828
266.1579, 7965.316
266.6400, 8001.781
267.1221, 8089.152
267.6042, 8211.863
268.0864, 8261.199
268.5685, 8200.273
269.0506, 8147.074
269.5327, 8194.824
270.0148, 8364.047
270.4969, 8551.758
270.9791, 8755.867
271.4612, 8968.711
271.9433, 9142.707
272.4254, 9269.801
272.9075, 9381.555
273.3896, 9481.121
273.8718, 9553.531
274.3539, 9715.879
274.8360, 10022.26
275.3181, 10416.22
275.8002, 10684.66
276.2823, 10804.57
276.7645, 10876.63
277.2466, 10955.30
277.7287, 11036.39
278.2108, 11167.77
278.6929, 11373.99
279.1750, 11620.79
279.6572, 11802.13
280.1393, 11907.66
280.6214, 11996.57
281.1035, 12112.34
281.5856, 12255.16
282.0677, 12378.30
282.5499, 12472.93
283.0320, 12547.41
283.5141, 12627.72
283.9962, 12716.96
284.4783, 12786.07
284.9604, 12793.90
285.4425, 12747.10
285.9247, 12758.47
286.4068, 12852.31
286.8889, 12991.38
287.3710, 13095.33
287.8531, 13163.62
288.3352, 13251.03
288.8174, 13401.09
289.2995, 13604.66
289.7816, 13805.27
290.2637, 13992.32
290.7458, 14176.66
291.2279, 14363.01
291.7101, 14552.80
292.1922, 14775.14
292.6743, 15076.19
293.1564, 15426.97
293.6385, 15713.65
294.1206, 15909.69
294.6028, 16085.95
295.0849, 16365.65
295.5670, 16729.82
296.0491, 17062.07
296.5312, 17265.52
297.0133, 17394.73
297.4955, 17579.14
297.9776, 17835.37
298.4597, 18106.63
298.9418, 18321.32
299.4239, 18492.36
299.9060, 18658.99
300.3882, 18886.25
300.8703, 19109.57
301.3524, 19202.37
301.8345, 19145.02
302.3166, 19032.66
302.7987, 18954.02
303.2809, 18887.58
303.7630, 18781.80
304.2451, 18643.72
304.7272, 18435.87
305.2093, 18088.54
305.6914, 17585.93
306.1736, 17063.89
306.6557, 16648.71
307.1378, 16278.63
307.6199, 15845.38
308.1020, 15279.93
308.5841, 14644.94
309.0663, 13963.05
309.5484, 13228.21
310.0305, 12547.18
310.5126, 12022.59
310.9947, 11571.18
311.4768, 11097.36
311.9590, 10524.43
312.4411, 9952.293
312.9232, 9446.395
313.4053, 9002.930
313.8874, 8601.492
314.3695, 8228.289
314.8517, 7882.547
315.3337, 7560.953
315.8159, 7274.504
316.2980, 7001.316
316.7801, 6728.086
317.2622, 6457.887
317.7443, 6199.016
318.2264, 5962.848
318.7086, 5739.223
319.1907, 5521.574
319.6728, 5291.070
320.1549, 5092.375
320.6370, 4951.930
321.1191, 4857.387
321.6013, 4764.754
322.0834, 4664.031
322.5655, 4560.895
323.0476, 4456.406
323.5297, 4337.531
324.0118, 4233.891
324.4940, 4151.777
324.9761, 4087.160
325.4582, 4030.000
325.9403, 3991.059
326.4224, 3949.953
326.9045, 3899.340
327.3867, 3841.777
327.8688, 3761.586
328.3509, 3632.305
328.8330, 3486.523
329.3151, 3374.242
329.7972, 3338.090
330.2794, 3288.539
330.7615, 3198.871
331.2436, 3059.793
331.7257, 2920.082
332.2078, 2766.832
332.6899, 2620.145
333.1721, 2509.156
333.6542, 2461.879
334.1363, 2406.625
334.6184, 2323.789
335.1005, 2212.758
335.5826, 2099.809
336.0648, 1977.645
336.5469, 1863.922
337.0290, 1779.375
337.5111, 1737.770
337.9932, 1676.570
338.4753, 1573.898
338.9575, 1438.445
339.4396, 1334.328
339.9217, 1269.633
340.4038, 1209.574
340.8859, 1119.332
341.3680, 996.3828
341.8502, 887.0234
342.3323, 805.2578
342.8144, 740.7012
343.2965, 667.6895
343.7786, 584.2891
344.2607, 506.4512
344.7429, 448.8262
345.2250, 409.8105
345.7071, 361.0566
346.1892, 294.2129
346.6713, 225.7832
347.1534, 173.6543
347.6355, 138.6328
348.1176, 125.5410
348.5998, 150.4141
349.0819, 198.0234
349.5640, 228.0996
350.0461, 236.6582
350.5282, 223.6973
351.0103, 166.2148
351.4925, 81.25000
351.9746, 22.42188
352.4567, 49.31836
352.9388, 104.6914
353.4209, 100.8340
353.9030, 32.90625
354.3852, 41.47656
354.8673, 81.03711
355.3494, 92.62695
355.8315, 88.05469
356.3136, 36.67188
356.7957, 6.125000
357.2779, 15.04102
357.7600, 94.71094
358.2421, 173.3555
358.7242, 223.9668
359.2063, 254.0645
359.6884, 270.4766
360.1706, 265.2031
360.6527, 259.0391
361.1348, 268.0020
361.6169, 286.8008
362.0990, 292.6777
362.5811, 256.9258
363.0633, 220.8125
363.5454, 211.6641
364.0275, 252.3379
364.5096, 287.9707
364.9917, 302.1387
365.4738, 302.7520
365.9560, 306.2969
366.4381, 325.3594
366.9202, 337.9648
367.4023, 334.9082
367.8844, 309.4668
368.3665, 284.3555
368.8487, 252.1992
369.3308, 223.2500
369.8129, 210.2734
370.2950, 222.2871
370.7771, 238.4590
371.2592, 260.7891
371.7414, 290.7715
372.2235, 295.4609
372.7056, 264.2988
373.1877, 219.4961
373.6698, 181.5645
374.1519, 156.5742
374.6341, 124.6992
375.1162, 78.79492
375.5983, 24.07812
376.0804, 15.00195
376.5625, 38.97852
377.0446, 45.81250
377.5267, 29.73828
378.0089, 12.11328
378.4910, 49.85156
378.9731, 81.79297
379.4552, 106.9844
379.9373, 121.2969
380.4194, 124.1094
380.9016, 116.6094
381.3837, 92.79297
381.8658, 56.58984
382.3479, 31.69141
382.8300, 19.46094
383.3121, 13.45117
383.7943, 15.35938
384.2764, 19.35547
384.7585, 2.597656
385.2406, 57.64844
385.7227, 138.4160
386.2048, 197.1055
386.6870, 233.7852
387.1691, 270.6348
387.6512, 338.3281
388.1333, 414.4023
388.6154, 461.8945
389.0975, 452.3457
389.5797, 429.4766
390.0618, 433.0293
390.5439, 455.9395
391.0260, 473.2031
391.5081, 455.4375
391.9902, 437.2461
392.4724, 448.7891
392.9545, 509.1172
393.4366, 569.2246
393.9187, 606.5938
394.4008, 631.3691
394.8829, 660.6016
395.3651, 710.4766
395.8472, 756.3750
396.3293, 781.5996
396.8114, 776.6328
397.2935, 795.7969
397.7756, 871.5371
398.2578, 964.2949
398.7399, 1034.186
399.2220, 1052.311
399.7041, 1074.441
400.1862, 1109.148
400.6683, 1155.924
401.1505, 1200.654
401.6326, 1231.213
402.1147, 1272.227
402.5968, 1343.889
403.0789, 1471.109
403.5610, 1568.498
404.0432, 1623.123
404.5253, 1649.889
405.0074, 1684.389
405.4895, 1723.443
405.9716, 1778.311
406.4537, 1865.512
406.9359, 1989.057
407.4180, 2072.143
407.9001, 2106.615
408.3822, 2120.518
408.8643, 2147.547
409.3464, 2187.596
409.8285, 2238.131
410.3106, 2303.727
410.7928, 2376.926
411.2749, 2439.746
411.7570, 2492.617
412.2391, 2534.395
412.7212, 2563.902
413.2033, 2582.078
413.6855, 2589.721
414.1676, 2584.596
414.6497, 2576.053
415.1318, 2566.197
415.6139, 2556.395
416.0960, 2560.326
416.5782, 2604.418
417.0603, 2657.189
417.5424, 2693.184
418.0245, 2713.141
418.5066, 2700.230
418.9887, 2621.068
419.4709, 2507.477
419.9530, 2404.514
420.4351, 2332.887
420.9172, 2276.125
421.3993, 2230.518
421.8814, 2193.355
422.3636, 2153.904
422.8457, 2119.891
423.3278, 2080.637
423.8099, 2028.203
424.2920, 1938.420
424.7741, 1861.680
425.2563, 1811.541
425.7384, 1780.539
426.2205, 1741.857
426.7026, 1694.180
427.1847, 1640.787
427.6668, 1578.260
428.1490, 1495.143
428.6311, 1438.664
429.1132, 1417.811
429.5953, 1410.135
430.0774, 1383.184
430.5595, 1332.451
431.0417, 1296.215
431.5238, 1289.135
432.0059, 1304.385
432.4880, 1311.473
432.9701, 1312.422
433.4522, 1299.709
433.9344, 1257.832
434.4165, 1191.273
434.8986, 1125.428
435.3807, 1056.301
435.8628, 1001.570
436.3449, 1015.020
436.8271, 1080.691
437.3092, 1118.010
437.7913, 1053.537
438.2734, 945.6621
438.7555, 871.5254
439.2376, 838.3672
439.7197, 826.3633
440.2018, 839.2363
440.6840, 856.9004
441.1661, 851.5273
441.6482, 782.5469
442.1303, 712.8809
442.6124, 678.3047
443.0945, 676.9434
443.5767, 682.2188
444.0588, 682.5820
444.5409, 683.8691
445.0230, 691.4883
445.5051, 716.4336
445.9872, 732.8008
446.4694, 731.8047
446.9515, 718.7715
447.4336, 705.7441
447.9157, 708.5098
448.3978, 695.6289
448.8799, 647.2324
449.3621, 554.0547
449.8442, 516.0273
450.3263, 565.9355
450.8084, 631.1973
451.2905, 639.1973
451.7726, 567.6875
452.2548, 526.9102
452.7369, 544.7090
453.2190, 595.0293
453.7011, 598.9785
454.1832, 551.2949
454.6653, 495.8926
455.1475, 451.6094
455.6296, 420.4844
456.1117, 414.6875
456.5938, 439.7754
457.0759, 462.5156
457.5580, 435.9551
458.0402, 374.4395
458.5223, 320.5957
459.0044, 282.6289
459.4865, 265.8125
459.9686, 295.5898
460.4507, 362.8066
460.9329, 407.0254
461.4150, 356.8828
461.8971, 281.5840
462.3792, 246.9590
462.8613, 279.2148
463.3434, 323.1699
463.8256, 362.8203
464.3077, 395.7090
464.7898, 418.1660
465.2719, 425.8359
465.7540, 425.3574
466.2361, 413.6309
466.7183, 388.1445
467.2004, 377.3223
467.6825, 401.9355
468.1646, 428.4004
468.6467, 432.4531
469.1288, 389.5391
469.6110, 368.9473
470.0930, 392.8633
470.5752, 435.7812
471.0573, 413.9863
471.5394, 294.3398
472.0215, 201.4141
472.5036, 205.4102
472.9857, 306.7344
473.4679, 360.4980
473.9500, 358.9961
474.4321, 338.2266
474.9142, 345.7129
475.3963, 374.8809
475.8784, 378.0332
476.3606, 335.8555
476.8427, 271.2812
477.3248, 212.5449
477.8069, 162.1465
478.2890, 133.0547
478.7711, 161.4727
479.2533, 205.2324
479.7354, 203.0059
480.2175, 137.3418
480.6996, 83.73242
481.1817, 108.6152
481.6638, 171.8789
482.1460, 219.0645
482.6281, 201.4824
483.1102, 189.5195
483.5923, 223.1914
484.0744, 293.9258
484.5565, 333.1113
485.0387, 270.3652
485.5208, 212.7988
486.0029, 222.0684
486.4850, 369.9785
486.9671, 445.7988
487.4492, 413.6699
487.9314, 329.2109
488.4135, 278.2578
488.8956, 275.7188
489.3777, 274.8398
489.8598, 266.8203
490.3419, 252.3320
490.8241, 228.4258
491.3062, 193.5547
491.7883, 158.7363
492.2704, 131.6465
492.7525, 112.5586
493.2346, 100.8086
493.7168, 98.80078
494.1989, 97.60742
494.6810, 75.83203
495.1631, 40.33594
495.6452, 18.11523
496.1273, 27.41211
496.6095, 54.75977
497.0916, 94.79688
497.5737, 144.5195
498.0558, 172.8789
498.5379, 135.5996
499.0201, 80.63477
499.5022, 54.16211
499.9843, 81.78516
500.4664, 112.1270
500.9485, 127.9766
501.4306, 134.7988
501.9127, 141.7734
502.3948, 150.1758
502.8770, 159.5918
503.3591, 167.6387
503.8412, 173.0859
504.3233, 189.0684
504.8054, 222.0977
505.2875, 257.0742
505.7697, 283.2246
506.2518, 298.1191
506.7339, 312.5273
507.2160, 328.5410
507.6981, 341.2637
508.1802, 336.1426
508.6624, 311.4746
509.1445, 294.9746
509.6266, 309.0039
510.1087, 340.7871
510.5908, 338.0391
511.0729, 300.1738
511.5551, 265.6465
512.0372, 276.0391
512.5193, 312.3887
513.0014, 338.6934
513.4835, 344.6797
513.9656, 346.1680
514.4478, 351.4238
514.9299, 361.8164
515.4120, 379.5527
515.8941, 407.5078
516.3762, 439.8262
516.8583, 477.4316
517.3405, 520.9062
517.8226, 552.2480
518.3047, 563.9141
518.7868, 563.8965
519.2689, 556.4824
519.7510, 533.4160
520.2332, 514.9355
520.7153, 500.3984
521.1974, 492.2812
521.6795, 498.9766
522.1616, 531.1094
522.6437, 550.2461
523.1259, 542.3223
523.6080, 509.5684
524.0901, 463.5332
524.5722, 398.1543
525.0543, 352.2227
525.5364, 372.0762
526.0186, 441.5977
526.5007, 490.9805
526.9828, 508.0879
527.4649, 508.2266
527.9470, 514.1934
528.4291, 517.2637
528.9113, 497.0020
529.3934, 399.8047
529.8755, 308.0332
530.3576, 307.9473
530.8397, 388.4316
531.3218, 442.8555
531.8040, 390.7109
532.2861, 315.7754
532.7682, 280.8750
533.2503, 329.8223
533.7324, 344.6270
534.2145, 268.4590
534.6967, 163.9785
535.1788, 120.0039
535.6609, 195.5938
536.1430, 238.1641
536.6251, 205.2598
537.1072, 111.9004
537.5894, 60.99805
538.0715, 60.97461
538.5536, 74.41992
539.0357, 74.69141
539.5178, 64.03320
539.9999, 84.30859
540.4821, 140.7715
540.9642, 205.4258
541.4463, 255.7773
541.9284, 288.4297
542.4105, 290.8359
542.8926, 234.4824
543.3748, 174.0391
543.8569, 183.4648
544.3390, 244.1348
544.8211, 289.5781
545.3032, 260.9258
545.7853, 222.7773
546.2675, 223.5918
546.7495, 274.4297
547.2316, 318.5293
547.7137, 340.0898
548.1959, 348.6191
548.6780, 352.8965
549.1601, 369.9180
549.6422, 360.0098
550.1243, 309.0117
550.6064, 233.5254
551.0886, 171.4121
551.5707, 117.6484
552.0528, 92.84570
552.5349, 117.9902
553.0170, 185.1133
553.4991, 200.6367
553.9813, 157.0508
554.4634, 113.1426
554.9455, 131.3652
555.4276, 193.8594
555.9097, 235.6738
556.3918, 244.3789
556.8740, 237.3418
557.3561, 226.9473
557.8382, 215.4375
558.3203, 206.5020
558.8024, 200.2578
559.2845, 198.9727
559.7667, 205.0273
560.2488, 218.0020
560.7309, 235.1289
561.2130, 261.6035
561.6951, 287.0332
562.1772, 307.9141
562.6594, 327.6133
563.1415, 329.0117
563.6236, 295.6543
564.1057, 254.4961
564.5878, 233.9277
565.0699, 236.5449
565.5521, 252.7402
566.0342, 286.5156
566.5163, 327.5352
566.9984, 343.3574
567.4805, 332.7324
567.9626, 324.8281
568.4448, 342.1445
568.9269, 373.8379
569.4090, 388.3496
569.8911, 384.8047
570.3732, 377.4180
570.8553, 378.3203
571.3375, 383.0781
571.8196, 382.7344
572.3017, 369.4316
572.7838, 368.6406
573.2659, 412.1465
573.7480, 473.7422
574.2302, 509.5273
574.7123, 480.2148
575.1944, 454.7637
575.6765, 456.0703
576.1586, 481.3066
576.6407, 503.1445
577.1229, 537.7520
577.6050, 560.5586
578.0871, 568.3516
578.5692, 540.9551
579.0513, 513.8672
579.5334, 483.0664
580.0156, 455.6602
580.4977, 467.3887
580.9798, 500.4180
581.4619, 550.1543
581.9440, 616.3672
582.4261, 691.6914
582.9083, 764.6836
583.3904, 834.5000
583.8725, 875.8477
584.3546, 837.1152
584.8367, 794.8047
585.3188, 827.2559
585.8010, 931.5645
586.2831, 1009.410
586.7652, 981.1523
587.2473, 933.9082
587.7294, 928.0938
588.2115, 1013.938
588.6937, 1067.156
589.1758, 1061.633
589.6579, 1031.057
590.1400, 1016.350
590.6221, 1027.180
591.1042, 1032.973
591.5864, 1029.297
592.0685, 1016.904
592.5506, 993.3438
593.0327, 958.4355
593.5148, 932.3691
593.9969, 928.9590
594.4791, 941.2715
594.9612, 956.9844
595.4433, 976.6230
595.9254, 989.9922
596.4075, 979.4590
596.8896, 957.7207
597.3718, 941.6641
597.8539, 938.6582
598.3360, 941.4629
598.8181, 954.7090
599.3002, 968.9258
599.7823, 970.2051
600.2645, 932.5508
600.7466, 906.3594
601.2287, 910.7207
601.7108, 936.6660
602.1929, 937.5449
602.6750, 895.9180
603.1572, 860.5703
603.6393, 858.0664
604.1214, 887.8359
604.6035, 893.8828
605.0856, 871.0137
605.5677, 850.5039
