##NAMES=Rutile
##RRUFFID=R050031
##IDEAL CHEMISTRY=TiO_2_
##LOCALITY=Chester City, Pennsylvannia, USA
##OWNER=RRUFF
##SOURCE=University of Arizona Mineral Museum
##DESCRIPTION=Reddish brown single crystal fragment
##STATUS=The identification of this mineral has been confirmed by X-ray diffraction and chemical analysis
##URL=rruff.info/R050031
##MEASURED CHEMISTRY=TiO_2_
125.369, 0.000
126.758, 1.086
128.146, 7.676
129.534, 54.990
130.922, 298.010
132.309, 247.018
133.696, 533.274
135.083, 605.637
136.470, 1045.763
137.857, 1056.833
139.243, 1499.518
140.630, 1726.426
142.016, 2060.371
143.401, 2323.427
144.787, 2172.606
146.172, 1791.284
147.557, 1246.998
148.942, 960.141
150.327, 563.666
151.711, 445.515
153.096, 269.624
154.480, 284.943
155.863, 15.438
157.247, 98.084
158.630, 31.860
160.013, 78.259
161.396, 125.301
162.779, 146.533
164.161, 134.264
165.544, 90.241
166.926, 25.249
168.308, 134.667
169.689, 263.455
171.070, 349.618
172.452, 466.455
173.833, 598.571
175.213, 668.378
176.594, 908.824
177.974, 927.864
179.354, 1283.481
180.734, 1487.675
182.114, 1625.466
183.493, 1937.882
184.872, 2226.941
186.251, 2419.655
187.630, 2802.027
189.008, 2828.054
190.387, 3218.714
191.765, 3443.988
193.143, 3474.858
194.520, 3873.308
195.898, 3956.321
197.275, 4110.887
198.652, 4510.994
200.029, 4741.627
201.405, 4992.776
202.782, 5129.434
204.158, 5361.590
205.534, 5816.234
206.909, 6034.361
208.285, 5954.917
209.660, 6220.735
211.035, 6664.809
212.410, 6638.121
213.784, 7155.660
215.159, 7161.405
216.533, 7454.348
217.907, 7948.463
219.281, 7950.726
220.654, 8352.152
222.027, 8394.753
223.400, 8704.493
224.773, 9101.343
226.146, 9255.186
227.518, 9385.952
228.891, 9648.794
230.263, 9705.869
231.634, 10066.197
233.006, 10168.902
234.377, 10238.961
235.748, 10289.580
237.119, 10339.820
238.490, 10333.750
239.860, 10383.403
241.231, 10294.596
242.601, 10405.402
243.970, 10353.721
245.340, 10282.563
246.709, 9993.953
248.079, 9540.865
249.448, 9628.165
250.816, 9159.753
252.185, 9013.601
253.553, 8662.653
254.921, 8330.913
256.289, 8083.383
257.657, 7639.061
259.024, 7545.952
260.391, 7199.059
261.758, 6954.381
263.125, 6557.922
264.492, 6644.680
265.858, 6318.661
267.224, 6191.863
268.590, 6037.287
269.956, 5822.355
271.321, 5711.806
272.687, 5434.902
274.052, 5206.225
275.416, 4905.769
276.781, 4746.971
278.146, 4828.539
279.510, 4394.765
280.874, 4410.217
282.237, 4181.896
283.601, 4086.803
284.964, 3922.560
286.327, 3322.306
287.690, 3525.899
289.053, 3138.724
290.416, 2874.773
291.778, 2865.682
293.140, 2618.613
294.502, 2539.590
295.863, 2319.507
297.225, 2309.378
298.586, 2226.191
299.947, 2058.854
301.308, 1937.392
302.668, 1836.908
304.029, 1937.454
305.389, 1921.838
306.749, 1990.178
308.108, 1828.964
309.468, 2099.266
310.827, 1967.601
312.186, 2068.258
313.545, 2059.234
314.903, 2274.521
316.262, 2226.117
317.620, 2223.682
318.978, 2395.875
320.336, 2382.775
321.693, 2484.967
323.051, 2467.170
324.408, 2501.003
325.765, 2205.076
327.121, 2568.981
328.478, 2275.795
329.834, 2387.260
331.190, 2409.434
332.546, 2503.366
333.902, 2487.672
335.257, 2478.578
336.612, 2438.674
337.967, 2438.200
339.322, 2421.373
340.677, 2468.002
342.031, 2580.359
343.385, 2328.904
344.739, 2645.386
346.093, 2679.835
347.446, 2462.988
348.799, 2746.633
350.153, 2932.719
351.505, 2924.715
352.858, 3024.730
354.210, 3098.644
355.563, 3140.396
356.915, 3280.684
358.267, 3249.021
359.618, 3295.492
360.969, 3301.081
362.321, 3469.039
363.672, 3457.135
365.022, 3553.859
366.373, 3605.839
367.723, 3500.239
369.073, 3615.707
370.423, 3552.376
371.773, 3637.625
373.122, 3658.659
374.471, 3676.075
375.821, 3778.877
377.169, 3649.861
378.518, 3799.028
379.866, 3745.379
381.215, 3751.915
382.563, 4025.632
383.910, 3764.533
385.258, 3917.619
386.605, 4019.887
387.952, 4233.340
389.299, 3978.977
390.646, 4483.801
391.992, 4234.811
393.339, 4568.006
394.685, 4773.387
396.031, 4953.954
397.376, 5414.706
398.722, 5201.638
400.067, 5744.751
401.412, 5814.043
402.757, 5978.512
404.101, 6661.152
405.446, 6843.968
406.790, 6999.954
408.134, 7865.109
409.478, 8142.432
410.821, 8673.923
412.165, 9243.579
413.508, 9746.695
414.851, 10549.392
416.193, 10988.551
417.536, 11597.873
418.878, 12316.358
420.220, 13229.012
421.562, 14061.836
422.904, 14378.821
424.245, 15769.973
425.586, 16733.297
426.927, 17344.781
428.268, 18792.438
429.609, 18938.256
430.949, 19902.242
432.289, 21140.395
433.629, 22804.711
434.969, 22691.195
436.309, 24100.848
437.648, 24315.672
438.987, 25563.650
440.326, 26000.799
441.665, 26383.119
443.003, 26856.824
444.342, 27215.244
445.680, 27034.049
447.018, 26951.025
448.355, 26592.166
449.693, 25524.469
451.030, 24857.936
452.367, 23964.598
453.704, 23219.445
455.041, 21180.482
456.377, 20525.707
457.713, 18725.133
459.049, 17446.744
460.385, 16150.556
461.721, 14918.560
463.056, 13804.761
464.391, 12365.160
465.726, 10968.755
467.061, 10331.550
468.395, 8965.546
469.730, 8132.744
471.064, 7428.149
472.398, 6342.760
473.731, 5895.576
475.065, 5035.599
476.398, 4612.824
477.731, 4006.254
479.064, 3568.887
480.397, 3040.723
481.729, 2706.785
483.062, 2540.055
484.394, 2023.537
485.725, 1765.258
487.057, 1299.223
488.389, 1070.151
489.720, 1029.881
491.051, 718.554
492.382, 537.431
493.712, 537.503
495.043, 238.769
496.373, 129.229
497.703, 185.116
499.032, 40.656
500.362, 74.384
501.691, 113.268
503.020, 255.010
504.349, 400.664
505.678, 216.286
507.007, 403.806
508.335, 300.295
509.663, 521.716
510.991, 384.155
512.319, 224.561
513.646, 480.871
514.973, 255.184
516.300, 392.414
517.627, 139.613
518.954, 161.691
520.280, 558.653
521.607, 90.653
522.933, 322.514
524.259, 310.320
525.584, 290.068
526.910, 338.751
528.235, 201.386
529.560, 225.922
530.885, 35.632
532.209, 8.640
533.534, 221.744
534.858, 150.240
536.182, 125.405
537.506, 135.750
538.829, 262.273
540.152, 331.977
541.476, 450.859
542.799, 562.921
544.121, 623.160
545.444, 953.577
546.766, 926.174
548.088, 1297.948
549.410, 1488.903
550.732, 1781.051
552.053, 1877.383
553.375, 2373.916
554.696, 2504.648
556.017, 2805.561
557.337, 3256.676
558.658, 3500.999
559.978, 3993.532
561.298, 4152.287
562.618, 4952.266
563.938, 5337.477
565.257, 5871.928
566.576, 6620.620
567.895, 6923.552
569.214, 7744.738
570.533, 8562.171
571.851, 9248.830
573.170, 9991.730
574.488, 10727.840
575.805, 11362.209
577.123, 12359.822
578.440, 13077.678
579.758, 14202.765
581.075, 15145.103
582.391, 16022.684
583.708, 17802.475
585.024, 18335.486
586.341, 19369.730
587.657, 21284.189
588.972, 22155.873
590.288, 24024.760
591.603, 25116.859
592.918, 25907.156
594.233, 27800.682
595.548, 29943.404
596.863, 31631.332
598.177, 32899.465
599.491, 34467.797
600.805, 36102.473
602.119, 37775.016
603.432, 39343.887
604.746, 41177.965
606.059, 42679.223
607.372, 43497.668
608.685, 44177.270
609.997, 44933.062
611.309, 45349.031
612.621, 44957.164
613.933, 44909.469
615.245, 45072.926
616.557, 43644.559
617.868, 43135.367
619.179, 41322.316
620.490, 40113.430
621.801, 38087.707
623.111, 37238.141
624.421, 35157.734
625.731, 33935.477
627.041, 31274.383
628.351, 31257.443
629.660, 28131.648
630.970, 27659.004
632.279, 26268.510
633.588, 24283.162
634.896, 23265.955
636.205, 21517.898
637.513, 21378.982
638.821, 19406.209
640.129, 18794.574
641.437, 18080.078
642.744, 17281.717
644.051, 16161.493
645.358, 15547.398
646.665, 15021.438
647.972, 14269.602
649.278, 13750.904
650.584, 13044.330
651.890, 12666.882
653.196, 12906.559
654.502, 11761.361
655.807, 11913.688
657.113, 10893.734
658.418, 10742.688
659.722, 10969.271
661.027, 10346.019
662.331, 9867.183
663.636, 10066.732
664.940, 9668.920
666.244, 9280.962
667.547, 9118.902
668.851, 8707.264
670.154, 9072.947
671.457, 8634.059
672.760, 8519.661
674.062, 8625.054
675.365, 8204.718
676.667, 8350.569
677.969, 7944.618
679.271, 7879.611
680.572, 7845.783
681.874, 7441.633
683.175, 7745.537
684.476, 7796.322
685.777, 7370.345
687.077, 7323.465
688.378, 7028.307
689.678, 7049.242
690.978, 7103.914
692.278, 7017.082
693.577, 6914.828
694.877, 6873.740
696.176, 6655.227
697.475, 6386.818
698.774, 6399.514
700.072, 6206.311
701.371, 6003.209
702.669, 6011.526
703.967, 5851.639
705.265, 5448.461
706.562, 5603.867
707.860, 5392.651
709.157, 5063.771
710.454, 5156.992
711.751, 4709.051
713.047, 4861.195
714.344, 4486.908
715.640, 4390.889
716.936, 4293.996
718.232, 3926.441
719.527, 4137.368
720.823, 3895.834
722.118, 3818.484
723.413, 3581.630
724.708, 3254.410
726.002, 3120.891
727.297, 3354.512
728.591, 2737.991
729.885, 3152.201
731.179, 2920.464
732.472, 2671.035
733.766, 2505.354
735.059, 2512.055
736.352, 2252.114
737.645, 2325.565
738.937, 2328.796
740.230, 2203.612
741.522, 1977.568
742.814, 1932.110
744.106, 1963.628
745.397, 1946.282
746.689, 1739.901
747.980, 1590.879
749.271, 1648.075
750.562, 1503.028
751.853, 1613.789
753.143, 1378.961
754.433, 1439.908
755.723, 1392.573
757.013, 1299.457
758.303, 1448.432
759.592, 1115.451
760.881, 1273.754
762.170, 1152.305
763.459, 1265.660
764.748, 1240.133
766.036, 1162.226
767.325, 1372.157
768.613, 1222.320
769.901, 1409.020
771.188, 1234.764
772.476, 1179.881
773.763, 1248.980
775.050, 1163.326
776.337, 1387.508
777.624, 1433.217
778.910, 1358.211
780.196, 1390.069
781.482, 1474.305
782.768, 1468.338
784.054, 1448.446
785.339, 1433.045
786.625, 1469.435
787.910, 1466.771
789.195, 1644.812
790.479, 1611.221
791.764, 1726.887
793.048, 1698.236
794.332, 1572.646
795.616, 1862.533
796.900, 1591.922
798.183, 1810.939
799.467, 1640.161
800.750, 1748.063
802.033, 1766.816
803.316, 1630.050
804.598, 1721.743
805.880, 1564.611
807.163, 1711.220
808.445, 1725.616
809.726, 1641.910
811.008, 1655.681
812.289, 1655.282
813.570, 1554.471
814.851, 1573.428
816.132, 1606.100
817.413, 1485.949
818.693, 1464.794
819.973, 1446.282
821.253, 1458.254
822.533, 1413.163
823.813, 1612.393
825.092, 1325.271
826.371, 1458.325
827.650, 1317.546
828.929, 1249.769
830.208, 1410.776
831.486, 1297.687
832.764, 1158.810
834.042, 1040.019
835.320, 1001.137
836.598, 1066.287
837.875, 1047.483
839.152, 910.371
840.429, 811.504
841.706, 813.144
842.983, 620.960
844.259, 547.422
845.536, 575.059
846.812, 441.457
848.088, 454.861
849.363, 259.276
850.639, 260.103
851.914, 195.620
853.189, 189.813
854.464, 132.827
855.739, 68.774
857.013, 93.592
858.288, 68.361
859.562, 11.845
860.836, 31.553
862.110, 32.386
863.383, 29.111
864.656, 47.869
865.930, 34.223
867.203, 54.500
868.475, 70.008
869.748, 99.330
871.020, 116.105
872.292, 151.208
873.564, 171.416
874.836, 170.132
876.108, 173.908
877.379, 211.876
878.650, 203.168
879.922, 121.967
881.192, 116.060
882.463, 139.976
883.733, 201.046
885.004, 170.710
886.274, 179.315
887.544, 134.403
888.813, 200.785
890.083, 188.108
891.352, 38.354
892.621, 92.724
893.890, 124.109
895.159, 83.067
896.427, 112.041
897.695, 32.104
898.964, 45.113
900.232, 16.667
901.499, 97.611
902.767, 43.849
904.034, 6.814
905.301, 59.188
906.568, 37.717
907.835, 69.619
909.102, 103.476
910.368, 36.580
911.634, 15.801
912.900, 98.644
914.166, 30.132
915.432, 149.447
916.697, 15.444
917.962, 122.289
919.227, 133.793
920.492, 174.624
921.757, 152.340
923.021, 153.664
924.285, 189.993
925.550, 194.914
926.813, 243.771
928.077, 145.547
929.341, 229.058
930.604, 215.409
931.867, 226.658
933.130, 267.651
934.393, 166.149
935.655, 284.776
936.918, 253.803
938.180, 348.582
939.442, 275.975
940.703, 302.194
941.965, 275.263
943.226, 336.838
944.488, 284.555
945.749, 361.725
947.009, 411.128
948.270, 367.043
949.530, 399.316
950.791, 383.491
952.051, 415.268
953.311, 434.149
954.570, 385.719
955.830, 442.259
957.089, 421.373
958.348, 452.381
959.607, 477.255
960.866, 489.069
962.124, 435.838
963.383, 455.250
964.641, 505.964
965.899, 535.217
967.156, 454.415
968.414, 560.034
969.671, 563.816
970.928, 494.203
972.185, 560.595
973.442, 577.383
974.699, 544.959
975.955, 593.390
977.211, 575.775
978.468, 558.303
979.723, 563.640
980.979, 589.297
982.234, 607.169
983.490, 583.875
984.745, 571.477
986.000, 585.020
987.254, 583.535
988.509, 579.515
989.763, 634.772
991.017, 588.468
992.271, 688.368
993.525, 632.857
994.779, 705.192
996.032, 659.125
997.285, 701.042
998.538, 683.891
999.791, 665.218
1001.044, 716.506
1002.296, 665.844
1003.548, 683.250
1004.800, 694.333
1006.052, 691.999
1007.304, 703.399
1008.555, 695.582
1009.807, 668.368
1011.058, 732.258
1012.309, 787.721
1013.559, 748.769
1014.810, 685.579
1016.060, 725.593
1017.310, 730.274
1018.560, 741.377
1019.810, 649.202
1021.060, 703.753
1022.309, 724.094
1023.558, 683.623
1024.807, 735.984
1026.056, 679.547
1027.305, 653.638
1028.553, 650.898
1029.801, 693.531
1031.049, 699.037
1032.297, 592.387
1033.545, 560.116
1034.793, 620.653
1036.040, 529.735
1037.287, 566.818
1038.534, 565.495
1039.781, 467.918
1041.027, 605.524
1042.274, 580.506
1043.520, 517.679
1044.766, 582.491
1046.012, 520.775
1047.257, 471.155
1048.503, 401.470
1049.748, 471.627
1050.993, 509.079
1052.238, 508.988
1053.483, 382.556
1054.727, 425.544
1055.971, 397.914
1057.216, 368.719
1058.459, 437.980
1059.703, 335.736
1060.947, 401.849
1062.190, 384.250
1063.433, 329.120
1064.676, 318.720
1065.919, 352.215
1067.162, 333.924
1068.404, 370.648
1069.646, 248.234
1070.888, 233.678
1072.130, 283.389
1073.372, 238.115
1074.613, 293.113
1075.855, 266.101
1077.096, 244.572
1078.337, 262.087
1079.578, 257.954
1080.818, 239.416
1082.059, 257.890
1083.299, 143.891
1084.539, 258.039
1085.779, 153.891
1087.018, 161.125
1088.258, 190.442
1089.497, 189.765
1090.736, 184.322
1091.975, 259.276
1093.213, 184.861
1094.452, 102.575
1095.690, 176.150
1096.928, 91.137
1098.166, 146.462
1099.404, 137.195
1100.642, 165.490
1101.879, 129.987
1103.116, 146.385
1104.353, 128.224
1105.590, 162.443
1106.827, 149.353
1108.063, 144.316
1109.299, 130.381
1110.536, 114.864
1111.771, 136.068
1113.007, 78.513
1114.243, 112.345
1115.478, 98.188
1116.713, 156.225
1117.948, 105.020
1119.183, 132.893
1120.418, 108.990
1121.652, 194.528
1122.886, 205.080
1124.120, 199.290
1125.354, 169.922
1126.588, 106.109
1127.821, 107.235
1129.055, 47.351
1130.288, 129.465
1131.521, 128.542
1132.753, 112.275
1133.986, 85.614
1135.218, 83.221
1136.450, 135.610
1137.682, 61.684
1138.914, 120.083
1140.146, 60.150
1141.377, 87.507
1142.609, 83.908
1143.840, 136.159
1145.071, 98.479
1146.301, 76.461
1147.532, 156.515
1148.762, 124.586
1149.992, 71.748
1151.222, 41.622
1152.452, 59.334
1153.682, 109.191
1154.911, 58.887
1156.140, 104.628
1157.369, 78.354
1158.598, 101.875
1159.827, 98.451
1161.055, 100.177
1162.284, 116.669
1163.512, 87.300
1164.740, 129.156
1165.967, 111.396
1167.195, 95.384
1168.422, 109.360
1169.650, 58.576
1170.877, 118.604
1172.103, 22.425
1173.330, 136.524
1174.557, 109.880
1175.783, 141.856
1177.009, 102.978
1178.235, 83.345
1179.461, 135.532
1180.686, 88.263
1181.912, 98.419
1183.137, 110.968
1184.362, 150.552
1185.587, 138.457
1186.811, 90.136
1188.036, 168.340
1189.260, 108.169
1190.484, 137.928
1191.708, 167.792
1192.932, 131.412
1194.155, 89.924
1195.378, 122.248
1196.602, 201.430
1197.825, 192.021
1199.047, 138.775
1200.270, 106.414
1201.492, 115.470
1202.715, 122.019
1203.937, 104.083
1205.159, 128.692
1206.380, 153.811
1207.602, 160.713
1208.823, 158.893
1210.044, 166.965
1211.265, 145.800
1212.486, 210.750
1213.707, 82.683
1214.927, 141.561
1216.147, 196.588
1217.367, 135.096
1218.587, 153.532
1219.807, 110.170
1221.027, 165.613
1222.246, 143.275
1223.465, 178.814
1224.684, 189.247
1225.903, 215.750
1227.121, 184.224
1228.340, 182.473
1229.558, 167.066
1230.776, 148.833
1231.994, 174.280
1233.212, 182.140
1234.429, 175.062
1235.646, 148.186
1236.864, 131.293
1238.081, 155.357
1239.297, 150.723
1240.514, 166.760
1241.730, 149.130
1242.947, 143.069
1244.163, 147.302
1245.378, 105.985
1246.594, 128.343
1247.810, 122.890
1249.025, 148.987
1250.240, 133.733
1251.455, 137.924
1252.670, 135.928
1253.885, 151.441
1255.099, 143.125
1256.313, 138.297
1257.527, 97.174
1258.741, 187.524
1259.955, 124.515
1261.168, 161.759
1262.382, 145.832
1263.595, 144.240
1264.808, 101.290
1266.021, 116.726
1267.233, 112.757
1268.446, 113.363
1269.658, 100.890
1270.870, 62.764
1272.082, 114.361
1273.294, 64.386
1274.505, 48.416
1275.716, 70.042
1276.928, 73.166
1278.139, 94.271
1279.349, 157.361
1280.560, 71.186
1281.770, 93.011
1282.981, 147.154
1284.191, 107.840
1285.401, 100.119
1286.610, 121.715
1287.820, 31.539
1289.029, 115.312
1290.239, 29.322
1291.448, 146.130
1292.656, 70.825
1293.865, 25.856
1295.073, 32.743
1296.282, 28.338
1297.490, 29.205
1298.698, 15.343
1299.906, 30.043
1301.113, 9.502
1302.320, 3.847
1303.528, 3.282
1304.735, 57.666
1305.942, 32.072
1307.148, 40.525
1308.355, 13.137
1309.561, 45.427
1310.767, 42.153
1311.973, 21.353
1313.179, 17.051
1314.384, 17.337
1315.590, 23.450
1316.795, 21.005
1318.000, 21.205
1319.205, 0.044
1320.410, 87.025
1321.614, 57.590
1322.819, 69.956
1324.023, 43.657
1325.227, 16.045
1326.431, 11.370
1327.634, 0.989
1328.838, 38.271
1330.041, 60.934
1331.244, 5.143
1332.447, 5.675
1333.650, 15.982
1334.852, 12.211
1336.055, 8.145
1337.257, 19.417
1338.459, 50.271
1339.661, 60.756
1340.862, 30.500
1342.064, 11.057
1343.265, 14.546
1344.466, 57.261
1345.667, 79.138
1346.868, 8.997
1348.068, 108.691
1349.269, 134.522
1350.469, 3.240
1351.669, 90.804
1352.869, 92.518
1354.069, 140.127
1355.268, 206.542
1356.468, 73.952
1357.667, 115.552
1358.866, 172.117
1360.065, 217.817
1361.263, 212.172
1362.462, 124.769
1363.660, 177.510
1364.858, 168.991
1366.056, 207.396
1367.254, 230.718
1368.451, 194.760
1369.649, 155.403
1370.846, 241.253
1372.043, 177.678
1373.240, 151.692
1374.436, 188.241
1375.633, 235.685
1376.829, 165.642
1378.025, 178.688
1379.221, 142.319
1380.417, 221.697
1381.613, 168.451
1382.808, 185.658
1384.003, 148.355
1385.199, 167.165
1386.393, 123.819
1387.588, 109.218
1388.783, 143.010
1389.977, 76.562
1391.171, 109.941
1392.365, 86.091
1393.559, 49.379
1394.753, 76.580
1395.946, 58.771
1397.140, 89.672
1398.333, 27.174
1399.526, 5.912
1400.719, 3.548
1401.911, 87.904
1403.104, 47.575
1404.296, 52.426
1405.488, 62.314
1406.680, 76.432
1407.872, 112.041
1409.063, 47.783
1410.255, 135.225
1411.446, 51.954
1412.637, 84.581
1413.828, 28.902
1415.018, 18.499
1416.209, 77.789
1417.399, 88.984
1418.589, 52.054
1419.779, 119.980
1420.969, 80.763
1422.159, 58.418
1423.348, 121.004
1424.537, 67.577
1425.726, 58.248
1426.915, 55.472
1428.104, 13.111
1429.293, 79.310
1430.481, 119.090
1431.669, 157.762
1432.857, 61.897
1434.045, 94.013
1435.233, 130.845
1436.420, 85.353
1437.608, 153.839
1438.795, 71.920
1439.982, 28.614
1441.169, 38.946
1442.355, 106.763
1443.542, 76.951
1444.728, 69.785
1445.914, 43.113
1447.100, 49.983
1448.286, 43.682
1449.472, 50.452
1450.657, 31.825
1451.842, 125.694
1453.027, 81.803
1454.212, 84.772
1455.397, 149.807
1456.581, 2.208
1457.766, 76.651
1458.950, 61.453
1460.134, 31.208
1461.318, 6.342
1462.501, 0.000
##END=



