##NAMES=Sabinaite
##RRUFFID=R110174
##IDEAL CHEMISTRY=Na_4_TiZr_2_O_4_(CO_3_)_4_
##LOCALITY=Mont St-Hilaire, Quebec, Canada
##OWNER=RRUFF
##SOURCE=Donald Doell
##DESCRIPTION=Brown pseudohexagonal platy crystals on orthoclase
##STATUS=The identification of this mineral has been confirmed by single-crystal X-ray diffraction.
##URL=rruff.info/R110174
188.8440, 0.0000000E+00
189.3261, 0.1648860
189.8082, 0.3060380
190.2903, 1.835396
190.7725, 3.714394
191.2546, 5.880478
191.7367, 8.301384
192.2188, 10.85625
192.7009, 13.77119
193.1830, 17.42633
193.6652, 21.77499
194.1473, 26.47782
194.6294, 31.49813
195.1115, 36.78043
195.5936, 41.84689
196.0757, 46.89861
196.5579, 51.34250
197.0400, 54.17148
197.5221, 55.39313
198.0042, 55.01081
198.4863, 52.75604
198.9684, 48.62463
199.4506, 43.76502
199.9327, 38.09882
200.4148, 32.01938
200.8969, 26.26895
201.3790, 20.76569
201.8611, 16.14455
202.3433, 12.86739
202.8254, 10.97107
203.3075, 9.266602
203.7896, 7.544312
204.2717, 6.089203
204.7538, 5.753220
205.2360, 6.699219
205.7181, 8.144791
206.2002, 9.674309
206.6823, 11.28099
207.1644, 12.98705
207.6465, 14.72843
208.1287, 16.60058
208.6108, 18.94178
209.0929, 21.78043
209.5750, 25.01354
210.0571, 28.67200
210.5392, 32.93064
211.0214, 36.89335
211.5035, 40.53407
211.9856, 43.80838
212.4677, 46.67628
212.9498, 49.53534
213.4319, 52.72943
213.9140, 55.39049
214.3962, 57.27418
214.8783, 59.65338
215.3604, 61.54733
215.8425, 63.69446
216.3246, 67.09681
216.8067, 71.82109
217.2889, 76.56448
217.7710, 80.34361
218.2531, 82.85741
218.7352, 85.33598
219.2173, 87.97006
219.6994, 90.67917
220.1816, 93.10907
220.6637, 95.72993
221.1458, 97.34265
221.6279, 97.11314
222.1100, 94.62435
222.5921, 91.37700
223.0743, 87.35131
223.5564, 82.66275
224.0385, 77.45850
224.5206, 71.29069
225.0027, 65.49675
225.4848, 60.85759
225.9670, 57.43298
226.4491, 55.17303
226.9312, 54.46402
227.4133, 54.95004
227.8954, 54.99471
228.3775, 54.93361
228.8597, 53.95570
229.3418, 51.46921
229.8239, 46.94690
230.3060, 42.11411
230.7881, 36.86829
231.2702, 31.37080
231.7524, 26.63588
232.2345, 22.93157
232.7166, 19.67859
233.1987, 16.60218
233.6808, 13.68768
234.1629, 10.99052
234.6451, 8.510162
235.1272, 6.238182
235.6093, 4.078232
236.0914, 1.961891
236.5735, 5.1224001E-02
237.0556, 1.595604
237.5378, 3.102264
238.0199, 4.038536
238.5020, 4.122849
238.9841, 3.613136
239.4662, 3.608490
239.9483, 4.565292
240.4305, 5.398926
240.9126, 5.460938
241.3947, 4.190536
241.8768, 3.422493
242.3589, 3.570404
242.8410, 4.261589
243.3232, 4.108734
243.8053, 2.631943
244.2874, 0.9706880
244.7695, 0.3237080
245.2516, 1.251526
245.7337, 1.775040
246.2159, 1.466026
246.6980, 0.7957230
247.1801, 1.419594
247.6622, 4.088638
248.1443, 6.957039
248.6264, 9.039742
249.1086, 9.707054
249.5907, 11.15417
250.0728, 13.70494
250.5549, 16.97145
251.0370, 19.93972
251.5191, 22.56149
252.0013, 24.96999
252.4834, 27.24324
252.9655, 29.34695
253.4476, 31.37167
253.9297, 33.40956
254.4118, 35.32585
254.8940, 36.83778
255.3761, 37.81968
255.8582, 38.62737
256.3403, 39.55229
256.8224, 41.00768
257.3046, 41.14606
257.7867, 39.58377
258.2688, 36.95113
258.7509, 34.35405
259.2330, 31.62163
259.7151, 29.32676
260.1973, 27.76302
260.6794, 27.13630
261.1615, 26.40514
261.6436, 25.39117
262.1257, 24.43621
262.6078, 24.14268
263.0900, 24.63932
263.5721, 25.50123
264.0542, 26.57360
264.5363, 27.85029
265.0184, 29.45575
265.5005, 31.33900
265.9827, 33.63361
266.4648, 36.60794
266.9469, 40.34551
267.4290, 44.47533
267.9111, 48.99438
268.3932, 53.90612
268.8754, 58.75391
269.3575, 63.30670
269.8396, 68.13400
270.3217, 73.97451
270.8038, 80.99922
271.2859, 88.24507
271.7681, 95.24561
272.2502, 102.0056
272.7323, 109.8871
273.2144, 118.9088
273.6965, 128.7523
274.1786, 138.8950
274.6608, 149.2904
275.1429, 160.7213
275.6250, 173.1951
276.1071, 186.7532
276.5892, 202.4521
277.0714, 220.1891
277.5535, 239.6650
278.0356, 260.2622
278.5177, 281.8228
278.9998, 306.0913
279.4819, 333.5047
279.9641, 363.9467
280.4462, 396.1204
280.9283, 430.3650
281.4104, 465.2946
281.8925, 501.3239
282.3746, 538.5217
282.8568, 572.3790
283.3389, 602.9020
283.8210, 629.0933
284.3031, 648.8698
284.7852, 662.5330
285.2673, 667.8701
285.7495, 661.5915
286.2316, 644.3746
286.7137, 624.4023
287.1958, 602.1619
287.6779, 578.4858
288.1600, 554.6759
288.6422, 530.7090
289.1243, 507.1363
289.6064, 484.4160
290.0885, 462.5191
290.5706, 442.5644
291.0527, 424.8080
291.5349, 408.5869
292.0170, 393.7828
292.4991, 380.2758
292.9812, 365.2453
293.4633, 346.5473
293.9454, 325.1661
294.4276, 304.1388
294.9097, 283.6826
295.3918, 263.9177
295.8739, 244.9378
296.3560, 227.0030
296.8381, 210.2212
297.3203, 194.6888
297.8024, 180.4370
298.2845, 167.4960
298.7666, 155.8775
299.2487, 145.6574
299.7308, 136.9688
300.2130, 129.4802
300.6951, 122.5433
301.1772, 116.1005
301.6593, 110.0932
302.1414, 104.2585
302.6235, 98.60835
303.1057, 93.03433
303.5878, 87.54071
304.0699, 82.12083
304.5520, 76.84587
305.0341, 71.53195
305.5162, 66.58484
305.9984, 62.62497
306.4805, 59.54832
306.9626, 56.39365
307.4447, 52.16548
307.9268, 47.59172
308.4089, 43.67744
308.8911, 40.84044
309.3732, 38.55066
309.8553, 36.32256
310.3374, 34.27436
310.8195, 32.77444
311.3016, 32.26508
311.7838, 32.31304
312.2659, 32.57809
312.7480, 33.06371
313.2301, 33.58964
313.7122, 33.88602
314.1943, 34.12260
314.6765, 34.65504
315.1586, 35.87073
315.6407, 37.34875
316.1228, 38.80000
316.6049, 40.12428
317.0870, 41.74857
317.5692, 43.87643
318.0513, 46.36551
318.5334, 49.00587
319.0155, 51.86417
319.4976, 54.80721
319.9797, 57.65438
320.4619, 60.33228
320.9440, 63.47258
321.4261, 67.54749
321.9082, 72.02773
322.3903, 76.38765
322.8724, 79.64508
323.3546, 83.65095
323.8367, 89.13083
324.3188, 96.03658
324.8009, 102.9900
325.2830, 109.6068
325.7651, 116.2433
326.2473, 123.1132
326.7294, 130.2008
327.2115, 137.5728
327.6936, 145.8740
328.1757, 154.6616
328.6578, 162.0952
329.1400, 168.6596
329.6221, 173.4781
330.1042, 176.1661
330.5863, 175.7730
331.0684, 174.8166
331.5505, 173.3938
332.0327, 171.3938
332.5148, 168.5917
332.9969, 165.0018
333.4790, 160.5428
333.9611, 155.0150
334.4432, 148.1724
334.9254, 141.1255
335.4075, 133.7050
335.8896, 126.2954
336.3717, 119.4621
336.8538, 113.4046
337.3359, 107.5959
337.8180, 102.0017
338.3001, 96.64398
338.7823, 91.22845
339.2644, 85.83960
339.7465, 80.35567
340.2286, 74.55369
340.7107, 68.38267
341.1928, 62.47316
341.6750, 57.01133
342.1571, 51.95058
342.6392, 47.52549
343.1213, 43.77563
343.6034, 40.24870
344.0855, 36.53717
344.5677, 32.68629
345.0498, 28.94305
345.5319, 25.23479
346.0140, 21.86550
346.4961, 19.63605
346.9782, 18.51307
347.4604, 17.45747
347.9425, 15.67326
348.4246, 13.44939
348.9067, 12.04434
349.3888, 11.64791
349.8709, 11.45035
350.3531, 10.34782
350.8352, 8.571419
351.3173, 6.986202
351.7994, 6.010792
352.2815, 5.430439
352.7636, 4.972397
353.2458, 4.635292
353.7279, 4.208450
354.2100, 3.336258
354.6921, 2.277454
355.1742, 1.496418
355.6563, 1.276577
356.1385, 1.230576
356.6206, 1.092979
357.1027, 0.8414920
357.5848, 0.3797450
358.0669, 0.7548830
358.5490, 1.929817
359.0312, 2.474354
359.5133, 2.020424
359.9954, 1.480762
360.4775, 1.402119
360.9596, 1.620960
361.4417, 1.790253
361.9239, 1.700047
362.4060, 1.575565
362.8881, 1.568813
363.3702, 1.733776
363.8523, 1.807419
364.3344, 1.705963
364.8166, 1.467663
365.2987, 1.133537
365.7808, 0.4094120
366.2629, 9.9045001E-02
366.7450, 0.1106720
367.2271, 0.3728370
367.7093, 0.6962590
368.1914, 0.6396830
368.6735, 0.4917530
369.1556, 0.4400410
369.6377, 0.5919080
370.1198, 0.7201610
370.6020, 0.9021000
371.0841, 1.067867
371.5662, 0.9305040
372.0483, 0.1287190
372.5304, 0.5343400
373.0125, 0.6925960
373.4947, 0.1367450
373.9768, 0.3527450
374.4589, 0.8600500
374.9410, 1.240318
375.4231, 1.181282
375.9052, 0.4719050
376.3874, 8.0681004E-02
376.8695, 0.1603620
377.3516, 0.2149280
377.8337, 0.3254240
378.3158, 0.1292040
378.7979, 0.2100070
379.2801, 0.6204300
379.7622, 1.121910
380.2443, 1.302887
380.7264, 0.9475980
381.2085, 0.3364520
381.6906, 0.2527430
382.1728, 0.7025070
382.6549, 1.286854
383.1370, 1.774834
383.6191, 2.179028
384.1012, 2.533184
384.5833, 2.844547
385.0655, 3.100761
385.5476, 3.146618
386.0297, 3.082668
386.5118, 3.276829
386.9939, 4.124573
387.4760, 5.250484
387.9582, 6.121380
388.4403, 6.732079
388.9224, 7.232887
389.4045, 7.725109
389.8866, 8.186584
390.3687, 8.587276
390.8509, 8.893993
391.3330, 9.157639
391.8151, 9.220486
392.2972, 9.208813
392.7793, 9.629898
393.2614, 11.18484
393.7436, 12.97569
394.2257, 14.39159
394.7078, 15.22871
395.1899, 15.89276
395.6720, 16.19671
396.1541, 16.47408
396.6363, 17.26144
397.1184, 19.22092
397.6005, 21.21444
398.0826, 22.83986
398.5647, 24.03045
399.0468, 25.24721
399.5290, 26.10677
400.0111, 27.24999
400.4932, 29.20164
400.9753, 32.69413
401.4574, 36.02730
401.9395, 39.03677
402.4217, 41.76322
402.9038, 44.23954
403.3859, 45.95030
403.8680, 48.16771
404.3501, 51.55037
404.8322, 56.26709
405.3144, 61.51688
405.7965, 67.39432
406.2786, 73.61703
406.7607, 79.66140
407.2428, 85.45675
407.7249, 91.45589
408.2071, 97.56238
408.6892, 103.9250
409.1713, 111.3894
409.6534, 120.0411
410.1355, 129.5133
410.6176, 139.4470
411.0998, 149.9152
411.5819, 161.1530
412.0640, 173.3101
412.5461, 186.1099
413.0282, 199.2674
413.5103, 212.8059
413.9925, 227.1016
414.4746, 242.6341
414.9567, 259.1452
415.4388, 276.2217
415.9209, 294.0108
416.4030, 311.5023
416.8852, 327.7641
417.3673, 343.4872
417.8494, 359.7439
418.3315, 378.1277
418.8136, 396.2813
419.2957, 413.5864
419.7779, 429.7368
420.2600, 443.7614
420.7421, 456.0702
421.2242, 465.4464
421.7063, 470.7911
422.1884, 472.0758
422.6706, 469.4130
423.1527, 462.6234
423.6348, 451.9563
424.1169, 437.8776
424.5990, 419.1930
425.0811, 398.0438
425.5633, 374.2661
426.0454, 347.3274
426.5275, 321.7982
427.0096, 297.5058
427.4917, 274.4535
427.9738, 252.5842
428.4560, 232.0350
428.9381, 212.4089
429.4202, 193.4874
429.9023, 175.8113
430.3844, 160.2245
430.8665, 147.0717
431.3487, 135.1869
431.8308, 124.0193
432.3129, 113.5981
432.7950, 104.1454
433.2771, 95.78474
433.7592, 88.32265
434.2414, 81.33144
434.7235, 74.79650
435.2056, 68.88544
435.6877, 63.76923
436.1698, 59.30566
436.6519, 55.16055
437.1341, 51.31633
437.6162, 47.67826
438.0983, 44.04939
438.5804, 40.56216
439.0625, 37.45717
439.5446, 34.80418
440.0268, 32.46246
440.5089, 30.35263
440.9910, 28.44415
441.4731, 26.70895
441.9552, 25.19898
442.4373, 23.78289
442.9195, 22.38277
443.4016, 20.99304
443.8837, 19.58575
444.3658, 18.06985
444.8479, 16.56822
445.3300, 15.18750
445.8122, 13.79253
446.2943, 12.70309
446.7764, 12.38027
447.2585, 12.41124
447.7406, 11.73623
448.2227, 9.169815
448.7049, 7.002892
449.1870, 6.021324
449.6691, 6.497917
450.1512, 6.558823
450.6333, 6.014977
451.1154, 5.264229
451.5976, 4.631760
452.0797, 4.070747
452.5618, 3.863731
453.0439, 4.270729
453.5260, 4.949501
454.0081, 4.736893
454.4903, 3.504372
454.9724, 2.208649
455.4545, 1.215363
455.9366, 0.5618590
456.4187, 0.6390910
456.9008, 1.576576
457.3830, 2.593170
457.8651, 2.687660
458.3472, 2.082382
458.8293, 1.465439
459.3114, 0.9316100
459.7935, 0.6220090
460.2757, 0.8721690
460.7578, 1.572906
461.2399, 2.177376
461.7220, 2.189354
462.2041, 2.032181
462.6862, 2.153252
463.1684, 2.695435
463.6505, 3.159348
464.1326, 3.446739
464.6147, 3.457115
465.0968, 3.057602
465.5789, 1.256424
466.0611, 1.7967001E-02
466.5432, 0.3945470
467.0253, 2.194130
467.5074, 3.166000
467.9895, 2.162880
468.4716, 0.9923320
468.9538, 0.5156480
469.4359, 1.055054
469.9180, 1.606842
470.4001, 2.275551
470.8822, 2.888298
471.3643, 3.184685
471.8465, 3.117294
472.3286, 2.839561
472.8107, 2.243095
473.2928, 1.458038
473.7749, 1.294655
474.2570, 1.847992
474.7392, 2.533577
475.2213, 2.805061
475.7034, 2.766060
476.1855, 3.197701
476.6676, 4.268051
477.1497, 5.528198
477.6319, 6.352615
478.1140, 6.851921
478.5961, 7.373440
479.0782, 8.200966
479.5603, 9.048409
480.0424, 9.527931
480.5246, 9.670609
481.0067, 9.834549
481.4888, 10.05515
481.9709, 10.55639
482.4530, 11.55722
482.9352, 13.15229
483.4173, 14.97009
483.8994, 17.02665
484.3815, 19.21682
484.8636, 21.34688
485.3457, 23.19980
485.8279, 25.22203
486.3100, 27.36988
486.7921, 29.62675
487.2742, 32.51315
487.7563, 36.28219
488.2384, 40.49214
488.7206, 44.82590
489.2027, 49.02639
489.6848, 53.95558
490.1669, 59.87685
490.6490, 66.33519
491.1311, 72.61391
491.6133, 78.54459
492.0954, 84.82622
492.5775, 91.77349
493.0596, 99.24886
493.5417, 106.7608
494.0238, 114.2796
494.5060, 122.0366
494.9881, 130.0192
495.4702, 138.2937
495.9523, 147.3375
496.4344, 157.2174
496.9165, 167.6740
497.3987, 178.2057
497.8808, 189.1786
498.3629, 201.0814
498.8450, 214.3146
499.3271, 228.4200
499.8092, 242.7137
500.2914, 257.4812
500.7735, 273.2739
501.2556, 291.6204
501.7377, 310.4543
502.2198, 328.7802
502.7019, 347.1936
503.1841, 363.7353
503.6662, 380.2017
504.1483, 393.8232
504.6304, 401.3644
505.1125, 402.9076
505.5946, 398.1448
506.0768, 386.3196
506.5589, 368.0402
507.0410, 345.5773
507.5231, 317.8231
508.0052, 289.0965
508.4873, 260.5911
508.9695, 232.6476
509.4516, 206.8785
509.9337, 183.2747
510.4158, 161.9165
510.8979, 143.0591
511.3800, 126.4727
511.8622, 111.9727
512.3443, 99.64555
512.8264, 89.12205
513.3085, 80.05920
513.7906, 72.29223
514.2728, 65.22815
514.7549, 58.37848
515.2370, 52.18885
515.7191, 47.21983
516.2012, 43.53761
516.6833, 40.15194
517.1655, 36.47243
517.6476, 32.91354
518.1297, 29.83324
518.6118, 27.65886
519.0939, 25.52619
519.5760, 23.15341
520.0582, 20.75529
520.5403, 18.76067
521.0224, 17.33459
521.5045, 16.11642
521.9866, 15.04108
522.4688, 14.10384
522.9509, 13.22344
523.4330, 12.38815
523.9151, 11.62010
524.3972, 10.98929
524.8793, 10.50343
525.3615, 9.820145
525.8436, 8.847923
526.3257, 7.822563
526.8078, 7.123035
527.2899, 6.696945
527.7720, 6.311497
528.2542, 5.849625
528.7363, 5.405479
529.2184, 5.181683
529.7005, 5.126556
530.1826, 4.944302
530.6647, 4.206482
531.1469, 3.414814
531.6290, 3.084290
532.1111, 3.419521
532.5932, 3.565910
533.0753, 2.984585
533.5574, 2.133488
534.0396, 1.498493
534.5217, 1.303501
535.0038, 1.160282
535.4859, 1.087555
535.9680, 1.030781
536.4501, 0.7814640
536.9323, 0.1293560
537.4144, 0.3498420
537.8965, 0.3429180
538.3786, 0.1700060
538.8607, 0.2161790
539.3428, 0.3459170
539.8250, 0.9401740
540.3071, 0.9530870
540.7892, 0.4515270
541.2713, 4.1336000E-02
541.7534, 0.2222630
542.2355, 0.2638660
542.7177, 0.2198450
543.1998, 1.053440
543.6819, 1.662392
544.1640, 1.605927
544.6461, 1.322201
545.1282, 1.227581
545.6104, 1.285583
546.0925, 1.265980
546.5746, 0.8742520
547.0567, 0.4871030
547.5388, 0.4132540
548.0209, 0.8434790
548.5031, 1.080910
548.9852, 0.7974510
549.4673, 0.3405530
549.9494, 7.7183001E-02
550.4315, 0.1121330
550.9136, 0.1969070
551.3958, 0.3775020
551.8779, 0.5753940
552.3600, 0.5377010
552.8421, 0.2196430
553.3242, 0.1798550
553.8063, 0.6529500
554.2885, 1.161758
554.7706, 1.386635
555.2527, 1.316952
555.7348, 1.076729
556.2169, 0.5662610
556.6990, 2.2465000E-02
557.1812, 0.1384850
557.6633, 0.3963200
558.1454, 1.057606
558.6275, 1.359737
559.1096, 1.430897
559.5917, 1.501911
560.0739, 1.640297
560.5560, 1.824177
561.0381, 2.139206
561.5202, 2.519451
562.0023, 2.690052
562.4844, 2.378719
562.9666, 2.015339
563.4487, 1.755867
563.9308, 1.579029
564.4129, 1.632900
564.8950, 2.056213
565.3771, 2.557655
565.8593, 2.912834
566.3414, 3.112362
566.8235, 3.167892
567.3056, 2.997517
567.7877, 2.811184
568.2698, 3.099503
568.7520, 3.828518
569.2341, 4.379810
569.7162, 4.429317
570.1983, 4.221378
570.6804, 4.222706
571.1625, 4.400692
571.6447, 4.522194
572.1268, 4.292011
572.6089, 4.015118
573.0910, 3.994717
573.5731, 4.280361
574.0552, 4.694550
574.5374, 5.448616
575.0195, 6.149990
575.5016, 6.435097
575.9837, 5.687557
576.4658, 5.199188
576.9479, 5.335602
577.4301, 5.742195
577.9122, 5.673180
578.3943, 4.756004
578.8764, 4.101299
579.3585, 4.039650
579.8406, 4.502903
580.3228, 5.151649
580.8049, 6.063534
581.2870, 6.656704
581.7691, 6.323338
582.2512, 5.312073
582.7333, 4.604424
583.2155, 4.260674
583.6975, 4.170971
584.1796, 4.380703
584.6617, 4.733788
585.1439, 4.962273
585.6260, 4.932678
586.1081, 4.874245
586.5902, 4.959850
587.0723, 5.112743
587.5544, 5.184364
588.0366, 5.064827
588.5187, 4.925182
589.0008, 4.800858
589.4829, 4.694885
589.9650, 4.636524
590.4471, 4.636250
590.9293, 4.670101
591.4114, 4.705345
591.8935, 4.711311
592.3756, 4.935493
592.8577, 5.476852
593.3398, 5.983356
593.8220, 6.038380
594.3041, 5.695271
594.7862, 5.396385
595.2683, 5.247189
595.7504, 5.061218
596.2325, 4.307468
596.7147, 3.264835
597.1968, 2.737659
597.6789, 3.618759
598.1610, 4.713028
598.6431, 5.227901
599.1252, 5.223007
599.6074, 5.041065
600.0895, 4.569752
600.5716, 4.091827
601.0537, 3.775803
601.5358, 3.711353
602.0179, 3.584785
602.5001, 3.314602
602.9822, 3.121429
603.4643, 3.150017
603.9464, 3.419090
604.4285, 3.609962
604.9106, 3.718067
605.3928, 3.829144
605.8749, 4.161152
606.3570, 4.688812
606.8391, 4.947304
607.3212, 4.644978
607.8033, 4.193470
608.2855, 4.283955
608.7676, 4.773827
609.2497, 5.192829
609.7318, 5.233021
610.2139, 5.156498
610.6960, 5.122093
611.1782, 5.166000
611.6603, 5.378906
612.1424, 5.933056
612.6245, 6.410511
613.1066, 6.619865
613.5887, 6.400513
614.0709, 6.291077
614.5530, 6.328304
615.0351, 6.406216
615.5172, 6.400127
615.9993, 6.201706
616.4814, 6.352623
616.9636, 7.050270
617.4457, 7.958843
617.9278, 8.379341
618.4099, 8.355042
618.8920, 8.391228
619.3741, 8.862129
619.8563, 9.396549
620.3384, 9.243084
620.8205, 8.569332
621.3026, 8.210060
621.7847, 9.047810
622.2668, 10.08155
622.7490, 10.46673
623.2311, 10.05872
623.7132, 9.886326
624.1953, 10.33021
624.6774, 11.03452
625.1595, 11.78164
625.6417, 12.81927
626.1238, 13.38120
626.6059, 13.28040
627.0880, 12.90480
627.5701, 12.82911
628.0522, 13.11633
628.5344, 13.05025
629.0165, 12.31742
629.4986, 11.39344
629.9807, 11.38739
630.4628, 12.11396
630.9449, 12.57644
631.4271, 12.09976
631.9092, 11.23033
632.3913, 10.43141
632.8734, 9.716923
633.3555, 9.222069
633.8376, 9.428394
634.3198, 9.546520
634.8019, 8.932842
635.2840, 7.279667
635.7661, 6.238285
636.2482, 6.419392
636.7303, 6.850452
637.2125, 6.857449
637.6946, 6.226414
638.1767, 5.827492
638.6588, 5.784283
639.1409, 5.845032
639.6230, 5.609436
640.1052, 5.073921
640.5873, 4.503483
641.0694, 3.921913
641.5515, 3.420780
642.0336, 3.219383
642.5157, 3.228085
642.9979, 3.186928
643.4800, 2.918049
643.9621, 2.600746
644.4442, 2.323631
644.9263, 2.093754
645.4084, 1.956352
645.8906, 2.097195
646.3727, 2.200439
646.8548, 2.067768
647.3369, 1.681297
647.8190, 1.287357
648.3011, 0.7816930
648.7833, 0.4412920
649.2654, 0.5812570
649.7475, 1.266850
650.2296, 1.586224
650.7117, 1.444462
651.1938, 1.118790
651.6760, 0.9456750
652.1581, 0.8704830
652.6402, 0.7012180
653.1223, 0.2981340
653.6044, 2.4483001E-02
654.0865, 0.1082380
654.5687, 0.5098380
655.0508, 0.8206210
655.5329, 0.9748730
656.0150, 0.9751590
656.4971, 0.6136510
656.9792, 1.1387000E-02
657.4614, 0.2582590
657.9435, 9.4067000E-02
658.4256, 0.4076460
658.9077, 0.4805370
659.3898, 0.3174290
659.8719, 4.0282998E-02
660.3541, 0.6799580
660.8362, 1.103359
661.3183, 0.7879030
661.8004, 5.6393001E-02
662.2825, 0.5668070
662.7646, 0.6794010
663.2468, 0.7444920
663.7289, 1.272148
664.2110, 1.861305
664.6931, 1.898769
665.1752, 0.9621660
665.6573, 0.2465290
666.1395, 0.5547450
666.6216, 1.256756
667.1037, 1.564144
667.5858, 1.079578
668.0679, 0.5301860
668.5500, 0.2192570
669.0322, 0.9073640
669.5143, 0.8071630
669.9964, 0.3151170
670.4785, 1.054756
670.9606, 0.8425410
671.4427, 5.5282999E-02
671.9249, 0.2872430
672.4070, 0.2235910
672.8891, 4.2052999E-02
673.3712, 0.1549190
673.8533, 0.3377270
674.3354, 0.3993230
674.8176, 0.3649410
675.2997, 0.4988900
675.7818, 1.246044
676.2639, 1.964172
676.7460, 2.235153
677.2281, 1.905041
677.7103, 1.507919
678.1924, 0.8886530
678.6745, 0.3908810
679.1566, 0.2971730
679.6387, 0.6984710
680.1208, 1.097569
680.6030, 1.503643
681.0851, 1.823078
681.5672, 1.916485
682.0493, 1.820736
682.5314, 1.683517
683.0135, 1.512398
683.4957, 1.379898
683.9778, 1.401352
684.4599, 1.513149
684.9420, 1.594780
685.4241, 1.314083
685.9063, 1.299175
686.3884, 2.102776
686.8705, 3.405350
687.3526, 4.101460
687.8347, 4.005894
688.3168, 3.487766
688.7990, 2.436657
689.2811, 1.001884
689.7632, 0.3450850
690.2453, 0.5560760
690.7274, 0.9295850
691.2095, 1.159103
691.6917, 1.229118
692.1738, 0.9737850
692.6559, 0.4139020
693.1380, 9.3959998E-03
693.6201, 0.1465030
694.1022, 0.5244140
694.5844, 0.8263660
695.0665, 1.025688
695.5486, 1.034313
696.0307, 0.4811590
696.5128, 5.4749001E-02
696.9949, 8.1142001E-02
697.4771, 0.8538280
697.9592, 1.331524
698.4413, 1.169605
698.9234, 0.7804640
699.4055, 0.7047200
699.8876, 0.9517440
700.3698, 1.002823
700.8519, 0.7270620
701.3340, 0.3412860
701.8161, 0.1397440
702.2982, 7.0473000E-02
702.7803, 5.2829999E-03
703.2625, 0.2566300
703.7446, 0.3863030
704.2267, 2.2434000E-02
704.7088, 0.6011390
705.1909, 0.9671360
705.6730, 0.5565640
706.1552, 0.2950400
706.6373, 0.4271850
707.1194, 0.8908200
707.6015, 1.447018
708.0836, 2.213562
708.5657, 2.664799
709.0479, 2.476166
709.5300, 1.829422
710.0121, 1.651424
710.4942, 1.947681
710.9763, 2.238197
711.4584, 2.231079
711.9406, 1.995255
712.4227, 1.426346
712.9048, 0.5361600
713.3869, 1.5069999E-03
713.8690, 0.5285680
714.3511, 1.271549
714.8333, 1.643295
715.3154, 1.410999
715.7975, 1.256123
716.2796, 1.143295
716.7617, 1.130184
717.2438, 1.356365
717.7260, 1.867485
718.2081, 1.996685
718.6902, 1.648125
719.1723, 1.198254
719.6544, 1.109749
720.1365, 1.228500
720.6187, 1.266842
721.1008, 1.153908
721.5829, 0.9768710
722.0650, 0.6578520
722.5471, 0.3570140
723.0292, 0.2837100
723.5114, 0.8838690
723.9935, 1.241016
724.4756, 0.8712040
724.9577, 0.2946660
725.4398, 0.5146600
725.9219, 1.955742
726.4041, 2.791016
726.8862, 2.398067
727.3683, 1.432137
727.8504, 1.490540
728.3325, 2.386696
728.8146, 3.223392
729.2968, 3.682346
729.7789, 3.770668
730.2610, 3.156330
730.7431, 2.151497
731.2252, 1.763851
731.7073, 3.140251
732.1895, 4.524654
732.6716, 5.059998
733.1537, 4.789982
733.6358, 4.790665
734.1179, 5.080151
734.6000, 5.617188
735.0822, 6.500957
735.5643, 7.666035
736.0464, 8.364845
736.5285, 8.576057
737.0106, 8.707932
737.4927, 8.901115
737.9749, 9.267822
738.4570, 10.13110
738.9391, 11.47943
739.4212, 12.74471
739.9033, 13.44310
740.3854, 14.03682
740.8676, 14.89106
741.3497, 16.15855
741.8318, 17.22729
742.3139, 17.79973
742.7960, 18.46361
743.2781, 19.72073
743.7603, 21.71042
744.2424, 23.30606
744.7245, 24.45547
745.2066, 25.31965
745.6887, 26.27621
746.1708, 27.08416
746.6530, 27.05912
747.1351, 26.02699
747.6172, 24.47724
748.0993, 22.42647
748.5814, 20.21820
749.0635, 18.25394
749.5457, 16.61604
750.0278, 15.20313
750.5099, 14.06329
750.9920, 13.10662
751.4741, 12.27737
751.9562, 11.58602
752.4384, 10.93208
752.9205, 10.18859
753.4026, 9.723778
753.8847, 10.35051
754.3668, 11.80992
754.8489, 13.04681
755.3311, 13.38085
755.8132, 14.09113
756.2953, 16.39076
756.7774, 19.84288
757.2595, 23.63052
757.7416, 27.93352
758.2238, 32.09913
758.7059, 37.36125
759.1880, 42.13186
759.6701, 42.86293
760.1522, 38.74631
760.6343, 33.01518
761.1165, 25.70376
761.5986, 17.98457
762.0807, 12.76753
762.5628, 9.785236
763.0449, 7.529591
763.5270, 5.321152
764.0092, 3.510918
764.4913, 2.722179
764.9734, 2.640217
765.4555, 2.266754
765.9376, 0.6041180
766.4197, 0.7306290
766.9019, 0.9254570
767.3840, 0.2658540
767.8661, 7.8133002E-02
768.3482, 0.5233120
768.8303, 0.9739690
769.3124, 1.192883
769.7946, 1.222496
770.2767, 1.161839
770.7588, 1.032528
771.2409, 0.9922030
771.7230, 1.245907
772.2051, 1.490692
772.6873, 1.371082
773.1694, 0.9259870
773.6515, 0.4993170
774.1336, 0.1033020
774.6157, 0.1439250
775.0978, 9.4890997E-02
775.5800, 0.2289240
776.0621, 0.2005880
776.5442, 0.3155750
777.0263, 0.7987590
777.5084, 0.8955540
777.9905, 0.7139430
778.4727, 0.7285960
778.9548, 0.9367560
779.4369, 1.304680
779.9190, 2.039604
780.4011, 2.760502
780.8832, 3.084610
781.3654, 3.001476
781.8475, 2.827652
782.3296, 2.250458
782.8117, 1.985168
783.2938, 2.503914
783.7759, 3.905148
784.2581, 4.894371
784.7402, 5.335770
785.2223, 5.772472
785.7044, 6.685474
786.1865, 7.915684
786.6686, 8.794556
787.1508, 9.312820
787.6329, 9.894852
788.1150, 10.90851
788.5971, 12.12407
789.0792, 13.30052
789.5613, 14.41824
790.0435, 15.58247
790.5256, 16.94431
791.0077, 18.25279
791.4898, 19.30859
791.9719, 19.99541
792.4540, 21.21607
792.9362, 23.00648
793.4183, 25.08700
793.9004, 27.49365
794.3825, 29.97120
794.8646, 31.47897
795.3467, 31.94249
795.8289, 32.69511
796.3110, 35.07017
796.7931, 37.90525
797.2752, 40.05781
797.7573, 41.08868
798.2394, 42.92986
798.7216, 46.47302
799.2037, 50.13052
799.6858, 52.83035
800.1679, 54.43004
800.6500, 56.22973
801.1321, 58.26432
801.6143, 60.43560
802.0964, 62.67321
802.5785, 64.97616
803.0606, 67.44145
803.5427, 70.09381
804.0248, 72.60139
804.5070, 74.90827
804.9891, 76.92410
805.4712, 78.44473
805.9533, 79.09361
806.4354, 80.55453
806.9175, 83.39082
807.3997, 86.22186
807.8818, 87.90604
808.3639, 88.45996
808.8460, 89.41747
809.3281, 90.86887
809.8102, 92.22922
810.2924, 92.88390
810.7745, 93.16487
811.2566, 93.53443
811.7387, 94.06894
812.2208, 94.50224
812.7029, 94.71322
813.1851, 94.79293
813.6672, 94.81776
814.1493, 94.82734
814.6314, 94.60936
815.1135, 94.09499
815.5956, 93.52919
816.0778, 93.21054
816.5599, 93.03123
817.0420, 92.43261
817.5241, 91.37379
818.0062, 90.25896
818.4883, 89.43196
818.9705, 88.66918
819.4526, 87.78371
819.9347, 86.75816
820.4168, 85.57391
820.8989, 84.01450
821.3810, 82.48989
821.8632, 81.21505
822.3453, 80.22089
822.8274, 79.25030
823.3095, 78.37125
823.7916, 77.21479
824.2737, 75.32397
824.7559, 72.99098
825.2380, 70.65831
825.7201, 68.35904
826.2022, 66.39093
826.6843, 65.36764
827.1664, 64.45649
827.6486, 62.91652
828.1307, 60.48164
828.6128, 59.11953
829.0949, 59.46650
829.5770, 59.74677
830.0591, 59.02739
830.5413, 57.38017
831.0234, 55.17249
831.5055, 52.41154
831.9876, 49.93470
832.4697, 48.47076
832.9518, 47.47924
833.4340, 46.39712
833.9161, 45.20998
834.3982, 44.01926
834.8803, 42.74843
835.3624, 41.57900
835.8445, 40.65212
836.3267, 39.95431
836.8088, 39.03738
837.2909, 37.87479
837.7730, 36.59831
838.2551, 35.03029
838.7372, 33.48608
839.2194, 33.02871
839.7015, 33.46257
840.1836, 33.65442
840.6657, 32.62383
841.1478, 31.43983
841.6299, 30.85317
842.1121, 30.79456
842.5942, 30.41544
843.0763, 29.48868
843.5584, 28.58315
844.0405, 27.90572
844.5226, 27.34760
845.0048, 26.56375
845.4869, 25.54489
845.9690, 24.50238
846.4511, 23.42092
846.9332, 22.48172
847.4153, 22.05491
847.8975, 21.93018
848.3796, 21.62992
848.8617, 20.62435
849.3438, 19.88450
849.8259, 19.94958
850.3080, 20.40177
850.7902, 20.06502
851.2723, 18.76143
851.7544, 17.83986
852.2365, 17.78486
852.7186, 18.14390
853.2007, 18.16193
853.6829, 17.92560
854.1650, 17.67358
854.6471, 17.50663
855.1292, 17.33279
855.6113, 17.10818
856.0934, 16.84642
856.5756, 16.59176
857.0577, 16.52337
857.5398, 16.03701
858.0219, 14.89997
858.5040, 13.56454
858.9861, 12.85846
859.4683, 12.65703
859.9504, 12.23112
860.4325, 11.33717
860.9146, 10.47467
861.3967, 10.09815
861.8788, 9.984020
862.3610, 9.914574
862.8431, 10.05024
863.3252, 9.829868
863.8073, 9.044510
864.2894, 8.081772
864.7715, 7.329380
865.2537, 6.800003
865.7358, 6.220795
866.2179, 5.551929
866.7000, 4.938267
867.1821, 4.349976
867.6642, 3.980732
868.1464, 4.317768
868.6285, 5.598885
869.1106, 6.407413
869.5927, 5.738461
870.0748, 4.788769
870.5569, 4.348969
871.0391, 4.496609
871.5212, 4.703865
872.0033, 5.052837
872.4854, 5.124641
872.9675, 4.183758
873.4496, 2.796074
873.9318, 2.472740
874.4139, 3.173721
874.8960, 3.851959
875.3781, 3.817337
875.8602, 3.628288
876.3423, 3.649025
876.8245, 3.894268
877.3066, 3.978401
877.7887, 3.917175
878.2708, 3.649349
878.7529, 3.045029
879.2350, 2.266811
879.7172, 1.876530
880.1993, 1.837437
880.6814, 1.866261
881.1635, 1.826675
881.6456, 1.784157
882.1277, 1.873360
882.6099, 2.002384
883.0920, 1.902863
883.5741, 1.142017
884.0562, 0.7086140
884.5383, 0.9017300
885.0204, 1.382145
885.5026, 1.323792
885.9847, 0.7748570
886.4668, 0.4693070
886.9489, 0.6505200
887.4310, 0.9563980
887.9131, 0.9647520
888.3953, 0.8187900
888.8774, 0.7387500
889.3595, 0.8855670
889.8416, 0.9758420
890.3237, 0.8888780
890.8058, 0.7693410
891.2880, 0.8510170
891.7701, 1.185322
892.2522, 1.055916
892.7343, 0.3341560
893.2164, 0.4269450
893.6985, 0.6798170
894.1807, 0.5819850
894.6628, 0.3112560
895.1449, 0.1309620
895.6270, 0.5054090
896.1091, 0.7677880
896.5912, 0.8764000
897.0734, 0.7435420
897.5555, 0.3353730
898.0376, 0.1451680
898.5197, 0.2003100
899.0018, 0.3218540
899.4839, 0.5312120
899.9661, 0.6635250
900.4482, 0.2434690
900.9303, 0.6194380
901.4124, 1.235397
901.8945, 1.264450
902.3766, 0.9877660
902.8588, 0.2472720
903.3409, 0.7383080
903.8230, 0.9012600
904.3051, 4.0855002E-02
904.7872, 0.6647030
905.2693, 0.3632240
905.7515, 0.3540040
906.2336, 0.4239810
906.7157, 3.4885000E-02
907.1978, 0.2666660
907.6799, 0.1979290
908.1620, 6.4692996E-02
908.6442, 0.1077230
909.1263, 0.1335410
909.6084, 0.2391550
910.0905, 1.403801
910.5726, 1.842209
911.0547, 1.240055
911.5369, 0.3245620
912.0190, 7.8712001E-02
912.5011, 0.2972340
912.9832, 0.3515930
913.4653, 8.6739004E-02
913.9474, 2.2411000E-02
914.4296, 0.6753120
914.9117, 1.424603
915.3938, 1.498875
915.8759, 0.6347690
916.3580, 8.4197998E-02
916.8401, 7.1693003E-02
917.3223, 0.1168630
917.8044, 0.3145710
918.2865, 0.5609170
918.7686, 0.4467620
919.2507, 8.6939996E-03
919.7328, 0.5925520
920.2150, 1.613808
920.6971, 2.322300
921.1792, 1.966904
921.6613, 0.7288700
922.1434, 0.1492770
922.6255, 0.5603750
923.1077, 0.9120860
923.5898, 0.8609960
924.0719, 0.6114920
924.5540, 0.7104490
925.0361, 1.051289
925.5182, 1.180000
926.0004, 0.7621990
926.4825, 0.3922620
926.9646, 0.5238650
927.4467, 0.8787690
927.9288, 1.028690
928.4109, 0.8713190
928.8931, 0.6247100
929.3752, 0.2049980
929.8573, 0.1048740
930.3394, 0.1810650
930.8215, 0.8561710
931.3036, 1.162510
931.7858, 0.9728320
932.2679, 0.7142370
932.7500, 0.6320650
933.2321, 0.7636030
933.7142, 1.294655
934.1964, 2.359062
934.6785, 2.535816
935.1606, 1.411583
935.6427, 0.4172780
936.1248, 0.4007640
936.6069, 1.064960
937.0891, 1.533226
937.5712, 1.795135
938.0533, 1.779026
938.5354, 1.128757
939.0175, 0.5069920
939.4996, 0.2840500
939.9818, 0.3899800
940.4639, 0.6150820
940.9460, 1.022156
941.4281, 1.372181
941.9102, 1.695736
942.3923, 1.843025
942.8745, 1.292824
943.3566, 0.3334810
943.8387, 6.3740000E-02
944.3208, 0.5074080
944.8029, 1.061119
945.2850, 1.029060
945.7672, 0.7227970
946.2493, 0.3968510
946.7314, 1.2798000E-02
947.2135, 0.1608050
947.6956, 9.6344002E-02
948.1777, 8.5510001E-02
948.6599, 0.3576130
949.1420, 0.6602130
949.6241, 0.8761220
950.1062, 0.9938620
950.5883, 0.9600330
951.0704, 0.6316070
951.5526, 0.2335090
952.0347, 0.2593350
952.5168, 0.7202530
952.9989, 0.5814590
953.4810, 0.3198510
953.9631, 0.9956280
954.4453, 1.114929
954.9274, 0.9611890
955.4095, 0.9721870
955.8916, 1.074951
956.3737, 1.114723
956.8558, 1.048450
957.3380, 0.9056890
957.8201, 0.5288430
958.3022, 0.1849940
958.7843, 0.1468120
959.2664, 0.4915350
959.7485, 0.6596950
960.2307, 0.6289750
960.7128, 0.6179390
961.1949, 0.8409230
961.6770, 1.121857
962.1591, 1.139099
962.6412, 0.8730090
963.1234, 0.8205600
963.6055, 1.361744
964.0876, 1.893936
964.5697, 2.280025
965.0518, 2.474155
965.5339, 2.222092
966.0161, 1.524818
966.4982, 1.027279
966.9803, 1.062107
967.4624, 1.275566
967.9445, 1.275196
968.4266, 1.164967
968.9088, 1.117294
969.3909, 1.153980
969.8730, 1.317200
970.3551, 1.755371
970.8372, 2.131748
971.3193, 1.981064
971.8015, 1.386330
972.2836, 1.224251
972.7657, 1.573887
973.2478, 1.891388
973.7299, 1.662102
974.2120, 1.286362
974.6942, 1.096275
975.1763, 1.125519
975.6584, 1.151752
976.1405, 1.083244
976.6226, 1.216068
977.1047, 1.805756
977.5869, 2.548252
978.0690, 2.498844
978.5511, 1.869961
979.0332, 1.478966
979.5153, 1.957867
979.9974, 2.364487
980.4796, 1.775703
980.9617, 0.8598860
981.4438, 0.6783790
981.9259, 1.713760
982.4080, 1.934273
982.8901, 1.068748
983.3723, 6.4373001E-02
983.8544, 0.1327210
984.3365, 0.2093240
984.8186, 0.7218670
985.3007, 1.356934
985.7828, 1.722973
986.2650, 1.414967
986.7471, 1.050285
987.2292, 0.9700780
987.7113, 1.059891
988.1934, 0.6310080
988.6755, 0.3719180
989.1577, 0.8366620
989.6398, 9.8892003E-02
990.1219, 0.9784660
990.6040, 1.489742
991.0861, 1.576118
991.5682, 1.470592
992.0504, 0.9775730
992.5325, 0.7116510
993.0146, 0.8330570
993.4967, 1.027409
993.9788, 0.9289440
994.4609, 0.6065060
994.9431, 0.7539370
995.4252, 1.404728
995.9073, 1.904797
996.3894, 1.547474
996.8715, 1.048363
997.3536, 1.055424
997.8358, 1.525719
998.3179, 1.486744
998.8000, 0.6668430
999.2821, 2.6930000E-03
999.7642, 0.2658840
1000.246, 0.2128750
1000.728, 4.9290001E-02
1001.211, 0.4755970
1001.693, 0.9710240
1002.175, 1.695240
1002.657, 2.153732
1003.139, 1.920853
1003.621, 1.474438
1004.103, 1.209782
1004.585, 1.096741
1005.068, 1.402740
1005.550, 2.215607
1006.032, 2.765118
1006.514, 2.107464
1006.996, 1.075848
1007.478, 0.7059860
1007.960, 0.9435690
1008.442, 1.236618
1008.924, 1.684128
1009.407, 1.799229
1009.889, 1.306969
1010.371, 0.5588950
1010.853, 0.3857270
1011.335, 0.7404330
1011.817, 1.006176
1012.299, 1.033867
1012.781, 1.004124
1013.263, 1.129101
1013.746, 1.216053
1014.228, 0.9847340
1014.710, 0.2730260
1015.192, 0.1496620
1015.674, 0.7973210
1016.156, 1.425858
1016.638, 1.498772
1017.120, 1.280312
1017.603, 1.349194
1018.085, 1.607502
1018.567, 1.714523
1019.049, 1.365788
1019.531, 1.022381
1020.013, 0.7806170
1020.495, 0.6421320
1020.977, 0.6219220
1021.459, 0.7205200
1021.942, 0.9195060
1022.424, 1.236217
1022.906, 1.497826
1023.388, 1.529537
1023.870, 1.439102
1024.352, 1.251343
1024.834, 0.9507030
1025.316, 1.053848
1025.799, 1.959057
1026.281, 2.465351
1026.763, 1.891209
1027.245, 0.7716370
1027.727, 0.4538570
1028.209, 0.7839810
1028.691, 1.282864
1029.173, 2.105072
1029.656, 2.511692
1030.138, 1.677883
1030.620, 0.5512350
1031.102, 0.1455500
1031.584, 0.5921400
1032.066, 1.102314
1032.548, 1.690544
1033.030, 2.062309
1033.512, 1.684502
1033.995, 1.141483
1034.477, 1.295708
1034.959, 2.022800
1035.441, 2.324554
1035.923, 1.755230
1036.405, 1.017345
1036.887, 3.1978998E-02
1037.369, 0.7947920
1037.851, 0.4177780
1038.334, 0.8303720
1038.816, 1.682751
1039.298, 1.806194
1039.780, 1.738628
1040.262, 1.773296
1040.744, 1.781887
1041.226, 1.627285
1041.708, 1.297894
1042.191, 1.074692
1042.673, 0.9554440
1043.155, 0.8403020
1043.637, 0.5948180
1044.119, 0.3965680
1044.601, 0.5838850
1045.083, 1.002750
1045.565, 1.293934
1046.047, 1.203400
1046.530, 1.151474
1047.012, 1.192913
1047.494, 1.361477
1047.976, 1.750736
1048.458, 2.209438
1048.940, 1.944862
1049.422, 0.9226490
1049.904, 4.5237999E-02
1050.386, 0.1455080
1050.869, 1.5490000E-03
1051.351, 0.4829030
1051.833, 1.140797
1052.315, 1.253170
1052.797, 0.7433470
1053.279, 0.4068720
1053.761, 0.5076410
1054.243, 0.8231160
1054.726, 1.236835
1055.208, 1.611259
1055.690, 1.711964
1056.172, 1.348278
1056.654, 1.211536
1057.136, 1.550320
1057.618, 1.716030
1058.100, 1.176201
1058.583, 0.2138790
1059.065, 0.1189650
1059.547, 9.0980999E-02
1060.029, 0.5221710
1060.511, 1.388252
1060.993, 2.022575
1061.475, 1.889519
1061.957, 1.490852
1062.439, 1.543732
1062.922, 2.097679
1063.404, 2.426189
1063.886, 2.428535
1064.368, 2.650948
1064.850, 3.902138
1065.332, 5.385059
1065.814, 6.250378
1066.296, 6.484859
1066.778, 6.815105
1067.261, 7.157558
1067.743, 7.959888
1068.225, 9.389740
1068.707, 11.16003
1069.189, 12.74262
1069.671, 14.30683
1070.153, 16.16293
1070.635, 18.23606
1071.118, 21.13834
1071.600, 25.10032
1072.082, 29.95588
1072.564, 35.59253
1073.046, 41.98121
1073.528, 49.63307
1074.010, 58.40950
1074.492, 67.36107
1074.974, 78.59476
1075.457, 86.69952
1075.939, 87.16831
1076.421, 81.90337
1076.903, 73.70895
1077.385, 61.49239
1077.867, 50.76846
1078.349, 41.78188
1078.831, 34.59119
1079.313, 29.49445
1079.796, 26.05579
1080.278, 24.01878
1080.760, 23.18748
1081.242, 22.52572
1081.724, 21.42958
1082.206, 20.87835
1082.688, 21.09431
1083.170, 21.93914
1083.652, 23.34996
1084.135, 25.19339
1084.617, 26.87316
1085.099, 28.23636
1085.581, 29.77426
1086.063, 31.70231
1086.545, 33.97777
1087.027, 36.66104
1087.509, 39.69766
1087.992, 43.02119
1088.474, 46.64919
1088.956, 49.07977
1089.438, 49.85063
1089.920, 48.93501
1090.402, 45.56242
1090.884, 40.82784
1091.366, 36.19486
1091.849, 31.89665
1092.331, 27.49741
1092.813, 22.80520
1093.295, 18.66111
1093.777, 15.96357
1094.259, 14.10378
1094.741, 11.74307
1095.223, 9.085972
1095.705, 7.110699
1096.188, 6.754967
1096.670, 6.313534
1097.152, 5.395176
1097.634, 4.429306
1098.116, 4.042412
1098.598, 4.097637
1099.080, 3.952774
1099.562, 3.552788
1100.044, 3.157356
1100.527, 2.848675
1101.009, 2.669548
1101.491, 2.747330
1101.973, 2.949238
1102.455, 2.842529
1102.937, 2.425251
1103.419, 1.936832
1103.901, 1.393387
1104.384, 0.9854350
1104.866, 1.058838
1105.348, 1.261600
1105.830, 1.191597
1106.312, 0.7553940
1106.794, 0.5720980
1107.276, 0.6729850
1107.758, 0.9296260
1108.240, 1.467587
1108.723, 1.906048
1109.205, 1.313591
1109.687, 0.2241970
1110.169, 0.3160060
1110.651, 0.3549840
1111.133, 0.9457660
1111.615, 1.424419
1112.097, 1.660706
1112.579, 1.409222
1113.062, 0.8416250
1113.544, 0.5162160
1114.026, 0.4268650
1114.508, 0.5310290
1114.990, 1.254707
1115.472, 1.589985
1115.954, 0.8518790
1116.436, 0.1216350
1116.919, 0.1006360
1117.401, 0.8246540
1117.883, 1.173027
1118.365, 0.8134610
1118.847, 0.3430900
1119.329, 5.6759999E-03
1119.811, 0.1379050
1120.293, 0.1984860
1120.776, 0.8029790
1121.258, 0.9502830
1121.740, 0.5764850
1122.222, 0.4236150
1122.704, 0.7000240
1123.186, 0.9967730
1123.668, 0.9022140
1124.150, 0.5991100
1124.632, 0.1931420
1125.115, 0.3248940
1125.597, 0.4370920
1126.079, 1.8340999E-02
1126.561, 0.4096530
1127.043, 0.6798740
1127.525, 0.8086660
1128.007, 0.6520460
1128.489, 0.4311220
1128.971, 0.5987820
1129.454, 1.616539
1129.936, 2.011364
1130.418, 1.417576
1130.900, 0.6657710
1131.382, 0.1449240
1131.864, 0.1094470
1132.346, 0.1912040
1132.828, 0.8618470
1133.311, 1.292042
1133.793, 1.095802
1134.275, 0.7745210
1134.757, 0.3661380
1135.239, 3.4942999E-02
1135.721, 0.3848300
1136.203, 0.6631360
1136.685, 0.6574590
1137.167, 0.3859480
1137.650, 0.1023830
1138.132, 4.6899999E-04
1138.614, 0.1208650
1139.096, 0.4536480
1139.578, 0.8221780
1140.060, 0.8992880
1140.542, 0.6780170
1141.024, 0.5954590
1141.506, 0.7072450
1141.989, 0.7804410
1142.471, 0.5453450
1142.953, 0.2749940
1143.435, 0.1317560
1143.917, 0.1395300
1144.399, 0.3876230
1144.881, 0.9412120
1145.363, 1.252693
1145.846, 1.154095
1146.328, 0.9641840
1146.810, 0.9927940
1147.292, 1.141205
1147.774, 1.343479
1148.256, 1.596756
1148.738, 1.719543
1149.220, 1.701916
1149.703, 1.559570
1150.185, 1.226616
1150.667, 0.9151190
1151.149, 1.000973
1151.631, 1.299034
1152.113, 1.515202
1152.595, 1.562275
1153.077, 1.639961
1153.559, 1.863934
1154.042, 1.872585
1154.524, 1.339649
1155.006, 0.5804060
1155.488, 0.3448450
1155.970, 0.4597970
1156.452, 0.4968530
1156.934, 5.5954002E-02
1157.416, 6.4560004E-02
1157.898, 0.9412420
1158.381, 1.745838
1158.863, 1.545658
1159.345, 0.6957930
1159.827, 0.7967990
1160.309, 1.594982
1160.791, 2.065880
1161.273, 1.244335
1161.755, 0.6975560
1162.238, 0.9690280
1162.720, 1.500561
1163.202, 1.771854
1163.684, 1.792202
1164.166, 1.508385
1164.648, 0.9714510
1165.130, 0.6683880
1165.612, 1.124641
1166.094, 1.607174
1166.577, 1.921406
1167.059, 1.965202
1167.541, 1.346607
1168.023, 0.1502690
1168.505, 0.1008190
1168.987, 0.7301450
1169.469, 1.629810
1169.951, 2.033970
1170.433, 2.152081
1170.916, 1.993046
1171.398, 1.675297
1171.880, 1.431152
1172.362, 1.260986
1172.844, 1.288635
1173.326, 1.567917
1173.808, 1.800732
1174.290, 1.700996
1174.773, 1.469303
1175.255, 1.131573
1175.737, 0.7674640
1176.219, 0.9340320
1176.701, 1.662094
1177.183, 2.309139
1177.665, 2.777279
1178.147, 2.852730
1178.630, 1.682323
1179.112, 0.4466060
1179.594, 0.5811040
1180.076, 2.130173
1180.558, 2.652279
1181.040, 2.017639
1181.522, 1.508995
1182.004, 1.713303
1182.486, 2.036552
1182.969, 1.678074
1183.451, 1.914417
1183.933, 1.134384
1184.415, 1.845024
1184.897, 2.043968
1185.379, 1.656338
1185.861, 1.227772
1186.343, 0.9776310
1186.825, 0.9122540
1187.308, 1.191822
1187.790, 1.603893
1188.272, 1.800007
1188.754, 1.657909
1189.236, 1.498795
1189.718, 1.298309
1190.200, 1.200500
1190.682, 1.407150
1191.165, 1.654526
1191.647, 1.501049
1192.129, 1.155479
1192.611, 1.056767
1193.093, 1.506027
1193.575, 1.659626
1194.057, 1.440567
1194.539, 1.138069
1195.021, 0.7990760
1195.504, 0.6421320
1195.986, 1.188416
1196.468, 2.150623
1196.950, 2.674751
1197.432, 2.480297
1197.914, 2.126652
1198.396, 1.595058
1198.878, 1.093876
1199.360, 0.7210960
1199.843, 0.5555990
1200.325, 0.9734570
1200.807, 1.766468
1201.289, 2.031792
1201.771, 1.300194
1202.253, 0.7611810
1202.735, 0.5248150
1203.217, 0.5548290
1203.700, 1.040291
1204.182, 1.634632
1204.664, 1.827503
1205.146, 1.629269
1205.628, 1.335083
1206.110, 0.8380470
1206.592, 0.5861050
1207.074, 0.6864550
1207.557, 0.9343610
1208.039, 1.110435
1208.521, 1.291019
1209.003, 1.515186
1209.485, 1.741974
1209.967, 1.796921
1210.449, 1.658306
1210.931, 1.316284
1211.413, 0.6480830
1211.896, 9.5077999E-02
1212.378, 0.4092410
1212.860, 1.129108
1213.342, 1.634903
1213.824, 1.861179
1214.306, 1.763683
1214.788, 1.139065
1215.270, 0.8233180
1215.752, 1.153767
1216.235, 1.593998
1216.717, 1.180733
1217.199, 0.4821970
1217.681, 0.4635620
1218.163, 0.2981680
1218.645, 6.2275000E-02
1219.127, 0.6743580
1219.609, 0.2522850
1220.092, 0.9490660
1220.574, 1.899464
1221.056, 1.781467
1221.538, 1.097122
1222.020, 0.5199550
1222.502, 0.1692050
1222.984, 7.3317997E-02
1223.466, 0.2143670
1223.948, 0.2082630
1224.431, 1.4313000E-02
1224.913, 0.3059310
1225.395, 0.5158690
1225.877, 0.6164700
1226.359, 0.5367130
1226.841, 0.2278100
1227.323, 5.2662000E-02
1227.805, 3.4157000E-02
1228.287, 6.9035001E-02
1228.770, 0.1294980
1229.252, 0.1936720
1229.734, 0.2410850
1230.216, 0.2689320
1230.698, 0.2245030
1231.180, 3.1314999E-02
1231.662, 0.2549740
1232.144, 0.9939160
1232.627, 1.591450
1233.109, 1.736008
1233.591, 1.617638
1234.073, 1.300091
1234.555, 0.9489140
1235.037, 0.8061980
1235.519, 0.9278680
1236.001, 1.077148
1236.484, 1.282097
1236.966, 1.233738
1237.448, 0.5686530
1237.930, 8.7341003E-02
1238.412, 7.6790000E-03
1238.894, 0.4389570
1239.376, 0.6418650
1239.858, 0.5652470
1240.340, 0.4516370
1240.823, 0.2989540
1241.305, 0.2616500
1241.787, 0.5120540
1242.269, 0.7803650
1242.751, 0.8066980
1243.233, 0.7309720
1243.715, 0.7519490
1244.197, 0.9000210
1244.679, 0.8174780
1245.162, 0.5108530
1245.644, 0.2853200
1246.126, 0.3532490
1246.608, 0.5077130
1247.090, 0.6789550
1247.572, 0.8234600
1248.054, 0.8630140
1248.536, 0.7885440
1249.019, 1.057953
1249.501, 1.612652
1249.983, 1.805550
1250.465, 0.7633020
1250.947, 8.5795999E-02
1251.429, 0.2801510
1251.911, 0.9675640
1252.393, 1.155979
1252.875, 0.8714520
1253.358, 0.5384670
1253.840, 0.1976620
1254.322, 9.2139997E-02
1254.804, 0.7365300
1255.286, 1.124897
1255.768, 0.6592900
1256.250, 6.6490002E-02
1256.732, 1.9714000E-02
1257.214, 0.3122180
1257.697, 0.5966530
1258.179, 0.8132590
1258.661, 0.8447380
1259.143, 0.2986830
1259.625, 6.6928998E-02
1260.107, 0.3984870
1260.589, 0.9164200
1261.071, 1.487476
1261.554, 1.962330
1262.036, 1.566879
1262.518, 0.5985640
1263.000, 6.9756001E-02
1263.482, 0.7979160
1263.964, 1.321396
1264.446, 1.591953
1264.928, 1.499157
1265.411, 0.5539470
1265.893, 0.5890660
1266.375, 0.5208170
1266.857, 0.4006920
1267.339, 1.180588
1267.821, 1.543667
1268.303, 1.844707
1268.785, 2.148792
1269.267, 2.169945
1269.750, 1.191406
1270.232, 0.1780090
1270.714, 0.8084490
1271.196, 2.319000
1271.678, 2.741611
1272.160, 1.395264
1272.642, 0.6828880
1273.124, 0.7208940
1273.606, 0.9337230
1274.089, 0.9584880
1274.571, 0.9213140
1275.053, 0.9981540
1275.535, 1.076832
1276.017, 0.8910290
1276.499, 0.3268740
1276.981, 0.3501820
1277.463, 0.9411770
1277.946, 1.525791
1278.428, 1.673412
1278.910, 1.627728
1279.392, 1.571617
1279.874, 1.398521
1280.356, 0.8569790
1280.838, 1.5247000E-02
1281.320, 0.1676330
1281.802, 1.182549
1282.285, 1.880859
1282.767, 1.161781
1283.249, 0.5374370
1283.731, 0.7306020
1284.213, 1.105843
1284.695, 0.9821430
1285.177, 0.5811270
1285.659, 0.3146630
1286.141, 9.5490001E-02
1286.624, 8.6987004E-02
1287.106, 0.6089480
1287.588, 0.9332920
1288.070, 0.7761540
1288.552, 0.7530980
1289.034, 1.738388
1289.516, 3.054321
1289.998, 2.978386
1290.481, 1.965389
1290.963, 1.179672
1291.445, 1.037647
1291.927, 0.9984780
1292.409, 1.010303
1292.891, 1.105686
1293.373, 1.005192
1293.855, 0.9842990
1294.338, 1.624344
1294.820, 2.501995
1295.302, 2.857357
1295.784, 2.629112
1296.266, 1.958908
1296.748, 0.8059730
1297.230, 4.8301999E-02
1297.712, 9.8205999E-02
1298.194, 0.4680400
1298.677, 0.4233740
1299.159, 0.2580300
1299.641, 0.3478200
1300.123, 0.6993640
1300.605, 0.8902700
1301.087, 1.088997
1301.569, 1.051899
1302.051, 0.4057850
1302.533, 1.8840000E-03
1303.016, 0.0000000E+00
##END=



