##NAMES=Sabugalite
##RRUFFID=R080028
##IDEAL CHEMISTRY=HAl(UO_2_)_4_(PO_4_)_4_&#183;16H_2_O
##LOCALITY=Arcu su Linnarbu, Capoterra, Cagliari, Sardinia
##OWNER=RRUFF
##SOURCE=Mark N. Feinglos, M.D.
##DESCRIPTION=Cluster of yellow plates
##STATUS=The identification of this mineral is not yet confirmed.
##URL=rruff.info/R080028
180.1872, 0.0000000E+00
180.6694, 9.396484
181.1515, 5.529297
181.6336, 8.193359
182.1157, 43.00391
182.5978, 80.77734
183.0799, 101.5938
183.5621, 114.1738
184.0442, 145.0156
184.5263, 203.1367
185.0084, 275.7578
185.4905, 343.4082
185.9726, 405.6504
186.4547, 469.8691
186.9369, 545.0430
187.4190, 628.6914
187.9011, 705.1582
188.3832, 768.9434
188.8653, 827.1211
189.3474, 896.1465
189.8296, 976.8613
190.3117, 1061.709
190.7938, 1148.092
191.2759, 1235.074
191.7580, 1314.545
192.2401, 1385.594
192.7223, 1448.393
193.2044, 1505.791
193.6865, 1559.475
194.1686, 1603.836
194.6507, 1630.512
195.1328, 1639.844
195.6150, 1642.477
196.0971, 1640.535
196.5792, 1632.441
197.0613, 1611.789
197.5434, 1576.822
198.0255, 1536.086
198.5077, 1498.570
198.9898, 1464.248
199.4719, 1428.709
199.9540, 1392.406
200.4361, 1354.350
200.9182, 1304.592
201.4004, 1239.482
201.8825, 1175.311
202.3646, 1131.154
202.8467, 1110.211
203.3288, 1086.859
203.8109, 1053.484
204.2931, 1011.961
204.7752, 979.6133
205.2573, 960.4648
205.7394, 942.5625
206.2215, 911.0312
206.7036, 863.6445
207.1858, 834.0859
207.6679, 833.3086
208.1500, 852.4375
208.6321, 859.9414
209.1142, 868.7949
209.5963, 876.6523
210.0785, 882.1172
210.5606, 887.2109
211.0427, 887.4023
211.5248, 887.3438
212.0069, 887.5371
212.4890, 880.7422
212.9712, 869.1328
213.4533, 856.3340
213.9354, 846.4043
214.4175, 843.2207
214.8996, 834.1719
215.3817, 812.4629
215.8639, 778.5840
216.3460, 750.5820
216.8281, 730.1465
217.3102, 710.8379
217.7923, 685.0469
218.2744, 648.7266
218.7566, 617.8418
219.2387, 595.8066
219.7208, 582.6895
220.2029, 567.6836
220.6850, 550.8574
221.1671, 532.2988
221.6493, 511.3887
222.1314, 486.1543
222.6135, 463.1074
223.0956, 445.6914
223.5777, 434.3398
224.0598, 414.8281
224.5420, 380.3496
225.0241, 345.2637
225.5062, 326.9297
225.9883, 337.5098
226.4704, 338.9922
226.9525, 320.9961
227.4347, 282.5234
227.9168, 246.1445
228.3989, 210.5684
228.8810, 178.4434
229.3631, 153.5645
229.8452, 139.5156
230.3274, 125.4883
230.8095, 109.8789
231.2916, 92.77344
231.7737, 72.55273
232.2558, 47.06445
232.7379, 20.80078
233.2201, 1.382813
233.7022, 17.80469
234.1843, 33.63867
234.6664, 52.35742
235.1485, 74.13867
235.6306, 81.60156
236.1128, 65.28711
236.5949, 44.50391
237.0770, 38.40039
237.5591, 56.58203
238.0412, 69.22070
238.5233, 71.38281
239.0055, 62.90625
239.4876, 57.34180
239.9697, 57.30664
240.4518, 57.47070
240.9339, 52.46484
241.4160, 37.81250
241.8982, 26.98242
242.3803, 24.27148
242.8624, 29.28125
243.3445, 28.14258
243.8266, 18.01172
244.3087, 5.062500
244.7909, 5.462891
245.2730, 11.60352
245.7551, 18.58398
246.2372, 25.99219
246.7193, 33.95117
247.2014, 47.79688
247.6836, 72.76953
248.1657, 96.51367
248.6478, 107.2109
249.1299, 93.51562
249.6120, 92.43359
250.0941, 116.0605
250.5762, 159.3281
251.0584, 179.1074
251.5405, 163.4590
252.0226, 140.4082
252.5047, 129.5488
252.9868, 136.0137
253.4689, 143.8867
253.9511, 154.2129
254.4332, 165.7188
254.9153, 169.1367
255.3974, 162.3398
255.8795, 151.6582
256.3617, 138.6367
256.8438, 116.4336
257.3259, 111.2969
257.8080, 131.6777
258.2901, 170.1289
258.7722, 197.8164
259.2544, 209.0254
259.7365, 218.8398
260.2186, 237.3672
260.7007, 269.4727
261.1828, 293.3555
261.6649, 305.2754
262.1471, 308.3516
262.6292, 312.3770
263.1113, 315.6406
263.5934, 322.2305
264.0755, 334.8008
264.5576, 355.4355
265.0398, 374.5645
265.5219, 392.2012
266.0040, 408.2090
266.4861, 422.5508
266.9682, 434.1855
267.4503, 447.0684
267.9325, 464.0059
268.4146, 487.9551
268.8967, 505.3555
269.3788, 514.4199
269.8609, 519.5703
270.3430, 528.3496
270.8252, 541.4141
271.3073, 555.4141
271.7894, 567.9629
272.2715, 578.4863
272.7536, 593.4121
273.2357, 613.9375
273.7179, 636.1504
274.2000, 654.7695
274.6821, 669.0801
275.1642, 680.6699
275.6463, 687.7031
276.1284, 690.0781
276.6106, 702.5254
277.0927, 729.7266
277.5748, 758.2520
278.0569, 766.8359
278.5390, 752.1895
279.0211, 743.9336
279.5032, 754.1855
279.9854, 780.4863
280.4675, 801.6172
280.9496, 817.3594
281.4317, 828.6035
281.9138, 832.0215
282.3959, 827.0898
282.8781, 834.7773
283.3602, 868.8164
283.8423, 918.7207
284.3244, 933.2734
284.8065, 908.1250
285.2886, 876.1758
285.7708, 867.8340
286.2529, 881.8203
286.7350, 895.9883
287.2171, 905.7227
287.6992, 912.3418
288.1813, 919.3242
288.6635, 926.6504
289.1456, 933.0137
289.6277, 940.0352
290.1098, 946.2031
290.5919, 941.1172
291.0740, 920.5273
291.5562, 890.6699
292.0383, 862.6016
292.5204, 836.0391
293.0025, 811.4824
293.4846, 792.8672
293.9667, 779.6797
294.4489, 765.9844
294.9310, 751.9434
295.4131, 730.7285
295.8952, 688.7559
296.3773, 630.4141
296.8594, 578.3184
297.3416, 546.7812
297.8237, 529.7539
298.3058, 515.4922
298.7879, 504.1992
299.2700, 492.5586
299.7521, 475.5293
300.2343, 453.5352
300.7164, 429.1660
301.1985, 401.0508
301.6806, 373.2988
302.1627, 349.9238
302.6448, 330.2012
303.1270, 319.3926
303.6091, 329.7715
304.0912, 352.2715
304.5733, 369.3262
305.0554, 370.4863
305.5375, 364.6699
306.0197, 359.5996
306.5018, 355.0781
306.9839, 352.8359
307.4660, 361.5020
307.9481, 372.2441
308.4302, 371.6699
308.9124, 346.5762
309.3945, 317.5078
309.8766, 299.7168
310.3587, 292.3809
310.8408, 291.2656
311.3229, 302.7461
311.8051, 315.5430
312.2872, 316.3633
312.7693, 294.4746
313.2514, 273.0703
313.7335, 267.5703
314.2156, 274.0449
314.6978, 281.2363
315.1799, 282.1582
315.6620, 281.2539
316.1441, 280.1348
316.6262, 279.2461
317.1083, 279.9414
317.5905, 283.4082
318.0726, 288.7188
318.5547, 294.5098
319.0368, 305.2266
319.5189, 312.1816
320.0010, 309.7246
320.4832, 295.4844
320.9653, 280.6777
321.4474, 269.5566
321.9295, 258.9043
322.4116, 245.0352
322.8937, 221.5410
323.3759, 200.9023
323.8580, 188.2305
324.3401, 184.4512
324.8222, 180.6055
325.3043, 178.0879
325.7864, 173.9824
326.2686, 166.0371
326.7507, 140.3535
327.2328, 125.0801
327.7149, 129.7832
328.1970, 152.1152
328.6791, 167.3008
329.1613, 170.5586
329.6434, 169.6016
330.1255, 168.1484
330.6076, 166.2695
331.0897, 163.4023
331.5718, 157.2031
332.0540, 150.1406
332.5361, 150.4375
333.0182, 170.8711
333.5003, 180.8105
333.9824, 163.7344
334.4645, 101.9277
334.9467, 69.92578
335.4288, 81.80469
335.9109, 113.8496
336.3930, 125.2227
336.8751, 105.5332
337.3572, 90.36133
337.8394, 92.93164
338.3215, 114.3008
338.8036, 125.9863
339.2857, 125.2754
339.7678, 119.6855
340.2499, 117.3770
340.7321, 118.6309
341.2142, 120.3555
341.6963, 121.3594
342.1784, 122.1836
342.6605, 126.3398
343.1426, 134.4980
343.6248, 141.6152
344.1069, 141.8301
344.5890, 135.2969
345.0711, 132.4316
345.5532, 136.1367
346.0353, 141.9238
346.5175, 139.9121
346.9996, 130.2051
347.4817, 117.6406
347.9638, 100.8691
348.4459, 82.96680
348.9280, 77.91211
349.4102, 89.20703
349.8923, 102.9043
350.3744, 98.50586
350.8565, 80.14648
351.3386, 63.83203
351.8207, 58.25000
352.3029, 59.24023
352.7850, 62.65625
353.2671, 68.72852
353.7492, 70.01953
354.2313, 54.95508
354.7134, 32.58984
355.1956, 17.15430
355.6777, 14.58594
356.1598, 19.09375
356.6419, 28.45508
357.1240, 41.72461
357.6061, 53.39648
358.0883, 63.33203
358.5704, 68.98047
359.0525, 65.65820
359.5346, 46.18750
360.0167, 28.92969
360.4988, 24.55469
360.9810, 29.88281
361.4631, 38.63281
361.9452, 55.72656
362.4273, 70.32422
362.9094, 72.69531
363.3915, 56.75586
363.8737, 46.85742
364.3558, 59.06445
364.8379, 79.25000
365.3200, 90.70898
365.8021, 85.03906
366.2842, 74.71875
366.7664, 60.78125
367.2485, 43.44141
367.7306, 31.07617
368.2127, 29.60938
368.6948, 30.98633
369.1769, 30.04688
369.6591, 24.95508
370.1412, 20.49414
370.6233, 20.20508
371.1054, 22.06445
371.5875, 14.88477
372.0696, 15.40234
372.5518, 39.28320
373.0339, 42.30078
373.5160, 13.62695
373.9981, 5.947266
374.4802, 14.57031
374.9623, 15.83984
375.4445, 14.86719
375.9266, 11.27539
376.4087, 6.330078
376.8908, 0.3339840
377.3729, 8.072266
377.8550, 11.80859
378.3372, 12.44141
378.8193, 10.04297
379.3014, 3.667969
379.7835, 7.416016
380.2656, 19.74609
380.7477, 33.91016
381.2299, 47.52344
381.7120, 54.34570
382.1941, 53.82031
382.6762, 50.40430
383.1583, 42.63477
383.6404, 33.27539
384.1226, 35.03320
384.6047, 50.82031
385.0868, 70.64258
385.5689, 85.94141
386.0510, 96.08984
386.5331, 98.37891
387.0153, 86.86523
387.4974, 68.97266
387.9795, 55.20117
388.4616, 45.91992
388.9437, 38.34766
389.4258, 26.86328
389.9080, 16.99805
390.3901, 17.13281
390.8722, 35.71484
391.3543, 58.62695
391.8364, 78.36133
392.3185, 93.77539
392.8007, 103.6055
393.2828, 101.0703
393.7649, 97.74219
394.2470, 101.2637
394.7291, 113.9512
395.2112, 127.9961
395.6934, 139.3926
396.1755, 150.6270
396.6576, 165.1523
397.1397, 189.2031
397.6218, 210.7539
398.1039, 224.9023
398.5861, 230.7695
399.0682, 237.2168
399.5503, 245.5176
400.0324, 254.6934
400.5145, 263.9727
400.9966, 273.3906
401.4788, 283.6758
401.9609, 295.8086
402.4430, 309.2129
402.9251, 321.5527
403.4072, 334.2520
403.8893, 344.2598
404.3714, 351.0723
404.8535, 356.4922
405.3357, 349.8750
405.8178, 326.7930
406.2999, 296.9688
406.7820, 275.2422
407.2641, 263.4277
407.7462, 250.0215
408.2284, 232.1191
408.7105, 209.6699
409.1926, 181.4434
409.6747, 147.1914
410.1568, 110.7559
410.6389, 73.21484
411.1211, 35.85352
411.6032, 3.457031
412.0853, 23.88477
412.5674, 44.91797
413.0495, 56.04102
413.5316, 58.16211
414.0138, 57.75586
414.4959, 56.80273
414.9780, 55.82227
415.4601, 57.23438
415.9422, 61.51953
416.4243, 63.31641
416.9065, 57.74414
417.3886, 47.65820
417.8707, 37.00000
418.3528, 22.31055
418.8349, 11.42383
419.3170, 13.97461
419.7992, 26.34961
420.2813, 32.37109
420.7634, 18.58594
421.2455, 1.039063
421.7276, 9.703125
422.2097, 10.24219
422.6919, 10.12305
423.1740, 11.19141
423.6561, 12.70312
424.1382, 14.00391
424.6203, 13.17578
425.1024, 13.48633
425.5846, 17.57812
426.0667, 26.20312
426.5488, 29.96484
427.0309, 29.15625
427.5130, 23.07227
427.9951, 9.652344
428.4773, 20.11914
428.9594, 36.42383
429.4415, 34.33594
429.9236, 20.56055
430.4057, 6.259766
430.8878, 12.73047
431.3700, 26.05664
431.8521, 25.54297
432.3342, 10.72070
432.8163, 2.167969
433.2984, 1.943359
433.7805, 1.191406
434.2627, 15.68164
434.7448, 46.12305
435.2269, 63.22461
435.7090, 57.22656
436.1911, 36.42578
436.6732, 11.53320
437.1554, 16.12891
437.6375, 33.98633
438.1196, 21.54102
438.6017, 3.451172
439.0838, 10.68750
439.5659, 4.958984
440.0481, 27.19141
440.5302, 48.58594
441.0123, 66.26172
441.4944, 75.56641
441.9765, 66.51953
442.4586, 56.23828
442.9408, 55.58594
443.4229, 63.66602
443.9050, 72.13477
444.3871, 84.45312
444.8692, 91.69922
445.3513, 86.56445
445.8335, 57.23047
446.3156, 34.92969
446.7977, 28.65430
447.2798, 32.23828
447.7619, 35.10352
448.2440, 34.66406
448.7262, 36.28711
449.2083, 40.48633
449.6904, 47.16797
450.1725, 55.82422
450.6546, 67.54492
451.1367, 79.70312
451.6189, 91.03711
452.1010, 102.9766
452.5831, 108.7559
453.0652, 105.0410
453.5473, 97.89062
454.0294, 103.5566
454.5116, 124.1934
454.9937, 140.7383
455.4758, 140.8320
455.9579, 128.4258
456.4400, 127.0312
456.9221, 137.2852
457.4043, 151.2520
457.8864, 162.4395
458.3685, 171.0273
458.8506, 178.2578
459.3327, 183.9336
459.8148, 188.5469
460.2970, 192.3672
460.7791, 195.5488
461.2612, 198.5234
461.7433, 203.5742
462.2254, 207.4492
462.7076, 204.4902
463.1897, 193.3262
463.6718, 189.2051
464.1539, 210.0156
464.6360, 237.8945
465.1181, 254.7188
465.6003, 232.8164
466.0824, 224.5488
466.5645, 257.3223
467.0466, 317.8535
467.5287, 355.0078
468.0108, 342.0352
468.4930, 323.2246
468.9751, 312.5645
469.4572, 309.3887
469.9393, 314.7266
470.4214, 335.3066
470.9035, 358.4277
471.3857, 368.3711
471.8678, 358.5859
472.3499, 356.6816
472.8320, 369.7520
473.3141, 393.0371
473.7962, 412.9082
474.2784, 430.4961
474.7605, 439.1660
475.2426, 427.9395
475.7247, 402.0312
476.2068, 394.7246
476.6889, 409.2402
477.1711, 428.9297
477.6532, 432.9551
478.1353, 427.4043
478.6174, 429.4336
479.0995, 448.1953
479.5816, 471.9668
480.0638, 488.0254
480.5459, 497.7324
481.0280, 506.4531
481.5101, 515.6562
481.9922, 525.4512
482.4743, 536.7246
482.9565, 550.2520
483.4386, 559.8672
483.9207, 558.3652
484.4028, 553.5488
484.8849, 553.6914
485.3670, 564.8848
485.8492, 576.7988
486.3313, 590.2344
486.8134, 603.8711
487.2955, 610.4727
487.7776, 605.1328
488.2597, 600.3848
488.7419, 600.5957
489.2240, 605.8867
489.7061, 616.8516
490.1882, 635.5039
490.6703, 657.1367
491.1524, 676.6348
491.6346, 693.6406
492.1167, 710.3242
492.5988, 727.3262
493.0809, 742.7793
493.5630, 750.3633
494.0451, 750.4902
494.5273, 751.7773
495.0094, 761.6289
495.4915, 775.0195
495.9736, 778.8027
496.4557, 771.6699
496.9378, 766.0859
497.4200, 779.0586
497.9021, 799.8145
498.3842, 811.1992
498.8663, 801.5371
499.3484, 791.2832
499.8305, 796.2695
500.3127, 811.2773
500.7948, 822.6289
501.2769, 823.5352
501.7590, 821.6465
502.2411, 821.3008
502.7232, 823.6602
503.2054, 821.2520
503.6875, 804.9219
504.1696, 788.6562
504.6517, 783.3418
505.1338, 798.5723
505.6159, 807.1992
506.0981, 805.7070
506.5802, 797.1543
507.0623, 787.3477
507.5444, 773.6035
508.0265, 766.4160
508.5086, 773.5645
508.9908, 791.9180
509.4729, 794.5684
509.9550, 780.3691
510.4371, 760.4082
510.9192, 740.3516
511.4013, 722.2598
511.8835, 716.0508
512.3655, 726.0898
512.8477, 739.7012
513.3298, 743.3105
513.8119, 739.3633
514.2940, 733.3398
514.7761, 725.1875
515.2582, 718.2949
515.7404, 715.3691
516.2225, 716.1777
516.7046, 718.3184
517.1867, 727.8945
517.6688, 733.3770
518.1509, 723.7090
518.6331, 683.5078
519.1152, 661.4766
519.5973, 683.5371
520.0794, 720.5195
520.5615, 735.0547
521.0436, 707.4102
521.5258, 686.7598
522.0079, 681.1191
522.4900, 687.9766
522.9721, 696.5137
523.4542, 706.7773
523.9363, 718.2617
524.4185, 733.2344
524.9006, 751.7051
525.3827, 762.2480
525.8648, 765.7949
526.3469, 758.9004
526.8290, 724.6992
527.3112, 674.4512
527.7933, 653.3535
528.2754, 684.0449
528.7575, 726.6094
529.2396, 733.4297
529.7217, 712.6797
530.2039, 688.3691
530.6860, 663.8281
531.1681, 646.5898
531.6502, 644.8027
532.1323, 658.1016
532.6144, 668.6914
533.0966, 663.8027
533.5787, 656.6133
534.0608, 656.2832
534.5429, 668.9395
535.0250, 680.2754
535.5071, 690.3555
535.9893, 697.8730
536.4714, 700.6895
536.9535, 696.5820
537.4356, 692.4727
537.9177, 690.6055
538.3998, 690.3418
538.8820, 689.0430
539.3641, 687.9922
539.8462, 681.8730
540.3283, 662.7793
540.8104, 633.9023
541.2925, 618.5742
541.7747, 619.3828
542.2568, 624.2480
542.7389, 621.2793
543.2210, 612.4258
543.7031, 601.7012
544.1852, 588.1973
544.6674, 576.8555
545.1495, 577.0254
545.6316, 583.6406
546.1137, 583.9238
546.5958, 567.0449
547.0779, 546.8184
547.5601, 526.9551
548.0422, 507.6406
548.5243, 500.1309
549.0064, 513.5781
549.4885, 534.6797
549.9706, 555.9473
550.4528, 584.0293
550.9349, 598.1719
551.4170, 592.5840
551.8991, 576.9785
552.3812, 566.0430
552.8633, 561.6309
553.3455, 553.4238
553.8276, 537.8418
554.3097, 517.3730
554.7918, 497.0664
555.2739, 477.7129
555.7560, 466.5332
556.2382, 478.5586
556.7203, 500.4297
557.2024, 499.2500
557.6845, 473.2148
558.1666, 443.6465
558.6487, 423.8320
559.1309, 413.3516
559.6130, 414.1523
560.0951, 435.2852
560.5772, 450.6426
561.0593, 440.0078
561.5414, 416.1641
562.0236, 402.1660
562.5057, 413.2949
562.9878, 423.7812
563.4699, 426.2832
563.9520, 421.4199
564.4341, 414.7324
564.9163, 404.9258
565.3984, 394.6211
565.8805, 382.9863
566.3626, 367.7344
566.8447, 366.0449
567.3268, 381.3594
567.8090, 399.0391
568.2911, 402.2461
568.7732, 392.2559
569.2553, 381.5801
569.7374, 371.5449
570.2195, 363.8066
570.7017, 359.7207
571.1838, 358.8613
571.6659, 360.2695
572.1480, 370.4746
572.6301, 377.3652
573.1122, 368.5605
573.5944, 345.1172
574.0765, 321.2422
574.5586, 300.4180
575.0407, 283.8613
575.5228, 272.4668
576.0049, 268.2422
576.4871, 265.0996
576.9692, 263.5273
577.4513, 261.9277
577.9334, 257.8418
578.4155, 249.8574
578.8976, 244.2676
579.3798, 244.8828
579.8619, 245.8691
580.3440, 228.1797
580.8261, 189.7188
581.3082, 165.0137
581.7903, 176.6445
582.2725, 210.7109
582.7546, 227.9121
583.2367, 229.0664
583.7188, 223.1582
584.2009, 210.0664
584.6830, 196.8145
585.1652, 195.6445
585.6473, 210.3066
586.1294, 220.1406
586.6115, 201.8340
587.0936, 176.6074
587.5757, 167.3984
588.0579, 195.6406
588.5400, 221.4414
589.0221, 243.8516
589.5042, 258.3125
589.9863, 253.8164
590.4684, 214.3477
590.9506, 181.3555
591.4327, 168.2910
591.9148, 172.8242
592.3969, 170.0742
592.8790, 157.9551
593.3611, 145.3672
593.8433, 141.2969
594.3254, 144.2559
594.8075, 137.7617
595.2896, 120.4316
595.7717, 102.2598
596.2538, 94.26172
596.7360, 91.24219
597.2181, 83.22656
597.7002, 64.47656
598.1823, 50.58594
598.6644, 57.30469
599.1465, 75.57031
599.6287, 89.42188
600.1108, 90.95508
600.5929, 89.60156
601.0750, 86.58789
601.5571, 83.07031
602.0392, 84.02539
602.5214, 92.67969
603.0035, 99.75391
603.4856, 101.5312
603.9677, 97.00586
604.4498, 88.19531
604.9319, 73.13086
605.4141, 60.29102
605.8962, 60.08008
606.3783, 69.97656
606.8604, 79.62500
607.3425, 89.17383
607.8246, 92.60156
608.3068, 73.95117
608.7889, 43.43750
609.2710, 25.77734
609.7531, 40.65430
610.2352, 59.09375
610.7173, 60.86133
611.1995, 51.60742
611.6816, 45.46875
612.1637, 53.17383
612.6458, 57.16211
613.1279, 47.76367
613.6100, 24.84375
614.0922, 9.972656
614.5743, 9.179688
615.0564, 8.687500
615.5385, 0.5429690
616.0206, 21.51953
616.5027, 30.11914
616.9849, 24.24219
617.4670, 15.93359
617.9491, 19.03125
618.4312, 31.08398
618.9133, 38.69531
619.3954, 38.80664
619.8776, 34.47852
620.3597, 27.81055
620.8418, 20.51367
621.3239, 15.09766
621.8060, 15.23438
622.2881, 15.62695
622.7703, 13.51172
623.2524, 9.763672
623.7345, 6.830078
624.2166, 9.787109
624.6987, 9.337891
625.1808, 0.4531250
625.6630, 20.28320
626.1451, 28.48438
626.6272, 17.70898
627.1093, 7.500000
627.5914, 15.85938
628.0735, 46.10156
628.5557, 57.38867
629.0378, 43.22461
629.5199, 18.88867
630.0020, 0.2421880
630.4841, 12.56250
630.9662, 15.86133
631.4484, 6.232422
631.9305, 3.791016
632.4126, 2.085938
632.8947, 7.203125
633.3768, 17.02539
633.8589, 24.70312
634.3411, 30.68750
634.8232, 35.52930
635.3053, 38.79102
635.7874, 38.64258
636.2695, 33.91992
636.7516, 26.40039
637.2338, 16.39062
637.7159, 4.388672
638.1980, 8.642578
638.6801, 24.06445
639.1622, 35.81055
639.6443, 34.27148
640.1265, 21.76758
640.6086, 21.82617
641.0907, 37.87500
641.5728, 55.59375
642.0549, 59.83984
642.5370, 54.70898
643.0192, 47.03516
643.5013, 37.07617
643.9834, 28.86914
644.4655, 27.60938
644.9476, 29.58594
645.4297, 26.84375
645.9119, 12.08008
646.3940, 1.144531
646.8761, 9.490234
647.3582, 13.21094
647.8403, 11.05078
648.3224, 1.697266
648.8046, 10.80664
649.2867, 8.498047
649.7688, 3.724609
650.2509, 5.167969
650.7330, 5.000000
651.2151, 12.77930
651.6973, 5.105469
652.1794, 12.74414
652.6615, 28.40039
653.1436, 41.19141
653.6257, 47.56445
654.1078, 39.53711
654.5900, 25.36523
655.0721, 14.27930
655.5542, 8.593750
656.0363, 5.560547
656.5184, 6.277344
657.0005, 7.873047
657.4827, 6.598633
657.9648, 2.271484
658.4469, 6.319336
658.9290, 1.522461
659.4111, 7.806641
659.8932, 11.73145
660.3754, 10.40137
660.8575, 3.481445
661.3396, 12.22559
661.8217, 31.46680
662.3038, 40.05566
662.7859, 39.27441
663.2681, 38.50000
663.7502, 47.92676
664.2323, 57.22363
664.7144, 52.62793
665.1965, 34.16602
665.6786, 20.40918
666.1608, 24.09375
666.6429, 31.76367
667.1250, 35.50000
667.6071, 34.92871
668.0892, 29.41211
668.5714, 14.41113
669.0535, 7.2265998E-02
669.5356, 4.075195
670.0177, 3.755859
670.4998, 12.64551
670.9819, 22.52734
671.4641, 31.02051
671.9462, 35.18262
672.4283, 35.31836
672.9104, 29.60742
673.3925, 12.80664
673.8746, 2.919922
674.3568, 2.914063
674.8389, 8.182617
675.3210, 20.09570
675.8031, 32.98242
676.2852, 40.73047
676.7673, 37.70898
677.2495, 26.03027
677.7316, 19.01270
678.2137, 20.42773
678.6958, 21.48242
679.1779, 18.70312
679.6600, 11.86230
680.1422, 9.556641
680.6243, 12.21484
681.1064, 15.23926
681.5885, 13.09570
682.0706, 8.423828
682.5527, 13.14453
683.0349, 28.10645
683.5170, 40.16895
683.9991, 38.71191
684.4812, 28.80078
684.9633, 12.81348
685.4454, 13.52637
685.9276, 28.36133
686.4097, 12.61133
686.8918, 12.76367
687.3739, 23.92383
687.8560, 7.394531
688.3381, 0.5664060
688.8203, 4.053711
689.3024, 16.49805
689.7845, 29.00684
690.2666, 41.24902
690.7487, 52.53418
691.2308, 61.99414
691.7130, 70.72363
692.1951, 81.83789
692.6772, 93.80664
693.1593, 101.4414
693.6414, 97.39746
694.1235, 92.25391
694.6057, 98.07227
695.0878, 111.4385
695.5699, 116.6074
696.0520, 100.4873
696.5341, 83.09473
697.0162, 71.78027
697.4984, 66.89648
697.9805, 63.81738
698.4626, 62.60742
698.9447, 63.75586
699.4268, 69.57031
699.9089, 79.49805
700.3911, 83.39258
700.8732, 80.99512
701.3553, 77.10938
701.8374, 72.88672
702.3195, 70.63184
702.8016, 76.56152
703.2838, 92.64648
703.7659, 106.7432
704.2480, 112.3096
704.7301, 111.1787
705.2122, 104.7285
705.6943, 85.95020
706.1765, 74.95410
706.6586, 74.16113
707.1407, 79.78418
707.6228, 88.18457
708.1049, 101.2744
708.5870, 111.7715
709.0692, 118.8262
709.5513, 121.6475
710.0334, 117.7061
710.5155, 107.8887
710.9976, 96.92480
711.4797, 84.22363
711.9618, 75.82617
712.4439, 81.52637
712.9260, 96.22070
713.4081, 107.4150
713.8903, 110.7500
714.3724, 108.7217
714.8545, 99.27246
715.3366, 84.13965
715.8187, 73.79102
716.3008, 68.13867
716.7830, 66.46387
717.2651, 69.59961
717.7472, 76.95996
718.2293, 82.30078
718.7114, 86.01074
719.1935, 87.87793
719.6757, 85.59961
720.1578, 81.11719
720.6399, 77.41699
721.1220, 74.84766
721.6041, 74.87793
722.0862, 82.44336
722.5684, 90.03613
723.0505, 89.71582
723.5326, 77.55957
724.0147, 73.30273
724.4968, 90.66309
724.9789, 107.2607
725.4611, 107.6582
725.9432, 86.00098
726.4253, 69.85938
726.9074, 59.44824
727.3895, 53.66602
727.8716, 54.43750
728.3538, 59.63379
728.8359, 59.69531
729.3180, 51.89648
729.8001, 44.31738
730.2822, 43.84375
730.7643, 47.88867
731.2465, 53.47559
731.7286, 64.63770
732.2107, 70.17285
732.6928, 61.85840
733.1749, 48.04492
733.6570, 41.81641
734.1392, 46.00293
734.6213, 50.42285
735.1034, 54.12598
735.5855, 55.99902
736.0676, 52.34668
736.5497, 43.59766
737.0319, 38.15430
737.5140, 41.56348
737.9961, 46.11426
738.4782, 40.44043
738.9603, 27.91895
739.4424, 16.88086
739.9246, 8.814453
740.4067, 5.967773
740.8888, 13.15820
741.3709, 27.69629
741.8530, 36.93164
742.3351, 41.11621
742.8173, 37.50781
743.2994, 20.40137
743.7815, 5.614258
744.2636, 13.67285
744.7457, 1.929688
745.2278, 7.420898
745.7100, 5.313477
746.1921, 26.99609
746.6742, 29.61719
747.1563, 15.29199
747.6384, 0.5292970
748.1205, 5.140625
748.6027, 7.450195
749.0848, 9.881836
749.5669, 12.69434
750.0490, 15.04492
750.5311, 16.03418
751.0132, 17.22559
751.4954, 19.30469
751.9775, 22.38086
752.4596, 23.68164
752.9417, 22.72559
753.4238, 22.16504
753.9059, 24.90527
754.3881, 29.09082
754.8702, 29.44434
755.3523, 25.83496
755.8344, 20.86133
756.3165, 12.39355
756.7986, 6.370117
757.2808, 10.41895
757.7629, 30.53125
758.2450, 42.39160
758.7271, 33.26660
759.2092, 21.68164
759.6913, 20.25684
760.1735, 31.61426
760.6556, 42.56738
761.1377, 52.49023
761.6198, 63.14551
762.1019, 77.04004
762.5840, 92.99805
763.0662, 108.4648
763.5483, 123.4346
764.0304, 133.8584
764.5125, 129.1104
764.9946, 121.3398
765.4767, 125.4590
765.9589, 155.2070
766.4410, 178.4961
766.9231, 184.9111
767.4052, 185.5430
767.8873, 191.6455
768.3694, 204.6885
768.8516, 218.4414
769.3337, 233.0879
769.8158, 246.4746
770.2979, 253.2842
770.7800, 255.9785
771.2621, 263.8584
771.7443, 281.7959
772.2264, 299.2139
772.7085, 298.8828
773.1906, 294.4414
773.6727, 306.3838
774.1548, 364.0449
774.6370, 409.7031
775.1191, 427.1465
775.6012, 430.7148
776.0833, 440.9912
776.5654, 457.7998
777.0475, 482.8066
777.5297, 517.4600
778.0118, 558.4512
778.4939, 600.1094
778.9760, 642.9297
779.4581, 689.2061
779.9402, 740.6816
780.4224, 793.7959
780.9045, 842.1982
781.3866, 889.7188
781.8687, 943.9238
782.3508, 1016.184
782.8329, 1083.852
783.3151, 1138.616
783.7972, 1186.583
784.2793, 1243.239
784.7614, 1309.668
785.2435, 1376.645
785.7256, 1440.403
786.2078, 1505.565
786.6899, 1581.919
787.1720, 1667.953
787.6541, 1753.890
788.1362, 1837.399
788.6183, 1920.342
789.1005, 2000.857
789.5826, 2081.953
790.0647, 2168.652
790.5468, 2263.855
791.0289, 2364.536
791.5110, 2469.123
791.9932, 2578.277
792.4753, 2689.487
792.9574, 2803.610
793.4395, 2918.475
793.9216, 3034.613
794.4037, 3151.299
794.8859, 3267.778
795.3680, 3383.954
795.8501, 3494.692
796.3322, 3595.021
796.8143, 3693.082
797.2964, 3795.770
797.7786, 3900.630
798.2607, 3995.555
798.7428, 4073.516
799.2249, 4151.689
799.7070, 4236.647
800.1891, 4323.572
800.6713, 4394.889
801.1534, 4450.219
801.6355, 4505.836
802.1176, 4569.818
802.5997, 4637.482
803.0818, 4703.221
803.5640, 4766.610
804.0461, 4826.148
804.5282, 4882.358
805.0103, 4935.076
805.4924, 4978.812
805.9745, 5017.272
806.4567, 5067.013
806.9388, 5125.961
807.4209, 5198.096
807.9030, 5285.979
808.3851, 5386.418
808.8672, 5484.115
809.3494, 5581.510
809.8315, 5701.396
810.3136, 5857.773
810.7957, 6035.904
811.2778, 6220.122
811.7599, 6414.432
812.2421, 6629.998
812.7242, 6863.697
813.2063, 7127.330
813.6884, 7431.375
814.1705, 7768.598
814.6526, 8112.332
815.1348, 8463.779
815.6169, 8831.204
816.0990, 9228.008
816.5811, 9634.974
817.0632, 10015.10
817.5453, 10370.31
818.0275, 10701.01
818.5096, 11022.73
818.9917, 11305.80
819.4738, 11532.80
819.9559, 11706.06
820.4380, 11828.37
820.9202, 11878.15
821.4023, 11904.73
821.8844, 11912.68
822.3665, 11904.01
822.8486, 11884.99
823.3307, 11856.14
823.8129, 11810.19
824.2950, 11749.83
824.7771, 11663.01
825.2592, 11541.36
825.7413, 11378.79
826.2234, 11155.27
826.7056, 10849.75
827.1877, 10495.33
827.6698, 10099.80
828.1519, 9661.722
828.6340, 9171.733
829.1161, 8621.948
829.5983, 8042.662
830.0804, 7429.646
830.5625, 6805.904
831.0446, 6195.221
831.5267, 5606.439
832.0089, 5053.685
832.4910, 4542.068
832.9731, 4078.000
833.4552, 3674.931
833.9373, 3321.458
834.4194, 3000.451
834.9016, 2704.182
835.3837, 2441.049
835.8658, 2214.312
836.3479, 2015.425
836.8300, 1839.634
837.3121, 1691.109
837.7943, 1537.703
838.2764, 1369.234
838.7585, 1203.331
839.2406, 1059.734
839.7227, 936.5166
840.2048, 830.8545
840.6870, 742.6885
841.1691, 666.9980
841.6512, 604.4248
842.1333, 550.4893
842.6154, 499.7490
843.0975, 451.1074
843.5797, 407.1641
844.0618, 368.4482
844.5439, 333.4893
845.0260, 301.3184
845.5081, 271.7646
845.9902, 245.0879
846.4724, 221.5098
846.9545, 200.0068
847.4366, 182.3535
847.9187, 165.0566
848.4008, 144.1211
848.8829, 116.5898
849.3651, 91.64160
849.8472, 68.86133
850.3293, 50.64453
850.8114, 40.26953
851.2935, 38.92969
851.7756, 34.33594
852.2578, 26.04785
852.7399, 16.31836
853.2220, 5.531250
853.7041, 5.000000
854.1862, 13.77734
854.6683, 20.61523
855.1505, 23.66113
855.6326, 19.75000
856.1147, 13.71094
856.5968, 8.205078
857.0789, 3.207031
857.5610, 1.375977
858.0432, 3.929688
858.5253, 7.055664
859.0074, 9.057617
859.4895, 9.557617
859.9716, 4.626953
860.4537, 4.647461
860.9359, 8.018555
861.4180, 8.105469
861.9001, 26.50195
862.3822, 34.08691
862.8643, 30.61914
863.3464, 30.57324
863.8286, 39.70117
864.3107, 44.18457
864.7928, 36.77734
865.2749, 20.16309
865.7570, 9.907227
866.2391, 6.057617
866.7213, 4.348633
867.2034, 7.342773
867.6855, 7.432617
868.1676, 8.422852
868.6497, 33.44336
869.1318, 49.25488
869.6140, 35.87988
870.0961, 31.45020
870.5782, 46.55176
871.0603, 72.72363
871.5424, 94.07324
872.0245, 111.5811
872.5067, 126.3125
872.9888, 137.7285
873.4709, 147.7471
873.9530, 156.0811
874.4351, 164.5039
874.9172, 178.7266
875.3994, 207.3525
875.8815, 234.4189
876.3636, 251.4170
876.8457, 264.1504
877.3278, 280.9229
877.8099, 303.1904
878.2921, 325.8262
878.7742, 348.5088
879.2563, 371.3438
879.7384, 395.2510
880.2205, 419.6123
880.7026, 442.1074
881.1848, 461.8721
881.6669, 482.3770
882.1490, 502.5068
882.6311, 526.4502
883.1132, 559.7510
883.5953, 608.9102
884.0775, 647.7607
884.5596, 672.0498
885.0417, 693.7666
885.5238, 722.5527
886.0059, 756.8555
886.4880, 788.0273
886.9702, 815.5479
887.4523, 838.3564
887.9344, 852.8398
888.4165, 864.3838
888.8986, 878.4463
889.3807, 895.4014
889.8629, 907.8750
890.3450, 916.5908
890.8271, 918.9541
891.3092, 913.8076
891.7913, 901.6885
892.2734, 884.3896
892.7556, 862.2188
893.2377, 837.2451
893.7198, 806.9307
894.2019, 777.3848
894.6840, 756.3174
895.1661, 740.4189
895.6483, 721.1182
896.1304, 687.1572
896.6125, 660.1426
897.0946, 648.2285
897.5767, 642.9131
898.0588, 626.4258
898.5410, 598.1260
899.0231, 567.9980
899.5052, 537.1885
899.9873, 507.7646
900.4694, 481.1436
900.9515, 457.5537
901.4337, 437.5225
901.9158, 423.7510
902.3979, 408.6182
902.8800, 392.7061
903.3621, 372.9346
903.8442, 344.1074
904.3264, 303.2324
904.8085, 273.3213
905.2906, 256.2686
905.7727, 242.4873
906.2548, 220.9697
906.7369, 196.6543
907.2191, 178.7969
907.7012, 168.5488
908.1833, 158.3994
908.6654, 145.3750
909.1475, 131.3838
909.6296, 115.7734
910.1118, 98.74023
910.5939, 90.62012
911.0760, 93.15137
911.5581, 95.77637
912.0402, 93.73145
912.5223, 87.30664
913.0045, 74.94531
913.4866, 58.70410
913.9687, 45.55176
914.4508, 37.04395
914.9329, 33.95801
915.4150, 40.66504
915.8972, 52.29199
916.3793, 56.72852
916.8614, 52.03613
917.3435, 47.97852
917.8256, 47.12207
918.3077, 47.29395
918.7899, 44.45117
919.2720, 39.06055
919.7541, 32.65527
920.2362, 25.70117
920.7183, 20.31348
921.2004, 19.99512
921.6826, 18.92383
922.1647, 11.54688
922.6468, 4.872070
923.1289, 15.49609
923.6110, 19.92188
924.0931, 21.82910
924.5753, 24.54590
925.0574, 27.31348
925.5395, 25.95703
926.0216, 19.66797
926.5037, 17.54883
926.9858, 34.30371
927.4680, 48.21973
927.9501, 40.61035
928.4322, 13.73633
928.9143, 1.918945
929.3964, 8.564453
929.8785, 18.22070
930.3607, 26.94727
930.8428, 32.14062
931.3249, 23.92676
931.8070, 6.522461
932.2891, 6.381836
932.7712, 3.617188
933.2534, 0.6074220
933.7355, 3.453125
934.2176, 10.37891
934.6997, 17.84863
935.1818, 26.42383
935.6639, 34.43262
936.1461, 42.34473
936.6282, 48.46387
937.1103, 49.51172
937.5924, 47.42383
938.0745, 45.88477
938.5566, 45.46875
939.0388, 46.77539
939.5209, 49.36523
940.0030, 54.45508
940.4851, 63.63867
940.9672, 77.65820
941.4493, 87.42773
941.9315, 91.94336
942.4136, 95.73926
942.8957, 101.5176
943.3778, 108.7021
943.8599, 116.6895
944.3420, 125.2686
944.8242, 134.0020
945.3063, 143.0176
945.7884, 151.7373
946.2705, 157.1895
946.7526, 162.7676
947.2347, 180.5117
947.7169, 213.7568
948.1990, 237.5977
948.6811, 243.0088
949.1632, 242.8223
949.6453, 256.0967
950.1274, 277.1670
950.6096, 294.3848
951.0917, 299.4111
951.5738, 311.8604
952.0559, 342.7832
952.5380, 379.4014
953.0201, 411.6729
953.5023, 438.4834
953.9844, 468.4434
954.4665, 501.4082
954.9486, 536.9268
955.4307, 578.4883
955.9128, 620.1084
956.3950, 649.2529
956.8771, 667.5566
957.3591, 698.5234
957.8412, 757.2725
958.3234, 822.9258
958.8055, 891.4307
959.2876, 961.9795
959.7697, 1029.150
960.2518, 1093.525
960.7339, 1164.653
961.2161, 1245.387
961.6982, 1336.624
962.1803, 1443.136
962.6624, 1560.259
963.1445, 1682.396
963.6266, 1804.051
964.1088, 1937.543
964.5909, 2086.279
965.0730, 2243.970
965.5551, 2402.865
966.0372, 2562.757
966.5193, 2728.754
967.0015, 2899.732
967.4836, 3078.836
967.9657, 3266.108
968.4478, 3462.168
968.9299, 3665.140
969.4120, 3875.206
969.8942, 4095.449
970.3763, 4331.386
970.8584, 4568.092
971.3405, 4799.582
971.8226, 5031.186
972.3047, 5287.793
972.7869, 5563.907
973.2690, 5840.858
973.7511, 6109.314
974.2332, 6377.872
974.7153, 6663.885
975.1974, 6948.820
975.6796, 7213.660
976.1617, 7459.934
976.6438, 7679.744
977.1259, 7872.438
977.6080, 8031.118
978.0901, 8147.736
978.5723, 8221.492
979.0544, 8250.690
979.5365, 8234.756
980.0186, 8179.699
980.5007, 8083.802
980.9828, 7952.213
981.4650, 7781.933
981.9471, 7578.381
982.4292, 7365.459
982.9113, 7142.271
983.3934, 6918.249
983.8755, 6689.469
984.3577, 6473.066
984.8398, 6292.323
985.3219, 6136.036
985.8040, 5987.657
986.2861, 5832.404
986.7682, 5700.649
987.2504, 5595.979
987.7325, 5510.766
988.2146, 5440.738
988.6967, 5385.460
989.1788, 5339.924
989.6609, 5304.496
990.1431, 5272.467
990.6252, 5231.480
991.1073, 5195.325
991.5894, 5181.244
992.0715, 5189.205
992.5536, 5186.107
993.0358, 5163.739
993.5179, 5144.510
994.0000, 5140.161
994.4821, 5138.894
994.9642, 5109.139
995.4464, 5057.450
995.9285, 5006.615
996.4106, 4971.661
996.8927, 4926.474
997.3748, 4852.537
997.8569, 4763.598
998.3391, 4675.433
998.8212, 4592.548
999.3033, 4492.620
999.7854, 4374.227
1000.268, 4253.754
1000.750, 4147.612
1001.232, 4049.550
1001.714, 3950.501
1002.196, 3851.128
1002.678, 3752.281
1003.160, 3653.151
1003.642, 3559.280
1004.124, 3472.312
1004.607, 3393.030
1005.089, 3324.370
1005.571, 3265.507
1006.053, 3217.672
1006.535, 3183.624
1007.017, 3150.025
1007.499, 3097.569
1007.981, 3040.286
1008.464, 2995.583
1008.946, 2976.801
1009.428, 2944.773
1009.910, 2896.183
1010.392, 2838.089
1010.874, 2776.348
1011.356, 2709.324
1011.838, 2633.132
1012.320, 2548.473
1012.803, 2457.480
1013.285, 2362.766
1013.767, 2261.293
1014.249, 2145.482
1014.731, 2024.357
1015.213, 1919.772
1015.695, 1834.744
1016.177, 1748.385
1016.659, 1657.233
1017.142, 1564.831
1017.624, 1472.276
1018.106, 1384.102
1018.588, 1306.226
1019.070, 1240.688
1019.552, 1177.939
1020.034, 1114.750
1020.516, 1055.252
1020.999, 1002.862
1021.481, 955.4248
1021.963, 901.6367
1022.445, 842.4111
1022.927, 785.8594
1023.409, 737.7871
1023.891, 691.5479
1024.373, 639.1719
1024.855, 586.8584
1025.338, 546.1309
1025.820, 522.3047
1026.302, 497.0850
1026.784, 470.0879
1027.266, 439.2559
1027.748, 395.7881
1028.230, 349.5742
1028.712, 319.5049
1029.195, 306.7715
1029.677, 298.1748
1030.159, 294.7432
1030.641, 287.1709
1031.123, 270.8936
1031.605, 248.5703
1032.087, 228.2656
1032.569, 210.1250
1033.052, 194.8516
1033.534, 184.0049
1034.016, 172.9824
1034.498, 155.1377
1034.980, 135.8301
1035.462, 121.9912
1035.944, 116.8262
1036.426, 110.2822
1036.908, 101.4424
1037.391, 94.05469
1037.873, 93.81543
1038.355, 96.35938
1038.837, 87.61328
1039.319, 70.44531
1039.801, 57.89844
1040.283, 60.14844
1040.765, 63.25195
1041.247, 63.63965
1041.730, 61.50586
1042.212, 55.90625
1042.694, 46.68750
1043.176, 41.87598
1043.658, 43.20410
1044.140, 43.45605
1044.622, 30.60645
1045.104, 17.10938
1045.587, 18.76172
1046.069, 38.53223
1046.551, 42.43066
1047.033, 21.23730
1047.515, 5.081055
1047.997, 7.930664
1048.479, 20.30371
1048.961, 21.91797
1049.443, 16.12598
1049.926, 11.50098
1050.408, 12.29980
1050.890, 12.48535
1051.372, 7.776367
1051.854, 3.434570
1052.336, 4.958008
1052.818, 13.01465
1053.300, 13.85840
1053.782, 7.337891
1054.265, 0.3925780
1054.747, 8.104492
1055.229, 12.41016
1055.711, 7.301758
1056.193, 3.913086
1056.675, 8.241211
1057.157, 1.9530000E-03
1057.639, 1.858398
1058.122, 7.269531
1058.604, 19.24609
1059.086, 23.51562
1059.568, 22.07910
1060.050, 19.25098
1060.532, 15.81738
1061.014, 9.148438
1061.496, 5.727539
1061.979, 19.72461
1062.461, 29.47266
1062.943, 34.92773
1063.425, 36.13184
1063.907, 33.08496
1064.389, 26.24121
1064.871, 11.51562
1065.353, 0.4072270
1065.835, 5.625000
1066.318, 17.55957
1066.800, 23.51465
1067.282, 20.43945
1067.764, 20.18555
1068.246, 23.70410
1068.728, 26.01855
1069.210, 21.59180
1069.692, 14.62988
1070.174, 14.93945
1070.657, 19.44824
1071.139, 15.44824
1071.621, 15.66406
1072.103, 34.97363
1072.585, 31.96680
1073.067, 20.10742
1073.549, 21.53320
1074.031, 32.38281
1074.514, 34.86719
1074.996, 26.18848
1075.478, 17.57520
1075.960, 14.14844
1076.442, 15.24609
1076.924, 23.04102
1077.406, 35.70605
1077.888, 41.04297
1078.370, 38.68359
1078.853, 38.06641
1079.335, 43.99512
1079.817, 49.22949
1080.299, 42.70703
1080.781, 31.81934
1081.263, 26.55566
1081.745, 30.63672
1082.227, 36.12109
1082.709, 44.58984
1083.192, 50.28320
1083.674, 47.37109
1084.156, 39.84180
1084.638, 36.69922
1085.120, 37.75879
1085.602, 42.28320
1086.084, 56.95020
1086.566, 65.59277
1087.048, 59.92871
1087.531, 51.23828
1088.013, 55.36230
1088.495, 70.57031
1088.977, 75.03125
1089.459, 67.22754
1089.941, 59.47949
1090.423, 62.85352
1090.905, 66.96289
1091.388, 63.02051
1091.870, 53.62695
1092.352, 50.15723
1092.834, 52.89062
1093.316, 61.20801
1093.798, 77.50977
1094.280, 90.47266
1094.762, 82.12891
1095.245, 65.07910
1095.727, 54.63184
1096.209, 54.08887
1096.691, 55.30859
1097.173, 57.84180
1097.655, 61.58789
1098.137, 67.46582
1098.619, 73.70605
1099.101, 77.74902
1099.583, 78.66602
1100.066, 73.71582
1100.548, 55.56836
1101.030, 43.10156
1101.512, 42.97559
1101.994, 48.63379
1102.476, 57.93457
1102.958, 70.21484
1103.440, 72.52637
1103.923, 65.59766
1104.405, 59.83105
1104.887, 63.06348
1105.369, 67.38086
1105.851, 68.97559
1106.333, 68.23340
1106.815, 63.89258
1107.297, 53.49316
1107.780, 61.41504
1108.262, 92.57617
1108.744, 120.1572
1109.226, 115.6914
1109.708, 98.41504
1110.190, 85.53809
1110.672, 78.23145
1111.154, 72.64551
1111.636, 68.56543
1112.119, 65.34570
1112.601, 61.83691
1113.083, 60.73926
1113.565, 72.87598
1114.047, 88.57715
1114.529, 87.56055
1115.011, 62.99023
1115.493, 45.63379
1115.975, 46.62109
1116.458, 49.49023
1116.940, 47.18262
1117.422, 42.00977
1117.904, 43.44141
1118.386, 48.70312
1118.868, 47.14844
1119.350, 27.19238
1119.832, 14.23828
1120.315, 27.56738
1120.797, 45.79785
1121.279, 52.96289
1121.761, 49.34180
1122.243, 43.62988
1122.725, 36.62793
1123.207, 34.40039
1123.689, 42.44434
1124.172, 53.21777
1124.654, 68.05469
1125.136, 80.32715
1125.618, 75.88086
1126.100, 49.97363
1126.582, 38.99707
1127.064, 47.05469
1127.546, 56.29395
1128.028, 46.98145
1128.510, 33.93164
1128.993, 34.60156
1129.475, 46.90527
1129.957, 53.38184
1130.439, 51.88672
1130.921, 47.59375
1131.403, 40.64746
1131.885, 33.77734
1132.367, 29.93457
1132.850, 28.84766
1133.332, 30.46289
1133.814, 34.92578
1134.296, 39.60254
1134.778, 47.08398
1135.260, 49.28613
1135.742, 40.52148
1136.224, 27.79785
1136.707, 28.82227
1137.189, 39.44043
1137.671, 46.46289
1138.153, 46.78906
1138.635, 43.31250
1139.117, 30.09570
1139.599, 21.14941
1140.081, 25.94043
1140.563, 40.30859
1141.046, 44.27832
1141.528, 39.44434
1142.010, 33.77930
1142.492, 28.39551
1142.974, 26.71094
1143.456, 34.01172
1143.938, 43.40820
1144.420, 49.04980
1144.902, 50.94238
1145.385, 47.86328
1145.867, 39.99609
1146.349, 34.12305
1146.831, 34.26660
1147.313, 37.93066
1147.795, 47.60059
1148.277, 57.99316
1148.759, 61.42871
1149.242, 55.77539
1149.724, 45.24316
1150.206, 30.38867
1150.688, 19.32324
1151.170, 23.20508
1151.652, 30.53320
1152.134, 29.79199
1152.616, 23.28711
1153.099, 20.99219
1153.581, 24.96680
1154.063, 28.64941
1154.545, 31.49902
1155.027, 32.61133
1155.509, 29.13184
1155.991, 24.77930
1156.473, 25.21582
1156.955, 30.34961
1157.438, 32.25586
1157.920, 30.06543
1158.402, 25.47168
1158.884, 18.20410
1159.366, 10.43262
1159.848, 4.147461
1160.330, 9.7655997E-02
1160.812, 0.3300780
1161.294, 5.638672
1161.777, 9.952148
1162.259, 11.00977
1162.741, 12.40723
1163.223, 13.76660
1163.705, 18.08496
1164.187, 38.70801
1164.669, 66.45801
1165.151, 78.97461
1165.634, 66.19727
1166.116, 52.84473
1166.598, 43.85059
1167.080, 37.86230
1167.562, 35.32910
1168.044, 34.86328
1168.526, 30.79199
1169.008, 24.40820
1169.490, 20.17090
1169.973, 21.50781
1170.455, 22.05273
1170.937, 16.59570
1171.419, 13.22559
1171.901, 20.38281
1172.383, 35.60352
1172.865, 36.38379
1173.347, 25.11621
1173.829, 15.20215
1174.312, 12.47656
1174.794, 13.56836
1175.276, 20.12012
1175.758, 27.40137
1176.240, 30.91992
1176.722, 30.64355
1177.204, 28.99512
1177.686, 26.25586
1178.169, 25.50879
1178.651, 34.46484
1179.133, 39.56445
1179.615, 30.02344
1180.097, 14.25000
1180.579, 3.993164
1181.061, 0.5498050
1181.543, 5.742188
1182.026, 12.28125
1182.508, 11.49707
1182.990, 14.58594
1183.472, 38.71582
1183.954, 40.40918
1184.436, 26.63184
1184.918, 12.19824
1185.400, 3.117188
1185.882, 9.929688
1186.365, 6.449219
1186.847, 0.7070310
1187.329, 1.644531
1187.811, 3.060547
1188.293, 6.497070
1188.775, 10.75879
1189.257, 9.975586
1189.739, 3.636719
1190.221, 0.9384770
1190.704, 4.532227
1191.186, 6.918945
1191.668, 1.394531
1192.150, 12.41211
1192.632, 21.82910
1193.114, 28.24902
1193.596, 20.90430
1194.078, 2.011719
1194.561, 19.68066
1195.043, 25.30371
1195.525, 26.82324
1196.007, 31.68652
1196.489, 36.75781
1196.971, 38.52246
1197.453, 36.80078
1197.935, 36.72559
1198.417, 39.00879
1198.900, 36.66016
1199.382, 24.81641
1199.864, 13.87891
1200.346, 19.18652
1200.828, 29.06836
1201.310, 27.78418
1201.792, 30.61523
1202.274, 34.65918
1202.756, 25.09863
1203.239, 33.68164
1203.721, 22.70117
1204.203, 8.154297
1204.685, 10.35352
1205.167, 18.23633
1205.649, 13.92285
1206.131, 9.745117
1206.613, 11.55273
1207.096, 10.90918
1207.578, 33.35742
1208.060, 43.49902
1208.542, 45.98438
1209.024, 41.59668
1209.506, 34.57520
1209.988, 32.53613
1210.470, 39.29297
1210.953, 36.24512
1211.435, 21.83105
1211.917, 11.77051
1212.399, 22.93652
1212.881, 36.89551
1213.363, 29.68945
1213.845, 13.14746
1214.327, 9.750000
1214.809, 24.83301
1215.292, 38.02051
1215.774, 48.87109
1216.256, 57.88477
1216.738, 65.31348
1217.220, 70.51465
1217.702, 71.47949
1218.184, 69.91211
1218.666, 70.47949
1219.148, 74.97559
1219.631, 74.32324
1220.113, 67.40039
1220.595, 62.68652
1221.077, 70.54492
1221.559, 80.48340
1222.041, 83.97949
1222.523, 82.17969
1223.005, 79.09473
1223.488, 75.76660
1223.970, 66.30371
1224.452, 49.41699
1224.934, 37.39551
1225.416, 45.27930
1225.898, 57.39062
1226.380, 60.95605
1226.862, 57.65332
1227.344, 53.25000
1227.827, 46.50488
1228.309, 49.46582
1228.791, 64.11133
1229.273, 73.89648
1229.755, 58.68750
1230.237, 39.03125
1230.719, 30.69141
1231.201, 31.09668
1231.683, 30.05566
1232.166, 27.00879
1232.648, 31.28223
1233.130, 44.43750
1233.612, 55.77930
1234.094, 53.73438
1234.576, 49.29590
1235.058, 52.65234
1235.540, 47.67383
1236.023, 43.37891
1236.505, 42.22852
1236.987, 33.26465
1237.469, 31.03711
1237.951, 29.00879
1238.433, 18.00781
1238.915, 9.916016
1239.397, 18.72754
1239.880, 34.15430
1240.362, 29.19922
1240.844, 7.179688
1241.326, 2.042969
1241.808, 20.05664
1242.290, 39.52148
1242.772, 45.65332
1243.254, 47.96973
1243.736, 51.62988
1244.219, 56.02246
1244.701, 57.65723
1245.183, 56.78223
1245.665, 58.91992
1246.147, 65.22852
1246.629, 69.34277
1247.111, 65.20703
1247.593, 60.75879
1248.075, 59.81641
1248.558, 61.12109
1249.040, 59.93750
1249.522, 57.88281
1250.004, 60.30078
1250.486, 64.18066
1250.968, 67.57031
1251.450, 73.72949
1251.932, 73.58984
1252.415, 61.20703
1252.897, 44.47266
1253.379, 43.47559
1253.861, 51.75781
1254.343, 50.14844
1254.825, 34.24414
1255.307, 25.53320
1255.789, 32.65234
1256.271, 44.07617
1256.754, 61.36230
1257.236, 75.89258
1257.718, 69.65723
1258.200, 52.60352
1258.682, 43.05957
1259.164, 44.84277
1259.646, 48.32910
1260.128, 52.56152
1260.610, 57.25781
1261.093, 62.11133
1261.575, 66.36621
1262.057, 70.87988
1262.539, 73.14746
1263.021, 66.28027
1263.503, 48.49316
1263.985, 46.12793
1264.467, 66.29492
1264.950, 80.14355
1265.432, 78.27832
1265.914, 69.86816
1266.396, 64.46094
1266.878, 60.46387
1267.360, 55.22070
1267.842, 48.60449
1268.324, 47.66797
1268.807, 53.23047
1269.289, 56.85352
1269.771, 54.65234
1270.253, 54.46973
1270.735, 70.10645
1271.217, 86.87500
1271.699, 87.55273
1272.181, 75.08691
1272.663, 72.26074
1273.146, 78.29492
1273.628, 79.65332
1274.110, 72.64941
1274.592, 66.06543
1275.074, 68.62695
1275.556, 72.95020
1276.038, 76.09668
1276.520, 76.61914
1277.002, 63.82129
1277.485, 41.56348
1277.967, 33.58203
1278.449, 48.00879
1278.931, 62.81543
1279.413, 66.23633
1279.895, 67.16895
1280.377, 70.47168
1280.859, 73.24414
1281.342, 64.08594
1281.824, 48.37500
1282.306, 42.38574
1282.788, 50.44336
1283.270, 61.00977
1283.752, 76.72363
1284.234, 83.96484
1284.716, 75.05273
1285.198, 60.48828
1285.681, 61.07422
1286.163, 69.31934
1286.645, 70.85352
1287.127, 62.56445
1287.609, 59.45117
1288.091, 65.81250
1288.573, 67.53320
1289.055, 58.63086
1289.537, 48.30371
1290.020, 50.49023
1290.502, 57.50000
1290.984, 61.11426
1291.466, 60.29492
1291.948, 55.65625
1292.430, 46.64941
1292.912, 38.60938
1293.394, 33.20117
1293.877, 28.21777
1294.359, 20.75098
1294.841, 13.58105
1295.323, 10.16504
1295.805, 9.351563
1296.287, 5.437500
1296.769, 1.146484
1297.251, 2.575195
1297.734, 3.362305
1298.216, 9.221680
1298.698, 9.670898
1299.180, 9.253906
1299.662, 9.462891
1300.144, 11.27734
1300.626, 18.93750
1301.108, 28.89844
1301.590, 34.47559
1302.073, 38.09570
1302.555, 34.80859
1303.037, 11.10156
1303.519, 0.2998050
1304.001, 12.03613
1304.483, 16.12500
1304.965, 0.0000000E+00
##END=



