##NAMES=Sampleite
##RRUFFID=R090072
##IDEAL CHEMISTRY=NaCaCu_5_(PO_4_)_4_Cl&#183;5H_2_O
##LOCALITY=Engaño Feliz mine, Las Pintadas dist., Tierra Amarilla, Copiapó Province, Chile
##OWNER=RRUFF
##SOURCE=Bob Jenkins
##DESCRIPTION=Blue bladed crystals in radial aggregates associated with elongated, forest-green libethenite and dark-green atacamite. This is the polymorph or polytype described in Giester et al (2007)
##STATUS=The identification of this mineral has been confirmed by single-crystal X-ray diffraction.
##URL=rruff.info/R090072
120.5230, 0.0000000E+00
121.0051, 5.527960
121.4872, 1.686689
121.9694, 0.3823830
122.4515, 1.060301
122.9336, 2.325127
123.4157, 1.174576
123.8978, 0.2801670
124.3799, 1.127319
124.8621, 1.493313
125.3442, 2.7961999E-02
125.8263, 5.638214
126.3084, 14.16422
126.7905, 22.83488
127.2726, 30.46568
127.7548, 37.19411
128.2369, 42.81976
128.7190, 47.03161
129.2011, 51.23232
129.6832, 57.58241
130.1653, 65.67622
130.6474, 73.59983
131.1296, 79.96590
131.6117, 85.13000
132.0938, 90.52381
132.5759, 96.14360
133.0580, 102.3510
133.5401, 109.6130
134.0223, 117.9564
134.5044, 127.4081
134.9865, 137.9043
135.4686, 149.5678
135.9507, 162.2564
136.4328, 175.4880
136.9150, 190.2588
137.3971, 209.9797
137.8792, 235.4203
138.3613, 263.2038
138.8434, 292.6136
139.3255, 324.9057
139.8077, 350.7440
140.2898, 370.3669
140.7719, 382.8246
141.2540, 379.3662
141.7361, 356.3110
142.2182, 323.5190
142.7004, 288.5003
143.1825, 248.1531
143.6646, 213.9043
144.1467, 189.6011
144.6288, 175.4241
145.1109, 163.0684
145.5931, 152.1544
146.0752, 143.2697
146.5573, 137.1686
147.0394, 135.7234
147.5215, 134.4236
148.0036, 132.0829
148.4858, 128.1644
148.9679, 125.1935
149.4500, 122.8438
149.9321, 121.5198
150.4142, 121.8868
150.8963, 126.0854
151.3785, 130.0114
151.8606, 132.3220
152.3427, 131.9521
152.8248, 132.5941
153.3069, 134.3051
153.7890, 137.0809
154.2712, 140.1815
154.7533, 143.6606
155.2354, 147.0757
155.7175, 150.0074
156.1996, 152.9340
156.6817, 154.3129
157.1639, 152.5555
157.6460, 149.1267
158.1281, 147.2176
158.6102, 148.7992
159.0923, 151.0845
159.5744, 152.6970
160.0566, 153.0055
160.5387, 153.2734
161.0208, 153.8942
161.5029, 154.7437
161.9850, 155.4523
162.4671, 156.1115
162.9493, 156.4704
163.4314, 156.3507
163.9135, 155.5906
164.3956, 154.5130
164.8777, 153.2624
165.3598, 151.8144
165.8420, 150.0606
166.3241, 146.7509
166.8062, 143.6414
167.2883, 142.3869
167.7704, 145.3130
168.2525, 148.2883
168.7346, 148.7218
169.2168, 146.8865
169.6989, 144.4906
170.1810, 142.4108
170.6631, 140.3903
171.1452, 138.1202
171.6273, 135.6635
172.1095, 132.8248
172.5916, 129.1929
173.0737, 124.8374
173.5558, 120.5448
174.0379, 116.5326
174.5201, 113.0177
175.0022, 110.2632
175.4843, 107.7475
175.9664, 106.3641
176.4485, 107.4613
176.9306, 110.9883
177.4128, 115.6168
177.8949, 120.5468
178.3770, 125.2268
178.8591, 130.0773
179.3412, 134.0620
179.8233, 138.6066
180.3055, 146.5099
180.7876, 157.9399
181.2697, 170.0749
181.7518, 180.0680
182.2339, 188.4676
182.7160, 197.4471
183.1982, 208.2355
183.6803, 220.1289
184.1624, 231.5907
184.6445, 242.5366
185.1266, 253.2195
185.6087, 264.1250
186.0909, 275.1921
186.5730, 285.4758
187.0551, 293.8120
187.5372, 300.9831
188.0193, 309.9933
188.5014, 320.9969
188.9836, 333.1983
189.4657, 345.5677
189.9478, 358.1886
190.4299, 372.8683
190.9120, 390.7796
191.3941, 411.3356
191.8763, 432.8837
192.3584, 455.9336
192.8405, 477.9367
193.3226, 497.1615
193.8047, 513.5647
194.2868, 524.3567
194.7690, 529.3261
195.2511, 528.3107
195.7332, 518.0383
196.2153, 497.7738
196.6974, 469.7092
197.1795, 436.8214
197.6617, 398.6561
198.1438, 359.8586
198.6259, 321.1544
199.1080, 282.7068
199.5901, 249.4900
200.0722, 222.0002
200.5544, 199.1306
201.0365, 180.1506
201.5186, 165.4129
202.0007, 152.2376
202.4828, 139.0791
202.9649, 125.6559
203.4471, 114.1797
203.9292, 105.2622
204.4113, 97.93395
204.8934, 89.78051
205.3755, 80.33875
205.8576, 71.43136
206.3398, 64.25177
206.8219, 59.14880
207.3040, 53.98787
207.7861, 48.66559
208.2682, 43.40826
208.7503, 38.55323
209.2325, 33.93793
209.7146, 30.37966
210.1967, 28.61374
210.6788, 29.16898
211.1609, 28.88428
211.6430, 27.40720
212.1252, 25.30940
212.6073, 23.85405
213.0894, 23.09959
213.5715, 22.83282
214.0536, 22.95331
214.5357, 23.43020
215.0179, 24.39526
215.5000, 25.79305
215.9821, 27.71193
216.4642, 30.57789
216.9463, 34.98665
217.4284, 39.01666
217.9105, 41.67563
218.3927, 42.29533
218.8748, 43.68808
219.3569, 46.00232
219.8390, 49.00140
220.3211, 52.16135
220.8032, 55.26224
221.2854, 58.96791
221.7675, 63.76782
222.2496, 70.08974
222.7317, 76.10400
223.2138, 82.09022
223.6959, 87.61908
224.1781, 91.72412
224.6602, 93.59189
225.1423, 95.42538
225.6244, 98.39186
226.1065, 103.7223
226.5886, 106.5372
227.0708, 106.0492
227.5529, 103.4560
228.0350, 101.3058
228.5171, 100.2392
228.9992, 98.50200
229.4813, 95.40555
229.9635, 90.73483
230.4456, 85.39436
230.9277, 79.19868
231.4098, 72.49571
231.8919, 65.78413
232.3740, 58.95058
232.8562, 52.36255
233.3383, 45.98007
233.8204, 39.38193
234.3025, 34.46036
234.7846, 31.98576
235.2667, 30.75632
235.7489, 28.62073
236.2310, 25.02518
236.7131, 21.44064
237.1952, 18.23948
237.6773, 15.42194
238.1594, 13.19398
238.6416, 11.67969
239.1237, 10.67731
239.6058, 9.880875
240.0879, 9.300209
240.5700, 8.901421
241.0521, 8.809647
241.5343, 9.266388
242.0164, 8.912552
242.4985, 7.257576
242.9806, 5.124878
243.4627, 3.743782
243.9448, 3.505043
244.4270, 3.352158
244.9091, 3.031136
245.3912, 2.539040
245.8733, 1.879974
246.3554, 1.130196
246.8375, 0.1453320
247.3197, 1.386734
247.8018, 4.109749
248.2839, 6.226242
248.7660, 7.250534
249.2481, 7.099869
249.7302, 6.441299
250.2124, 4.908463
250.6945, 3.199997
251.1766, 2.035538
251.6587, 1.284729
252.1408, 1.359383
252.6229, 2.660934
253.1051, 5.339241
253.5872, 7.106766
254.0693, 7.704010
254.5514, 7.730812
255.0335, 7.756660
255.5156, 7.727257
255.9978, 7.841843
256.4799, 8.364090
256.9620, 9.285034
257.4441, 9.057571
257.9262, 7.009773
258.4083, 4.689232
258.8904, 3.719551
259.3726, 5.059486
259.8547, 5.253464
260.3368, 3.062042
260.8189, 1.156288
261.3010, 2.823463
261.7831, 0.6135860
262.2653, 2.055298
262.7474, 2.350845
263.2295, 0.5632780
263.7116, 3.420464
264.1937, 5.806618
264.6758, 7.788712
265.1580, 9.832489
265.6401, 11.88963
266.1222, 14.07910
266.6043, 16.31331
267.0864, 18.32014
267.5685, 21.49769
268.0507, 26.39915
268.5328, 32.49579
269.0149, 37.69320
269.4970, 41.58723
269.9791, 45.67622
270.4612, 51.00772
270.9434, 57.78012
271.4255, 64.79961
271.9076, 72.27106
272.3897, 79.82337
272.8718, 86.34563
273.3539, 91.43301
273.8361, 96.80578
274.3182, 103.4461
274.8003, 111.4676
275.2824, 119.6462
275.7645, 127.9211
276.2466, 136.2764
276.7288, 144.5141
277.2109, 152.4373
277.6930, 161.0842
278.1751, 170.5277
278.6572, 180.7496
279.1393, 192.9403
279.6215, 207.4139
280.1036, 223.2469
280.5857, 239.1599
281.0678, 255.0818
281.5499, 271.2924
282.0320, 287.7201
282.5142, 304.4005
282.9963, 321.2021
283.4784, 338.5133
283.9605, 354.7829
284.4426, 368.2800
284.9247, 379.0060
285.4069, 387.1924
285.8890, 393.0983
286.3711, 396.5201
286.8532, 396.6244
287.3353, 393.3470
287.8174, 387.0810
288.2996, 377.3868
288.7817, 364.5055
289.2638, 351.5895
289.7459, 339.3951
290.2280, 327.8055
290.7101, 316.0565
291.1923, 304.0685
291.6744, 292.4671
292.1565, 281.5835
292.6386, 271.3999
293.1207, 261.8952
293.6028, 253.1570
294.0850, 244.9669
294.5671, 236.6725
295.0492, 228.2639
295.5313, 219.5907
296.0134, 210.3153
296.4955, 200.7173
296.9777, 191.7002
297.4598, 183.5246
297.9419, 175.9023
298.4240, 168.7478
298.9061, 162.0236
299.3882, 155.3363
299.8704, 148.5827
300.3525, 141.7263
300.8346, 134.3591
301.3167, 126.3397
301.7988, 118.4841
302.2809, 111.7390
302.7631, 105.8827
303.2452, 100.0229
303.7273, 93.57520
304.2094, 86.95892
304.6915, 80.70247
305.1736, 74.68391
305.6558, 69.24969
306.1379, 65.18319
306.6200, 61.99680
307.1021, 58.73946
307.5842, 54.82970
308.0663, 50.82141
308.5485, 47.05231
309.0306, 43.51812
309.5127, 40.29649
309.9948, 37.65646
310.4769, 35.19114
310.9590, 32.37885
311.4412, 28.54212
311.9233, 24.97482
312.4054, 22.79555
312.8875, 21.77419
313.3696, 20.79111
313.8517, 19.42699
314.3339, 17.85577
314.8160, 16.17843
315.2981, 14.41699
315.7802, 12.87878
316.2623, 11.55698
316.7444, 10.46724
317.2266, 9.730881
317.7087, 9.996895
318.1908, 10.41829
318.6729, 10.28603
319.1550, 8.907852
319.6371, 8.138588
320.1193, 9.635475
320.6014, 12.02302
321.0835, 13.05462
321.5656, 10.13200
322.0477, 7.242340
322.5298, 6.269684
323.0120, 7.707108
323.4941, 8.546204
323.9762, 7.900036
324.4583, 6.602242
324.9404, 5.531769
325.4225, 4.555954
325.9047, 4.085838
326.3868, 4.446285
326.8689, 5.664726
327.3510, 6.653053
327.8331, 7.055649
328.3152, 7.372982
328.7974, 7.956238
329.2795, 9.372276
329.7616, 10.39229
330.2437, 10.82907
330.7258, 10.76002
331.2079, 10.58355
331.6901, 9.984749
332.1722, 9.589420
332.6543, 9.707802
333.1364, 10.51659
333.6185, 11.56213
334.1006, 13.17640
334.5828, 14.92182
335.0649, 15.61163
335.5470, 14.49873
336.0291, 13.65050
336.5112, 13.94898
336.9933, 15.67257
337.4755, 17.10974
337.9576, 18.20082
338.4397, 19.05973
338.9218, 19.84106
339.4039, 20.54315
339.8860, 21.15813
340.3681, 21.68359
340.8503, 22.12114
341.3324, 22.53489
341.8145, 23.04659
342.2966, 23.19627
342.7787, 22.24775
343.2608, 20.12872
343.7430, 18.59527
344.2251, 17.93948
344.7072, 18.13675
345.1893, 19.58825
345.6714, 22.43970
346.1535, 24.85866
346.6357, 25.19634
347.1178, 23.80962
347.5999, 22.87268
348.0820, 22.69514
348.5641, 22.85240
349.0462, 22.58144
349.5284, 21.96648
350.0105, 21.62545
350.4926, 22.22207
350.9747, 23.28910
351.4568, 23.76368
351.9389, 23.56112
352.4211, 23.01727
352.9032, 22.12468
353.3853, 21.17099
353.8674, 20.87479
354.3495, 22.30901
354.8316, 24.08171
355.3138, 24.31166
355.7959, 23.10642
356.2780, 21.90443
356.7601, 21.60244
357.2422, 21.94676
357.7243, 22.73407
358.2065, 24.54626
358.6886, 25.84776
359.1707, 25.00227
359.6528, 22.56742
360.1349, 20.61887
360.6170, 20.46545
361.0992, 21.12698
361.5813, 22.01664
362.0634, 23.15802
362.5455, 23.44620
363.0276, 21.74700
363.5097, 19.17959
363.9919, 17.37087
364.4740, 18.37433
364.9561, 18.81857
365.4382, 16.83690
365.9203, 12.05109
366.4024, 8.486294
366.8846, 8.042171
367.3667, 8.518658
367.8488, 8.132954
368.3309, 5.836983
368.8130, 3.618095
369.2951, 1.352425
369.7773, 0.8020060
370.2594, 1.783508
370.7415, 0.4920010
371.2236, 0.9551960
371.7057, 1.594070
372.1878, 0.9725880
372.6700, 0.3765870
373.1521, 0.1767810
373.6342, 0.7037730
374.1163, 1.295620
374.5984, 2.207245
375.0805, 2.645241
375.5627, 2.116623
376.0448, 0.4670720
376.5269, 9.0499997E-02
377.0090, 0.8566890
377.4911, 2.165123
377.9732, 2.504631
378.4554, 1.687870
378.9375, 1.167114
379.4196, 1.517063
379.9017, 2.278561
380.3838, 1.603210
380.8659, 0.6425130
381.3481, 3.243103
381.8302, 5.596066
382.3123, 7.632408
382.7944, 8.779758
383.2765, 8.902775
383.7586, 8.340012
384.2408, 7.049347
384.7229, 5.269310
385.2050, 4.393562
385.6871, 5.986877
386.1692, 8.759510
386.6513, 10.24447
387.1335, 10.33463
387.6156, 9.932148
388.0977, 9.620041
388.5798, 9.418232
389.0619, 9.371410
389.5440, 9.637245
390.0262, 9.922623
390.5083, 9.880394
390.9904, 9.586689
391.4725, 9.407597
391.9546, 9.625172
392.4367, 10.01147
392.9189, 10.43834
393.4010, 11.02131
393.8831, 11.26984
394.3652, 10.84299
394.8473, 9.943455
395.3294, 8.893398
395.8116, 6.970749
396.2937, 5.655922
396.7758, 5.853901
397.2579, 7.788986
397.7400, 9.411259
398.2221, 10.38533
398.7043, 10.83138
399.1864, 10.84114
399.6685, 10.02064
400.1506, 9.228420
400.6327, 8.450546
401.1148, 7.736958
401.5970, 7.352589
402.0791, 7.667637
402.5612, 7.890034
403.0433, 7.623859
403.5254, 6.592014
404.0075, 5.822906
404.4897, 5.266609
404.9718, 5.016163
405.4539, 5.316528
405.9360, 6.394001
406.4181, 7.359070
406.9002, 8.205986
407.3824, 8.818165
407.8645, 7.718170
408.3466, 4.456146
408.8287, 1.194923
409.3108, 2.7561000E-02
409.7929, 0.7140960
410.2751, 1.670589
410.7572, 2.769241
411.2393, 3.638397
411.7214, 3.169434
412.2035, 1.533325
412.6856, 0.3548970
413.1678, 1.032028
413.6499, 2.754589
414.1320, 3.884762
414.6141, 4.362183
415.0962, 4.159950
415.5783, 2.556171
416.0605, 0.3319740
416.5426, 1.036928
417.0247, 0.1618860
417.5068, 0.9999030
417.9889, 0.3213480
418.4710, 1.747561
418.9532, 3.143410
419.4353, 2.260893
419.9174, 0.5124240
420.3995, 1.049330
420.8816, 2.318207
421.3637, 3.210123
421.8459, 3.416443
422.3280, 3.283596
422.8101, 3.340288
423.2922, 3.939457
423.7743, 4.535652
424.2564, 4.920559
424.7386, 5.066830
425.2207, 5.305340
425.7028, 5.856995
426.1849, 6.380985
426.6670, 6.660477
427.1491, 6.687965
427.6313, 6.342777
428.1134, 5.353792
428.5955, 4.214746
429.0776, 3.917290
429.5597, 4.777233
430.0418, 5.703028
430.5240, 6.326355
431.0061, 6.638374
431.4882, 6.593901
431.9703, 6.042812
432.4524, 5.432173
432.9345, 5.267916
433.4167, 5.608925
433.8988, 6.532158
434.3809, 8.155174
434.8630, 10.02282
435.3451, 11.06648
435.8272, 11.37293
436.3094, 11.77882
436.7915, 12.88338
437.2736, 14.39036
437.7557, 15.51698
438.2378, 16.18862
438.7199, 17.29370
439.2020, 20.11405
439.6841, 23.84846
440.1663, 26.89441
440.6484, 27.62448
441.1305, 28.11517
441.6126, 30.11176
442.0947, 33.44995
442.5768, 37.10098
443.0590, 40.83887
443.5411, 44.49261
444.0232, 47.88068
444.5053, 50.74553
444.9874, 53.77687
445.4695, 57.33062
445.9517, 61.19213
446.4338, 65.04427
446.9159, 68.17563
447.3980, 71.97218
447.8801, 76.96088
448.3622, 83.19496
448.8444, 89.39394
449.3265, 95.00863
449.8086, 101.1980
450.2907, 108.8856
450.7728, 119.3250
451.2549, 128.5429
451.7371, 135.8906
452.2192, 142.1098
452.7013, 148.7120
453.1834, 155.6725
453.6655, 162.9870
454.1476, 171.3929
454.6298, 180.4930
455.1119, 185.8958
455.5940, 187.2548
456.0761, 186.5414
456.5582, 185.9954
457.0403, 185.2008
457.5225, 181.9529
458.0046, 175.8974
458.4867, 167.3089
458.9688, 155.8743
459.4509, 142.0173
459.9330, 128.0519
460.4152, 114.2498
460.8973, 100.9527
461.3794, 88.99986
461.8615, 78.28881
462.3436, 69.02718
462.8257, 62.13186
463.3079, 56.33777
463.7900, 50.14606
464.2721, 41.50962
464.7542, 34.24585
465.2363, 30.58838
465.7184, 29.55775
466.2006, 28.36602
466.6827, 26.13828
467.1648, 23.76820
467.6469, 21.57006
468.1290, 19.47273
468.6111, 17.82578
469.0933, 16.92660
469.5754, 16.27317
470.0575, 15.37192
470.5396, 14.00747
471.0217, 13.05116
471.5038, 12.66706
471.9860, 12.58021
472.4681, 12.09073
472.9502, 11.00771
473.4323, 10.18036
473.9144, 10.19865
474.3965, 10.99688
474.8787, 11.49531
475.3608, 11.61419
475.8429, 11.39994
476.3250, 10.76375
476.8071, 9.768230
477.2892, 8.721212
477.7714, 7.486897
478.2535, 6.490154
478.7356, 6.989855
479.2177, 8.607441
479.6998, 9.720778
480.1819, 8.935328
480.6641, 7.435429
481.1462, 6.353548
481.6283, 5.776165
482.1104, 5.614466
482.5925, 6.158287
483.0746, 6.945538
483.5568, 7.502800
484.0389, 7.618584
484.5210, 7.561895
485.0031, 7.501060
485.4852, 7.336567
485.9673, 6.757599
486.4495, 4.797869
486.9316, 3.289848
487.4137, 3.001570
487.8958, 4.259314
488.3779, 5.060078
488.8600, 5.071918
489.3422, 4.975016
489.8243, 5.594322
490.3064, 7.466335
490.7885, 8.032862
491.2706, 6.475945
491.7527, 3.829039
492.2349, 2.744595
492.7170, 3.346039
493.1991, 4.173777
493.6812, 4.411804
494.1633, 4.272449
494.6454, 4.912521
495.1276, 6.387573
495.6097, 7.469536
496.0918, 6.325546
496.5739, 4.013058
497.0560, 2.935492
497.5381, 4.087734
498.0203, 5.569447
498.5024, 5.716919
498.9845, 4.903522
499.4666, 3.959299
499.9487, 3.161589
500.4308, 2.435757
500.9130, 1.513567
501.3951, 0.4020540
501.8772, 7.2529003E-02
502.3593, 1.949556
502.8414, 3.974468
503.3235, 4.793911
503.8057, 3.257948
504.2878, 1.918985
504.7699, 0.6077160
505.2520, 0.3806360
505.7341, 0.4690740
506.2162, 0.8335780
506.6984, 2.077318
507.1805, 2.980009
507.6626, 3.523834
508.1447, 3.417295
508.6268, 2.500511
509.1089, 1.527449
509.5911, 1.046125
510.0732, 1.017813
510.5553, 0.9739890
511.0374, 0.8411620
511.5195, 0.8342800
512.0016, 1.613159
512.4838, 2.821444
512.9659, 3.204239
513.4480, 1.640270
513.9301, 0.2928410
514.4122, 0.6481590
514.8943, 0.2664930
515.3765, 1.150820
515.8586, 1.501923
516.3407, 1.435965
516.8228, 0.6200560
517.3049, 1.361422
517.7870, 2.184860
518.2692, 0.3997340
518.7513, 3.817778
519.2334, 5.599098
519.7155, 3.805691
520.1976, 2.263079
520.6797, 1.337917
521.1619, 0.9349800
521.6440, 0.8632600
522.1261, 1.409544
522.6082, 1.788908
523.0903, 1.646582
523.5724, 0.9609570
524.0546, 0.4561020
524.5367, 0.1447160
525.0188, 2.6859000E-02
525.5009, 0.1989350
525.9830, 0.6277180
526.4651, 0.9606900
526.9473, 1.215727
527.4294, 1.180864
527.9115, 0.1289100
528.3936, 1.559441
528.8757, 2.634613
529.3578, 2.114784
529.8400, 0.9568370
530.3221, 0.1805930
530.8042, 1.199303
531.2863, 1.563601
531.7684, 0.3406850
532.2505, 1.252352
532.7327, 2.328974
533.2148, 2.707809
533.6969, 2.731176
534.1790, 2.535856
534.6611, 2.006907
535.1432, 1.011768
535.6254, 1.345301
536.1075, 3.054546
536.5896, 3.700775
537.0717, 3.561199
537.5538, 3.572605
538.0359, 3.876125
538.5181, 3.992977
539.0002, 3.547024
539.4823, 2.565208
539.9644, 2.333744
540.4465, 2.910175
540.9286, 3.945580
541.4108, 5.490780
541.8929, 7.319969
542.3750, 8.257881
542.8571, 7.908722
543.3392, 7.197216
543.8214, 7.262131
544.3035, 7.832428
544.7856, 8.244137
545.2677, 7.809303
545.7498, 7.434158
546.2319, 7.762932
546.7141, 8.742565
547.1962, 10.01183
547.6783, 11.96083
548.1604, 13.73790
548.6425, 14.89912
549.1246, 15.30023
549.6068, 15.32881
550.0889, 14.63015
550.5710, 13.81370
551.0531, 13.38827
551.5352, 13.25832
552.0173, 13.79594
552.4995, 15.36108
552.9816, 17.40747
553.4637, 18.40396
553.9458, 18.17239
554.4279, 18.15001
554.9100, 19.16683
555.3922, 20.86588
555.8743, 21.82188
556.3564, 22.02709
556.8385, 21.81767
557.3206, 21.06295
557.8027, 20.17899
558.2849, 20.01359
558.7670, 20.85592
559.2491, 21.59406
559.7312, 21.26685
560.2133, 20.40733
560.6954, 19.63399
561.1776, 19.69139
561.6597, 19.31921
562.1418, 17.73954
562.6239, 15.29239
563.1060, 13.26371
563.5881, 12.06902
564.0703, 11.23254
564.5524, 10.70544
565.0345, 10.55505
565.5166, 9.648651
565.9987, 7.505661
566.4808, 5.422356
566.9630, 4.513073
567.4451, 4.889797
567.9272, 4.991367
568.4093, 4.652344
568.8914, 4.121902
569.3735, 3.854973
569.8557, 3.756821
570.3378, 3.269562
570.8199, 1.828590
571.3020, 0.3048400
571.7841, 0.1199110
572.2662, 0.9146690
572.7484, 1.321156
573.2305, 4.6356000E-02
573.7126, 1.706707
574.1947, 2.669827
574.6768, 2.836746
575.1589, 2.786903
575.6411, 2.384735
576.1232, 1.684422
576.6053, 0.9936790
577.0874, 0.1657710
577.5695, 0.3091620
578.0516, 0.3153760
578.5338, 3.7895001E-02
579.0159, 0.3249890
579.4980, 0.8671040
579.9801, 1.131348
580.4622, 1.035713
580.9443, 0.5932540
581.4265, 0.2927250
581.9086, 1.605904
582.3907, 2.785324
582.8728, 3.410988
583.3549, 3.735859
583.8370, 4.294441
584.3192, 5.082916
584.8013, 5.932877
585.2834, 6.752773
585.7655, 7.534252
586.2476, 8.223530
586.7297, 8.840881
587.2118, 9.576012
587.6939, 10.87971
588.1760, 12.24183
588.6581, 12.96623
589.1403, 11.95668
589.6224, 11.40089
590.1045, 11.57298
590.5866, 12.36303
591.0687, 13.50522
591.5508, 15.46909
592.0330, 16.73598
592.5151, 16.34126
592.9972, 14.55864
593.4793, 14.68084
593.9614, 16.89676
594.4435, 18.85428
594.9257, 18.16951
595.4078, 15.70975
595.8899, 14.13771
596.3720, 13.83905
596.8541, 13.86921
597.3362, 13.25275
597.8184, 12.41728
598.3005, 12.01315
598.7826, 12.38942
599.2647, 13.06336
599.7468, 13.92786
600.2289, 14.92484
600.7111, 15.93015
601.1932, 17.68591
601.6753, 18.60358
602.1574, 17.77024
602.6395, 15.37564
603.1216, 14.12691
603.6038, 14.48827
604.0859, 15.12799
604.5680, 15.27463
605.0501, 14.86841
605.5322, 15.01973
606.0143, 15.81907
606.4965, 16.77702
606.9786, 17.37646
607.4607, 17.71234
607.9428, 18.10116
608.4249, 18.60497
608.9070, 19.17965
609.3892, 20.06436
609.8713, 20.95823
610.3534, 21.31767
610.8355, 20.25034
611.3176, 19.24416
611.7997, 19.13780
612.2819, 19.69471
612.7640, 19.99973
613.2461, 19.10445
613.7282, 18.69559
614.2103, 19.45903
614.6924, 21.44316
615.1746, 23.31660
615.6567, 25.18807
616.1388, 26.71217
616.6209, 27.43477
617.1030, 27.31021
617.5851, 28.00370
618.0673, 29.74401
618.5494, 31.62587
619.0315, 32.12514
619.5136, 31.84343
619.9957, 32.62355
620.4778, 35.38295
620.9600, 38.43172
621.4421, 40.03057
621.9242, 40.76085
622.4063, 41.78395
622.8884, 43.66259
623.3705, 45.82487
623.8527, 47.83942
624.3348, 49.83173
624.8169, 52.76904
625.2990, 57.89584
625.7811, 62.75090
626.2632, 66.23492
626.7454, 68.21861
627.2275, 71.09652
627.7096, 75.10215
628.1917, 79.39034
628.6738, 83.12930
629.1559, 86.42027
629.6381, 90.48268
630.1202, 95.50648
630.6023, 100.9663
631.0844, 106.7399
631.5665, 112.4699
632.0486, 117.4331
632.5308, 120.8673
633.0129, 124.4476
633.4950, 129.1768
633.9771, 134.8951
634.4592, 141.3643
634.9413, 149.2109
635.4235, 157.0372
635.9056, 164.6182
636.3877, 171.9085
636.8698, 178.6052
637.3519, 184.0372
637.8340, 189.8741
638.3162, 196.9941
638.7983, 205.4172
639.2804, 212.7005
639.7625, 218.7914
640.2446, 224.2010
640.7267, 229.4012
641.2089, 234.2491
641.6910, 238.0200
642.1731, 240.5837
642.6552, 242.5552
643.1373, 244.8100
643.6194, 246.6820
644.1016, 247.2475
644.5837, 246.0922
645.0658, 243.8615
645.5479, 240.8492
646.0300, 236.9487
646.5121, 232.0601
646.9943, 224.7858
647.4764, 218.1811
647.9585, 213.1273
648.4406, 209.0088
648.9227, 203.2771
649.4048, 195.5562
649.8870, 187.5586
650.3691, 179.7012
650.8512, 172.0655
651.3333, 164.7915
651.8154, 157.8990
652.2975, 150.9864
652.7797, 143.2017
653.2618, 135.3371
653.7439, 128.5077
654.2260, 122.8843
654.7081, 117.4819
655.1902, 111.6013
655.6724, 105.8392
656.1545, 100.6463
656.6366, 96.26689
657.1187, 92.22495
657.6008, 88.99783
658.0829, 85.83101
658.5651, 81.76357
659.0472, 76.20022
659.5293, 71.35159
660.0114, 67.73656
660.4935, 64.69909
660.9756, 60.59783
661.4578, 55.55680
661.9399, 51.41519
662.4220, 49.36477
662.9041, 48.28468
663.3862, 46.19888
663.8683, 43.30224
664.3505, 40.50455
664.8326, 38.07883
665.3147, 36.17598
665.7968, 35.24718
666.2789, 35.24958
666.7610, 34.87476
667.2432, 33.36253
667.7253, 31.74000
668.2074, 30.50655
668.6895, 29.78002
669.1716, 28.78154
669.6537, 27.41651
670.1359, 25.96612
670.6180, 24.68926
671.1001, 23.59529
671.5822, 22.78483
672.0643, 22.39420
672.5464, 21.70763
673.0286, 18.98565
673.5107, 15.40506
673.9928, 13.53347
674.4749, 14.75266
674.9570, 16.50162
675.4391, 17.33810
675.9213, 17.47120
676.4034, 17.21903
676.8855, 16.15351
677.3676, 15.27209
677.8497, 14.97184
678.3318, 15.02409
678.8140, 14.73717
679.2961, 13.91400
679.7782, 13.21681
680.2603, 12.88002
680.7424, 12.83795
681.2245, 12.77114
681.7067, 12.67878
682.1888, 12.59845
682.6709, 12.70653
683.1530, 12.78196
683.6351, 12.28269
684.1172, 11.31543
684.5994, 10.56269
685.0815, 10.63984
685.5636, 10.98701
686.0457, 11.13876
686.5278, 10.93548
687.0099, 10.94810
687.4921, 11.97109
687.9742, 12.74117
688.4563, 12.17716
688.9384, 9.467487
689.4205, 8.004303
689.9026, 8.165962
690.3848, 9.059853
690.8669, 9.726761
691.3490, 10.14331
691.8311, 9.986965
692.3132, 9.069290
692.7953, 7.866402
693.2775, 6.567978
693.7596, 5.443161
694.2417, 4.995426
694.7238, 6.318192
695.2059, 7.484028
695.6880, 7.460873
696.1702, 6.611893
696.6523, 6.042366
697.1344, 5.950191
697.6165, 6.123180
698.0986, 6.869007
698.5807, 7.926479
699.0629, 7.453192
699.5450, 5.001408
700.0271, 3.110765
700.5092, 3.421228
700.9913, 5.170132
701.4734, 5.851030
701.9556, 5.534178
702.4377, 4.934149
702.9198, 3.960348
703.4019, 3.169888
703.8840, 3.609613
704.3661, 5.545429
704.8483, 6.641079
705.3304, 5.149900
705.8125, 3.118994
706.2946, 1.923113
706.7767, 1.867788
707.2589, 1.962042
707.7410, 2.460333
708.2231, 2.746029
708.7052, 2.020529
709.1873, 0.2482780
709.6694, 0.8885000
710.1516, 1.199560
710.6337, 0.9512600
711.1158, 0.1168630
711.5979, 0.9899010
712.0800, 1.602346
712.5621, 1.282661
713.0443, 0.9585610
713.5264, 1.614210
714.0085, 2.558887
714.4906, 2.772718
714.9727, 0.8960110
715.4548, 0.4058000
715.9370, 0.6683580
716.4191, 0.1419530
716.9012, 0.7962590
717.3833, 2.420670
717.8654, 3.428499
718.3475, 3.448261
718.8297, 2.621252
719.3118, 0.8691830
719.7939, 1.600985
720.2760, 3.432619
720.7581, 3.648655
721.2402, 3.033075
721.7224, 2.060066
722.2045, 0.8822170
722.6866, 0.1567000
723.1687, 0.4401340
723.6508, 0.9828510
724.1329, 1.600718
724.6151, 2.274937
725.0972, 2.441715
725.5793, 1.878841
726.0614, 1.180079
726.5435, 0.6907600
727.0256, 0.3924830
727.5078, 0.4870820
727.9899, 2.034016
728.4720, 3.137501
728.9541, 2.414314
729.4362, 0.7935490
729.9183, 2.5762999E-02
730.4005, 0.1409820
730.8826, 0.5625630
731.3647, 1.110653
731.8468, 1.523472
732.3289, 1.523420
732.8110, 0.8100700
733.2932, 0.3684940
733.7753, 0.1938290
734.2574, 0.3732990
734.7395, 1.176022
735.2216, 2.852972
735.7037, 3.535061
736.1859, 2.907721
736.6680, 1.864403
737.1501, 1.507648
737.6322, 1.659794
738.1143, 1.733580
738.5964, 1.528816
739.0786, 1.437126
739.5607, 2.244249
740.0428, 3.218658
740.5249, 3.344547
741.0070, 1.064693
741.4891, 0.5223580
741.9713, 0.4665130
742.4534, 0.4297370
742.9355, 1.064610
743.4176, 1.377136
743.8997, 1.624559
744.3818, 1.893467
744.8640, 2.064373
745.3461, 1.739145
745.8282, 1.015297
746.3103, 0.5280080
746.7924, 0.5681340
747.2745, 0.8926160
747.7567, 1.311117
748.2388, 1.819754
748.7209, 2.401133
749.2030, 3.587114
749.6851, 4.283335
750.1672, 3.743484
750.6494, 2.347025
751.1315, 1.587358
751.6136, 1.877096
752.0957, 1.852900
752.5778, 0.8430230
753.0599, 0.7365570
753.5421, 1.239971
754.0242, 0.7024560
754.5063, 0.1177410
754.9884, 1.048927
755.4705, 1.870516
755.9526, 2.274710
756.4348, 2.295010
756.9169, 2.107271
757.3990, 1.383509
757.8811, 0.8461400
758.3632, 1.166607
758.8453, 2.358765
759.3275, 2.335577
759.8096, 7.6715000E-02
760.2917, 1.559935
760.7738, 0.8821210
761.2559, 1.802113
761.7380, 3.465719
762.2202, 4.079247
762.7023, 4.312616
763.1844, 4.688585
763.6665, 5.003359
764.1486, 4.749054
764.6307, 3.858479
765.1129, 3.239416
765.5950, 3.635384
766.0771, 4.242566
766.5592, 4.444375
767.0413, 4.057835
767.5234, 4.067257
768.0056, 4.644968
768.4877, 5.418379
768.9698, 6.312460
769.4519, 7.298069
769.9340, 7.362909
770.4161, 6.437115
770.8983, 5.165882
771.3804, 3.664923
771.8625, 2.359262
772.3446, 1.950007
772.8267, 2.566892
773.3088, 3.644971
773.7910, 5.721901
774.2731, 7.640265
774.7552, 8.367603
775.2373, 7.296335
775.7194, 6.489300
776.2015, 6.054943
776.6837, 5.722170
777.1658, 5.025311
777.6479, 3.912900
778.1300, 4.003862
778.6121, 5.712638
779.0942, 7.385012
779.5764, 6.868549
780.0585, 5.414718
780.5406, 5.036766
781.0227, 6.413015
781.5048, 7.310392
781.9869, 6.083830
782.4691, 4.259987
782.9512, 3.291437
783.4332, 3.740649
783.9153, 4.194424
784.3975, 4.766384
784.8796, 5.099453
785.3617, 4.490391
785.8438, 3.049238
786.3259, 2.714952
786.8080, 3.912556
787.2902, 5.233380
787.7723, 4.900131
788.2544, 3.857170
788.7365, 3.511974
789.2186, 4.562021
789.7007, 5.281118
790.1829, 4.853837
790.6650, 3.898323
791.1471, 3.026297
791.6292, 2.111312
792.1113, 1.578806
792.5934, 1.395555
793.0756, 1.667186
793.5577, 2.899773
794.0398, 4.862047
794.5219, 6.058393
795.0040, 6.150440
795.4861, 5.805065
795.9683, 5.458579
796.4504, 5.167818
796.9325, 5.024499
797.4146, 5.238675
797.8967, 5.241629
798.3788, 4.713879
798.8610, 4.004330
799.3431, 3.330381
799.8252, 2.612263
800.3073, 2.709285
800.7894, 3.890821
801.2715, 5.253672
801.7537, 5.563988
802.2358, 5.062917
802.7179, 4.554219
803.2000, 4.161758
803.6821, 3.977032
804.1642, 4.385257
804.6464, 4.934824
805.1285, 5.049025
805.6106, 4.079473
806.0927, 3.556723
806.5748, 3.908384
807.0569, 4.478703
807.5391, 4.568090
808.0212, 4.113354
808.5033, 3.585698
808.9854, 2.957685
809.4675, 2.533649
809.9496, 2.909789
810.4318, 3.700522
810.9139, 4.039300
811.3960, 3.749351
811.8781, 3.310993
812.3602, 2.827347
812.8423, 2.397898
813.3245, 2.122660
813.8066, 2.018222
814.2887, 2.068603
814.7708, 2.430124
815.2529, 2.740047
815.7350, 2.485970
816.2172, 1.751066
816.6993, 1.432983
817.1814, 1.663036
817.6635, 1.955657
818.1456, 1.839989
818.6277, 1.629957
819.1099, 1.709538
819.5920, 2.216833
820.0741, 2.315907
820.5562, 1.122496
821.0383, 0.2005390
821.5204, 0.5912190
822.0026, 0.4779210
822.4847, 0.8722720
822.9668, 0.3341180
823.4489, 0.1570760
823.9310, 0.7785020
824.4131, 2.553521
824.8953, 3.064548
825.3774, 1.961376
825.8595, 1.162630
826.3416, 2.523589
826.8237, 4.268193
827.3058, 4.677999
827.7880, 3.019115
828.2701, 2.144119
828.7522, 2.696161
829.2343, 3.669376
829.7164, 4.496687
830.1985, 5.263805
830.6807, 5.306599
831.1628, 4.447001
831.6449, 3.492107
832.1270, 3.462149
832.6091, 3.973289
833.0912, 4.299447
833.5734, 4.354827
834.0555, 4.380170
834.5376, 4.394673
835.0197, 4.433926
835.5018, 4.540651
835.9839, 4.716694
836.4661, 4.772992
836.9482, 4.742575
837.4303, 4.702236
837.9124, 4.508108
838.3945, 4.116409
838.8766, 4.124314
839.3588, 4.565016
839.8409, 4.829964
840.3230, 4.082175
840.8051, 3.249259
841.2872, 3.314893
841.7693, 4.324451
842.2515, 4.947314
842.7336, 4.560661
843.2157, 4.164196
843.6978, 4.138945
844.1799, 4.452888
844.6620, 4.714067
845.1442, 4.919357
845.6263, 5.035781
846.1084, 5.105807
846.5905, 5.041819
847.0726, 4.392182
847.5547, 3.375990
848.0369, 3.015139
848.5190, 4.815638
849.0011, 6.371520
849.4832, 6.466513
849.9653, 5.315058
850.4474, 4.110611
850.9296, 2.742008
851.4117, 1.651029
851.8938, 0.9443400
852.3759, 0.6343150
852.8580, 0.9471800
853.3401, 1.755183
853.8223, 2.466483
854.3044, 2.732435
854.7865, 2.871035
855.2686, 3.016264
855.7507, 3.202868
856.2328, 3.530115
856.7150, 4.463650
857.1971, 4.856108
857.6792, 4.296110
858.1613, 3.298979
858.6434, 3.088266
859.1255, 3.622229
859.6077, 3.669209
860.0898, 2.652521
860.5719, 1.584240
861.0540, 2.001919
861.5361, 3.096327
862.0182, 3.493933
862.5004, 1.951565
862.9825, 0.8578030
863.4646, 1.182714
863.9467, 2.007244
864.4288, 2.354473
864.9109, 2.091244
865.3931, 2.067982
865.8752, 2.404276
866.3573, 2.856716
866.8394, 3.285860
867.3215, 3.583231
867.8036, 3.469530
868.2858, 2.825939
868.7679, 2.141626
869.2500, 1.546173
869.7321, 1.103771
870.2142, 0.9339830
870.6964, 1.206697
871.1785, 1.058069
871.6606, 0.2778590
872.1427, 0.4083460
872.6248, 0.4438480
873.1069, 0.1179180
873.5891, 1.385363
874.0712, 3.335514
874.5533, 4.642164
875.0354, 3.670902
875.5175, 2.178572
875.9996, 1.589315
876.4818, 2.050747
876.9639, 2.360842
877.4460, 2.516907
877.9281, 2.346674
878.4102, 1.607571
878.8923, 0.4290980
879.3745, 5.1561002E-02
879.8566, 0.1882460
880.3387, 0.3048500
880.8208, 0.4988630
881.3029, 1.430988
881.7850, 1.350264
882.2672, 0.6231040
882.7493, 0.4810830
883.2314, 2.744749
883.7135, 3.812726
884.1956, 2.217875
884.6777, 0.8480340
885.1599, 2.107620
885.6420, 1.453844
886.1241, 0.7495690
886.6062, 0.6185680
887.0883, 0.5318790
887.5704, 0.6885590
888.0526, 2.321547
888.5347, 2.969105
889.0168, 1.323586
889.4989, 0.1148550
889.9810, 0.5536060
890.4631, 0.4065480
890.9453, 5.2205998E-02
891.4274, 0.6134000
891.9095, 1.031450
892.3916, 1.151476
892.8737, 1.050705
893.3558, 0.5300560
893.8380, 7.8238003E-02
894.3201, 0.1442680
894.8022, 1.508455
895.2843, 2.285624
895.7664, 0.9684300
896.2485, 0.8076460
896.7307, 1.867277
897.2128, 2.136036
897.6949, 1.920788
898.1770, 0.9851460
898.6591, 0.3276060
899.1412, 1.064569
899.6234, 2.543913
900.1055, 2.539568
900.5876, 1.242908
901.0697, 0.3820510
901.5518, 1.598862
902.0339, 3.034433
902.5161, 3.649946
902.9982, 3.446047
903.4803, 3.000378
903.9624, 2.073652
904.4445, 1.523924
904.9266, 1.737938
905.4088, 2.382368
905.8909, 2.562414
906.3730, 2.415230
906.8551, 2.518549
907.3372, 3.291052
907.8193, 4.130600
908.3015, 4.520506
908.7836, 4.737356
909.2657, 5.283232
909.7478, 6.774626
910.2299, 7.466593
910.7120, 6.930698
911.1942, 6.119869
911.6763, 6.325819
912.1584, 7.371641
912.6405, 8.403070
913.1226, 9.303780
913.6047, 10.01139
914.0869, 10.36524
914.5690, 10.56887
915.0511, 10.89413
915.5332, 11.55254
916.0153, 11.38113
916.4974, 9.361553
916.9796, 8.211216
917.4617, 10.16690
917.9438, 14.64272
918.4259, 17.47590
918.9080, 18.73146
919.3901, 19.14619
919.8723, 17.66819
920.3544, 16.82381
920.8365, 19.37116
921.3186, 24.65319
921.8007, 28.63350
922.2828, 30.24669
922.7650, 31.39983
923.2471, 32.44162
923.7292, 33.36887
924.2113, 34.13480
924.6934, 34.74914
925.1755, 35.29608
925.6577, 35.68057
926.1398, 36.24674
926.6219, 37.64598
927.1040, 39.28823
927.5861, 40.33198
928.0682, 39.57615
928.5504, 39.85183
929.0325, 41.73332
929.5146, 43.81956
929.9967, 44.23628
930.4788, 43.35505
930.9609, 44.24738
931.4431, 47.23902
931.9252, 49.91520
932.4073, 49.50315
932.8894, 48.61394
933.3715, 49.68206
933.8536, 53.06992
934.3358, 56.24783
934.8179, 58.71244
935.3000, 61.51084
935.7821, 65.38933
936.2642, 69.87782
936.7463, 72.54675
937.2285, 73.72681
937.7106, 75.67458
938.1927, 80.05733
938.6748, 85.12944
939.1569, 90.09746
939.6390, 94.81383
940.1212, 98.76836
940.6033, 101.1945
941.0854, 103.9649
941.5675, 107.4562
942.0496, 111.4771
942.5317, 115.8125
943.0139, 120.1332
943.4960, 123.3373
943.9781, 125.1441
944.4602, 126.7248
944.9423, 129.4302
945.4244, 131.9807
945.9066, 133.1633
946.3887, 132.5286
946.8708, 132.0406
947.3529, 131.8342
947.8350, 131.3232
948.3171, 130.1353
948.7993, 128.3960
949.2814, 126.3647
949.7635, 124.1200
950.2456, 122.0814
950.7277, 120.4464
951.2098, 119.2061
951.6920, 118.0782
952.1741, 117.3052
952.6562, 117.8244
953.1383, 120.4919
953.6204, 122.2526
954.1025, 122.0791
954.5847, 121.2950
955.0668, 122.0866
955.5489, 124.1490
956.0310, 126.7856
956.5131, 129.9698
956.9952, 133.1329
957.4774, 135.9086
957.9595, 138.5654
958.4416, 141.3579
958.9237, 144.2665
959.4058, 147.3704
959.8879, 150.5899
960.3701, 154.2398
960.8522, 159.5527
961.3343, 165.1153
961.8164, 167.6638
962.2985, 167.5149
962.7806, 166.9178
963.2628, 167.2382
963.7449, 166.9380
964.2270, 165.1754
964.7091, 162.3724
965.1912, 159.8834
965.6733, 157.8214
966.1555, 154.9888
966.6376, 151.1345
967.1197, 146.1656
967.6018, 139.2513
968.0839, 131.4393
968.5660, 124.5322
969.0482, 119.1808
969.5303, 113.9217
970.0124, 108.5323
970.4945, 103.0917
970.9766, 97.32864
971.4587, 91.19273
971.9409, 86.02606
972.4230, 81.91618
972.9051, 77.81693
973.3872, 72.57464
973.8693, 67.23006
974.3514, 62.68886
974.8336, 59.01772
975.3157, 56.23755
975.7978, 55.30417
976.2799, 53.76509
976.7620, 50.59820
977.2441, 46.79984
977.7263, 45.04586
978.2084, 44.99917
978.6905, 44.80131
979.1726, 43.96553
979.6547, 42.68647
980.1368, 40.57053
980.6190, 38.37634
981.1010, 37.08051
981.5831, 37.40878
982.0652, 36.60797
982.5474, 34.24472
983.0295, 32.03131
983.5116, 31.33868
983.9937, 31.82311
984.4758, 32.88255
984.9579, 34.37438
985.4401, 35.46107
985.9222, 34.72920
986.4043, 34.62699
986.8864, 36.43910
987.3685, 39.60153
987.8506, 42.96838
988.3328, 46.67912
988.8149, 49.71879
989.2970, 51.70250
989.7791, 53.14653
990.2612, 53.76899
990.7433, 54.54866
991.2255, 57.30422
991.7076, 63.17941
992.1897, 68.81779
992.6718, 73.28031
993.1539, 77.35040
993.6360, 81.24186
994.1182, 84.97543
994.6003, 90.01101
995.0824, 96.37526
995.5645, 102.7477
996.0466, 108.2850
996.5287, 113.6058
997.0109, 119.3120
997.4930, 125.2450
997.9751, 131.0470
998.4572, 137.7572
998.9393, 142.3601
999.4214, 144.1748
999.9036, 144.0403
1000.386, 143.9454
1000.868, 143.0679
1001.350, 138.3020
1001.832, 128.7003
1002.314, 117.4923
1002.796, 105.9646
1003.278, 94.36931
1003.760, 82.94764
1004.243, 71.56557
1004.725, 60.87761
1005.207, 50.61385
1005.689, 42.12551
1006.171, 36.54435
1006.653, 32.80399
1007.135, 29.20056
1007.617, 25.83512
1008.100, 22.87630
1008.582, 20.57041
1009.064, 18.52322
1009.546, 16.84168
1010.028, 15.20713
1010.510, 12.93593
1010.992, 10.10457
1011.474, 8.480268
1011.956, 8.306587
1012.439, 8.456720
1012.921, 8.057795
1013.403, 7.470894
1013.885, 6.927383
1014.367, 6.457054
1014.849, 6.375349
1015.331, 6.890980
1015.813, 7.291246
1016.296, 7.287251
1016.778, 7.014061
1017.260, 6.571379
1017.742, 6.121670
1018.224, 6.190748
1018.706, 7.552097
1019.188, 8.454460
1019.670, 7.510921
1020.152, 6.178539
1020.635, 6.106646
1021.117, 7.704031
1021.599, 7.831133
1022.081, 6.338177
1022.563, 4.481709
1023.045, 3.003258
1023.527, 1.899101
1024.009, 1.398811
1024.492, 1.362164
1024.974, 0.9341980
1025.456, 0.6764980
1025.938, 1.746422
1026.420, 1.712820
1026.902, 1.208973
1027.384, 1.645725
1027.866, 2.724564
1028.349, 3.129189
1028.831, 2.422022
1029.313, 1.611641
1029.795, 1.232023
1030.277, 1.090868
1030.759, 1.059441
1031.241, 1.134342
1031.723, 1.210350
1032.205, 1.284382
1032.688, 1.391766
1033.170, 1.740927
1033.652, 1.983383
1034.134, 1.428011
1034.616, 0.3471200
1035.098, 0.5922680
1035.580, 1.132927
1036.062, 1.563971
1036.544, 1.990829
1037.027, 2.258875
1037.509, 2.108370
1037.991, 1.595753
1038.473, 1.116241
1038.955, 0.7004640
1039.437, 0.3298000
1039.919, 0.1988510
1040.401, 0.5229970
1040.884, 0.2410960
1041.366, 0.5522190
1041.848, 1.139256
1042.330, 1.639620
1042.812, 1.252254
1043.294, 0.6329210
1043.776, 2.741541
1044.258, 3.145947
1044.740, 2.502779
1045.223, 1.986340
1045.705, 2.084639
1046.187, 1.681904
1046.669, 2.4095999E-02
1047.151, 1.509470
1047.633, 1.534462
1048.115, 0.3649140
1048.597, 0.2189690
1049.079, 0.9899650
1049.562, 1.790165
1050.044, 1.873133
1050.526, 2.059378
1051.008, 3.114592
1051.490, 4.559065
1051.972, 5.338293
1052.454, 5.267963
1052.936, 5.207268
1053.419, 5.247517
1053.901, 5.290924
1054.383, 4.951717
1054.865, 4.696983
1055.347, 5.601124
1055.829, 7.714025
1056.311, 8.607798
1056.793, 6.581621
1057.276, 4.641758
1057.758, 3.657097
1058.240, 3.348616
1058.722, 2.914978
1059.204, 2.465872
1059.686, 2.545399
1060.168, 3.534969
1060.650, 4.484337
1061.132, 4.896442
1061.615, 4.934706
1062.097, 4.654758
1062.579, 3.973284
1063.061, 3.884621
1063.543, 4.437023
1064.025, 5.089663
1064.507, 5.386602
1064.989, 5.680044
1065.471, 6.730362
1065.954, 8.102768
1066.436, 8.713875
1066.918, 7.570599
1067.400, 6.696806
1067.882, 6.140810
1068.364, 6.058289
1068.846, 6.935404
1069.328, 8.411896
1069.811, 9.431034
1070.293, 9.900406
1070.775, 9.956964
1071.257, 9.258141
1071.739, 8.584982
1072.221, 8.134811
1072.703, 8.011246
1073.185, 8.882385
1073.667, 10.71109
1074.150, 11.56086
1074.632, 10.62994
1075.114, 9.584642
1075.596, 10.10503
1076.078, 11.30437
1076.560, 12.36797
1077.042, 13.27470
1077.524, 13.36473
1078.006, 12.33091
1078.489, 11.56578
1078.971, 11.85520
1079.453, 12.84705
1079.935, 14.38003
1080.417, 16.02580
1080.899, 16.73969
1081.381, 14.61367
1081.863, 13.73721
1082.345, 15.00954
1082.828, 17.09195
1083.310, 18.69614
1083.792, 19.89012
1084.274, 21.45523
1084.756, 23.38622
1085.238, 24.82185
1085.720, 25.09357
1086.202, 24.85683
1086.685, 23.89696
1087.167, 22.89249
1087.649, 23.64437
1088.131, 26.40647
1088.613, 28.40561
1089.095, 29.17868
1089.577, 29.09787
1090.059, 27.65973
1090.542, 26.14431
1091.024, 26.27753
1091.506, 28.37324
1091.988, 29.13103
1092.470, 27.84382
1092.952, 26.82192
1093.434, 26.99557
1093.916, 27.70215
1094.398, 27.62833
1094.880, 27.08997
1095.363, 26.82386
1095.845, 27.19408
1096.327, 27.39438
1096.809, 27.27584
1097.291, 26.87663
1097.773, 26.05698
1098.255, 24.91632
1098.737, 24.21483
1099.220, 23.93407
1099.702, 23.87416
1100.184, 24.14402
1100.666, 24.38539
1101.148, 24.44821
1101.630, 24.21045
1102.112, 23.58384
1102.594, 22.47408
1103.077, 22.34565
1103.559, 23.29169
1104.041, 24.42576
1104.523, 25.16304
1105.005, 25.65499
1105.487, 26.07671
1105.969, 26.44521
1106.451, 26.70315
1106.933, 26.49265
1107.416, 27.35205
1107.898, 29.92669
1108.380, 32.57744
1108.862, 32.79971
1109.344, 31.80466
1109.826, 31.69994
1110.308, 32.85377
1110.790, 33.50767
1111.272, 32.92032
1111.755, 32.24028
1112.237, 31.80520
1112.719, 31.55369
1113.201, 31.38601
1113.683, 31.25944
1114.165, 31.09412
1114.647, 31.05263
1115.129, 30.40575
1115.612, 28.03510
1116.094, 25.67021
1116.576, 24.76290
1117.058, 22.64966
1117.540, 20.66520
1118.022, 20.03404
1118.504, 17.14706
1118.986, 16.72122
1119.469, 16.48184
1119.951, 14.69759
1120.433, 12.24085
1120.915, 10.32159
1121.397, 8.920435
1121.879, 8.619263
1122.361, 9.589893
1122.843, 10.10881
1123.325, 8.281683
1123.807, 5.764658
1124.290, 4.076443
1124.772, 3.190027
1125.254, 2.940628
1125.736, 3.587954
1126.218, 4.057728
1126.700, 4.241863
1127.182, 4.186459
1127.664, 3.844360
1128.147, 3.341770
1128.629, 2.912975
1129.111, 2.564922
1129.593, 2.116976
1130.075, 0.9615310
1130.557, 0.5821360
1131.039, 1.620527
1131.521, 3.231062
1132.004, 3.586813
1132.486, 3.212185
1132.968, 3.805319
1133.450, 5.884195
1133.932, 7.469425
1134.414, 6.868420
1134.896, 6.473877
1135.378, 7.570446
1135.860, 9.726242
1136.343, 10.97210
1136.825, 11.50848
1137.307, 12.58060
1137.789, 14.97930
1138.271, 17.16022
1138.753, 17.70737
1139.235, 18.10576
1139.717, 19.55741
1140.199, 22.07675
1140.682, 24.93268
1141.164, 28.10428
1141.646, 31.74985
1142.128, 36.47792
1142.610, 41.01748
1143.092, 43.65186
1143.574, 45.67807
1144.056, 49.25037
1144.539, 54.75956
1145.021, 60.21281
1145.503, 65.68237
1145.985, 70.60199
1146.467, 73.77012
1146.949, 76.43286
1147.431, 80.30583
1147.913, 85.07021
1148.396, 89.88571
1148.878, 94.63325
1149.360, 98.87736
1149.842, 102.7903
1150.324, 106.1672
1150.806, 108.8606
1151.288, 110.6981
1151.770, 111.2597
1152.252, 110.6294
1152.734, 109.5837
1153.217, 108.6257
1153.699, 106.5760
1154.181, 102.8652
1154.663, 98.78327
1155.145, 96.24971
1155.627, 94.50803
1156.109, 92.24951
1156.591, 89.35973
1157.074, 85.95923
1157.556, 81.25984
1158.038, 77.03960
1158.520, 73.87769
1159.002, 71.34252
1159.484, 68.08365
1159.966, 64.65464
1160.448, 62.94697
1160.931, 63.63649
1161.413, 64.57976
1161.895, 65.65736
1162.377, 65.84798
1162.859, 64.33744
1163.341, 61.71177
1163.823, 60.37825
1164.305, 60.07978
1164.787, 59.61945
1165.270, 58.67212
1165.752, 57.32048
1166.234, 54.84575
1166.716, 52.72367
1167.198, 52.34336
1167.680, 53.43326
1168.162, 52.73730
1168.644, 50.41479
1169.126, 47.92059
1169.609, 45.68868
1170.091, 43.80996
1170.573, 42.54329
1171.055, 41.53485
1171.537, 40.50147
1172.019, 39.44695
1172.501, 37.49650
1172.983, 34.71590
1173.466, 32.15997
1173.948, 30.55183
1174.430, 29.22996
1174.912, 28.05606
1175.394, 26.89610
1175.876, 25.50695
1176.358, 23.90472
1176.840, 21.97371
1177.323, 19.69285
1177.805, 17.81024
1178.287, 17.50856
1178.769, 17.30913
1179.251, 15.79872
1179.733, 13.44632
1180.215, 11.59266
1180.697, 10.38962
1181.179, 8.927965
1181.661, 7.027004
1182.144, 5.754377
1182.626, 6.869291
1183.108, 8.428892
1183.590, 8.323023
1184.072, 6.876810
1184.554, 6.050093
1185.036, 6.053183
1185.518, 6.167213
1186.001, 6.364639
1186.483, 6.265306
1186.965, 4.869362
1187.447, 3.377241
1187.929, 3.315693
1188.411, 4.631933
1188.893, 5.377008
1189.375, 5.482033
1189.858, 4.842787
1190.340, 3.197253
1190.822, 1.610046
1191.304, 1.632143
1191.786, 2.303398
1192.268, 2.445415
1192.750, 1.902225
1193.232, 1.523483
1193.714, 1.499010
1194.197, 1.049234
1194.679, 0.3075610
1195.161, 1.531400
1195.643, 0.7684750
1196.125, 0.8439720
1196.607, 1.697026
1197.089, 1.413924
1197.571, 1.466207
1198.053, 2.104352
1198.536, 2.508675
1199.018, 2.326800
1199.500, 1.872160
1199.982, 1.873857
1200.464, 1.829404
1200.946, 0.6726560
1201.428, 2.438503
1201.910, 3.465486
1202.393, 1.527074
1202.875, 3.3236999E-02
1203.357, 0.7811920
1203.839, 2.226552
1204.321, 0.5430170
1204.803, 2.288836
1205.285, 2.529125
1205.767, 2.546427
1206.250, 4.251118
1206.732, 1.282393
1207.214, 1.694571
1207.696, 1.809096
1208.178, 0.5844810
1208.660, 0.5966750
1209.142, 1.276110
1209.624, 1.524933
1210.106, 0.6876380
1210.589, 0.3111700
1211.071, 0.6394280
1211.553, 0.7124260
1212.035, 0.6242500
1212.517, 2.196849
1212.999, 1.897413
1213.481, 0.3431670
1213.963, 1.144975
1214.445, 2.642635
1214.928, 3.231596
1215.410, 2.665525
1215.892, 1.998088
1216.374, 2.234606
1216.856, 2.699589
1217.338, 1.967393
1217.820, 0.6023280
1218.302, 1.8267000E-02
1218.785, 1.080161
1219.267, 1.848580
1219.749, 2.229463
1220.231, 2.462133
1220.713, 2.833599
1221.195, 3.122303
1221.677, 2.807562
1222.159, 2.144288
1222.641, 1.928195
1223.124, 2.795290
1223.606, 2.763327
1224.088, 1.463781
1224.570, 0.3858830
1225.052, 1.289358
1225.534, 2.869968
1226.016, 3.666196
1226.498, 3.671674
1226.980, 2.924146
1227.463, 0.9669800
1227.945, 0.2772830
1228.427, 0.6421550
1228.909, 0.3510970
1229.391, 1.147950
1229.873, 2.622668
1230.355, 2.080578
1230.837, 0.2117960
1231.320, 0.2216870
1231.802, 1.340667
1232.284, 2.887878
1232.766, 4.372438
1233.248, 5.311806
1233.730, 4.841684
1234.212, 4.007040
1234.694, 3.845944
1235.177, 4.209924
1235.659, 4.243508
1236.141, 3.762341
1236.623, 3.873275
1237.105, 4.799474
1237.587, 5.640892
1238.069, 5.630053
1238.551, 5.116390
1239.033, 4.118704
1239.516, 2.877920
1239.998, 2.177412
1240.480, 2.037332
1240.962, 2.493254
1241.444, 3.640572
1241.926, 4.523408
1242.408, 4.186251
1242.890, 3.409374
1243.372, 2.599160
1243.855, 1.868439
1244.337, 1.344361
1244.819, 1.015563
1245.301, 1.594035
1245.783, 3.248629
1246.265, 4.699026
1246.747, 4.850986
1247.229, 4.571354
1247.712, 4.235054
1248.194, 3.866440
1248.676, 3.376249
1249.158, 2.795973
1249.640, 2.648761
1250.122, 2.915471
1250.604, 3.362761
1251.086, 3.439180
1251.568, 3.558505
1252.051, 3.976779
1252.533, 4.553128
1253.015, 4.920672
1253.497, 4.991454
1253.979, 4.545581
1254.461, 2.973127
1254.943, 2.485965
1255.425, 4.768894
1255.907, 6.718102
1256.390, 6.141895
1256.872, 4.276064
1257.354, 3.929268
1257.836, 4.566545
1258.318, 4.207570
1258.800, 2.303666
1259.282, 1.140663
1259.764, 1.499746
1260.247, 1.975339
1260.729, 2.277142
1261.211, 2.397069
1261.693, 2.172319
1262.175, 1.890779
1262.657, 1.917752
1263.139, 2.312626
1263.621, 2.857509
1264.104, 3.657220
1264.586, 4.265032
1265.068, 4.671452
1265.550, 4.880957
1266.032, 4.726334
1266.514, 4.262504
1266.996, 4.408764
1267.478, 5.212382
1267.960, 5.135573
1268.443, 4.127932
1268.925, 3.410011
1269.407, 3.328475
1269.889, 3.497462
1270.371, 3.430547
1270.853, 3.357786
1271.335, 3.839303
1271.817, 4.759427
1272.299, 4.130057
1272.782, 1.486245
1273.264, 0.3765600
1273.746, 1.823767
1274.228, 3.592351
1274.710, 3.410455
1275.192, 2.750529
1275.674, 2.708260
1276.156, 3.191720
1276.639, 3.877707
1277.121, 4.756555
1277.603, 4.738618
1278.085, 3.498655
1278.567, 2.282897
1279.049, 1.975431
1279.531, 2.097980
1280.013, 2.471495
1280.495, 2.984413
1280.978, 3.334650
1281.460, 3.553072
1281.942, 3.768565
1282.424, 4.001077
1282.906, 4.496663
1283.388, 6.182190
1283.870, 7.106161
1284.352, 6.365646
1284.834, 4.754020
1285.317, 3.768514
1285.799, 3.221110
1286.281, 2.419297
1286.763, 1.278499
1287.245, 0.9475670
1287.727, 2.781770
1288.209, 3.944210
1288.691, 3.768276
1289.173, 2.730812
1289.656, 0.8393160
1290.138, 0.9868670
1290.620, 0.7393670
1291.102, 1.573264
1291.584, 2.689587
1292.066, 1.855083
1292.548, 1.246879
1293.030, 1.252208
1293.513, 1.627225
1293.995, 2.455410
1294.477, 3.241341
1294.959, 3.178201
1295.441, 2.513620
1295.923, 3.041065
1296.405, 5.024014
1296.887, 5.669609
1297.370, 3.771384
1297.852, 2.061348
1298.334, 3.036073
1298.816, 4.432440
1299.298, 5.251663
1299.780, 5.508882
1300.262, 5.118213
1300.744, 4.120482
1301.226, 3.334925
1301.708, 2.776378
1302.191, 2.156933
1302.673, 1.119064
1303.155, 0.3407720
1303.637, 1.6356001E-02
1304.119, 0.0000000E+00
##END=



