##NAMES=Sanidine
##RRUFFID=R060313
##IDEAL CHEMISTRY=KAlSi_3_O_8_
##LOCALITY=Eifel Mountains, Rhineland-Palatinate, Germany
##OWNER=RRUFF
##SOURCE=Herb Obodda
##DESCRIPTION=Pale yellow transparent cleavage fragment. Crystal structure given below.
##STATUS=The identification of this mineral has been confirmed by X-ray diffraction and chemical analysis
##URL=rruff.info/R060313
##MEASURED CHEMISTRY=(K_0.85_Na_0.14_Ba_0.01_)_Î£=1_Al_1.04_Si_2.96_O_8_
90.49219, 0.0000000E+00
90.97430, 2.6695000E-02
91.45642, 7.4363999E-02
91.93854, 0.2336040
92.42065, 0.8795930
92.90277, 1.973261
93.38489, 3.658243
93.86700, 5.132683
94.34912, 5.117235
94.83124, 3.670525
95.31335, 2.473232
95.79547, 2.868366
96.27759, 4.417917
96.75970, 5.213144
97.24182, 4.693087
97.72394, 3.643263
98.20605, 3.865068
98.68817, 5.466305
99.17029, 7.551359
99.65240, 9.734559
100.1345, 12.15131
100.6166, 13.79818
101.0988, 14.17133
101.5809, 13.43320
102.0630, 13.00936
102.5451, 12.99988
103.0272, 13.13818
103.5093, 13.10815
103.9915, 12.69014
104.4736, 12.42129
104.9557, 12.57090
105.4378, 13.34783
105.9199, 14.18968
106.4020, 14.75441
106.8842, 14.94125
107.3663, 15.56036
107.8484, 16.27695
108.3305, 16.92691
108.8126, 17.96451
109.2947, 19.80776
109.7769, 21.55450
110.2590, 22.82966
110.7411, 23.90271
111.2232, 24.13849
111.7053, 24.03477
112.1874, 24.08635
112.6696, 23.83911
113.1517, 23.30668
113.6338, 22.65841
114.1159, 22.01772
114.5980, 21.34842
115.0801, 20.39443
115.5623, 18.68090
116.0444, 16.85798
116.5265, 15.43101
117.0086, 14.85468
117.4907, 14.40638
117.9728, 13.87966
118.4550, 13.26746
118.9371, 12.48593
119.4192, 11.40866
119.9013, 10.16811
120.3834, 8.929604
120.8655, 7.344097
121.3477, 6.045928
121.8298, 5.784175
122.3119, 6.851099
122.7940, 7.621368
123.2761, 6.522389
123.7582, 4.224568
124.2404, 2.221495
124.7225, 1.575965
125.2046, 1.575602
125.6867, 1.373871
126.1688, 0.8557670
126.6509, 0.1009750
127.1331, 1.082715
127.6152, 2.561263
128.0973, 3.667421
128.5794, 3.690724
129.0615, 2.994507
129.5436, 2.473122
130.0258, 2.430725
130.5079, 2.529066
130.9900, 1.993258
131.4721, 0.8333990
131.9542, 0.2373220
132.4363, 0.4014320
132.9185, 0.1930560
133.4006, 0.5468370
133.8827, 0.4757710
134.3648, 4.7194000E-02
134.8469, 1.170584
135.3290, 2.898930
135.8112, 5.221889
136.2933, 8.016874
136.7754, 11.27506
137.2575, 15.32895
137.7396, 20.59265
138.2217, 26.92310
138.7039, 32.76736
139.1860, 37.81302
139.6681, 42.88876
140.1502, 49.50965
140.6323, 57.93119
141.1144, 66.80829
141.5966, 75.68786
142.0787, 84.48240
142.5608, 93.47470
143.0429, 102.6810
143.5250, 112.0509
144.0071, 121.4446
144.4893, 130.8538
144.9714, 140.1589
145.4535, 148.8947
145.9356, 155.5457
146.4177, 164.9499
146.8998, 178.1724
147.3820, 194.3369
147.8641, 210.4211
148.3462, 225.7273
148.8283, 241.6134
149.3104, 259.0487
149.7925, 276.5972
150.2747, 297.4977
150.7568, 322.5517
151.2389, 351.4517
151.7210, 380.7408
152.2031, 409.2779
152.6852, 438.5737
153.1674, 469.9018
153.6495, 504.5515
154.1316, 539.6699
154.6137, 575.7092
155.0958, 612.7096
155.5779, 647.3989
156.0601, 678.2538
156.5422, 707.2423
157.0243, 735.6634
157.5064, 766.9836
157.9885, 794.7794
158.4706, 816.3031
158.9528, 830.8164
159.4349, 844.6202
159.9170, 859.3391
160.3991, 874.1982
160.8812, 888.3022
161.3633, 902.9473
161.8455, 915.5389
162.3276, 925.0031
162.8097, 931.0100
163.2918, 934.3956
163.7739, 933.9058
164.2560, 930.0574
164.7382, 919.3043
165.2203, 909.5624
165.7024, 899.6244
166.1845, 887.3292
166.6666, 872.1053
167.1487, 855.6342
167.6309, 838.8800
168.1130, 821.3907
168.5951, 802.4860
169.0772, 780.1099
169.5593, 756.9504
170.0414, 735.4351
170.5236, 716.4147
171.0057, 697.8746
171.4878, 678.5129
171.9699, 658.2346
172.4520, 637.2065
172.9341, 615.1787
173.4163, 592.3867
173.8984, 569.0243
174.3805, 544.6025
174.8626, 520.2503
175.3447, 496.1548
175.8268, 472.4157
176.3090, 449.2606
176.7911, 426.3920
177.2732, 404.4184
177.7553, 384.5975
178.2374, 367.6394
178.7195, 352.3601
179.2017, 337.0490
179.6838, 321.7153
180.1659, 307.7169
180.6480, 296.3444
181.1301, 286.9524
181.6122, 277.7889
182.0944, 267.9981
182.5765, 258.4716
183.0586, 250.6085
183.5407, 244.4996
184.0228, 239.1095
184.5049, 233.6167
184.9871, 228.0838
185.4692, 223.0262
185.9513, 218.5211
186.4334, 214.6913
186.9155, 211.7716
187.3976, 209.7998
187.8798, 208.2193
188.3619, 206.3540
188.8440, 204.3466
189.3261, 202.9519
189.8082, 202.2312
190.2903, 202.2363
190.7725, 203.6299
191.2546, 206.6654
191.7367, 210.0064
192.2188, 212.0305
192.7009, 212.8566
193.1830, 213.8504
193.6652, 215.9686
194.1473, 218.8137
194.6294, 219.7862
195.1115, 218.7035
195.5936, 216.3925
196.0757, 214.3559
196.5579, 212.6782
197.0400, 209.0407
197.5221, 202.1727
198.0042, 192.2826
198.4863, 181.5630
198.9684, 169.8135
199.4506, 157.7740
199.9327, 146.6901
200.4148, 136.5630
200.8969, 126.8838
201.3790, 117.2453
201.8611, 107.6600
202.3433, 98.89848
202.8254, 90.99746
203.3075, 83.81548
203.7896, 77.12613
204.2717, 70.79526
204.7538, 65.41173
205.2360, 61.59598
205.7181, 59.59999
206.2002, 56.71187
206.6823, 52.59996
207.1644, 47.99635
207.6465, 44.30318
208.1287, 41.75661
208.6108, 39.39593
209.0929, 36.80746
209.5750, 33.92530
210.0571, 31.08902
210.5392, 28.14349
211.0214, 25.36823
211.5035, 23.42938
211.9856, 22.57248
212.4677, 21.91307
212.9498, 21.12477
213.4319, 20.25435
213.9140, 19.02302
214.3962, 17.21631
214.8783, 15.17904
215.3604, 13.82548
215.8425, 13.48044
216.3246, 13.06177
216.8067, 11.90309
217.2889, 9.541664
217.7710, 8.114883
218.2531, 8.008942
218.7352, 8.668030
219.2173, 8.745987
219.6994, 8.011353
220.1816, 7.134430
220.6637, 6.454987
221.1458, 6.162216
221.6279, 5.500168
222.1100, 4.339294
222.5921, 2.854889
223.0743, 1.414001
223.5564, 0.1473240
224.0385, 1.356857
224.5206, 1.900482
225.0027, 1.449982
225.4848, 1.222198
225.9670, 1.286499
226.4491, 1.568283
226.9312, 1.870972
227.4133, 2.163498
227.8954, 2.528931
228.3775, 3.084015
228.8597, 4.154404
229.3418, 4.580887
229.8239, 4.020035
230.3060, 2.900345
230.7881, 2.537140
231.2702, 3.623322
231.7524, 4.409332
232.2345, 3.943649
232.7166, 1.221451
233.1987, 0.3822020
233.6808, 0.4116520
234.1629, 0.5702670
234.6451, 1.089981
235.1272, 1.061234
235.6093, 0.6898040
236.0914, 8.1789996E-03
236.5735, 1.347519
237.0556, 2.248627
237.5378, 2.300308
238.0199, 2.038666
238.5020, 2.927307
238.9841, 5.812531
239.4662, 8.623215
239.9483, 10.43982
240.4305, 10.73320
240.9126, 11.19116
241.3947, 11.64291
241.8768, 12.30733
242.3589, 13.82445
242.8410, 16.76660
243.3232, 19.67004
243.8053, 21.75323
244.2874, 22.21207
244.7695, 23.89594
245.2516, 27.47261
245.7337, 32.02036
246.2159, 35.38475
246.6980, 36.75647
247.1801, 38.22537
247.6622, 40.62837
248.1443, 44.24809
248.6264, 48.05559
249.1086, 52.10721
249.5907, 56.34669
250.0728, 60.64680
250.5549, 64.94823
251.0370, 69.41348
251.5191, 74.19771
252.0013, 79.45869
252.4834, 84.29567
252.9655, 88.28380
253.4476, 92.04938
253.9297, 96.84099
254.4118, 103.1803
254.8940, 109.4543
255.3761, 114.9659
255.8582, 119.3840
256.3403, 124.4971
256.8224, 130.5320
257.3046, 137.0917
257.7867, 143.3699
258.2688, 149.2624
258.7509, 155.2037
259.2330, 161.1612
259.7151, 167.0393
260.1973, 173.8380
260.6794, 181.7929
261.1615, 190.3065
261.6436, 198.2434
262.1257, 205.3556
262.6078, 212.6361
263.0900, 220.1765
263.5721, 227.9769
264.0542, 236.8256
264.5363, 247.4080
265.0184, 258.3064
265.5005, 267.9450
265.9827, 275.7936
266.4648, 283.6363
266.9469, 291.6974
267.4290, 299.9141
267.9111, 309.3714
268.3932, 320.3444
268.8754, 332.0236
269.3575, 343.3892
269.8396, 354.3354
270.3217, 365.7622
270.8038, 377.8692
271.2859, 390.7428
271.7681, 403.9385
272.2502, 417.3244
272.7323, 431.3016
273.2144, 446.0105
273.6965, 461.6210
274.1786, 477.4162
274.6608, 493.6277
275.1429, 510.0292
275.6250, 525.3381
276.1071, 539.2465
276.5892, 552.9044
277.0714, 567.1841
277.5535, 582.2988
278.0356, 596.7969
278.5177, 610.6005
278.9998, 623.5517
279.4819, 635.0202
279.9641, 645.1601
280.4462, 653.6727
280.9283, 660.6905
281.4104, 666.2029
281.8925, 668.6710
282.3746, 667.2586
282.8568, 663.1644
283.3389, 660.4446
283.8210, 659.5761
284.3031, 656.2685
284.7852, 646.5241
285.2673, 630.7525
285.7495, 615.0608
286.2316, 600.5341
286.7137, 585.8838
287.1958, 568.0002
287.6779, 546.8151
288.1600, 525.3298
288.6422, 506.0473
289.1243, 488.2171
289.6064, 468.1039
290.0885, 444.8433
290.5706, 420.2075
291.0527, 396.2402
291.5349, 372.9776
292.0170, 351.1366
292.4991, 331.8885
292.9812, 314.5427
293.4633, 297.2277
293.9454, 279.6587
294.4276, 262.4301
294.9097, 246.5238
295.3918, 231.7989
295.8739, 217.8507
296.3560, 204.9547
296.8381, 192.6841
297.3203, 180.1330
297.8024, 167.2321
298.2845, 154.9501
298.7666, 144.4629
299.2487, 135.5547
299.7308, 127.2485
300.2130, 119.3217
300.6951, 111.6949
301.1772, 104.0832
301.6593, 96.52049
302.1414, 89.33849
302.6235, 82.98604
303.1057, 77.26907
303.5878, 71.97746
304.0699, 67.16444
304.5520, 62.56131
305.0341, 57.78229
305.5162, 52.88208
305.9984, 48.11157
306.4805, 43.58350
306.9626, 39.35341
307.4447, 35.63684
307.9268, 32.46622
308.4089, 29.69301
308.8911, 27.26315
309.3732, 25.17348
309.8553, 23.24634
310.3374, 21.47005
310.8195, 19.77135
311.3016, 18.09096
311.7838, 16.43306
312.2659, 14.80322
312.7480, 13.15450
313.2301, 11.54187
313.7122, 10.07489
314.1943, 8.673462
314.6765, 7.495010
315.1586, 6.690491
315.6407, 6.395325
316.1228, 6.157974
316.6049, 5.632614
317.0870, 5.065140
317.5692, 4.879486
318.0513, 5.676804
318.5334, 6.439636
319.0155, 6.571198
319.4976, 5.969482
319.9797, 5.440887
320.4619, 5.319199
320.9440, 5.314911
321.4261, 5.110092
321.9082, 4.415741
322.3903, 3.821762
322.8724, 3.559189
323.3546, 3.651230
323.8367, 3.793793
324.3188, 4.088455
324.8009, 4.326279
325.2830, 4.347260
325.7651, 3.559662
326.2473, 3.067612
326.7294, 3.207016
327.2115, 3.933899
327.6936, 4.508743
328.1757, 4.864822
328.6578, 5.078011
329.1400, 5.177742
329.6221, 5.128311
330.1042, 4.970589
330.5863, 4.536079
331.0684, 3.997093
331.5505, 3.874580
332.0327, 4.541695
332.5148, 5.204201
332.9969, 5.471886
333.4790, 4.929955
333.9611, 5.032143
334.4432, 6.319084
334.9254, 7.983147
335.4075, 8.586769
335.8896, 7.735352
336.3717, 6.608276
336.8538, 5.489052
337.3359, 4.342613
337.8180, 3.468163
338.3001, 2.776199
338.7823, 2.474297
339.2644, 3.008896
339.7465, 4.655701
340.2286, 5.977036
340.7107, 6.651855
341.1928, 6.712791
341.6750, 6.287712
342.1571, 5.264862
342.6392, 4.133629
343.1213, 3.197037
343.6034, 2.462006
344.0855, 2.086784
344.5677, 2.164497
345.0498, 2.555389
345.5319, 3.075043
346.0140, 3.738983
346.4961, 4.097252
346.9782, 3.695755
347.4604, 2.685486
347.9425, 1.778252
348.4246, 0.9856800
348.9067, 0.4402240
349.3888, 0.3991550
349.8709, 0.8071060
350.3531, 1.351822
350.8352, 2.090408
351.3173, 2.815308
351.7994, 3.057602
352.2815, 2.772804
352.7636, 2.345284
353.2458, 1.974358
353.7279, 1.753479
354.2100, 1.888336
354.6921, 2.758301
355.1742, 3.754242
355.6563, 4.362144
356.1385, 4.595581
356.6206, 4.463638
357.1027, 3.406364
357.5848, 2.156937
358.0669, 1.634453
358.5490, 2.592064
359.0312, 3.581406
359.5133, 3.279869
359.9954, 2.141830
360.4775, 1.625839
360.9596, 3.306213
361.4417, 5.232750
361.9239, 6.091469
362.4060, 5.522354
362.8881, 4.574448
363.3702, 3.319794
363.8523, 1.974785
364.3344, 0.8649670
364.8166, 0.2387620
365.2987, 0.8675230
365.7808, 0.5404430
366.2629, 0.9144670
366.7450, 1.824234
367.2271, 1.588272
367.7093, 0.9543080
368.1914, 0.4801640
368.6735, 0.2941360
369.1556, 5.1360998E-02
369.6377, 0.6461640
370.1198, 1.378616
370.6020, 1.796165
371.0841, 1.787987
371.5662, 1.601715
372.0483, 1.336319
372.5304, 0.8395460
373.0125, 0.5499040
373.4947, 0.4984440
373.9768, 0.6506580
374.4589, 0.9949650
374.9410, 1.743126
375.4231, 2.244476
375.9052, 2.137085
376.3874, 1.289749
376.8695, 0.9671780
377.3516, 1.423439
377.8337, 1.974281
378.3158, 1.615730
378.7979, 0.1860500
379.2801, 0.9503480
379.7622, 1.421066
380.2443, 1.312767
380.7264, 0.9230270
381.2085, 0.2134400
381.6906, 0.4918440
382.1728, 1.045120
382.6549, 1.410400
383.1370, 1.216850
383.6191, 0.2073820
384.1012, 1.036530
384.5833, 1.497856
385.0655, 1.256813
385.5476, 0.9378430
386.0297, 0.7833330
386.5118, 0.8208080
386.9939, 1.165115
387.4760, 1.864250
387.9582, 2.597595
388.4403, 3.214523
388.9224, 3.642624
389.4045, 3.736130
389.8866, 2.766975
390.3687, 1.899834
390.8509, 2.521027
391.3330, 4.474838
391.8151, 6.012299
392.2972, 5.690819
392.7793, 4.627190
393.2614, 3.893051
393.7436, 3.952835
394.2257, 4.130875
394.7078, 4.030632
395.1899, 3.824265
395.6720, 3.963844
396.1541, 5.059135
396.6363, 6.162575
397.1184, 6.723152
397.6005, 6.381149
398.0826, 6.458191
398.5647, 7.726524
399.0468, 9.324127
399.5290, 10.20618
400.0111, 9.286415
400.4932, 8.746994
400.9753, 9.135971
401.4574, 10.45102
401.9395, 11.39932
402.4217, 11.88764
402.9038, 12.11607
403.3859, 12.23647
403.8680, 12.36177
404.3501, 12.05853
404.8322, 11.08652
405.3144, 9.767578
405.7965, 9.105240
406.2786, 9.364616
406.7607, 9.382767
407.2428, 8.419044
407.7249, 6.418777
408.2071, 5.197716
408.6892, 4.859497
409.1713, 4.964828
409.6534, 5.237175
410.1355, 5.636024
410.6176, 5.332428
411.0998, 3.711525
411.5819, 1.469872
412.0640, 0.4025270
412.5461, 0.4792180
413.0282, 0.6984790
413.5103, 0.2796940
413.9925, 0.5428310
414.4746, 1.302246
414.9567, 1.925896
415.4388, 2.466393
415.9209, 3.067368
416.4030, 3.640289
416.8852, 3.981102
417.3673, 3.935356
417.8494, 3.643562
418.3315, 3.050110
418.8136, 2.150909
419.2957, 1.569298
419.7779, 1.868423
420.2600, 2.574219
420.7421, 3.207771
421.2242, 3.760162
421.7063, 4.088898
422.1884, 4.072945
422.6706, 3.826599
423.1527, 3.611610
423.6348, 3.261414
424.1169, 2.995003
424.5990, 3.090012
425.0811, 4.089996
425.5633, 4.307625
426.0454, 3.034668
426.5275, 1.228378
427.0096, 0.1449280
427.4917, 0.5506440
427.9738, 0.5500410
428.4560, 0.4723590
428.9381, 2.482918
429.4202, 3.774338
429.9023, 3.948227
430.3844, 4.129562
430.8665, 5.225586
431.3487, 7.430229
431.8308, 9.145203
432.3129, 9.967987
432.7950, 10.52857
433.2771, 12.46257
433.7592, 15.85686
434.2414, 18.95212
434.7235, 20.37343
435.2056, 20.66151
435.6877, 22.39068
436.1698, 25.69661
436.6519, 29.44905
437.1341, 32.24287
437.6162, 34.41989
438.0983, 37.08185
438.5804, 40.71865
439.0625, 44.64294
439.5446, 47.83623
440.0268, 50.58990
440.5089, 53.94363
440.9910, 59.11910
441.4731, 64.89625
441.9552, 70.24429
442.4373, 74.88477
442.9195, 79.31039
443.4016, 83.18453
443.8837, 87.17975
444.3658, 92.11446
444.8479, 98.98741
445.3300, 106.1097
445.8122, 113.0827
446.2943, 119.8462
446.7764, 126.6033
447.2585, 133.3805
447.7406, 140.1249
448.2227, 146.8683
448.7049, 153.7387
449.1870, 160.3993
449.6691, 166.9830
450.1512, 173.2162
450.6333, 178.4844
451.1154, 182.4898
451.5976, 186.2720
452.0797, 190.0911
452.5618, 193.9315
453.0439, 197.3949
453.5260, 200.4170
454.0081, 203.0782
454.4903, 205.6211
454.9724, 208.0062
455.4545, 209.1183
455.9366, 208.5682
456.4187, 207.1978
456.9008, 206.1209
457.3830, 205.3762
457.8651, 205.3308
458.3472, 206.9028
458.8293, 209.0496
459.3114, 209.4232
459.7935, 208.0324
460.2757, 207.2005
460.7578, 209.1954
461.2399, 212.7903
461.7220, 216.1866
462.2041, 218.4454
462.6862, 221.2746
463.1684, 225.5150
463.6505, 231.1782
464.1326, 238.2007
464.6147, 246.8090
465.0968, 256.6067
465.5789, 267.3118
466.0611, 278.9246
466.5432, 291.2385
467.0253, 304.2934
467.5074, 317.8935
467.9895, 331.8119
468.4716, 346.1142
468.9538, 360.9483
469.4359, 376.8581
469.9180, 393.1588
470.4001, 407.8618
470.8822, 421.0860
471.3643, 432.3243
471.8465, 441.4293
472.3286, 448.4507
472.8107, 453.1566
473.2928, 455.7578
473.7749, 455.5020
474.2570, 451.1036
474.7392, 442.6011
475.2213, 432.2306
475.7034, 420.2948
476.1855, 407.0324
476.6676, 392.8119
477.1497, 377.5619
477.6319, 361.4915
478.1140, 343.8009
478.5961, 325.5001
479.0782, 308.2929
479.5603, 292.3348
480.0424, 277.0226
480.5246, 261.5212
481.0067, 246.4419
481.4888, 232.5906
481.9709, 219.7173
482.4530, 208.5170
482.9352, 199.8130
483.4173, 193.1678
483.8994, 187.1344
484.3815, 181.2316
484.8636, 175.7793
485.3457, 170.7827
485.8279, 166.0674
486.3100, 162.4870
486.7921, 160.5722
487.2742, 159.5466
487.7563, 158.7530
488.2384, 158.1215
488.7206, 157.8151
489.2027, 157.6675
489.6848, 157.8819
490.1669, 159.3177
490.6490, 162.2232
491.1311, 165.5592
491.6133, 168.5666
492.0954, 171.2813
492.5775, 175.3982
493.0596, 180.9550
493.5417, 187.7027
494.0238, 195.4523
494.5060, 204.1848
494.9881, 213.6741
495.4702, 223.6283
495.9523, 234.5513
496.4344, 246.5909
496.9165, 259.9812
497.3987, 275.4754
497.8808, 294.3927
498.3629, 315.1965
498.8450, 336.0447
499.3271, 356.9053
499.8092, 379.9448
500.2914, 406.4982
500.7735, 435.8123
501.2556, 467.8915
501.7377, 502.3457
502.2198, 539.4548
502.7019, 579.4521
503.1841, 622.3255
503.6662, 668.2003
504.1483, 715.8095
504.6304, 768.6511
505.1125, 827.6484
505.5946, 893.0571
506.0768, 961.6863
506.5589, 1032.787
507.0410, 1107.432
507.5231, 1186.996
508.0052, 1271.648
508.4873, 1358.855
508.9695, 1447.707
509.4516, 1537.547
509.9337, 1628.647
510.4158, 1720.547
510.8979, 1805.293
511.3800, 1883.297
511.8622, 1951.264
512.3443, 2005.208
512.8264, 2044.353
513.3085, 2062.916
513.7906, 2054.115
514.2728, 2022.829
514.7549, 1974.877
515.2370, 1910.753
515.7191, 1832.039
516.2012, 1732.718
516.6833, 1621.253
517.1655, 1509.022
517.6476, 1396.723
518.1297, 1287.383
518.6118, 1180.471
519.0939, 1076.490
519.5760, 980.1134
520.0582, 893.5450
520.5403, 814.2516
521.0224, 742.5546
521.5045, 678.9792
521.9866, 620.1478
522.4688, 565.6913
522.9509, 516.3568
523.4330, 472.6364
523.9151, 434.9150
524.3972, 400.6708
524.8793, 369.9817
525.3615, 342.3597
525.8436, 316.0292
526.3257, 290.9060
526.8078, 268.0455
527.2899, 248.1345
527.7720, 230.6179
528.2542, 214.6182
528.7363, 200.1642
529.2184, 186.9353
529.7005, 175.2581
530.1826, 164.6337
530.6647, 154.4058
531.1469, 144.3938
531.6290, 134.8969
532.1111, 126.2656
532.5932, 118.3359
533.0753, 110.8053
533.5574, 103.3340
534.0396, 96.43658
534.5217, 90.15125
535.0038, 84.55535
535.4859, 79.65007
535.9680, 75.99297
536.4501, 72.51524
536.9323, 68.56896
537.4144, 63.79944
537.8965, 59.47888
538.3786, 55.75865
538.8607, 52.33404
539.3428, 48.77141
539.8250, 45.00012
540.3071, 41.52948
540.7892, 38.66005
541.2713, 36.08846
541.7534, 32.90498
542.2355, 29.22147
542.7177, 26.22333
543.1998, 25.19940
543.6819, 25.08996
544.1640, 24.30877
544.6461, 22.73578
545.1282, 20.75947
545.6104, 18.20935
546.0925, 15.63650
546.5746, 13.66093
547.0567, 12.89138
547.5388, 12.08395
548.0209, 10.72285
548.5031, 9.057388
548.9852, 7.586960
549.4673, 6.648529
549.9494, 5.641312
550.4315, 4.267067
550.9136, 2.527260
551.3958, 1.465919
551.8779, 1.389732
552.3600, 1.466736
552.8421, 1.174408
553.3242, 0.4821400
553.8063, 0.3363110
554.2885, 1.360069
554.7706, 2.257980
555.2527, 2.425346
555.7348, 1.990974
556.2169, 1.753304
556.6990, 1.984207
557.1812, 2.468719
557.6633, 3.042320
558.1454, 3.639236
558.6275, 4.027252
559.1096, 3.901726
559.5917, 3.646240
560.0739, 3.602882
560.5560, 3.791565
561.0381, 3.883247
561.5202, 3.500458
562.0023, 3.115021
562.4844, 3.101868
562.9666, 4.102249
563.4487, 4.577507
563.9308, 4.189476
564.4129, 3.354828
564.8950, 2.640160
565.3771, 1.891441
565.8593, 1.672180
566.3414, 2.383148
566.8235, 3.686974
567.3056, 3.983849
567.7877, 3.157761
568.2698, 2.145386
568.7520, 1.500229
569.2341, 1.126328
569.7162, 0.6350020
570.1983, 1.1307000E-02
570.6804, 0.6435850
571.1625, 1.371201
571.6447, 2.029335
572.1268, 2.311874
572.6089, 1.887360
573.0910, 1.640831
573.5731, 2.491211
574.0552, 3.852188
574.5374, 4.710777
575.0195, 3.953186
575.5016, 3.430725
575.9837, 3.995003
576.4658, 5.538933
576.9479, 6.566368
577.4301, 6.941368
577.9122, 6.911682
578.3943, 6.470329
578.8764, 5.482330
579.3585, 4.862534
579.8406, 4.648399
580.3228, 4.717659
580.8049, 5.246765
581.2870, 6.167572
581.7691, 5.932320
582.2512, 3.769699
582.7333, 1.557793
583.2155, 3.101257
583.6975, 7.117805
584.1796, 9.633530
584.6617, 7.405586
585.1439, 3.851753
585.6260, 1.870674
586.1081, 1.270096
586.5902, 1.029366
587.0723, 0.7675700
587.5544, 0.6526870
588.0366, 0.8369060
588.5187, 1.442909
589.0008, 1.909248
589.4829, 2.192886
589.9650, 2.267082
590.4471, 2.055466
590.9293, 1.231781
591.4114, 0.9611820
591.8935, 1.539848
592.3756, 2.464455
592.8577, 2.706940
593.3398, 2.210304
593.8220, 2.036682
594.3041, 2.774147
594.7862, 3.863289
595.2683, 3.881134
595.7504, 2.951561
596.2325, 1.963554
596.7147, 1.402458
597.1968, 1.129005
597.6789, 1.040306
598.1610, 1.133278
598.6431, 1.189224
599.1252, 0.8940660
599.6074, 0.6259690
600.0895, 0.7169720
600.5716, 1.498222
601.0537, 2.174522
601.5358, 2.764397
602.0179, 3.124336
602.5001, 3.000534
602.9822, 1.997963
603.4643, 1.308594
603.9464, 1.150864
604.4285, 1.423080
604.9106, 1.896038
605.3928, 2.614494
605.8749, 3.157402
606.3570, 3.242348
606.8391, 2.981453
607.3212, 2.726879
607.8033, 2.487732
608.2855, 2.349854
608.7676, 2.447186
609.2497, 2.656090
609.7318, 2.842415
610.2139, 2.997231
610.6960, 3.087135
611.1782, 3.018570
611.6603, 2.904812
612.1424, 2.845753
612.6245, 2.815315
613.1066, 2.878128
613.5887, 3.267849
614.0709, 3.751492
614.5530, 3.818073
615.0351, 3.276604
615.5172, 2.731308
615.9993, 2.207279
616.4814, 1.743233
616.9636, 1.827995
617.4457, 2.535915
617.9278, 3.255661
618.4099, 3.585609
618.8920, 3.657505
619.3741, 3.758060
619.8563, 3.815857
620.3384, 3.819046
620.8205, 3.665977
621.3026, 3.474594
621.7847, 3.399601
622.2668, 3.376198
622.7490, 3.558792
623.2311, 4.212475
623.7132, 5.014141
624.1953, 5.550961
624.6774, 5.797680
625.1595, 5.700382
625.6417, 5.111179
626.1238, 4.303493
626.6059, 3.983406
627.0880, 4.209801
627.5701, 4.569977
628.0522, 4.948868
628.5344, 5.339134
629.0165, 5.595852
629.4986, 5.717438
629.9807, 6.032047
630.4628, 7.132549
630.9449, 8.563766
631.4271, 9.283127
631.9092, 9.148712
632.3913, 8.772602
632.8734, 8.432175
633.3555, 8.185024
633.8376, 8.100185
634.3198, 8.393658
634.8019, 8.457447
635.2840, 7.865959
635.7661, 7.064106
636.2482, 6.642296
636.7303, 6.824013
637.2125, 7.008747
637.6946, 7.189804
638.1767, 7.300350
638.6588, 7.102764
639.1409, 6.535965
639.6230, 5.930851
640.1052, 5.328285
640.5873, 4.812050
641.0694, 4.767883
641.5515, 5.149227
642.0336, 5.421120
642.5157, 5.099941
642.9979, 4.533512
643.4800, 4.107468
643.9621, 3.848682
644.4442, 3.670082
644.9263, 3.683731
645.4084, 3.660255
645.8906, 3.383350
646.3727, 2.412140
646.8548, 1.973698
647.3369, 2.427036
647.8190, 3.214855
648.3011, 3.694946
648.7833, 3.807819
649.2654, 3.726856
649.7475, 3.448421
650.2296, 3.076710
650.7117, 2.793449
651.1938, 2.597065
651.6760, 2.514683
652.1581, 2.592800
652.6402, 2.769825
653.1223, 2.980328
653.6044, 3.217403
654.0865, 3.446190
654.5687, 3.697548
655.0508, 3.890491
655.5329, 3.970833
656.0150, 3.940010
656.4971, 3.857517
656.9792, 3.762371
657.4614, 3.565395
657.9435, 3.202705
658.4256, 2.592144
658.9077, 2.234871
659.3898, 2.168533
659.8719, 2.257088
660.3541, 2.339859
660.8362, 2.398731
661.3183, 2.726990
661.8004, 3.515366
662.2825, 4.197975
662.7646, 3.727901
663.2468, 2.556553
663.7289, 1.783638
664.2110, 2.064285
664.6931, 2.523670
665.1752, 2.563709
665.6573, 2.316689
666.1395, 2.101788
666.6216, 2.162312
667.1037, 2.136082
667.5858, 1.840542
668.0679, 1.321384
668.5500, 0.8851200
669.0322, 0.4404490
669.5143, 0.2477300
669.9964, 0.5717890
670.4785, 1.354767
670.9606, 1.575195
671.4427, 1.201488
671.9249, 0.6388020
672.4070, 7.7439998E-03
672.8891, 0.5848810
673.3712, 0.6482350
673.8533, 0.1162570
674.3354, 0.4468000
674.8176, 0.8009870
675.2997, 0.9403800
675.7818, 0.7715030
676.2639, 0.1446460
676.7460, 0.6177640
677.2281, 0.2687420
677.7103, 1.463234
678.1924, 1.621708
678.6745, 9.4414003E-02
679.1566, 1.043606
679.6387, 1.481873
680.1208, 1.428604
680.6030, 1.268635
681.0851, 1.004597
681.5672, 0.7877390
682.0493, 0.6472850
682.5314, 0.6125260
683.0135, 0.8615800
683.4957, 1.301388
683.9778, 1.551617
684.4599, 1.366047
684.9420, 0.9530220
685.4241, 0.2722020
685.9063, 0.6168210
686.3884, 1.112617
686.8705, 0.9358140
687.3526, 0.4221530
687.8347, 0.4042930
688.3168, 1.665623
688.7990, 2.310120
689.2811, 2.197327
689.7632, 1.807625
690.2453, 1.509693
690.7274, 1.284615
691.2095, 0.8350910
691.6917, 9.5650002E-02
692.1738, 0.5180590
692.6559, 0.2761120
693.1380, 0.3299290
693.6201, 0.3666990
694.1022, 0.6529500
694.5844, 1.491074
695.0665, 1.044575
695.5486, 0.1333690
696.0307, 0.1924670
696.5128, 1.043938
696.9949, 1.902435
697.4771, 1.913902
697.9592, 1.566864
698.4413, 1.993950
698.9234, 3.562260
699.4055, 4.351807
699.8876, 3.534569
700.3698, 1.919502
700.8519, 1.708317
701.3340, 2.704163
701.8161, 3.615776
702.2982, 3.543304
702.7803, 3.197327
703.2625, 3.241600
703.7446, 3.672276
704.2267, 4.428188
704.7088, 6.088737
705.1909, 7.578186
705.6730, 8.203861
706.1552, 7.841919
706.6373, 7.731056
707.1194, 7.946842
707.6015, 8.313660
708.0836, 8.745731
708.5657, 9.241585
709.0479, 9.846054
709.5300, 10.59399
710.0121, 11.24420
710.4942, 11.58992
710.9763, 11.66593
711.4584, 11.44427
711.9406, 10.85594
712.4227, 10.49678
712.9048, 11.01820
713.3869, 11.88689
713.8690, 12.55122
714.3511, 12.80914
714.8333, 12.99164
715.3154, 13.10396
715.7975, 13.19500
716.2796, 13.31888
716.7617, 13.49397
717.2438, 13.67336
717.7260, 13.88795
718.2081, 14.05244
718.6902, 13.85704
719.1723, 13.38750
719.6544, 13.35159
720.1365, 14.20481
720.6187, 15.20581
721.1008, 15.51974
721.5829, 15.29659
722.0650, 14.91228
722.5471, 14.08133
723.0292, 13.56297
723.5114, 13.90680
723.9935, 14.89783
724.4756, 15.58988
724.9577, 15.78308
725.4398, 15.90648
725.9219, 16.00193
726.4041, 16.11787
726.8862, 16.71570
727.3683, 17.88272
727.8504, 18.66860
728.3325, 18.11488
728.8146, 16.92503
729.2968, 16.73874
729.7789, 17.45149
730.2610, 18.07334
730.7431, 17.69263
731.2252, 17.22472
731.7073, 17.42740
732.1895, 18.41117
732.6716, 19.28903
733.1537, 19.95240
733.6358, 20.40599
734.1179, 20.54798
734.6000, 20.27363
735.0822, 20.40547
735.5643, 20.95110
736.0464, 21.70331
736.5285, 22.50396
737.0106, 23.29806
737.4927, 24.15343
737.9749, 25.12202
738.4570, 26.00615
738.9391, 26.64178
739.4212, 27.08526
739.9033, 27.37867
740.3854, 27.47864
740.8676, 27.52770
741.3497, 27.54129
741.8318, 27.53541
742.3139, 27.54431
742.7960, 27.58848
743.2781, 27.60926
743.7603, 27.44892
744.2424, 27.44760
744.7245, 28.36370
745.2066, 30.04152
745.6887, 31.20597
746.1708, 31.39711
746.6530, 31.27037
747.1351, 31.65563
747.6172, 32.28124
748.0993, 32.62917
748.5814, 32.21211
749.0635, 31.83725
749.5457, 31.70287
750.0278, 31.79368
750.5099, 32.13447
750.9920, 32.83458
751.4741, 33.56298
751.9562, 34.31850
752.4384, 35.03641
752.9205, 35.51798
753.4026, 35.76976
753.8847, 36.06952
754.3668, 36.67609
754.8489, 37.24158
755.3311, 36.89453
755.8132, 36.04401
756.2953, 35.90445
756.7774, 37.87208
757.2595, 39.86296
757.7416, 40.80964
758.2238, 40.85616
758.7059, 41.07187
759.1880, 41.54282
759.6701, 42.12819
760.1522, 42.75904
760.6343, 43.47023
761.1165, 44.64674
761.5986, 46.31919
762.0807, 47.68013
762.5628, 48.24031
763.0449, 48.22122
763.5270, 47.60032
764.0092, 46.58706
764.4913, 46.29251
764.9734, 48.42918
765.4555, 50.54496
765.9376, 50.82969
766.4197, 49.21523
766.9019, 48.52424
767.3840, 49.49925
767.8661, 50.55920
768.3482, 51.01897
768.8303, 50.90694
769.3124, 50.86940
769.7946, 50.92279
770.2767, 50.85989
770.7588, 50.55267
771.2409, 50.02369
771.7230, 49.07319
772.2051, 47.74717
772.6873, 46.95153
773.1694, 47.95474
773.6515, 49.13713
774.1336, 49.35627
774.6157, 48.37580
775.0978, 47.23293
775.5800, 45.76703
776.0621, 44.44441
776.5442, 43.53313
777.0263, 43.03889
777.5084, 42.69690
777.9905, 42.53440
778.4727, 42.27402
778.9548, 41.59872
779.4369, 40.69673
779.9190, 39.82507
780.4011, 39.01200
780.8832, 38.40438
781.3654, 38.17409
781.8475, 38.13621
782.3296, 38.17286
782.8117, 38.24231
783.2938, 38.45506
783.7759, 38.91690
784.2581, 39.35888
784.7402, 39.38376
785.2223, 38.98952
785.7044, 39.45401
786.1865, 40.92632
786.6686, 42.38383
787.1508, 42.74766
787.6329, 42.49653
788.1150, 42.24975
788.5971, 42.04171
789.0792, 42.24651
789.5613, 43.25854
790.0435, 44.64683
790.5256, 46.09282
791.0077, 47.64829
791.4898, 48.85614
791.9719, 49.71986
792.4540, 50.33508
792.9362, 50.59619
793.4183, 50.59758
793.9004, 51.06508
794.3825, 52.04956
794.8646, 53.27750
795.3467, 54.72452
795.8289, 56.18583
796.3110, 57.34283
796.7931, 58.09837
797.2752, 58.81534
797.7573, 59.74646
798.2394, 60.61790
798.7216, 61.15617
799.2037, 61.04115
799.6858, 61.58051
800.1679, 63.04182
800.6500, 64.58832
801.1321, 65.41068
801.6143, 65.55607
802.0964, 65.30769
802.5785, 64.64243
803.0606, 64.21741
803.5427, 64.86294
804.0248, 65.89837
804.5070, 66.55171
804.9891, 66.48739
805.4712, 66.54620
805.9533, 67.22519
806.4354, 67.90286
806.9175, 68.16472
807.3997, 68.00587
807.8818, 67.39653
808.3639, 66.28076
808.8460, 64.95410
809.3281, 63.63938
809.8102, 62.36784
810.2924, 61.36853
810.7745, 60.77689
811.2566, 59.74895
811.7387, 57.33280
812.2208, 54.49001
812.7029, 52.10988
813.1851, 50.60761
813.6672, 48.78917
814.1493, 46.57760
814.6314, 44.06508
815.1135, 41.19803
815.5956, 37.91599
816.0778, 35.32515
816.5599, 33.53863
817.0420, 31.75806
817.5241, 29.00165
818.0062, 25.83869
818.4883, 23.10621
818.9705, 20.93878
819.4526, 18.97562
819.9347, 17.16196
820.4168, 15.40587
820.8989, 13.59700
821.3810, 11.64941
821.8632, 10.06981
822.3453, 8.931923
822.8274, 7.995693
823.3095, 7.076447
823.7916, 6.193630
824.2737, 5.632130
824.7559, 5.406635
825.2380, 5.083870
825.7201, 3.938923
826.2022, 2.754032
826.6843, 2.497608
827.1664, 3.418213
827.6486, 3.921661
828.1307, 3.429489
828.6128, 2.621136
829.0949, 1.735531
829.5770, 0.7528500
830.0591, 0.1247140
830.5413, 0.9335710
831.0234, 1.333275
831.5055, 0.6654240
831.9876, 0.4467850
832.4697, 0.6621320
832.9518, 1.0540000E-02
833.4340, 0.6431580
833.9161, 0.6563110
834.3982, 0.4759860
834.8803, 0.3669620
835.3624, 0.3595540
835.8445, 0.2270510
836.3267, 0.1421810
836.8088, 0.4051860
837.2909, 0.3708040
837.7730, 8.8611998E-02
838.2551, 0.1491700
838.7372, 0.3449190
839.2194, 0.5746540
839.7015, 1.198187
840.1836, 1.686546
840.6657, 1.273174
841.1478, 0.1160700
841.6299, 0.7173560
842.1121, 0.7316170
842.5942, 0.5233710
843.0763, 0.1835690
843.5584, 0.2244740
844.0405, 0.2614380
844.5226, 0.1247940
845.0048, 0.5793840
845.4869, 1.076818
845.9690, 1.399069
846.4511, 0.9889890
846.9332, 5.4416999E-02
847.4153, 0.7328850
847.8975, 1.292238
848.3796, 1.371988
848.8617, 0.3399890
849.3438, 1.284874
849.8259, 1.775507
850.3080, 0.4973810
850.7902, 0.5764680
851.2723, 1.020319
851.7544, 0.9854180
852.2365, 0.6973090
852.7186, 0.2125320
853.2007, 0.2066330
853.6829, 0.5042740
854.1650, 0.6711160
854.6471, 0.4223440
855.1292, 5.3626999E-02
855.6113, 0.1057000
856.0934, 1.615635
856.5756, 2.370327
857.0577, 1.861240
857.5398, 0.7291680
858.0219, 0.2991470
858.5040, 1.268871
858.9861, 1.475246
859.4683, 0.6467570
859.9504, 0.4126340
860.4325, 0.7119120
860.9146, 0.5258600
861.3967, 0.2755890
861.8788, 4.0128998E-02
862.3610, 9.7340003E-02
862.8431, 0.5890480
863.3252, 1.349348
863.8073, 1.519077
864.2894, 0.7816640
864.7715, 0.4436720
865.2537, 0.6121620
865.7358, 1.014862
866.2179, 1.494297
866.7000, 1.839325
867.1821, 1.474569
867.6642, 0.3189140
868.1464, 0.5707510
868.6285, 0.2723640
869.1106, 0.4265940
869.5927, 0.8922420
870.0748, 0.9595550
870.5569, 1.112257
871.0391, 1.461731
871.5212, 1.730976
872.0033, 1.723312
872.4854, 1.523878
872.9675, 1.404530
873.4496, 1.311245
873.9318, 1.276894
874.4139, 1.391977
874.8960, 1.566460
875.3781, 1.746338
875.8602, 1.920319
876.3423, 2.025457
876.8245, 1.983772
877.3066, 1.978033
877.7887, 2.019289
878.2708, 2.099903
878.7529, 2.228550
879.2350, 2.415192
879.7172, 2.470642
880.1993, 2.193384
880.6814, 1.835022
881.1635, 1.769802
881.6456, 1.984661
882.1277, 2.228613
882.6099, 2.204128
883.0920, 2.193745
883.5741, 2.432415
884.0562, 2.739462
884.5383, 2.798883
885.0204, 2.576893
885.5026, 2.289627
885.9847, 1.927067
886.4668, 1.682827
886.9489, 1.986277
887.4310, 2.563162
887.9131, 2.762093
888.3953, 2.244778
888.8774, 1.774723
889.3595, 1.783165
889.8416, 1.991529
890.3237, 2.139425
890.8058, 2.248428
891.2880, 2.167286
891.7701, 1.864115
892.2522, 1.590080
892.7343, 1.518385
893.2164, 1.610697
893.6985, 1.843813
894.1807, 2.246773
894.6628, 2.641064
895.1449, 3.121040
895.6270, 3.379395
896.1091, 3.025045
896.5912, 1.974966
897.0734, 1.553022
897.5555, 1.941071
898.0376, 2.479223
898.5197, 3.032070
899.0018, 3.527170
899.4839, 3.399525
899.9661, 2.753016
900.4482, 2.213486
900.9303, 2.295401
901.4124, 2.429705
901.8945, 2.101795
902.3766, 1.528053
902.8588, 1.425940
903.3409, 2.300354
903.8230, 2.812874
904.3051, 2.651527
904.7872, 2.097872
905.2693, 1.559937
905.7515, 1.069496
906.2336, 0.8524280
906.7157, 1.084135
907.1978, 1.467997
907.6799, 1.927887
908.1620, 2.316694
908.6442, 2.409843
909.1263, 1.852371
909.6084, 1.640800
910.0905, 2.099487
910.5726, 2.535892
911.0547, 2.110645
911.5369, 0.9248830
912.0190, 0.3965320
912.5011, 0.6229780
912.9832, 1.015179
913.4653, 1.197437
913.9474, 1.264639
914.4296, 1.205246
914.9117, 1.008142
915.3938, 1.125759
915.8759, 1.996979
916.3580, 2.559652
916.8401, 2.338455
917.3223, 1.569777
917.8044, 1.288811
918.2865, 1.418312
918.7686, 1.532307
919.2507, 1.328938
919.7328, 1.052727
920.2150, 0.9613300
920.6971, 1.040113
921.1792, 1.155151
921.6613, 1.604673
922.1434, 1.588287
922.6255, 0.6944870
923.1077, 0.4313560
923.5898, 0.5320910
924.0719, 0.3231300
924.5540, 0.9002300
925.0361, 0.9346200
925.5182, 0.6858160
926.0004, 0.1181240
926.4825, 0.4022670
926.9646, 0.4481200
927.4467, 0.2605950
927.9288, 0.7504790
928.4109, 0.9565370
928.8931, 0.8869690
929.3752, 0.3521610
929.8573, 0.6279180
930.3394, 0.7823330
930.8215, 0.1113010
931.3036, 0.6313040
931.7858, 0.9333100
932.2679, 1.012518
932.7500, 1.101637
933.2321, 1.184605
933.7142, 1.076174
934.1964, 0.3386970
934.6785, 3.5923000E-02
935.1606, 0.3881570
935.6427, 1.243282
936.1248, 1.294035
936.6069, 0.6173250
937.0891, 0.2140060
937.5712, 0.6680090
938.0533, 1.032457
938.5354, 0.1103520
939.0175, 1.774870
939.4996, 2.498169
939.9818, 1.026705
940.4639, 8.3508000E-02
940.9460, 0.6710360
941.4281, 0.9426990
941.9102, 1.055882
942.3923, 1.013966
942.8745, 0.7517470
943.3566, 0.2478750
943.8387, 1.1749000E-02
944.3208, 0.8948360
944.8029, 1.917259
945.2850, 2.121250
945.7672, 1.386353
946.2493, 0.9700740
946.7314, 1.150883
947.2135, 1.325436
947.6956, 1.282703
948.1777, 1.049278
948.6599, 0.6268310
949.1420, 6.5315001E-02
949.6241, 0.3400040
950.1062, 0.5483210
950.5883, 0.4350620
951.0704, 0.3660550
951.5526, 1.498234
952.0347, 2.258297
952.5168, 2.521465
952.9989, 2.535633
953.4810, 2.220242
953.9631, 1.845493
954.4453, 1.665623
954.9274, 1.702526
955.4095, 2.204521
955.8916, 3.249027
956.3737, 3.962833
956.8558, 3.275669
957.3380, 2.408806
957.8201, 2.459362
958.3022, 3.565647
958.7843, 3.759022
959.2664, 2.715481
959.7485, 1.764874
960.2307, 1.508068
960.7128, 1.823929
961.1949, 2.717407
961.6770, 3.982254
962.1591, 4.904373
962.6412, 4.977127
963.1234, 4.841923
963.6055, 4.657948
964.0876, 4.474480
964.5697, 4.390343
965.0518, 4.451302
965.5339, 4.333874
966.0161, 3.899197
966.4982, 3.635574
966.9803, 4.395142
967.4624, 5.625027
967.9445, 6.407001
968.4266, 6.583447
968.9088, 6.462479
969.3909, 5.674702
969.8730, 5.073380
970.3551, 5.281818
970.8372, 6.220757
971.3193, 6.216946
971.8015, 5.215397
972.2836, 4.754322
972.7657, 6.329781
973.2478, 8.333725
973.7299, 8.605312
974.2120, 7.793747
974.6942, 7.543808
975.1763, 9.106041
975.6584, 10.22702
976.1405, 10.58075
976.6226, 10.44484
977.1047, 10.02104
977.5869, 9.369976
978.0690, 9.252895
978.5511, 9.811073
979.0332, 10.59946
979.5153, 11.57562
979.9974, 12.39219
980.4796, 12.66221
980.9617, 12.23507
981.4438, 11.81609
981.9259, 11.41365
982.4080, 11.18257
982.8901, 11.12015
983.3723, 11.29881
983.8544, 12.19347
984.3365, 13.59243
984.8186, 14.69069
985.3007, 15.16144
985.7828, 15.20755
986.2650, 14.51947
986.7471, 13.61208
987.2292, 13.35608
987.7113, 13.91068
988.1934, 14.45586
988.6755, 15.01441
989.1577, 15.42646
989.6398, 15.33084
990.1219, 15.00289
990.6040, 14.91688
991.0861, 15.12762
991.5682, 15.43637
992.0504, 16.08249
992.5325, 16.41961
993.0146, 16.02407
993.4967, 15.11281
993.9788, 15.02932
994.4609, 15.76162
994.9431, 16.23475
995.4252, 15.87078
995.9073, 15.31907
996.3894, 15.22807
996.8715, 15.34034
997.3536, 15.40623
997.8358, 15.60168
998.3179, 15.65730
998.8000, 15.42940
999.2821, 15.19558
999.7642, 15.19827
1000.246, 15.39677
1000.728, 15.60077
1001.211, 15.81122
1001.693, 16.19638
1002.175, 17.38222
1002.657, 18.34616
1003.139, 18.12151
1003.621, 16.95349
1004.103, 16.33306
1004.585, 16.52579
1005.068, 16.57525
1005.550, 16.01113
1006.032, 15.35951
1006.514, 15.65929
1006.996, 16.48624
1007.478, 16.99685
1007.960, 16.90775
1008.442, 16.69687
1008.924, 16.16761
1009.407, 15.88491
1009.889, 16.45808
1010.371, 18.00395
1010.853, 18.12719
1011.335, 16.81380
1011.817, 15.63504
1012.299, 16.17147
1012.781, 16.87807
1013.263, 15.96202
1013.746, 13.96761
1014.228, 12.91850
1014.710, 13.68606
1015.192, 14.33916
1015.674, 14.63258
1016.156, 14.63974
1016.638, 14.28698
1017.120, 13.74828
1017.603, 13.66294
1018.085, 14.20638
1018.567, 14.60489
1019.049, 14.13574
1019.531, 13.58862
1020.013, 13.53270
1020.495, 13.94993
1020.977, 14.31746
1021.459, 14.63913
1021.942, 14.87989
1022.424, 15.06027
1022.906, 15.10782
1023.388, 14.85732
1023.870, 14.41545
1024.352, 13.99049
1024.834, 13.38593
1025.316, 13.21893
1025.799, 13.73183
1026.281, 14.41068
1026.763, 14.69181
1027.245, 14.64461
1027.727, 14.86597
1028.209, 15.36828
1028.691, 15.59837
1029.173, 15.08831
1029.656, 14.25627
1030.138, 13.08300
1030.620, 11.78202
1031.102, 11.36720
1031.584, 12.09379
1032.066, 12.70330
1032.548, 12.92184
1033.030, 12.80226
1033.512, 12.27273
1033.995, 11.50647
1034.477, 10.81480
1034.959, 10.30219
1035.441, 9.731804
1035.923, 8.902878
1036.405, 8.164940
1036.887, 7.694309
1037.369, 7.481487
1037.851, 7.566875
1038.334, 7.890713
1038.816, 7.904163
1039.298, 6.864845
1039.780, 5.846691
1040.262, 5.661476
1040.744, 5.982475
1041.226, 6.169064
1041.708, 6.265205
1042.191, 5.943134
1042.673, 5.064430
1043.155, 4.194622
1043.637, 3.999279
1044.119, 4.174210
1044.601, 4.293194
1045.083, 4.305004
1045.565, 4.016621
1046.047, 3.145679
1046.530, 2.176537
1047.012, 1.086868
1047.494, 0.1162640
1047.976, 9.3383998E-02
1048.458, 0.9024540
1048.940, 1.632790
1049.422, 2.088535
1049.904, 2.236950
1050.386, 1.769508
1050.869, 1.159599
1051.351, 0.9547160
1051.833, 1.295292
1052.315, 1.236347
1052.797, 0.6661720
1053.279, 0.2086830
1053.761, 0.3516120
1054.243, 0.7513080
1054.726, 0.9337200
1055.208, 0.8816410
1055.690, 0.5495220
1056.172, 0.5658230
1056.654, 1.266197
1057.136, 1.238628
1057.618, 0.9648440
1058.100, 0.9906620
1058.583, 1.276627
1059.065, 1.739899
1059.547, 2.357780
1060.029, 2.439064
1060.511, 0.3974150
1060.993, 1.295586
1061.475, 0.4842380
1061.957, 2.089409
1062.439, 3.127789
1062.922, 2.399426
1063.404, 1.521862
1063.886, 0.8159940
1064.368, 0.3727110
1064.850, 0.4059940
1065.332, 0.7187040
1065.814, 1.168198
1066.296, 1.915874
1066.778, 1.822903
1067.261, 0.2852360
1067.743, 1.108925
1068.225, 1.387333
1068.707, 0.9919660
1069.189, 1.315426
1069.671, 2.246433
1070.153, 3.406895
1070.635, 5.007301
1071.118, 6.283787
1071.600, 6.545330
1072.082, 6.555519
1072.564, 7.111462
1073.046, 8.267895
1073.528, 9.290142
1074.010, 10.15255
1074.492, 10.70224
1074.974, 10.11053
1075.457, 9.738464
1075.939, 11.30566
1076.421, 14.22320
1076.903, 15.93941
1077.385, 15.87030
1077.867, 15.78296
1078.349, 15.93937
1078.831, 16.23175
1079.313, 16.58030
1079.796, 16.94090
1080.278, 17.16757
1080.760, 17.22556
1081.242, 17.52422
1081.724, 18.27837
1082.206, 19.24685
1082.688, 20.45944
1083.170, 21.75087
1083.652, 22.48616
1084.135, 22.77473
1084.617, 23.16091
1085.099, 23.90036
1085.581, 24.57332
1086.063, 24.76960
1086.545, 24.89331
1087.027, 25.38205
1087.509, 26.30939
1087.992, 26.82402
1088.474, 26.90665
1088.956, 26.89108
1089.438, 26.84113
1089.920, 26.91573
1090.402, 27.31557
1090.884, 27.95844
1091.366, 28.67340
1091.849, 29.37669
1092.331, 30.32290
1092.813, 31.67572
1093.295, 32.85225
1093.777, 33.11255
1094.259, 32.83059
1094.741, 32.69457
1095.223, 32.75133
1095.705, 33.00700
1096.188, 33.76579
1096.670, 34.32058
1097.152, 34.37310
1097.634, 34.25763
1098.116, 34.66563
1098.598, 35.48821
1099.080, 36.09444
1099.562, 36.37386
1100.044, 36.57304
1100.527, 36.81431
1101.009, 37.06739
1101.491, 37.30563
1101.973, 37.53634
1102.455, 37.81408
1102.937, 38.14189
1103.419, 38.42642
1103.901, 38.62749
1104.384, 38.78765
1104.866, 38.96026
1105.348, 39.10850
1105.830, 39.13287
1106.312, 38.89640
1106.794, 39.14038
1107.276, 39.98760
1107.758, 40.88782
1108.240, 41.58301
1108.723, 42.09417
1109.205, 42.33603
1109.687, 42.45829
1110.169, 42.80439
1110.651, 43.83337
1111.133, 44.58161
1111.615, 44.96868
1112.097, 45.10265
1112.579, 44.83451
1113.062, 44.40781
1113.544, 45.03235
1114.026, 46.50414
1114.508, 47.40871
1114.990, 46.23979
1115.472, 45.40111
1115.954, 46.03916
1116.436, 47.24873
1116.919, 47.57898
1117.401, 47.10305
1117.883, 47.22216
1118.365, 48.19708
1118.847, 49.21417
1119.329, 49.79997
1119.811, 50.04760
1120.293, 49.90861
1120.776, 49.63675
1121.258, 49.87154
1121.740, 50.61410
1122.222, 51.87851
1122.704, 53.86024
1123.186, 55.52166
1123.668, 55.58437
1124.150, 54.87753
1124.632, 54.18512
1125.115, 53.62408
1125.597, 53.89185
1126.079, 55.28327
1126.561, 56.48554
1127.043, 56.90554
1127.525, 56.99482
1128.007, 57.56845
1128.489, 58.32632
1128.971, 58.71931
1129.454, 58.44544
1129.936, 58.26378
1130.418, 58.18237
1130.900, 58.33714
1131.382, 59.05651
1131.864, 59.95588
1132.346, 59.80563
1132.828, 58.85062
1133.311, 57.86229
1133.793, 56.90725
1134.275, 56.33578
1134.757, 56.43208
1135.239, 56.66125
1135.721, 56.55180
1136.203, 56.14936
1136.685, 55.78977
1137.167, 55.47723
1137.650, 55.20901
1138.132, 55.26844
1138.614, 55.05226
1139.096, 53.85733
1139.578, 52.44141
1140.060, 52.14510
1140.542, 52.99279
1141.024, 52.27621
1141.506, 49.77628
1141.989, 47.70551
1142.471, 48.58729
1142.953, 49.77967
1143.435, 49.27495
1143.917, 47.50053
1144.399, 46.15830
1144.881, 45.29358
1145.363, 44.64410
1145.846, 44.27435
1146.328, 43.79033
1146.810, 42.55107
1147.292, 41.14553
1147.774, 40.09907
1148.256, 39.49011
1148.738, 39.23460
1149.220, 39.56965
1149.703, 39.39686
1150.185, 38.32785
1150.667, 36.78933
1151.149, 35.04437
1151.631, 33.44544
1152.113, 32.50140
1152.595, 32.32600
1153.077, 32.20113
1153.559, 32.30542
1154.042, 31.83738
1154.524, 30.22153
1155.006, 28.27932
1155.488, 27.58105
1155.970, 27.60296
1156.452, 27.49530
1156.934, 27.16988
1157.416, 26.42659
1157.898, 24.95052
1158.381, 23.63081
1158.863, 23.01159
1159.345, 22.86509
1159.827, 22.62162
1160.309, 22.33309
1160.791, 22.13142
1161.273, 22.14967
1161.755, 22.13861
1162.238, 21.94394
1162.720, 21.76477
1163.202, 22.01373
1163.684, 22.46058
1164.166, 21.46411
1164.648, 19.35713
1165.130, 17.70004
1165.612, 17.66451
1166.094, 17.73369
1166.577, 17.42658
1167.059, 16.96666
1167.541, 16.54494
1168.023, 16.13369
1168.505, 15.80379
1168.987, 15.56940
1169.469, 15.44718
1169.951, 15.61038
1170.433, 15.69585
1170.916, 15.51221
1171.398, 15.16256
1171.880, 14.54595
1172.362, 13.70364
1172.844, 14.24361
1173.326, 16.24217
1173.808, 17.55799
1174.290, 16.17043
1174.773, 14.18261
1175.255, 12.46199
1175.737, 11.13142
1176.219, 10.61629
1176.701, 10.91796
1177.183, 10.85868
1177.665, 10.26854
1178.147, 9.635559
1178.630, 9.193512
1179.112, 8.984890
1179.594, 9.250675
1180.076, 9.759171
1180.558, 9.752613
1181.040, 9.201805
1181.522, 8.590290
1182.004, 7.979305
1182.486, 7.580780
1182.969, 7.880352
1183.451, 8.156563
1183.933, 7.376152
1184.415, 5.879900
1184.897, 6.561180
1185.379, 9.764942
1185.861, 10.94294
1186.343, 8.516212
1186.825, 5.493855
1187.308, 4.721556
1187.790, 4.850941
1188.272, 4.611031
1188.754, 3.940008
1189.236, 3.761740
1189.718, 4.166962
1190.200, 4.212318
1190.682, 3.453682
1191.165, 2.622744
1191.647, 2.579796
1192.129, 2.835434
1192.611, 2.823540
1193.093, 2.472660
1193.575, 2.450539
1194.057, 2.840082
1194.539, 2.800009
1195.021, 1.802568
1195.504, 0.6408520
1195.986, 8.1886001E-02
1196.468, 4.6339002E-02
1196.950, 0.1790260
1197.432, 0.8699510
1197.914, 0.8514520
1198.396, 1.5818000E-02
1198.878, 0.6226730
1199.360, 0.2036900
1199.843, 0.3662990
1200.325, 0.1415370
1200.807, 1.060884
1201.289, 1.415480
1201.771, 0.9763720
1202.253, 0.4530390
1202.735, 0.2328030
1203.217, 0.4766350
1203.700, 0.4129450
1204.182, 1.489502
1204.664, 1.656195
1205.146, 1.271227
1205.628, 0.8788200
1206.110, 0.4749340
1206.592, 0.3719230
1207.074, 0.6317480
1207.557, 0.7629430
1208.039, 0.1627240
1208.521, 0.4356940
1209.003, 6.4295001E-02
1209.485, 1.058208
1209.967, 1.392181
1210.449, 0.7105900
1210.931, 0.1142350
1211.413, 0.4304050
1211.896, 0.6761650
1212.378, 0.1040100
1212.860, 0.5505770
1213.342, 0.2966860
1213.824, 0.4160140
1214.306, 0.6097620
1214.788, 2.2255000E-02
1215.270, 0.3175240
1215.752, 0.2341480
1216.235, 5.2278999E-02
1216.717, 0.6591570
1217.199, 1.190414
1217.681, 1.219843
1218.163, 0.8714050
1218.645, 0.3958360
1219.127, 0.3129440
1219.609, 0.5843600
1220.092, 0.3560120
1220.574, 3.8088001E-02
1221.056, 2.3266001E-02
1221.538, 4.4394001E-02
1222.020, 0.3841710
1222.502, 0.7998390
1222.984, 0.6631160
1223.466, 0.2394260
1223.948, 0.7314260
1224.431, 0.7365460
1224.913, 0.4154590
1225.395, 0.4653150
1225.877, 1.284151
1226.359, 1.474468
1226.841, 1.207544
1227.323, 0.9550570
1227.805, 0.7029360
1228.287, 0.5617810
1228.770, 0.5341780
1229.252, 0.7312970
1229.734, 1.648380
1230.216, 2.428833
1230.698, 2.216133
1231.180, 1.436876
1231.662, 1.104549
1232.144, 1.249247
1232.627, 1.406048
1233.109, 1.537151
1233.591, 1.636286
1234.073, 1.685680
1234.555, 1.717127
1235.037, 1.730902
1235.519, 1.750553
1236.001, 1.814703
1236.484, 1.923531
1236.966, 2.076143
1237.448, 2.272551
1237.930, 2.517660
1238.412, 3.172585
1238.894, 3.488695
1239.376, 2.438082
1239.858, 1.106564
1240.340, 1.664156
1240.823, 3.847881
1241.305, 4.478460
1241.787, 3.305681
1242.269, 2.197819
1242.751, 2.478880
1243.233, 2.915319
1243.715, 2.996002
1244.197, 2.900328
1244.679, 2.831491
1245.162, 2.812166
1245.644, 3.060110
1246.126, 3.632090
1246.608, 3.939726
1247.090, 3.328396
1247.572, 2.902391
1248.054, 3.057943
1248.536, 3.485876
1249.019, 3.848207
1249.501, 4.079674
1249.983, 3.762407
1250.465, 2.956617
1250.947, 2.596628
1251.429, 3.653139
1251.911, 4.365480
1252.393, 3.990414
1252.875, 3.390678
1253.358, 3.463821
1253.840, 3.724020
1254.322, 3.849998
1254.804, 3.986561
1255.286, 3.963842
1255.768, 3.522575
1256.250, 3.373629
1256.732, 3.369707
1257.214, 3.607515
1257.697, 3.870216
1258.179, 3.934408
1258.661, 3.740494
1259.143, 3.366276
1259.625, 3.360485
1260.107, 4.302870
1260.589, 4.708977
1261.071, 4.161201
1261.554, 3.374006
1262.036, 3.615816
1262.518, 4.147133
1263.000, 4.161264
1263.482, 3.572241
1263.964, 2.625391
1264.446, 1.439430
1264.928, 0.9457720
1265.411, 1.116369
1265.893, 1.882925
1266.375, 4.209341
1266.857, 6.343071
1267.339, 6.358784
1267.821, 4.758110
1268.303, 3.368160
1268.785, 2.137526
1269.267, 1.755123
1269.750, 2.324677
1270.232, 2.875212
1270.714, 2.530176
1271.196, 2.095167
1271.678, 1.982445
1272.160, 2.151733
1272.642, 2.515287
1273.124, 2.993828
1273.606, 3.219421
1274.089, 3.145596
1274.571, 2.947495
1275.053, 2.682795
1275.535, 2.339241
1276.017, 1.708675
1276.499, 1.266272
1276.981, 1.939260
1277.463, 3.306774
1277.946, 3.748159
1278.428, 3.202669
1278.910, 2.371887
1279.392, 1.047915
1279.874, 0.2109340
1280.356, 0.1154080
1280.838, 0.3554460
1281.320, 0.5221440
1281.802, 0.6838990
1282.285, 1.017351
1282.767, 1.491217
1283.249, 1.909756
1283.731, 2.338022
1284.213, 2.386936
1284.695, 1.958757
1285.177, 1.618893
1285.659, 2.215803
1286.141, 2.900381
1286.624, 2.288021
1287.106, 0.8905660
1287.588, 0.2574960
1288.070, 0.7222600
1288.552, 0.9642490
1289.034, 0.9062710
1289.516, 0.7694170
1289.998, 0.5299630
1290.481, 0.4747180
1290.963, 1.047842
1291.445, 1.839653
1291.927, 2.099800
1292.409, 1.890331
1292.891, 1.778166
1293.373, 1.750540
1293.855, 1.631832
1294.338, 1.077337
1294.820, 0.7040960
1295.302, 1.095697
1295.784, 1.540981
1296.266, 1.328533
1296.748, 0.6005550
1297.230, 0.5956760
1297.712, 1.148577
1298.194, 1.460018
1298.677, 0.6339110
1299.159, 0.3852440
1299.641, 1.331800
1300.123, 2.147646
1300.605, 1.515522
1301.087, 0.1920450
1301.569, 3.8323998E-02
1302.051, 0.5278340
1302.533, 0.3787730
1303.016, 0.0000000E+00
##END=



