##NAMES=Sapphirine
##RRUFFID=R060073
##IDEAL CHEMISTRY=Mg_4_(Mg_3_Al_9_)O_4_[Si_3_Al_9_O_36_]
##LOCALITY=Androy, Madagascar
##OWNER=RRUFF
##SOURCE=Marcus Origlieri
##DESCRIPTION=Dark blue massive
##STATUS=The identification of this mineral has been confirmed by X-ray diffraction and chemical analysis
##URL=rruff.info/R060073
##MEASURED CHEMISTRY=Mg_4_(Mg_3.32_Al_8.34_Fe^2+^_0.42_)O_4_(Si_3.5_Al_8.5_O_36_)
191.7544, 0.0000000E+00
192.2365, 0.2219010
192.7187, 5.2643001E-02
193.2008, 0.1253200
193.6829, 0.3014600
194.1650, 0.3886800
194.6471, 0.3911670
195.1292, 0.3163070
195.6114, 0.1427460
196.0935, 1.1658000E-02
196.5756, 4.6631001E-02
197.0577, 0.2404710
197.5398, 0.4698100
198.0219, 0.7149050
198.5041, 0.9744190
198.9862, 1.180748
199.4683, 1.285721
199.9504, 1.538284
200.4325, 2.243507
200.9146, 3.427376
201.3968, 4.503319
201.8789, 5.356148
202.3610, 6.003693
202.8431, 6.504639
203.3252, 6.827316
203.8073, 7.116249
204.2895, 7.445618
204.7716, 7.789619
205.2537, 8.382370
205.7358, 9.377808
206.2179, 10.68680
206.7000, 11.60114
207.1822, 11.96010
207.6643, 12.30680
208.1464, 13.21110
208.6285, 14.80698
209.1106, 16.31253
209.5927, 17.48051
210.0749, 18.36607
210.5570, 19.70164
211.0391, 21.64828
211.5212, 23.72092
212.0033, 25.38521
212.4854, 26.44450
212.9676, 27.82743
213.4497, 29.84705
213.9318, 32.47723
214.4139, 34.75435
214.8960, 36.52864
215.3781, 38.19219
215.8603, 40.30833
216.3424, 43.23681
216.8245, 45.44881
217.3066, 46.55331
217.7887, 46.55540
218.2708, 46.19736
218.7529, 45.48373
219.2351, 44.39249
219.7172, 42.91510
220.1993, 40.97737
220.6814, 38.81796
221.1635, 36.44466
221.6456, 33.83964
222.1278, 31.31007
222.6099, 28.81737
223.0920, 26.39754
223.5741, 24.10175
224.0562, 21.73584
224.5383, 19.86154
225.0205, 18.69025
225.5026, 18.25095
225.9847, 17.65835
226.4668, 16.76208
226.9489, 15.88035
227.4310, 15.40789
227.9132, 15.56638
228.3953, 15.63451
228.8774, 15.39537
229.3595, 14.82861
229.8416, 14.60918
230.3237, 14.89787
230.8059, 15.38895
231.2880, 15.76943
231.7701, 15.93328
232.2522, 16.15108
232.7343, 16.47246
233.2164, 16.96021
233.6986, 17.69968
234.1807, 18.80015
234.6628, 19.84294
235.1449, 20.48930
235.6270, 20.66884
236.1091, 21.05861
236.5913, 21.70226
237.0734, 22.45487
237.5555, 22.97935
238.0376, 23.02972
238.5197, 22.79656
239.0018, 22.72216
239.4840, 22.89799
239.9661, 22.70796
240.4482, 22.01739
240.9303, 20.83546
241.4124, 19.70155
241.8945, 18.62595
242.3767, 17.64970
242.8588, 16.82872
243.3409, 16.23138
243.8230, 15.64631
244.3051, 15.03406
244.7872, 14.40105
245.2694, 13.90401
245.7515, 13.61048
246.2336, 13.37737
246.7157, 13.08800
247.1978, 12.71609
247.6799, 12.33219
248.1621, 11.89323
248.6442, 11.41734
249.1263, 11.19969
249.6084, 11.43389
250.0905, 11.84254
250.5726, 12.35278
251.0548, 13.09396
251.5369, 13.65685
252.0190, 13.89660
252.5011, 13.87061
252.9832, 14.07590
253.4653, 14.56695
253.9475, 15.21229
254.4296, 15.91313
254.9117, 16.62805
255.3938, 17.51044
255.8759, 18.64922
256.3580, 19.98657
256.8401, 21.13255
257.3223, 22.06577
257.8044, 22.84978
258.2865, 23.52313
258.7686, 24.07427
259.2507, 24.54179
259.7328, 24.98812
260.2150, 25.35147
260.6971, 25.35937
261.1792, 24.88969
261.6613, 24.29355
262.1434, 23.81013
262.6255, 23.56945
263.1077, 23.05479
263.5898, 22.17983
264.0719, 21.02944
264.5540, 19.87424
265.0361, 18.72838
265.5182, 17.52569
266.0004, 16.13406
266.4825, 14.40958
266.9646, 13.12006
267.4467, 12.47209
267.9288, 12.18009
268.4109, 11.51863
268.8931, 10.35091
269.3752, 9.138802
269.8573, 8.078583
270.3394, 7.154884
270.8215, 6.417305
271.3036, 5.902573
271.7858, 5.537140
272.2679, 5.239677
272.7500, 5.069580
273.2321, 4.752861
273.7142, 4.114983
274.1964, 3.111404
274.6785, 2.192268
275.1606, 1.330719
275.6427, 0.6058040
276.1248, 0.1890720
276.6069, 0.1295550
277.0891, 0.1387100
277.5712, 0.1645970
278.0533, 0.2103580
278.5354, 1.0368000E-02
279.0175, 0.5671770
279.4996, 1.239906
279.9818, 1.763672
280.4639, 2.143105
280.9460, 2.290047
281.4281, 2.045135
281.9102, 1.473526
282.3923, 1.331169
282.8745, 1.722969
283.3566, 2.200508
283.8387, 2.176712
284.3208, 1.636375
284.8029, 1.195839
285.2850, 1.102776
285.7672, 1.249367
286.2493, 1.130142
286.7314, 0.7144850
287.2135, 0.1988450
287.6956, 0.2134700
288.1777, 0.5318070
288.6599, 0.8845670
289.1420, 1.295250
289.6241, 1.769600
290.1062, 2.335510
290.5883, 2.999054
291.0704, 3.699593
291.5526, 4.439751
292.0347, 5.204041
292.5168, 5.845787
292.9989, 6.268967
293.4810, 6.650467
293.9631, 7.364326
294.4453, 8.395630
294.9274, 9.543442
295.4095, 10.67369
295.8916, 11.79676
296.3737, 12.93802
296.8558, 14.09496
297.3380, 15.24848
297.8201, 16.44418
298.3022, 17.66916
298.7843, 18.77627
299.2664, 19.61774
299.7485, 20.30579
300.2307, 21.07175
300.7128, 21.98814
301.1949, 22.87224
301.6770, 23.54905
302.1591, 24.04222
302.6412, 24.40904
303.1234, 24.84235
303.6055, 25.12003
304.0876, 24.81721
304.5697, 23.84940
305.0518, 22.78791
305.5339, 22.21741
306.0161, 21.94154
306.4982, 21.56232
306.9803, 20.91707
307.4624, 20.07294
307.9445, 18.97488
308.4266, 17.61842
308.9088, 16.44212
309.3909, 16.02007
309.8730, 15.91458
310.3551, 15.49657
310.8372, 14.18215
311.3193, 12.72581
311.8015, 11.66367
312.2836, 10.96085
312.7657, 10.40587
313.2478, 9.967117
313.7299, 9.569717
314.2120, 9.122292
314.6942, 8.408546
315.1763, 7.871994
315.6584, 7.888443
316.1405, 8.325623
316.6226, 8.665840
317.1047, 8.554504
317.5869, 8.344116
318.0690, 8.298302
318.5511, 8.588364
319.0332, 8.823410
319.5153, 8.790855
319.9974, 8.593712
320.4796, 8.464584
320.9617, 8.382095
321.4438, 8.456238
321.9259, 8.791443
322.4080, 9.520103
322.8901, 10.14154
323.3723, 10.47778
323.8544, 10.65749
324.3365, 10.86623
324.8186, 10.95049
325.3007, 11.23741
325.7828, 11.95042
326.2650, 13.22240
326.7471, 14.17691
327.2292, 14.61653
327.7113, 14.75644
328.1934, 14.80070
328.6755, 14.58469
329.1577, 14.46729
329.6398, 14.59966
330.1219, 14.98029
330.6040, 15.06619
331.0861, 14.50214
331.5682, 13.90836
332.0504, 13.69418
332.5325, 14.12369
333.0146, 14.50376
333.4967, 14.90536
333.9788, 15.24890
334.4609, 15.10044
334.9431, 14.18767
335.4252, 13.17900
335.9073, 12.43057
336.3894, 12.04826
336.8715, 11.55497
337.3536, 10.90005
337.8358, 10.16125
338.3179, 9.524078
338.8000, 9.100510
339.2821, 8.561600
339.7642, 7.708839
340.2463, 6.460747
340.7285, 5.525154
341.2105, 5.026855
341.6927, 4.641571
342.1748, 3.870529
342.6569, 2.644386
343.1390, 1.513321
343.6211, 0.6239620
344.1032, 2.4475001E-02
344.5854, 0.4608000
345.0675, 0.6667330
345.5496, 0.7568360
346.0317, 0.8256380
346.5138, 0.8735960
346.9959, 0.9235990
347.4781, 0.9972230
347.9602, 1.058121
348.4423, 0.9462740
348.9244, 0.6725770
349.4065, 0.5215910
349.8886, 0.8712010
350.3708, 1.511871
350.8529, 1.794281
351.3350, 1.564102
351.8171, 1.138412
352.2992, 0.9142460
352.7813, 0.8524930
353.2635, 0.7972870
353.7456, 0.7693330
354.2277, 0.6626590
354.7098, 0.2423100
355.1919, 0.5314790
355.6740, 1.286301
356.1562, 1.690125
356.6383, 1.835098
357.1204, 1.899033
357.6025, 1.845108
358.0846, 1.810684
358.5667, 1.816635
359.0489, 1.884186
359.5310, 2.238342
360.0131, 3.319611
360.4952, 4.626907
360.9773, 5.639938
361.4594, 6.143616
361.9416, 6.440445
362.4237, 6.503342
362.9058, 6.438522
363.3879, 6.580368
363.8700, 7.115738
364.3521, 7.853714
364.8343, 8.692673
365.3164, 9.659012
365.7985, 10.64690
366.2806, 11.72838
366.7627, 12.80692
367.2448, 13.70807
367.7270, 14.16226
368.2091, 14.68111
368.6912, 15.44392
369.1733, 16.49690
369.6554, 17.52887
370.1375, 18.53728
370.6197, 19.51562
371.1018, 20.46878
371.5839, 21.34116
372.0660, 22.27431
372.5481, 23.37389
373.0302, 24.57791
373.5124, 25.46040
373.9945, 25.93723
374.4766, 26.19722
374.9587, 26.33095
375.4408, 26.28819
375.9229, 26.30266
376.4051, 26.54749
376.8872, 26.74030
377.3693, 26.16194
377.8514, 24.61040
378.3335, 23.03616
378.8156, 21.83920
379.2978, 21.01765
379.7799, 20.32423
380.2620, 19.80104
380.7441, 19.28229
381.2262, 18.57170
381.7083, 17.67474
382.1905, 16.64026
382.6726, 15.38504
383.1547, 14.05072
383.6368, 13.06302
384.1189, 12.41463
384.6010, 11.99153
385.0832, 11.82727
385.5653, 11.81857
386.0474, 11.67531
386.5295, 11.32758
387.0116, 10.86194
387.4937, 10.24625
387.9759, 9.564743
388.4580, 9.117996
388.9401, 9.248093
389.4222, 9.624054
389.9043, 9.797424
390.3864, 9.705353
390.8686, 9.754044
391.3507, 10.43742
391.8328, 11.41583
392.3149, 12.18506
392.7970, 12.37161
393.2791, 12.43521
393.7613, 12.57913
394.2434, 12.81055
394.7255, 13.13710
395.2076, 13.54628
395.6897, 14.06174
396.1718, 14.70343
396.6540, 15.50806
397.1361, 16.38712
397.6182, 17.48540
398.1003, 18.64197
398.5824, 19.49298
399.0645, 19.40172
399.5467, 19.51213
400.0288, 20.30583
400.5109, 22.09415
400.9930, 23.57910
401.4751, 24.65692
401.9572, 25.49580
402.4394, 26.24597
402.9215, 26.81683
403.4036, 27.46649
403.8857, 28.30087
404.3678, 29.28645
404.8499, 30.02884
405.3321, 30.41403
405.8142, 30.78683
406.2963, 31.40903
406.7784, 32.36638
407.2605, 33.15540
407.7426, 33.74869
408.2248, 34.12621
408.7069, 34.26662
409.1890, 34.17575
409.6711, 33.90636
410.1532, 33.44353
410.6353, 32.79852
411.1175, 32.04185
411.5996, 31.16972
412.0817, 30.23830
412.5638, 29.28346
413.0459, 28.32254
413.5280, 27.36227
414.0102, 26.37234
414.4923, 25.43109
414.9744, 24.72937
415.4565, 24.20804
415.9386, 23.56395
416.4207, 22.48730
416.9029, 21.22282
417.3850, 20.05164
417.8671, 18.99609
418.3492, 18.06815
418.8313, 17.32983
419.3134, 16.70882
419.7956, 16.07695
420.2777, 15.40128
420.7598, 14.68526
421.2419, 13.89174
421.7240, 13.02647
422.2061, 12.19008
422.6883, 11.40459
423.1704, 10.71660
423.6525, 10.14354
424.1346, 9.591064
424.6167, 9.268311
425.0988, 9.274200
425.5810, 9.521637
426.0631, 9.813034
426.5452, 10.11372
427.0273, 10.47029
427.5094, 10.92017
427.9915, 11.50105
428.4737, 11.89619
428.9558, 12.00270
429.4379, 12.03017
429.9200, 12.20831
430.4021, 12.51018
430.8842, 12.91061
431.3664, 13.39601
431.8485, 13.97041
432.3306, 14.56168
432.8127, 15.17848
433.2948, 15.77196
433.7769, 16.41414
434.2591, 17.08971
434.7412, 17.43736
435.2233, 17.34959
435.7054, 17.21707
436.1875, 17.51823
436.6696, 18.23228
437.1518, 19.24069
437.6339, 20.76657
438.1160, 22.40932
438.5981, 23.38145
439.0802, 23.73546
439.5623, 24.07422
440.0444, 24.83813
440.5266, 25.85664
441.0087, 26.95212
441.4908, 28.16144
441.9729, 29.26425
442.4550, 29.98000
442.9371, 30.48811
443.4193, 31.14119
443.9014, 32.04472
444.3835, 33.16324
444.8656, 34.54747
445.3477, 36.21786
445.8298, 37.80582
446.3120, 39.12410
446.7941, 40.37314
447.2762, 41.69293
447.7583, 43.12975
448.2404, 44.62129
448.7225, 46.29059
449.2047, 48.01892
449.6868, 49.40303
450.1689, 50.32100
450.6510, 51.07396
451.1331, 51.73085
451.6152, 52.27284
452.0974, 52.86421
452.5795, 53.52010
453.0616, 54.20958
453.5437, 54.95366
454.0258, 55.77263
454.5079, 56.45378
454.9901, 56.92511
455.4722, 57.24753
455.9543, 57.64891
456.4364, 58.13297
456.9185, 58.48979
457.4006, 58.47420
457.8828, 58.21753
458.3649, 58.22357
458.8470, 58.57104
459.3291, 58.86566
459.8112, 58.62094
460.2933, 57.99831
460.7755, 57.36000
461.2576, 56.76038
461.7397, 56.26849
462.2218, 56.08812
462.7039, 56.12880
463.1860, 55.96497
463.6682, 55.04567
464.1503, 54.02872
464.6324, 53.54764
465.1145, 53.96562
465.5966, 54.01460
466.0787, 52.92867
466.5609, 51.32782
467.0430, 50.02354
467.5251, 49.85579
468.0072, 49.27571
468.4893, 47.69482
468.9714, 45.18002
469.4536, 43.05367
469.9357, 41.73654
470.4178, 40.35487
470.8999, 38.40479
471.3820, 35.53308
471.8641, 33.03596
472.3463, 31.05473
472.8284, 29.31349
473.3105, 27.30704
473.7926, 24.99614
474.2747, 22.70244
474.7568, 20.55336
475.2390, 18.49117
475.7211, 16.23933
476.2032, 13.77467
476.6853, 11.32195
477.1674, 8.920883
477.6495, 6.640152
478.1317, 4.703598
478.6138, 3.162033
479.0959, 1.882751
479.5780, 0.8180690
480.0601, 9.8449998E-02
480.5422, 1.003510
481.0244, 2.077301
481.5065, 3.085587
481.9886, 3.800217
482.4707, 4.249847
482.9528, 4.658997
483.4349, 5.230972
483.9171, 5.752579
484.3992, 6.067230
484.8813, 6.146286
485.3634, 6.033356
485.8455, 5.562027
486.3276, 4.948151
486.8098, 4.516739
487.2919, 4.868332
487.7740, 4.756851
488.2561, 3.738358
488.7382, 1.882294
489.2203, 0.6112980
489.7025, 0.2832340
490.1846, 2.3190000E-03
490.6667, 0.8267210
491.1488, 2.333908
491.6309, 3.671356
492.1130, 4.799911
492.5952, 5.773087
493.0773, 6.614365
493.5594, 7.330811
494.0415, 8.280914
494.5236, 9.734680
495.0057, 11.42149
495.4879, 12.75478
495.9700, 13.73981
496.4521, 14.53743
496.9342, 15.08438
497.4163, 15.57788
497.8984, 16.36256
498.3806, 17.55307
498.8627, 18.72145
499.3448, 19.63255
499.8269, 20.30321
500.3090, 20.76672
500.7911, 20.97327
501.2733, 21.03355
501.7554, 20.90900
502.2375, 20.64307
502.7196, 20.47227
503.2017, 20.65291
503.6838, 20.77519
504.1660, 20.61171
504.6481, 20.01047
505.1302, 19.51134
505.6123, 19.17513
506.0944, 18.89417
506.5765, 18.54868
507.0587, 18.09752
507.5408, 17.69753
508.0229, 17.40129
508.5050, 17.16440
508.9871, 16.75525
509.4692, 16.13142
509.9514, 15.63989
510.4335, 15.60721
510.9156, 15.91814
511.3977, 15.82076
511.8798, 15.24883
512.3619, 14.72987
512.8441, 15.00746
513.3262, 15.72285
513.8083, 16.00410
514.2904, 15.37503
514.7725, 14.64923
515.2546, 14.64458
515.7368, 15.15021
516.2189, 15.61879
516.7010, 15.64708
517.1831, 15.67706
517.6652, 16.08455
518.1473, 16.91251
518.6295, 17.42987
519.1116, 16.99638
519.5937, 16.44437
520.0758, 16.37097
520.5579, 17.58748
521.0400, 18.26276
521.5222, 18.07947
522.0043, 17.48645
522.4864, 17.38452
522.9685, 18.18726
523.4506, 18.50140
523.9327, 17.69489
524.4149, 16.00615
524.8970, 15.25746
525.3791, 15.55913
525.8612, 16.24161
526.3433, 17.02692
526.8254, 17.83449
527.3076, 18.08636
527.7897, 17.61426
528.2718, 17.09549
528.7539, 17.33882
529.2360, 18.14058
529.7181, 19.03056
530.2003, 19.96362
530.6824, 20.78107
531.1645, 21.21387
531.6466, 21.37947
532.1287, 21.73352
532.6108, 22.67613
533.0930, 23.72742
533.5751, 24.63907
534.0572, 25.37596
534.5393, 25.98662
535.0214, 26.27861
535.5035, 26.56015
535.9857, 27.10983
536.4678, 28.32033
536.9499, 29.18219
537.4320, 29.46597
537.9141, 29.39728
538.3962, 29.58638
538.8784, 30.11104
539.3605, 30.60791
539.8426, 30.92337
540.3247, 31.11948
540.8068, 31.61499
541.2889, 32.44946
541.7711, 33.03810
542.2532, 32.60286
542.7353, 31.54089
543.2174, 31.07947
543.6995, 31.48985
544.1816, 32.10516
544.6638, 32.15627
545.1459, 31.88866
545.6280, 31.84879
546.1101, 32.56645
546.5922, 33.42334
547.0743, 34.00406
547.5565, 34.31535
548.0386, 34.56557
548.5207, 34.47780
549.0028, 34.63687
549.4849, 35.44440
549.9670, 37.17566
550.4492, 38.49138
550.9313, 39.01562
551.4134, 39.40799
551.8955, 40.19151
552.3776, 41.43315
552.8597, 42.89502
553.3419, 44.60168
553.8240, 46.47652
554.3061, 48.37672
554.7882, 50.30415
555.2703, 52.26718
555.7524, 54.18611
556.2346, 56.14584
556.7167, 58.36827
557.1988, 60.83977
557.6809, 63.36629
558.1630, 65.65450
558.6451, 67.97815
559.1273, 70.77509
559.6094, 74.19400
560.0915, 77.59290
560.5736, 80.78474
561.0557, 83.67206
561.5378, 86.14276
562.0200, 87.87328
562.5021, 89.50458
562.9842, 91.48830
563.4663, 93.52173
563.9484, 94.75133
564.4305, 94.91541
564.9127, 94.56474
565.3948, 93.79773
565.8769, 92.62883
566.3590, 91.18156
566.8411, 89.34497
567.3232, 87.48508
567.8054, 85.84258
568.2875, 84.40436
568.7696, 82.95557
569.2517, 81.46930
569.7338, 79.87680
570.2159, 77.89667
570.6981, 75.71104
571.1802, 73.74286
571.6623, 72.04668
572.1444, 70.78189
572.6265, 70.27835
573.1086, 70.34662
573.5908, 70.39871
574.0729, 70.05693
574.5550, 69.68134
575.0371, 69.44798
575.5192, 69.36888
576.0013, 69.47296
576.4835, 69.74271
576.9656, 70.19879
577.4477, 70.87276
577.9298, 71.93446
578.4119, 72.90263
578.8940, 73.58759
579.3762, 74.27773
579.8583, 75.40698
580.3404, 77.09297
580.8225, 79.00558
581.3046, 81.16673
581.7867, 83.40762
582.2689, 85.25996
582.7510, 86.76831
583.2331, 88.27615
583.7152, 90.08263
584.1973, 91.98741
584.6794, 93.64249
585.1616, 95.04442
585.6437, 96.27756
586.1258, 97.53131
586.6079, 98.56812
587.0900, 99.17592
587.5721, 99.29895
588.0542, 99.05196
588.5363, 98.47116
589.0184, 97.54568
589.5005, 96.26102
589.9827, 94.53770
590.4648, 92.52678
590.9469, 90.18962
591.4290, 87.59436
591.9111, 84.97949
592.3932, 82.34135
592.8754, 79.69861
593.3575, 77.08351
593.8396, 74.47946
594.3217, 71.68997
594.8038, 68.75134
595.2859, 65.82300
595.7681, 62.94153
596.2502, 60.19440
596.7323, 57.81757
597.2144, 55.86928
597.6965, 54.08336
598.1786, 52.22322
598.6608, 50.42406
599.1429, 48.89731
599.6250, 47.97459
600.1071, 47.00397
600.5892, 45.63879
601.0714, 44.05521
601.5535, 42.66988
602.0356, 41.76720
602.5177, 40.84325
602.9998, 39.70770
603.4819, 38.38385
603.9641, 37.43343
604.4462, 37.04242
604.9283, 36.57256
605.4104, 35.54266
605.8925, 33.94527
606.3746, 32.72450
606.8568, 31.92371
607.3389, 31.19159
607.8210, 30.13403
608.3031, 28.84567
608.7852, 27.59177
609.2673, 26.41124
609.7495, 25.28999
610.2316, 24.31529
610.7137, 23.37758
611.1958, 22.26472
611.6779, 20.43674
612.1600, 18.89900
612.6422, 18.37683
613.1243, 18.60452
613.6064, 18.16526
614.0885, 16.27715
614.5706, 14.36237
615.0527, 12.85175
615.5349, 11.77347
616.0170, 10.75702
616.4991, 9.828003
616.9812, 8.868210
617.4633, 7.727448
617.9454, 6.405609
618.4276, 5.290291
618.9097, 4.422188
619.3918, 3.667282
619.8739, 2.832695
620.3560, 1.983200
620.8381, 1.265999
621.3203, 0.7308730
621.8024, 0.3312840
622.2845, 0.1015550
622.7666, 3.4828000E-02
623.2487, 0.2431560
623.7308, 0.5907440
624.2130, 1.013306
624.6951, 1.535080
625.1772, 2.143242
625.6593, 2.668625
626.1414, 3.210518
626.6235, 3.539742
627.1057, 3.512558
627.5878, 3.086685
628.0699, 2.737991
628.5520, 2.447334
629.0341, 2.291649
629.5162, 2.444061
629.9984, 2.826279
630.4805, 3.001785
630.9626, 2.893120
631.4447, 2.684586
631.9268, 2.558525
632.4089, 2.480560
632.8911, 2.391151
633.3732, 2.309975
633.8553, 2.159470
634.3374, 1.804695
634.8195, 1.352425
635.3016, 1.040070
635.7838, 1.225433
636.2659, 1.241547
636.7480, 0.7173080
637.2301, 0.2439650
637.7122, 0.6447530
638.1943, 0.1790080
638.6765, 0.2313610
639.1586, 8.5258000E-02
639.6407, 0.6075820
640.1228, 1.112175
640.6049, 1.410561
641.0870, 1.632797
641.5692, 1.936691
642.0513, 2.249474
642.5334, 2.344460
643.0155, 2.143051
643.4976, 1.967857
643.9797, 2.029739
644.4619, 2.303787
644.9440, 2.767052
645.4261, 3.658638
645.9082, 4.416763
646.3903, 4.845818
646.8724, 5.023308
647.3546, 5.088036
647.8367, 4.805405
648.3188, 4.774399
648.8009, 5.188614
649.2830, 5.951469
649.7651, 6.620445
650.2473, 7.190353
650.7294, 7.714279
651.2115, 8.142853
651.6936, 8.546532
652.1757, 9.304260
652.6578, 10.41784
653.1400, 11.45168
653.6221, 11.91128
654.1042, 12.18580
654.5863, 12.76385
655.0684, 13.73676
655.5505, 14.81174
656.0327, 15.92439
656.5148, 17.02142
656.9969, 18.03793
657.4790, 18.77097
657.9611, 19.71829
658.4432, 20.99572
658.9254, 22.42913
659.4075, 23.75665
659.8896, 24.92828
660.3717, 26.18219
660.8538, 27.58683
661.3359, 29.07723
661.8181, 30.49339
662.3002, 31.84540
662.7823, 33.23035
663.2644, 34.65363
663.7465, 36.16022
664.2286, 37.85820
664.7108, 39.70528
665.1929, 41.56329
665.6750, 43.01885
666.1571, 44.72583
666.6392, 47.27031
667.1213, 50.78525
667.6035, 53.98132
668.0856, 56.27089
668.5677, 58.50105
669.0498, 61.10194
669.5319, 64.11320
670.0140, 67.43504
670.4962, 71.16917
670.9783, 75.03428
671.4604, 78.67665
671.9425, 82.13828
672.4246, 85.86031
672.9067, 89.89085
673.3889, 94.03188
673.8710, 97.86899
674.3531, 101.6499
674.8352, 105.8177
675.3173, 110.7854
675.7994, 115.9270
676.2816, 120.9240
676.7637, 125.7918
677.2458, 130.6340
677.7279, 135.6147
678.2100, 140.3959
678.6921, 144.9551
679.1743, 149.2973
679.6564, 153.3090
680.1385, 156.9520
680.6206, 160.5190
681.1027, 164.4097
681.5848, 168.3834
682.0670, 171.2965
682.5491, 173.1579
683.0312, 174.5435
683.5133, 176.1546
683.9954, 177.4617
684.4775, 177.8275
684.9597, 177.2025
685.4418, 175.7557
685.9239, 173.2471
686.4060, 170.1453
686.8881, 166.7787
687.3702, 163.1930
687.8524, 159.2993
688.3345, 155.0537
688.8166, 150.6079
689.2987, 145.9972
689.7808, 141.1547
690.2629, 136.5260
690.7451, 132.1574
691.2272, 127.9408
691.7093, 123.6779
692.1914, 119.4405
692.6735, 115.1884
693.1556, 110.7646
693.6378, 106.5552
694.1199, 103.1772
694.6020, 100.4016
695.0841, 97.70022
695.5662, 94.77527
696.0483, 91.85297
696.5305, 88.99266
697.0126, 86.25018
697.4947, 83.63091
697.9768, 80.95124
698.4589, 78.64584
698.9410, 76.98600
699.4232, 75.89637
699.9053, 74.46076
700.3874, 72.62766
700.8695, 70.76836
701.3516, 69.12564
701.8337, 67.64832
702.3159, 66.17747
702.7980, 64.70399
703.2801, 63.34601
703.7622, 62.32648
704.2443, 61.36672
704.7264, 60.11334
705.2086, 58.37541
705.6907, 56.96957
706.1728, 56.43279
706.6549, 56.13318
707.1370, 55.53001
707.6191, 54.49483
708.1013, 53.46960
708.5834, 52.50745
709.0655, 51.47985
709.5476, 50.14369
710.0297, 48.52136
710.5118, 47.11908
710.9940, 46.04950
711.4761, 45.18269
711.9582, 44.44173
712.4403, 43.76019
712.9224, 43.00284
713.4045, 42.11581
713.8867, 41.13582
714.3688, 39.92592
714.8509, 38.68800
715.3330, 37.81001
715.8151, 37.87206
716.2972, 37.58990
716.7794, 36.55111
717.2615, 35.03081
717.7436, 34.03982
718.2257, 33.67870
718.7078, 33.36690
719.1899, 32.75356
719.6721, 32.04079
720.1542, 31.90082
720.6363, 32.24091
721.1184, 32.48145
721.6005, 32.30294
722.0826, 31.93804
722.5648, 31.52095
723.0469, 31.02644
723.5290, 30.52675
724.0111, 29.84077
724.4932, 29.35252
724.9753, 29.37057
725.4575, 30.00337
725.9396, 30.26512
726.4217, 30.02809
726.9038, 29.65501
727.3859, 29.40936
727.8680, 29.28968
728.3502, 29.12550
728.8323, 28.91418
729.3144, 28.70328
729.7965, 28.58261
730.2786, 28.47452
730.7607, 28.20319
731.2429, 27.64752
731.7250, 27.13503
732.2071, 26.88680
732.6892, 26.80368
733.1713, 26.73545
733.6534, 26.65373
734.1356, 26.50954
734.6177, 26.30086
735.0998, 26.06336
735.5819, 25.84979
736.0640, 25.66492
736.5461, 25.45127
737.0283, 25.20044
737.5104, 24.91478
737.9925, 24.53654
738.4746, 24.12817
738.9567, 23.86472
739.4388, 23.87431
739.9210, 23.95010
740.4031, 24.08120
740.8852, 24.16214
741.3673, 23.98947
741.8494, 23.21574
742.3315, 22.54343
742.8137, 22.14296
743.2958, 21.92059
743.7779, 21.58807
744.2600, 21.09911
744.7421, 20.72546
745.2242, 20.63799
745.7064, 20.65568
746.1885, 20.17199
746.6706, 19.31150
747.1527, 18.72444
747.6348, 19.18469
748.1169, 19.74084
748.5991, 19.42016
749.0812, 18.40881
749.5633, 17.63738
750.0454, 17.67908
750.5275, 17.75158
751.0096, 17.56929
751.4918, 17.14788
751.9739, 16.66504
752.4560, 16.08803
752.9381, 15.52612
753.4202, 15.03740
753.9023, 14.60910
754.3845, 14.09862
754.8666, 13.51709
755.3487, 13.02421
755.8308, 12.86870
756.3129, 12.78736
756.7950, 12.51160
757.2772, 12.02296
757.7593, 11.41167
758.2414, 10.66061
758.7235, 9.836479
759.2056, 8.863602
759.6877, 7.637764
760.1699, 7.076073
760.6520, 7.491501
761.1341, 7.933853
761.6162, 7.619621
762.0983, 6.645714
762.5804, 5.857628
763.0626, 5.282982
763.5447, 4.854843
764.0268, 4.591942
764.5089, 4.398972
764.9910, 4.151817
765.4731, 3.817116
765.9553, 3.509033
766.4374, 3.340866
766.9195, 3.167015
767.4016, 2.855766
767.8837, 2.330223
768.3658, 1.860619
768.8480, 1.442940
769.3301, 1.099007
769.8122, 0.8311610
770.2943, 0.6461640
770.7764, 0.7204280
771.2585, 1.137321
771.7407, 1.395325
772.2228, 0.7086940
772.7049, 0.3622060
773.1870, 0.9914860
773.6691, 0.8444600
774.1512, 0.6370470
774.6334, 0.5723340
775.1155, 0.6172790
775.5976, 0.7445070
776.0797, 1.026276
776.5618, 1.234451
777.0439, 1.376694
777.5261, 1.416817
778.0082, 1.144508
778.4903, 0.6370160
778.9724, 0.6892780
779.4545, 1.579712
779.9366, 2.590385
780.4188, 2.942207
780.9009, 2.879753
781.3830, 2.770996
781.8651, 2.736855
782.3472, 2.645805
782.8293, 2.450272
783.3115, 2.171265
783.7936, 1.833916
784.2757, 1.376534
784.7578, 1.009262
785.2399, 0.7496950
785.7220, 0.6009750
786.2041, 0.6057210
786.6862, 0.7452090
787.1683, 0.9160080
787.6505, 1.153175
788.1326, 1.265038
788.6147, 0.9075320
789.0968, 0.3325420
789.5789, 4.6440002E-02
790.0610, 0.2611620
790.5432, 0.3470920
791.0253, 0.2569120
791.5074, 1.109795
791.9895, 1.508087
792.4716, 1.311279
792.9537, 1.116508
793.4359, 0.9844360
793.9180, 0.9557040
794.4001, 1.155708
794.8822, 1.540344
795.3643, 1.895836
795.8464, 2.142075
796.3286, 2.382965
796.8107, 2.794525
797.2928, 3.248543
797.7749, 3.530731
798.2570, 3.293304
798.7391, 3.246155
799.2213, 3.501068
799.7034, 4.005371
800.1855, 4.771942
800.6676, 5.904510
801.1497, 6.660370
801.6318, 6.783020
802.1140, 6.640854
802.5961, 6.797073
803.0782, 7.204102
803.5603, 7.739433
804.0424, 8.481361
804.5245, 9.152611
805.0067, 9.533455
805.4888, 9.733101
805.9709, 9.941391
806.4530, 9.983475
806.9351, 10.33958
807.4172, 11.16961
807.8994, 12.24337
808.3815, 13.12026
808.8636, 13.79129
809.3457, 14.51166
809.8278, 15.33757
810.3099, 16.24903
810.7921, 17.32857
811.2742, 18.44846
811.7563, 19.32932
812.2384, 19.69114
812.7205, 20.04036
813.2026, 20.46608
813.6848, 21.04828
814.1669, 21.93498
814.6490, 23.28661
815.1311, 24.62244
815.6132, 25.93311
816.0953, 27.16052
816.5775, 28.23296
817.0596, 29.15477
817.5417, 29.91551
818.0238, 30.43903
818.5059, 30.99899
818.9880, 31.95941
819.4702, 33.12501
819.9523, 34.19724
820.4344, 35.19514
820.9165, 35.94649
821.3986, 36.25957
821.8807, 36.39696
822.3629, 36.69563
822.8450, 37.24370
823.3271, 37.57262
823.8092, 37.60768
824.2913, 37.42664
824.7734, 37.07071
825.2556, 36.58443
825.7377, 36.09288
826.2198, 35.65295
826.7019, 35.15593
827.1840, 34.47787
827.6661, 33.72634
828.1483, 33.01837
828.6304, 32.53328
829.1125, 31.88280
829.5946, 30.94173
830.0767, 29.94972
830.5588, 29.26419
831.0410, 28.89002
831.5231, 28.18536
832.0052, 27.02400
832.4873, 25.76840
832.9694, 24.74422
833.4515, 23.91862
833.9337, 23.28478
834.4158, 22.94644
834.8979, 22.49242
835.3800, 21.69705
835.8621, 20.79863
836.3442, 19.97845
836.8264, 19.10954
837.3085, 18.52253
837.7906, 18.30123
838.2727, 18.13538
838.7548, 17.68115
839.2369, 17.02187
839.7191, 16.40409
840.2012, 15.85660
840.6833, 15.38650
841.1654, 14.95514
841.6475, 14.63823
842.1296, 14.56960
842.6118, 14.89470
843.0939, 14.88715
843.5760, 14.22703
844.0581, 13.59024
844.5402, 13.48810
845.0223, 13.93825
845.5045, 14.01077
845.9866, 13.69930
846.4687, 13.40031
846.9508, 13.47592
847.4329, 13.70926
847.9150, 13.81686
848.3972, 13.79286
848.8793, 13.70268
849.3614, 13.19359
849.8435, 12.90499
850.3256, 13.27434
850.8077, 14.30161
851.2899, 14.99566
851.7720, 15.31514
852.2541, 15.45629
852.7362, 15.46132
853.2183, 15.38672
853.7004, 15.37032
854.1826, 15.41243
854.6647, 15.51444
855.1468, 15.71246
855.6289, 15.93862
856.1110, 16.15012
856.5931, 16.34976
857.0753, 16.56735
857.5574, 16.73050
858.0395, 17.05541
858.5216, 17.65552
859.0037, 18.43681
859.4858, 19.20419
859.9680, 19.91720
860.4501, 20.17331
860.9322, 19.42123
861.4143, 18.51569
861.8964, 18.34548
862.3785, 18.68391
862.8607, 18.99102
863.3428, 18.99247
863.8249, 19.08411
864.3070, 19.42082
864.7891, 19.84722
865.2712, 20.01022
865.7534, 19.88191
866.2355, 19.83152
866.7176, 19.97764
867.1997, 20.15710
867.6818, 20.10238
868.1639, 19.91791
868.6461, 19.82207
869.1282, 19.96390
869.6103, 20.05528
870.0924, 19.81534
870.5745, 19.55835
871.0566, 19.67547
871.5388, 20.30305
872.0209, 20.94884
872.5030, 21.65450
872.9851, 22.18488
873.4672, 22.09380
873.9493, 21.61079
874.4315, 21.43763
874.9136, 21.72122
875.3957, 22.12608
875.8778, 22.43871
876.3599, 22.74431
876.8420, 23.14973
877.3242, 23.75475
877.8063, 24.04998
878.2884, 23.85139
878.7705, 23.68007
879.2526, 24.00777
879.7347, 24.74174
880.2169, 25.09518
880.6990, 25.07197
881.1811, 24.99982
881.6632, 25.16801
882.1453, 25.34257
882.6274, 25.23553
883.1096, 24.86305
883.5917, 24.69691
884.0738, 25.00077
884.5559, 25.31926
885.0380, 25.51617
885.5201, 25.59605
886.0023, 25.59917
886.4844, 25.53125
886.9665, 25.38425
887.4486, 25.10396
887.9307, 24.79314
888.4128, 24.44858
888.8950, 24.16769
889.3771, 24.20551
889.8592, 24.98791
890.3413, 25.69894
890.8234, 26.18259
891.3055, 26.45518
891.7877, 26.50842
892.2698, 26.32755
892.7519, 26.03928
893.2340, 25.61116
893.7161, 25.26080
894.1982, 25.33148
894.6804, 25.68552
895.1625, 26.07413
895.6446, 26.42630
896.1267, 26.81741
896.6088, 27.38372
897.0909, 27.93124
897.5731, 28.23454
898.0552, 28.11421
898.5373, 28.46367
899.0194, 29.39607
899.5015, 30.42088
899.9836, 30.96030
900.4658, 31.28017
900.9479, 31.95953
901.4300, 33.05272
901.9121, 34.32418
902.3942, 35.79677
902.8763, 37.28063
903.3585, 38.59242
903.8406, 39.72296
904.3227, 41.02762
904.8048, 42.49471
905.2869, 44.15907
905.7690, 46.18183
906.2512, 48.36839
906.7333, 50.18566
907.2154, 51.72836
907.6975, 53.35605
908.1796, 55.62006
908.6617, 57.66792
909.1439, 58.81774
909.6260, 59.34835
910.1081, 60.26263
910.5902, 61.79500
911.0723, 63.20511
911.5544, 64.44764
912.0366, 65.31853
912.5187, 65.41473
913.0008, 64.81236
913.4829, 63.73122
913.9650, 62.05080
914.4471, 60.34718
914.9293, 59.29471
915.4114, 58.28253
915.8935, 56.58372
916.3756, 53.85565
916.8577, 50.94958
917.3398, 47.72002
917.8220, 44.67697
918.3041, 42.49500
918.7862, 40.93724
919.2683, 39.00665
919.7504, 36.64156
920.2325, 34.17548
920.7147, 31.90465
921.1968, 29.57793
921.6789, 26.82433
922.1610, 23.62405
922.6431, 21.01988
923.1252, 19.29259
923.6074, 17.60900
924.0895, 15.58336
924.5716, 13.35062
925.0537, 11.47152
925.5358, 9.890732
926.0179, 8.418900
926.5001, 6.857971
926.9822, 5.477432
927.4643, 4.464119
927.9464, 3.739525
928.4285, 3.170036
928.9106, 2.922440
929.3928, 2.412224
929.8749, 1.428963
930.3570, 0.3884810
930.8391, 4.1962001E-02
931.3212, 0.1956710
931.8033, 3.1578001E-02
932.2855, 0.8761140
932.7676, 1.714310
933.2497, 2.217163
933.7318, 2.430748
934.2139, 2.365517
934.6960, 1.922455
935.1782, 1.540329
935.6603, 1.217453
936.1424, 0.9570540
936.6245, 0.7376860
937.1066, 0.5778960
937.5887, 0.6179660
938.0709, 0.8293990
938.5530, 0.9668580
939.0351, 0.8736650
939.5172, 0.6643910
939.9993, 0.2827000
940.4814, 0.1813580
940.9636, 0.2832490
941.4457, 0.1965180
941.9278, 0.4931030
942.4099, 0.3577650
942.8920, 2.9083000E-02
943.3741, 5.3635001E-02
943.8563, 0.2945860
944.3384, 0.2676700
944.8205, 0.3089140
945.3026, 0.8497240
945.7847, 0.8854290
946.2668, 0.7593150
946.7490, 0.8743740
947.2311, 1.379402
947.7132, 1.782776
948.1953, 2.098808
948.6774, 2.271713
949.1595, 2.138390
949.6417, 1.845650
950.1238, 1.836449
950.6059, 2.111687
951.0880, 2.272324
951.5701, 1.756660
952.0522, 1.379181
952.5344, 1.890709
953.0165, 3.056862
953.4986, 3.263031
953.9807, 2.244476
954.4628, 1.434952
954.9449, 1.428932
955.4271, 1.794708
955.9092, 1.769592
956.3913, 1.499718
956.8734, 1.340584
957.3555, 1.546143
957.8376, 1.695435
958.3198, 1.507454
958.8019, 1.270477
959.2840, 1.342697
959.7661, 1.825203
960.2482, 1.979492
960.7303, 1.703133
961.2125, 1.443718
961.6946, 1.734955
962.1767, 2.271835
962.6588, 2.565826
963.1409, 2.590858
963.6230, 2.790672
964.1052, 3.471092
964.5873, 4.148422
965.0694, 4.679138
965.5515, 5.061760
966.0336, 5.196121
966.5157, 5.083694
966.9979, 5.068718
967.4800, 5.298729
967.9621, 5.707451
968.4442, 6.354668
968.9263, 7.087593
969.4084, 7.633141
969.8906, 7.585655
970.3727, 7.851311
970.8548, 8.613037
971.3369, 9.489151
971.8190, 10.08360
972.3011, 10.43103
972.7833, 10.73608
973.2654, 11.02211
973.7475, 11.35086
974.2296, 11.81104
974.7117, 12.26821
975.1938, 12.55803
975.6760, 12.67680
976.1581, 13.20013
976.6402, 14.41586
977.1223, 15.44655
977.6044, 15.87672
978.0865, 15.89398
978.5687, 16.03622
979.0508, 16.29386
979.5329, 16.51672
980.0150, 16.44476
980.4971, 16.57922
980.9792, 17.56051
981.4614, 18.73296
981.9435, 19.15181
982.4256, 18.48716
982.9077, 18.16068
983.3898, 18.28173
983.8719, 18.45815
984.3540, 18.25124
984.8361, 17.84285
985.3182, 17.51426
985.8004, 17.28013
986.2825, 17.16119
986.7646, 17.46059
987.2467, 17.55758
987.7288, 17.12714
988.2109, 16.26595
988.6931, 15.48406
989.1752, 14.77856
989.6573, 14.09211
990.1394, 13.37242
990.6215, 12.66669
991.1036, 11.98991
991.5858, 11.39676
992.0679, 10.98101
992.5500, 11.18407
993.0321, 10.87799
993.5142, 9.642693
993.9963, 8.363129
994.4785, 8.006882
994.9606, 8.427124
995.4427, 8.353600
995.9248, 7.752762
996.4069, 7.259850
996.8890, 7.629837
997.3712, 8.026009
997.8533, 7.754051
998.3354, 6.875755
998.8175, 6.228737
999.2996, 5.849945
999.7817, 5.649231
1000.264, 5.689209
1000.746, 5.779961
1001.228, 5.467682
1001.710, 4.935959
1002.192, 4.666588
1002.674, 4.921585
1003.157, 5.114204
1003.639, 4.938622
1004.121, 4.643532
1004.603, 4.420570
1005.085, 4.270859
1005.567, 4.219368
1006.049, 4.281609
1006.531, 4.268631
1007.013, 3.956924
1007.496, 3.555748
1007.978, 3.238312
1008.460, 3.031097
1008.942, 2.987984
1009.424, 3.375526
1009.906, 3.604790
1010.388, 3.563927
1010.870, 3.337914
1011.353, 3.016182
1011.835, 2.625343
1012.317, 2.382599
1012.799, 2.355125
1013.281, 2.325363
1013.763, 2.017921
1014.245, 1.721161
1014.727, 1.731979
1015.209, 2.105873
1015.692, 2.308105
1016.174, 2.341576
1016.656, 2.198502
1017.138, 1.763039
1017.620, 1.238533
1018.102, 1.129921
1018.584, 1.285889
1019.066, 1.285805
1019.549, 0.8441240
1020.031, 0.3688510
1020.513, 0.1560210
1020.995, 0.5881880
1021.477, 0.7241210
1021.959, 0.5609820
1022.441, 0.4223560
1022.923, 0.3337940
1023.405, 0.2748640
1023.888, 0.2208710
1024.370, 0.1946640
1024.852, 0.2339100
1025.334, 0.3360140
1025.816, 0.4079740
1026.298, 0.4095760
1026.780, 0.4689940
1027.262, 0.6783680
1027.745, 0.8912580
1028.227, 0.7197490
1028.709, 0.2970580
1029.191, 7.8579998E-03
1029.673, 7.1235999E-02
1030.155, 3.8353000E-02
1030.637, 0.1514890
1031.119, 0.3138280
1031.601, 0.2696530
1032.084, 2.2972001E-02
1032.566, 7.8254998E-02
1033.048, 0.1152270
1033.530, 0.3398060
1034.012, 0.5560910
1034.494, 0.6370090
1034.976, 0.2857590
1035.458, 0.3295900
1035.941, 0.6541370
1036.423, 0.3160860
1036.905, 8.0963001E-02
1037.387, 2.2568000E-02
1037.869, 0.1295930
1038.351, 0.5264130
1038.833, 1.077660
1039.315, 1.210159
1039.797, 0.8057560
1040.280, 0.6283110
1040.762, 1.523033
1041.244, 2.414024
1041.726, 2.543564
1042.208, 2.029030
1042.690, 1.880989
1043.172, 2.129997
1043.654, 2.384018
1044.136, 2.492157
1044.619, 2.539291
1045.101, 2.574425
1045.583, 2.636688
1046.065, 2.795784
1046.547, 3.196739
1047.029, 3.449051
1047.511, 3.514244
1047.993, 3.478302
1048.476, 3.385460
1048.958, 3.247704
1049.440, 3.022903
1049.922, 2.760773
1050.404, 2.763763
1050.886, 3.546318
1051.368, 4.267723
1051.850, 4.577507
1052.333, 4.532387
1052.815, 4.107254
1053.297, 3.225464
1053.779, 2.774338
1054.261, 2.938744
1054.743, 3.270363
1055.225, 3.396713
1055.707, 3.381523
1056.189, 3.244980
1056.672, 2.975136
1057.154, 2.880852
1057.636, 3.131096
1058.118, 3.222473
1058.600, 2.870079
1059.082, 2.324478
1059.564, 2.210999
1060.046, 2.422203
1060.528, 2.655754
1061.011, 2.855370
1061.493, 2.966896
1061.975, 2.954094
1062.457, 2.847389
1062.939, 2.636444
1063.421, 2.308418
1063.903, 2.104256
1064.385, 2.023468
1064.868, 2.070045
1065.350, 2.419388
1065.832, 2.744026
1066.314, 2.731499
1066.796, 2.463921
1067.278, 2.178062
1067.760, 1.768738
1068.242, 1.700569
1068.724, 2.116394
1069.207, 2.637184
1069.689, 2.865936
1070.171, 2.843315
1070.653, 2.504478
1071.135, 1.850113
1071.617, 1.555817
1072.099, 2.263832
1072.581, 2.927475
1073.063, 3.169975
1073.546, 3.116219
1074.028, 3.139244
1074.510, 3.230576
1074.992, 3.362648
1075.474, 3.586578
1075.956, 3.665726
1076.438, 3.198273
1076.920, 2.662094
1077.403, 2.557999
1077.885, 2.947548
1078.367, 3.215866
1078.849, 3.363510
1079.331, 3.421631
1079.813, 3.417145
1080.295, 3.343254
1080.777, 3.118713
1081.260, 2.821564
1081.742, 2.634491
1082.224, 2.690346
1082.706, 2.717361
1083.188, 2.679298
1083.670, 2.647560
1084.152, 2.747871
1084.634, 2.906303
1085.116, 2.860954
1085.599, 2.620705
1086.081, 2.455803
1086.563, 2.626389
1087.045, 2.757622
1087.527, 2.646614
1088.009, 2.410866
1088.491, 2.332466
1088.973, 2.401245
1089.455, 2.351746
1089.938, 2.121887
1090.420, 1.940254
1090.902, 2.070305
1091.384, 2.264778
1091.866, 2.337685
1092.348, 2.283539
1092.830, 2.063492
1093.312, 1.612289
1093.794, 1.433311
1094.277, 1.825546
1094.759, 2.354012
1095.241, 2.385971
1095.723, 2.139923
1096.205, 1.971413
1096.687, 2.032394
1097.169, 1.981651
1097.651, 1.703728
1098.134, 1.460274
1098.616, 1.484467
1099.098, 1.695129
1099.580, 1.856377
1100.062, 1.966362
1100.544, 2.060402
1101.026, 2.264397
1101.508, 2.324104
1101.990, 2.050522
1102.473, 1.682907
1102.955, 1.487259
1103.437, 1.460030
1103.919, 1.486298
1104.401, 1.559364
1104.883, 1.621651
1105.365, 1.537308
1105.847, 1.516006
1106.329, 1.759789
1106.812, 2.191940
1107.294, 2.533287
1107.776, 2.796089
1108.258, 2.864998
1108.740, 2.699661
1109.222, 2.439156
1109.704, 2.157608
1110.186, 1.915230
1110.669, 1.762695
1111.151, 1.705917
1111.633, 1.821877
1112.115, 2.221565
1112.597, 2.514992
1113.079, 2.546692
1113.561, 2.427902
1114.043, 2.330482
1114.526, 2.252365
1115.008, 2.202057
1115.490, 2.209312
1115.972, 2.156204
1116.454, 1.824059
1116.936, 1.684883
1117.418, 2.157501
1117.900, 3.046875
1118.382, 3.341148
1118.865, 3.133835
1119.347, 2.852959
1119.829, 2.636490
1120.311, 2.468979
1120.793, 2.353806
1121.275, 2.277870
1121.757, 2.241440
1122.239, 2.253105
1122.721, 2.169449
1123.204, 1.994972
1123.686, 1.893936
1124.168, 2.049713
1124.650, 2.242653
1125.132, 2.310783
1125.614, 2.291992
1126.096, 2.323792
1126.578, 2.445557
1127.061, 2.471893
1127.543, 2.367455
1128.025, 2.229492
1128.507, 2.097160
1128.989, 2.015099
1129.471, 2.104233
1129.953, 2.359718
1130.435, 2.444588
1130.917, 2.213333
1131.400, 2.144653
1131.882, 2.409119
1132.364, 2.721603
1132.846, 2.617058
1133.328, 2.285385
1133.810, 2.035194
1134.292, 1.917419
1134.774, 1.804764
1135.256, 1.630928
1135.739, 1.540649
1136.221, 1.593185
1136.703, 1.746475
1137.185, 1.991005
1137.667, 2.246147
1138.149, 2.240982
1138.631, 1.767532
1139.113, 1.450737
1139.596, 1.608307
1140.078, 1.941193
1140.560, 2.414543
1141.042, 2.929840
1141.524, 2.831940
1142.006, 2.214020
1142.488, 1.572075
1142.970, 0.9579850
1143.453, 0.6451340
1143.935, 1.061012
1144.417, 1.659218
1144.899, 1.897423
1145.381, 1.746284
1145.863, 1.615158
1146.345, 1.507256
1146.827, 1.486282
1147.309, 1.721527
1147.792, 1.928474
1148.274, 1.890678
1148.756, 1.682411
1149.238, 1.423264
1149.720, 1.045929
1150.202, 1.023720
1150.684, 1.398010
1151.166, 1.882477
1151.648, 2.462822
1152.131, 2.842247
1152.613, 2.529480
1153.095, 1.739372
1153.577, 1.423141
1154.059, 1.811844
1154.541, 2.004173
1155.023, 1.835197
1155.505, 1.631760
1155.988, 1.825523
1156.470, 2.165855
1156.952, 2.351257
1157.434, 2.364807
1157.916, 2.313393
1158.398, 2.211510
1158.880, 2.060287
1159.362, 1.856087
1159.844, 1.605713
1160.327, 1.219170
1160.809, 0.8304140
1161.291, 0.7470930
1161.773, 1.045959
1162.255, 1.265503
1162.737, 1.321327
1163.219, 1.290359
1163.701, 1.157806
1164.183, 1.007484
1164.666, 1.012268
1165.148, 1.137337
1165.630, 1.343201
1166.112, 1.684120
1166.594, 1.811142
1167.076, 1.449646
1167.558, 1.122192
1168.040, 1.088295
1168.523, 1.246964
1169.005, 1.280045
1169.487, 1.215233
1169.969, 1.155197
1170.451, 1.127304
1170.933, 1.121780
1171.415, 1.184517
1171.897, 1.214760
1172.380, 1.121391
1172.862, 0.9423520
1173.344, 0.8766170
1173.826, 0.9239730
1174.308, 1.077034
1174.790, 1.500351
1175.272, 1.764900
1175.754, 1.580994
1176.236, 1.265388
1176.719, 1.082718
1177.201, 1.021965
1177.683, 0.6912770
1178.165, 0.1520840
1178.647, 0.1157760
1179.129, 0.5029910
1179.611, 1.044670
1180.093, 0.9672850
1180.575, 0.6256870
1181.058, 0.3625790
1181.540, 0.1930160
1182.022, 0.3262860
1182.504, 0.7341540
1182.986, 1.182838
1183.468, 1.796692
1183.950, 2.179001
1184.432, 1.916771
1184.915, 1.279503
1185.397, 0.6169430
1185.879, 7.3853001E-02
1186.361, 0.1420520
1186.843, 0.4708180
1187.325, 1.066849
1187.807, 1.079193
1188.289, 0.9190290
1188.771, 0.8401950
1189.254, 0.8195500
1189.736, 0.7627410
1190.218, 0.6633910
1190.700, 0.7133330
1191.182, 0.9541930
1191.664, 1.099281
1192.146, 0.7627260
1192.628, 0.3671040
1193.110, 0.2230300
1193.593, 0.2955780
1194.075, 0.4695740
1194.557, 0.7687450
1195.039, 0.7820050
1195.521, 0.3889690
1196.003, 4.8179999E-02
1196.485, 0.3439100
1196.967, 0.7285920
1197.450, 0.6606450
1197.932, 0.2337110
1198.414, 0.1290280
1198.896, 0.3628920
1199.378, 0.5171130
1199.860, 0.4810710
1200.342, 0.4261630
1200.824, 0.5269780
1201.307, 0.6751860
1201.789, 0.7605970
1202.271, 0.7866130
1202.753, 0.9088290
1203.235, 1.148903
1203.717, 1.264168
1204.199, 1.165672
1204.681, 0.9709550
1205.163, 0.6784900
1205.646, 5.6641001E-02
1206.128, 0.4408870
1206.610, 0.7161940
1207.092, 0.7810970
1207.574, 5.6840000E-03
1208.056, 0.3153000
1208.538, 0.1901470
1209.020, 4.7508001E-02
1209.502, 0.5101780
1209.985, 0.1428760
1210.467, 0.3102870
1210.949, 0.3223650
1211.431, 0.5362240
1211.913, 0.3118440
1212.395, 0.2225270
1212.877, 0.5708770
1213.359, 0.6768110
1213.842, 0.4013290
1214.324, 0.6263200
1214.806, 4.3639999E-02
1215.288, 7.1037002E-02
1215.770, 0.5243840
1216.252, 0.2698360
1216.734, 0.5017470
1217.216, 0.5481950
1217.698, 0.2477490
1218.181, 0.4211880
1218.663, 0.4565050
1219.145, 0.1587520
1219.627, 0.1175230
1220.109, 8.7067001E-02
1220.591, 2.1790000E-02
1221.073, 3.2210998E-02
1221.555, 0.2577820
1222.037, 0.4528730
1222.520, 0.2980730
1223.002, 7.8277998E-02
1223.484, 0.2015530
1223.966, 0.7457280
1224.448, 0.7845990
1224.930, 0.3216930
1225.412, 0.1102980
1225.894, 0.2446370
1226.377, 0.2210390
1226.859, 7.1235999E-02
1227.341, 0.1477200
1227.823, 0.3982540
1228.305, 0.7044750
1228.787, 0.6974030
1229.269, 0.3933260
1229.751, 9.2124999E-02
1230.234, 4.1701999E-02
1230.716, 0.1087190
1231.198, 0.1929860
1231.680, 0.2240980
1232.162, 9.5694996E-02
1232.644, 0.2041850
1233.126, 0.3461610
1233.608, 0.3421630
1234.090, 0.3386920
1234.573, 0.5190050
1235.055, 0.6092610
1235.537, 0.2577820
1236.019, 9.7930998E-02
1236.501, 0.1175610
1236.983, 0.8773420
1237.465, 0.9458080
1237.947, 0.3846360
1238.429, 0.1892170
1238.912, 0.5401380
1239.394, 0.6802830
1239.876, 0.4119570
1240.358, 9.7847000E-02
1240.840, 0.1532670
1241.322, 0.5044710
1241.804, 0.5020750
1242.286, 0.1835630
1242.769, 0.1022260
1243.251, 0.2022020
1243.733, 0.1911010
1244.215, 1.8707000E-02
1244.697, 0.1534580
1245.179, 0.1709980
1245.661, 4.9782000E-02
1246.143, 0.1411900
1246.625, 0.3675160
1247.108, 0.4797290
1247.590, 0.2773900
1248.072, 0.1397550
1248.554, 0.1295240
1249.036, 0.2119370
1249.518, 0.4367520
1250.000, 0.7073820
1250.482, 0.6571880
1250.964, 0.3617780
1251.447, 0.1580200
1251.929, 0.2453610
1252.411, 0.3296130
1252.893, 0.3775710
1253.375, 0.4182590
1253.857, 0.5355150
1254.339, 0.6357570
1254.821, 0.4751130
1255.304, 0.1334840
1255.786, 7.4134998E-02
1256.268, 1.7921001E-02
1256.750, 0.1248780
1257.232, 0.4008560
1257.714, 0.6071400
1258.196, 0.4861530
1258.678, 0.2401280
1259.161, 0.1485670
1259.643, 0.1817700
1260.125, 0.1811980
1260.607, 6.1569002E-02
1261.089, 6.9954000E-02
1261.571, 0.2309650
1262.053, 0.4416810
1262.535, 0.6785430
1263.017, 0.8763580
1263.500, 0.9701690
1263.982, 0.9783710
1264.464, 0.9337230
1264.946, 0.8598790
1265.428, 0.7825320
1265.910, 0.6857070
1266.392, 0.6105190
1266.874, 0.6172180
1267.356, 0.6133960
1267.839, 0.5338900
1268.321, 0.4477770
1268.803, 0.5158080
1269.285, 0.7485810
1269.767, 0.8560260
1270.249, 0.8539350
1270.731, 0.7997360
1271.213, 0.6217420
1271.696, 0.5464710
1272.178, 0.4700390
1272.660, 0.4447630
1273.142, 0.6845860
1273.624, 1.063118
1274.106, 1.002762
1274.588, 0.6176760
1275.070, 0.3456340
1275.552, 0.5710450
1276.035, 0.7007290
1276.517, 0.4225620
1276.999, 0.1892010
1277.481, 0.6809010
1277.963, 1.571793
1278.445, 1.513657
1278.927, 0.7073440
1279.409, 0.1420360
1279.891, 0.5545350
1280.374, 0.8919070
1280.856, 0.9980850
1281.338, 0.9565280
1281.820, 0.7760310
1282.302, 0.5495530
1282.784, 0.4400020
1283.266, 0.4123610
1283.748, 0.4191210
1284.230, 0.5018460
1284.713, 0.5071640
1285.195, 0.4205470
1285.677, 0.3092800
1286.159, 0.1075970
1286.641, 2.0622000E-02
1287.123, 0.5116270
1287.605, 1.230309
1288.087, 1.428963
1288.570, 0.8818050
1289.052, 0.6387710
1289.534, 0.7270580
1290.016, 0.7970430
1290.498, 0.5098420
1290.980, 0.2456970
1291.462, 0.4110110
1291.944, 0.6885990
1292.427, 0.5978620
1292.909, 0.1042560
1293.391, 4.8248000E-02
1293.873, 0.3822480
1294.355, 0.6576080
1294.837, 0.6327970
1295.319, 0.5072780
1295.801, 0.2071460
1296.283, 2.0027000E-02
1296.766, 9.2377000E-02
1297.248, 0.4412840
1297.730, 0.4236600
1298.212, 0.1486660
1298.694, 1.5815999E-02
1299.176, 7.7522002E-02
1299.658, 0.2933350
1300.140, 0.7343220
1300.622, 1.090874
1301.105, 1.165070
1301.587, 1.043953
1302.069, 0.5548020
1302.551, 0.0000000E+00
##END=



