##NAMES=Scawtite
##RRUFFID=R060340
##IDEAL CHEMISTRY=Ca_7_(Si_3_O_9_)_2_(CO_3_)&#183;2H_2_O
##LOCALITY=Crestmore Quarry, near Riverside, Riverside County, California, USA
##OWNER=RRUFF
##SOURCE=Michael Scott
##DESCRIPTION=Aggregates of tabular colorless crystals, associated with grossular, calcite, and monticellite
##STATUS=The identification of this mineral has been confirmed by single-crystal X-ray diffraction.
##URL=rruff.info/R060340
92.04205, 0.0000000E+00
92.52417, 0.1018300
93.00629, 1.265335
93.48840, 2.651718
93.97052, 3.456886
94.45264, 3.233826
94.93475, 3.325012
95.41687, 3.157616
95.89898, 2.667870
96.38110, 2.098915
96.86321, 1.731400
97.34533, 1.553085
97.82745, 1.210724
98.30956, 0.8760600
98.79168, 0.4583660
99.27380, 0.1905980
99.75591, 0.2270740
100.2380, 0.4515380
100.7201, 0.5352170
101.2023, 0.1712720
101.6844, 0.4549940
102.1665, 0.6301040
102.6486, 1.8279999E-02
103.1307, 0.7962490
103.6128, 1.228149
104.0950, 1.200851
104.5771, 1.199402
105.0592, 1.405357
105.5413, 1.823853
106.0234, 2.544373
106.5055, 3.743355
106.9877, 5.292206
107.4698, 6.670563
107.9519, 7.727150
108.4340, 8.777191
108.9161, 9.879166
109.3982, 11.06843
109.8804, 12.40092
110.3625, 13.95142
110.8446, 15.75021
111.3267, 17.57349
111.8088, 19.42971
112.2909, 21.30220
112.7731, 23.10345
113.2552, 24.85682
113.7373, 26.74117
114.2194, 29.00788
114.7015, 31.87617
115.1836, 34.84873
115.6658, 37.91978
116.1479, 41.08542
116.6300, 44.29707
117.1121, 47.53745
117.5942, 50.91560
118.0763, 54.74847
118.5584, 59.23909
119.0406, 63.65276
119.5227, 67.68140
120.0048, 71.44759
120.4869, 75.35440
120.9690, 79.67297
121.4511, 84.13367
121.9333, 88.25208
122.4154, 92.01544
122.8975, 95.46051
123.3796, 98.65760
123.8617, 101.6506
124.3438, 104.0843
124.8260, 105.9108
125.3081, 107.0085
125.7902, 107.1058
126.2723, 106.0589
126.7544, 104.0107
127.2365, 101.2903
127.7187, 97.88669
128.2008, 93.66463
128.6829, 88.52744
129.1650, 82.71017
129.6471, 76.48006
130.1292, 69.92428
130.6114, 63.08699
131.0935, 56.62981
131.5756, 50.34445
132.0577, 44.63412
132.5398, 39.70291
133.0219, 35.46675
133.5041, 31.73181
133.9862, 28.29549
134.4683, 25.10509
134.9504, 22.69709
135.4325, 21.37318
135.9146, 20.79128
136.3968, 20.75939
136.8789, 21.18868
137.3610, 21.65739
137.8431, 21.77351
138.3252, 21.52982
138.8073, 21.75776
139.2895, 22.85725
139.7716, 24.16883
140.2537, 24.96598
140.7358, 25.27084
141.2179, 25.35055
141.7000, 25.54200
142.1821, 25.84541
142.6643, 26.21134
143.1464, 26.59305
143.6285, 27.01460
144.1106, 27.57402
144.5927, 28.34196
145.0748, 29.21112
145.5570, 30.06722
146.0391, 30.90766
146.5212, 31.78933
147.0033, 32.76505
147.4854, 33.84232
147.9675, 34.95432
148.4497, 36.22510
148.9318, 37.44955
149.4139, 38.52015
149.8960, 39.40228
150.3781, 40.15140
150.8602, 40.82973
151.3424, 41.50594
151.8245, 41.93697
152.3066, 42.01067
152.7887, 41.93867
153.2708, 41.91682
153.7529, 42.01385
154.2351, 42.11468
154.7172, 41.92438
155.1993, 41.06201
155.6814, 40.34509
156.1635, 39.87586
156.6456, 39.55153
157.1278, 39.25006
157.6099, 38.90868
158.0920, 38.55196
158.5741, 38.29208
159.0562, 38.12022
159.5383, 38.02846
160.0205, 37.97286
160.5026, 38.00744
160.9847, 38.23118
161.4668, 38.71920
161.9489, 39.44791
162.4310, 40.23647
162.9131, 41.32834
163.3953, 42.25124
163.8774, 42.75057
164.3595, 42.83908
164.8416, 42.61256
165.3237, 42.03257
165.8058, 41.17051
166.2880, 40.24965
166.7701, 39.47935
167.2522, 38.50456
167.7343, 36.81451
168.2164, 34.27882
168.6985, 31.66270
169.1807, 29.36739
169.6628, 27.28039
170.1449, 25.28938
170.6270, 23.41228
171.1091, 21.58195
171.5912, 19.61945
172.0734, 17.40529
172.5555, 15.28390
173.0376, 13.33505
173.5197, 11.53885
174.0018, 9.855911
174.4839, 8.264969
174.9661, 6.774506
175.4482, 5.463234
175.9303, 4.434624
176.4124, 3.492653
176.8945, 2.633957
177.3766, 1.819870
177.8588, 0.9908750
178.3409, 7.9414003E-02
178.8230, 0.9187390
179.3051, 1.698513
179.7872, 2.134266
180.2693, 2.480728
180.7515, 2.862350
181.2336, 3.224888
181.7157, 3.397652
182.1978, 3.207790
182.6799, 2.598782
183.1620, 2.184624
183.6441, 2.032097
184.1263, 1.965282
184.6084, 1.951126
185.0905, 1.961807
185.5726, 1.939144
186.0547, 1.847572
186.5368, 1.683212
187.0190, 1.308346
187.5011, 0.4471700
187.9832, 0.4209210
188.4653, 0.8616830
188.9474, 0.8439060
189.4296, 0.7891310
189.9117, 1.113544
190.3938, 1.814518
190.8759, 2.535061
191.3580, 3.241135
191.8401, 3.945774
192.3223, 4.671402
192.8044, 5.425621
193.2865, 6.178787
193.7686, 6.924187
194.2507, 7.653656
194.7328, 8.314011
195.2150, 8.835320
195.6971, 9.287277
196.1792, 9.817444
196.6613, 10.46684
197.1434, 11.12979
197.6255, 11.75520
198.1077, 12.34154
198.5898, 12.86008
199.0719, 13.24104
199.5540, 13.53007
200.0361, 13.94072
200.5182, 14.61101
201.0004, 15.21412
201.4825, 15.59076
201.9646, 15.77473
202.4467, 15.84439
202.9288, 15.77596
203.4109, 15.58849
203.8930, 15.62429
204.3752, 16.07764
204.8573, 16.57360
205.3394, 16.95161
205.8215, 17.25064
206.3036, 17.58421
206.7857, 18.03673
207.2679, 18.60988
207.7500, 19.27269
208.2321, 20.20604
208.7142, 21.06778
209.1963, 21.65632
209.6784, 22.05833
210.1606, 22.52157
210.6427, 23.29089
211.1248, 24.41425
211.6069, 25.37585
212.0890, 26.02900
212.5711, 26.67120
213.0533, 27.48234
213.5354, 28.40775
214.0175, 29.25332
214.4996, 29.82896
214.9817, 30.08896
215.4638, 30.38754
215.9460, 30.75330
216.4281, 31.12366
216.9102, 31.52858
217.3923, 31.93186
217.8744, 32.21280
218.3565, 32.24018
218.8387, 31.97361
219.3208, 31.78733
219.8029, 31.59930
220.2850, 31.54229
220.7671, 31.71722
221.2492, 32.11681
221.7314, 32.64268
222.2135, 33.21364
222.6956, 33.83905
223.1777, 34.57072
223.6598, 35.30408
224.1419, 36.21497
224.6240, 37.55106
225.1062, 39.29945
225.5883, 41.02158
226.0704, 42.33141
226.5525, 43.26889
227.0346, 44.30187
227.5167, 45.47049
227.9989, 46.73634
228.4810, 48.11481
228.9631, 49.61074
229.4452, 51.02977
229.9273, 52.23415
230.4094, 53.23605
230.8916, 54.07897
231.3737, 54.66886
231.8558, 55.15326
232.3379, 55.67940
232.8200, 56.24631
233.3021, 56.86263
233.7843, 57.67102
234.2664, 58.50925
234.7485, 59.09092
235.2306, 59.16385
235.7127, 59.09490
236.1948, 59.41360
236.6770, 60.20678
237.1591, 60.93196
237.6412, 61.38889
238.1233, 61.62788
238.6054, 61.67649
239.0875, 61.56256
239.5697, 61.24863
240.0518, 60.57953
240.5339, 59.40280
241.0160, 58.45757
241.4981, 58.13383
241.9802, 58.10176
242.4624, 58.10906
242.9445, 58.09565
243.4266, 58.00751
243.9087, 57.69954
244.3908, 57.04262
244.8729, 56.57717
245.3550, 56.50984
245.8372, 56.68187
246.3193, 57.01041
246.8014, 57.49813
247.2835, 58.03492
247.7656, 58.37364
248.2477, 58.27746
248.7299, 58.47361
249.2120, 59.40723
249.6941, 60.46138
250.1762, 61.16863
250.6583, 61.38900
251.1404, 61.29506
251.6226, 61.16182
252.1047, 60.98515
252.5868, 60.75233
253.0689, 60.69486
253.5510, 60.41156
254.0331, 59.59872
254.5153, 58.20101
254.9974, 56.48069
255.4795, 54.82845
255.9616, 53.35552
256.4437, 51.71067
256.9258, 49.76655
257.4080, 47.77301
257.8901, 45.87551
258.3722, 44.10836
258.8543, 42.40988
259.3364, 40.69874
259.8185, 38.96032
260.3007, 37.24578
260.7828, 35.57418
261.2649, 33.89072
261.7470, 32.12056
262.2291, 30.27583
262.7112, 28.49023
263.1934, 26.91231
263.6755, 25.59914
264.1576, 24.30082
264.6397, 22.86703
265.1218, 21.56939
265.6039, 20.61837
266.0861, 19.98423
266.5682, 19.46953
267.0503, 18.90299
267.5324, 18.30281
268.0145, 17.51074
268.4966, 16.32781
268.9788, 15.17419
269.4609, 14.26994
269.9430, 13.59366
270.4251, 12.99945
270.9072, 12.37115
271.3893, 11.71099
271.8715, 11.08259
272.3536, 10.36812
272.8357, 9.790909
273.3178, 9.586964
273.7999, 9.621490
274.2820, 9.504646
274.7642, 8.930405
275.2463, 7.961941
275.7284, 7.412746
276.2105, 7.508324
276.6926, 7.665211
277.1747, 7.682232
277.6568, 7.611370
278.1389, 7.580753
278.6211, 7.656666
279.1032, 7.829380
279.5853, 8.069103
280.0674, 8.422806
280.5495, 8.774082
281.0316, 9.037224
281.5138, 9.285206
281.9959, 9.682117
282.4780, 10.32175
282.9601, 11.07489
283.4422, 11.58833
283.9243, 11.79709
284.4065, 11.94369
284.8886, 12.02458
285.3707, 12.08563
285.8528, 12.21364
286.3349, 12.44603
286.8170, 12.69683
287.2992, 12.80267
287.7813, 12.70813
288.2634, 12.67068
288.7455, 12.73723
289.2276, 12.87928
289.7097, 13.08614
290.1919, 13.35851
290.6740, 13.63361
291.1561, 13.84946
291.6382, 14.00894
292.1203, 14.05947
292.6024, 13.91191
293.0846, 13.69958
293.5667, 13.61840
294.0488, 13.68632
294.5309, 13.62869
295.0130, 13.16124
295.4951, 12.26407
295.9773, 11.36881
296.4594, 10.52327
296.9415, 9.660019
297.4236, 8.707855
297.9057, 7.675343
298.3878, 6.631908
298.8700, 5.602684
299.3521, 4.609886
299.8342, 3.726974
300.3163, 3.057407
300.7984, 2.408787
301.2805, 1.585716
301.7627, 0.6518630
302.2448, 8.9794002E-02
302.7269, 0.4143370
303.2090, 0.4893420
303.6911, 0.8498080
304.1732, 1.750698
304.6554, 2.504208
305.1375, 2.738152
305.6196, 2.587246
306.1017, 2.382149
306.5838, 2.227715
307.0659, 2.110172
307.5481, 2.016113
308.0302, 1.961796
308.5123, 1.869438
308.9944, 1.777328
309.4765, 1.618488
309.9586, 1.247696
310.4408, 0.6066740
310.9229, 0.1531940
311.4050, 0.8083310
311.8871, 1.347965
312.3692, 2.021004
312.8513, 2.933979
313.3335, 3.978504
313.8156, 5.033581
314.2977, 6.078613
314.7798, 7.153072
315.2619, 8.231026
315.7440, 9.347446
316.2262, 10.80801
316.7083, 12.91726
317.1904, 15.18287
317.6725, 17.18272
318.1546, 18.92490
318.6367, 20.64517
319.1188, 22.44983
319.6010, 24.37698
320.0831, 26.53633
320.5652, 29.17382
321.0473, 31.80181
321.5294, 34.09230
322.0115, 36.13071
322.4937, 38.23971
322.9758, 40.52198
323.4579, 43.00920
323.9400, 45.72743
324.4221, 48.71654
324.9042, 51.80793
325.3864, 54.94475
325.8685, 58.14746
326.3506, 61.43407
326.8327, 64.77921
327.3148, 68.34698
327.7969, 72.49051
328.2791, 77.26578
328.7612, 82.09824
329.2433, 86.90064
329.7254, 91.68780
330.2075, 96.49258
330.6896, 101.2879
331.1718, 106.0555
331.6539, 110.8392
332.1360, 115.6656
332.6181, 120.4841
333.1002, 125.5934
333.5823, 130.3795
334.0645, 134.5595
334.5466, 138.0601
335.0287, 140.7824
335.5108, 142.6504
335.9929, 143.6010
336.4750, 143.5928
336.9572, 142.6023
337.4393, 140.8197
337.9214, 138.1041
338.4035, 134.6503
338.8856, 130.8754
339.3677, 126.9335
339.8499, 122.8889
340.3320, 118.9051
340.8141, 114.8634
341.2962, 111.0383
341.7783, 107.4457
342.2604, 104.1148
342.7426, 101.0617
343.2247, 98.30195
343.7068, 95.93198
344.1889, 94.08542
344.6710, 92.83163
345.1531, 92.12048
345.6353, 92.23290
346.1174, 92.70281
346.5995, 93.13954
347.0816, 93.53296
347.5637, 94.17556
348.0458, 95.34295
348.5280, 97.06855
349.0101, 98.85112
349.4922, 100.7236
349.9743, 102.6087
350.4564, 104.3873
350.9385, 106.1356
351.4207, 108.0479
351.9028, 110.2367
352.3849, 112.6492
352.8670, 115.0904
353.3491, 118.2674
353.8312, 120.5954
354.3134, 121.2805
354.7955, 121.2692
355.2776, 121.6871
355.7597, 122.8959
356.2418, 124.3805
356.7239, 125.2846
357.2061, 125.2927
357.6882, 125.3227
358.1703, 125.4585
358.6524, 125.5491
359.1345, 125.4145
359.6166, 125.0878
360.0987, 124.8053
360.5808, 124.8359
361.0630, 125.2595
361.5451, 125.3582
362.0272, 125.1885
362.5093, 124.6032
362.9914, 123.6116
363.4735, 122.2126
363.9557, 120.3693
364.4378, 118.0411
364.9199, 115.2779
365.4020, 112.3097
365.8841, 109.3353
366.3662, 105.8191
366.8484, 101.4558
367.3305, 96.69923
367.8126, 91.99287
368.2947, 87.50946
368.7768, 83.08366
369.2589, 78.35105
369.7411, 73.13209
370.2232, 68.09142
370.7053, 63.15787
371.1874, 58.45460
371.6695, 53.97463
372.1516, 49.76195
372.6338, 45.83541
373.1159, 42.28607
373.5980, 39.10900
374.0801, 35.90905
374.5622, 32.49123
375.0443, 29.30410
375.5265, 26.44997
376.0086, 23.90799
376.4907, 21.68588
376.9728, 19.79757
377.4549, 18.16702
377.9370, 16.63636
378.4192, 15.23103
378.9013, 13.85603
379.3834, 12.47741
379.8655, 11.12176
380.3476, 9.796196
380.8297, 8.503353
381.3119, 7.282871
381.7940, 6.140953
382.2761, 5.077938
382.7582, 4.274246
383.2403, 3.946075
383.7224, 3.661022
384.2046, 3.062019
384.6867, 2.240688
385.1688, 1.518127
385.6509, 1.143452
386.1330, 0.9802890
386.6151, 0.6788410
387.0973, 0.1710700
387.5794, 0.2237360
388.0615, 0.1395650
388.5436, 0.1223450
389.0257, 0.1036640
389.5078, 0.4109380
389.9900, 0.9869040
390.4721, 1.223019
390.9542, 1.158417
391.4363, 1.090557
391.9184, 1.123180
392.4005, 1.183731
392.8827, 1.168247
393.3648, 1.073338
393.8469, 0.9721830
394.3290, 0.8755420
394.8111, 0.7956240
395.2932, 0.7645680
395.7754, 0.7913440
396.2575, 0.8252750
396.7396, 0.8761410
397.2217, 0.9126240
397.7038, 0.7058030
398.1859, 5.3619001E-02
398.6681, 0.6790850
399.1501, 1.275761
399.6323, 1.753311
400.1144, 2.187077
400.5965, 2.601833
401.0786, 3.017040
401.5607, 3.490536
402.0428, 4.066849
402.5250, 4.614136
403.0071, 5.155647
403.4892, 5.635693
403.9713, 6.000069
404.4534, 6.232231
404.9355, 6.318150
405.4177, 6.222713
405.8998, 5.900097
406.3819, 5.618385
406.8640, 5.549679
407.3461, 5.356960
407.8282, 4.788654
408.3104, 3.953362
408.7925, 3.130817
409.2746, 2.485382
409.7567, 1.992344
410.2388, 1.525272
410.7209, 1.120071
411.2031, 0.6962390
411.6852, 8.7761000E-02
412.1673, 0.4565960
412.6494, 0.6403920
413.1315, 0.4142230
413.6136, 4.6576999E-02
414.0958, 9.8846003E-02
414.5779, 4.5540001E-02
415.0600, 0.1396060
415.5421, 0.2308160
416.0242, 0.2233960
416.5063, 5.8369000E-02
416.9885, 0.2401470
417.4706, 0.6113850
417.9527, 1.026730
418.4348, 1.479263
418.9169, 1.954803
419.3990, 2.460270
419.8812, 2.969681
420.3633, 3.418964
420.8454, 3.894958
421.3275, 4.495045
421.8096, 5.244068
422.2917, 6.037933
422.7739, 6.767498
423.2560, 7.435471
423.7381, 8.130783
424.2202, 8.875443
424.7023, 9.636787
425.1844, 10.49443
425.6666, 11.37638
426.1487, 12.01365
426.6308, 12.18896
427.1129, 12.10214
427.5950, 12.03533
428.0771, 11.99267
428.5593, 11.92674
429.0414, 11.87474
429.5235, 11.74106
430.0056, 11.34208
430.4877, 10.56562
430.9698, 9.777811
431.4520, 9.183067
431.9341, 8.704399
432.4162, 8.158684
432.8983, 7.490391
433.3804, 6.845142
433.8625, 6.393297
434.3447, 6.159985
434.8268, 5.993237
435.3089, 5.879112
435.7910, 5.837538
436.2731, 5.913065
436.7552, 6.079262
437.2374, 6.240379
437.7195, 6.329788
438.2016, 6.393970
438.6837, 6.611731
439.1658, 7.058767
439.6479, 7.568258
440.1301, 8.130768
440.6122, 8.749229
441.0943, 9.403179
441.5764, 10.09714
442.0585, 10.89970
442.5406, 11.91811
443.0227, 13.21358
443.5049, 14.29434
443.9870, 14.84093
444.4691, 15.49863
444.9512, 16.55154
445.4333, 17.80488
445.9154, 19.00992
446.3976, 20.02924
446.8797, 20.90057
447.3618, 21.74301
447.8439, 22.63729
448.3260, 23.26213
448.8081, 23.44077
449.2903, 23.44534
449.7724, 23.39196
450.2545, 23.30335
450.7366, 23.20417
451.2187, 23.14377
451.7008, 23.09643
452.1830, 22.96574
452.6651, 22.77621
453.1472, 22.43122
453.6293, 21.74424
454.1114, 20.89155
454.5935, 20.14836
455.0757, 19.70478
455.5578, 19.14632
456.0399, 18.04761
456.5220, 16.49771
457.0041, 14.97570
457.4862, 13.60039
457.9684, 12.34015
458.4505, 11.20303
458.9326, 10.19149
459.4147, 9.091373
459.8968, 7.645073
460.3789, 6.258354
460.8611, 5.351231
461.3432, 4.875023
461.8253, 4.446314
462.3074, 3.817795
462.7895, 3.063976
463.2716, 2.483604
463.7538, 2.119614
464.2359, 1.859137
464.7180, 1.726757
465.2001, 1.669561
465.6822, 1.627522
466.1643, 1.591461
466.6465, 1.605560
467.1286, 1.724619
467.6107, 1.961491
468.0928, 2.184105
468.5749, 2.314962
469.0570, 2.515488
469.5392, 2.843529
470.0213, 3.246653
470.5034, 3.662987
470.9855, 4.080471
471.4676, 4.572136
471.9497, 5.299889
472.4319, 6.341892
472.9140, 7.248531
473.3961, 7.813425
473.8782, 8.344170
474.3603, 8.976700
474.8424, 9.719200
475.3246, 10.57963
475.8067, 11.60827
476.2888, 12.73860
476.7709, 13.80436
477.2530, 14.77066
477.7351, 15.87968
478.2173, 17.38994
478.6994, 19.03303
479.1815, 20.34775
479.6636, 21.21693
480.1457, 22.11517
480.6278, 23.34665
481.1100, 24.75000
481.5920, 26.05764
482.0742, 27.22449
482.5563, 28.25421
483.0384, 29.10441
483.5205, 29.78168
484.0026, 30.64145
484.4847, 31.83066
484.9669, 33.02771
485.4490, 34.15409
485.9311, 35.19330
486.4132, 36.11053
486.8953, 36.89667
487.3774, 37.59970
487.8596, 38.28725
488.3417, 38.94823
488.8238, 39.63814
489.3059, 40.53841
489.7880, 41.29082
490.2701, 41.70449
490.7523, 41.82760
491.2344, 41.80654
491.7165, 41.73636
492.1986, 41.55908
492.6807, 41.10284
493.1628, 40.31861
493.6450, 39.39509
494.1271, 38.38078
494.6092, 37.23643
495.0913, 35.86810
495.5734, 34.30252
496.0555, 32.73552
496.5377, 31.33642
497.0198, 30.04700
497.5019, 28.76237
497.9840, 27.51817
498.4661, 26.08236
498.9482, 24.14118
499.4304, 21.97413
499.9125, 20.12901
500.3946, 18.69952
500.8767, 17.41388
501.3588, 16.15022
501.8409, 14.93091
502.3231, 13.79125
502.8052, 12.74449
503.2873, 11.72580
503.7694, 10.65695
504.2515, 9.518385
504.7336, 8.503906
505.2158, 7.608585
505.6979, 6.840012
506.1800, 6.274353
506.6621, 5.818470
507.1442, 5.333624
507.6263, 4.768234
508.1085, 4.184496
508.5906, 3.690487
509.0727, 3.313614
509.5548, 2.951151
510.0369, 2.560070
510.5190, 2.220469
511.0012, 1.973925
511.4833, 1.803164
511.9654, 1.671530
512.4475, 1.557159
512.9296, 1.447994
513.4117, 1.350895
513.8939, 1.288971
514.3760, 1.164270
514.8581, 0.8527550
515.3402, 0.5538640
515.8223, 0.4468400
516.3044, 0.5163540
516.7866, 0.6207540
517.2687, 0.7011170
517.7508, 0.7580530
518.2329, 0.7729640
518.7150, 0.7682130
519.1971, 0.8718610
519.6793, 1.165195
520.1614, 1.556238
520.6435, 1.850758
521.1256, 2.046652
521.6077, 2.177582
522.0898, 2.187092
522.5720, 2.173420
523.0541, 2.206505
523.5362, 2.303225
524.0183, 2.479626
524.5004, 2.756227
524.9825, 3.114172
525.4647, 3.441299
525.9468, 3.690334
526.4289, 3.936993
526.9110, 4.222324
527.3931, 4.505926
527.8752, 4.780289
528.3574, 5.028454
528.8395, 5.195705
529.3216, 5.213234
529.8037, 5.104858
530.2858, 5.004124
530.7679, 4.889702
531.2501, 4.834209
531.7322, 4.973269
532.2143, 5.137550
532.6964, 5.138723
533.1785, 4.933832
533.6606, 4.670815
534.1428, 4.411095
534.6249, 4.168396
535.1070, 3.979010
535.5891, 3.850847
536.0712, 3.730186
536.5533, 3.570848
537.0355, 3.384596
537.5176, 3.246222
537.9997, 3.195560
538.4818, 3.138771
538.9639, 3.009287
539.4460, 2.876902
539.9282, 2.833725
540.4103, 2.895603
540.8924, 3.008528
541.3745, 3.116816
541.8566, 3.219460
542.3387, 3.351807
542.8209, 3.494806
543.3029, 3.694378
543.7850, 4.046246
544.2672, 4.417139
544.7493, 4.626205
545.2314, 4.633823
545.7135, 4.617554
546.1956, 4.808079
546.6777, 5.180569
547.1599, 5.429068
547.6420, 5.513853
548.1241, 5.524632
548.6062, 5.479618
549.0883, 5.404612
549.5704, 5.345924
550.0526, 5.339516
550.5347, 5.290165
551.0168, 5.142385
551.4989, 4.907463
551.9810, 4.581713
552.4631, 4.161760
552.9453, 3.748224
553.4274, 3.445864
553.9095, 3.254213
554.3916, 2.996780
554.8737, 2.638670
555.3558, 2.267258
555.8380, 1.835392
556.3201, 1.433117
556.8022, 1.207516
557.2843, 1.178108
557.7664, 1.193592
558.2485, 1.075714
558.7307, 0.8201690
559.2128, 0.5768800
559.6949, 0.3437610
560.1770, 0.1304490
560.6591, 9.8438002E-02
561.1412, 0.2925970
561.6234, 0.3634850
562.1055, 0.2761920
562.5876, 0.2018050
563.0697, 0.3178140
563.5518, 0.5689660
564.0339, 0.7806630
564.5161, 0.9386510
564.9982, 1.028000
565.4803, 1.007035
565.9624, 0.9066130
566.4445, 0.8712530
566.9266, 0.9568060
567.4088, 1.027491
567.8909, 1.011678
568.3730, 0.9675120
568.8551, 0.9968260
569.3372, 1.102029
569.8193, 1.153777
570.3015, 1.009290
570.7836, 0.6863050
571.2657, 0.5433060
571.7478, 0.7532770
572.2299, 0.9161890
572.7120, 0.9319700
573.1942, 0.9025280
573.6763, 0.9536690
574.1584, 1.088305
574.6405, 1.160463
575.1226, 0.9645960
575.6047, 0.5906960
576.0869, 0.4422090
576.5690, 0.5728380
577.0511, 0.7048870
577.5332, 0.7142200
578.0153, 0.6410880
578.4974, 0.5556410
578.9796, 0.4588700
579.4617, 0.3523310
579.9438, 0.2104510
580.4259, 7.5158998E-02
580.9080, 1.2503000E-02
581.3901, 4.8053999E-02
581.8723, 2.0563001E-02
582.3544, 9.4691999E-02
582.8365, 0.2433890
583.3186, 0.2396530
583.8007, 2.6997000E-02
584.2828, 0.2865720
584.7650, 0.6194760
585.2471, 0.8749160
585.7292, 0.8699780
586.2113, 0.6890540
586.6934, 0.6044980
587.1755, 0.8049740
587.6577, 1.172798
588.1398, 1.448071
588.6219, 1.624641
589.1040, 1.747488
589.5861, 1.786892
590.0682, 1.820986
590.5504, 1.934320
591.0325, 2.113029
591.5146, 2.265379
591.9967, 2.332790
592.4788, 2.388226
592.9609, 2.512848
593.4431, 2.676868
593.9252, 2.750589
594.4073, 2.673141
594.8894, 2.637640
595.3715, 2.950546
595.8536, 3.749577
596.3358, 4.271219
596.8179, 4.347834
597.3000, 4.376694
597.7821, 4.480923
598.2642, 4.631676
598.7463, 4.770166
599.2285, 4.877422
599.7106, 4.987679
600.1927, 5.168444
600.6748, 5.414942
601.1569, 5.556366
601.6390, 5.527987
602.1212, 5.515545
602.6033, 5.662531
603.0854, 5.881676
603.5675, 6.027222
604.0496, 6.045326
604.5317, 6.101873
605.0139, 6.317030
605.4960, 6.607084
605.9781, 6.883398
606.4602, 7.122103
606.9423, 7.246435
607.4244, 7.178804
607.9066, 6.974552
608.3887, 6.885887
608.8708, 7.050463
609.3529, 7.136202
609.8350, 7.082106
610.3171, 6.987753
610.7993, 6.896074
611.2814, 6.826681
611.7635, 6.806374
612.2456, 6.856298
612.7277, 6.958828
613.2098, 7.094475
613.6920, 7.269606
614.1741, 7.392399
614.6562, 7.410233
615.1383, 7.411066
615.6204, 7.475992
616.1025, 7.597960
616.5847, 7.752693
617.0668, 7.992701
617.5489, 8.201843
618.0310, 8.243164
618.5131, 8.205379
618.9952, 8.293467
619.4774, 8.572599
619.9595, 8.926485
620.4416, 9.192602
620.9237, 9.344423
621.4058, 9.637337
621.8879, 10.28730
622.3701, 10.82419
622.8522, 10.95838
623.3343, 11.05399
623.8164, 11.54104
624.2985, 12.46933
624.7806, 13.43739
625.2628, 14.03117
625.7448, 14.43673
626.2269, 15.13370
626.7090, 16.13835
627.1912, 17.33296
627.6733, 18.73943
628.1554, 20.26226
628.6375, 21.66787
629.1196, 22.83279
629.6017, 24.34167
630.0839, 26.44387
630.5660, 28.79430
631.0481, 31.11399
631.5302, 33.49017
632.0123, 36.14480
632.4944, 39.17241
632.9766, 42.64368
633.4587, 46.70552
633.9408, 51.45559
634.4229, 56.28347
634.9050, 61.06995
635.3871, 66.06770
635.8693, 71.40256
636.3514, 76.98498
636.8335, 82.66931
637.3156, 88.37108
637.7977, 94.30276
638.2798, 100.5042
638.7620, 107.0150
639.2441, 113.9966
639.7262, 121.4373
640.2083, 129.3070
640.6904, 137.5482
641.1725, 146.2383
641.6547, 155.7097
642.1368, 166.1887
642.6189, 177.1122
643.1010, 188.0715
643.5831, 199.7990
644.0652, 212.9559
644.5474, 227.3038
645.0295, 242.2802
645.5116, 257.5466
645.9937, 273.1563
646.4758, 289.5416
646.9579, 306.6862
647.4401, 322.7827
647.9222, 337.9391
648.4043, 351.1155
648.8864, 361.7347
649.3685, 369.6525
649.8506, 374.1537
650.3328, 375.9149
650.8149, 373.1328
651.2970, 364.3132
651.7791, 350.9874
652.2612, 334.3085
652.7433, 314.8523
653.2255, 293.6089
653.7076, 271.0986
654.1897, 247.8651
654.6718, 225.5859
655.1539, 203.9958
655.6360, 184.1553
656.1182, 166.5138
656.6003, 150.4819
657.0824, 135.8597
657.5645, 122.6117
658.0466, 110.8329
658.5287, 100.6916
659.0109, 91.71806
659.4930, 83.63111
659.9751, 76.36970
660.4572, 69.62801
660.9393, 63.35716
661.4214, 57.77792
661.9036, 53.13006
662.3857, 49.34141
662.8678, 45.71335
663.3499, 42.18845
663.8320, 38.91372
664.3141, 35.92043
664.7963, 33.15379
665.2784, 30.51397
665.7605, 28.04468
666.2426, 25.94404
666.7247, 24.40475
667.2068, 23.16092
667.6890, 21.69671
668.1711, 20.02084
668.6532, 18.40527
669.1353, 16.85567
669.6174, 15.53575
670.0995, 14.73557
670.5817, 14.38610
671.0638, 13.77625
671.5459, 12.58825
672.0280, 11.51680
672.5101, 10.84262
672.9922, 10.36789
673.4744, 9.898689
673.9565, 9.398338
674.4386, 8.898470
674.9207, 8.416704
675.4028, 7.958923
675.8849, 7.529919
676.3671, 7.113443
676.8492, 6.805319
677.3313, 6.696360
677.8134, 6.619406
678.2955, 6.430212
678.7776, 6.159952
679.2598, 5.919645
679.7419, 5.717245
680.2240, 5.573019
680.7061, 5.487673
681.1882, 5.472689
681.6703, 5.560585
682.1525, 5.753937
682.6346, 6.003298
683.1167, 6.268471
683.5988, 6.545597
684.0809, 6.819632
684.5630, 7.065138
685.0452, 7.362396
685.5273, 7.783176
686.0094, 8.198660
686.4915, 8.508026
686.9736, 8.749397
687.4557, 9.047407
687.9379, 9.457298
688.4200, 9.913570
688.9021, 10.36942
689.3842, 10.83033
689.8663, 11.29380
690.3484, 11.76121
690.8306, 12.23940
691.3127, 12.76312
691.7948, 13.28235
692.2769, 13.55703
692.7590, 13.42519
693.2411, 13.30813
693.7233, 13.12542
694.2054, 13.05436
694.6875, 13.26462
695.1696, 13.67244
695.6517, 14.04317
696.1339, 14.24641
696.6160, 14.46532
697.0981, 14.92628
697.5802, 15.57510
698.0623, 16.23604
698.5444, 16.88019
699.0266, 17.52445
699.5087, 18.17892
699.9908, 18.84254
700.4729, 19.50314
700.9550, 20.12807
701.4371, 20.79696
701.9193, 21.44049
702.4014, 22.19284
702.8835, 23.20228
703.3656, 24.37373
703.8477, 25.50133
704.3298, 26.49237
704.8120, 27.49101
705.2941, 28.69296
705.7762, 30.04121
706.2583, 31.30657
706.7404, 32.47151
707.2225, 33.53872
707.7046, 34.44261
708.1867, 35.29672
708.6688, 36.44249
709.1509, 38.08145
709.6331, 39.49690
710.1152, 40.65633
710.5973, 41.58102
711.0794, 42.22250
711.5615, 42.64997
712.0436, 43.03542
712.5258, 43.43253
713.0079, 43.55458
713.4900, 42.99028
713.9721, 41.84203
714.4542, 40.67871
714.9363, 39.55551
715.4185, 38.21427
715.9006, 36.47748
716.3827, 34.52579
716.8648, 32.65604
717.3469, 30.90010
717.8290, 29.14117
718.3112, 27.32277
718.7933, 25.55041
719.2754, 23.88611
719.7575, 22.29291
720.2396, 20.65616
720.7217, 18.97535
721.2039, 17.44166
721.6860, 16.31961
722.1681, 15.49029
722.6502, 14.42586
723.1323, 13.06618
723.6144, 11.87977
724.0966, 11.05121
724.5787, 10.42738
725.0608, 9.869198
725.5429, 9.362841
726.0250, 8.827145
726.5071, 8.175079
726.9893, 7.588421
727.4714, 7.176041
727.9535, 6.844217
728.4356, 6.474003
728.9177, 6.057568
729.3998, 5.702301
729.8820, 5.520441
730.3641, 5.420254
730.8462, 5.173609
731.3283, 4.774656
731.8104, 4.342833
732.2925, 3.883320
732.7747, 3.448994
733.2568, 3.076355
733.7389, 2.752638
734.2210, 2.438175
734.7031, 2.130978
735.1852, 1.845819
735.6674, 1.614267
736.1495, 1.379801
736.6316, 1.068542
737.1137, 0.7160530
737.5958, 0.4292720
738.0779, 0.2574310
738.5601, 0.1182440
739.0422, 0.1394980
739.5243, 0.4896280
740.0064, 0.6877860
740.4885, 0.6887150
740.9706, 0.6558830
741.4528, 0.6823290
741.9349, 0.7315780
742.4170, 0.7107840
742.8991, 0.5896140
743.3812, 0.4908960
743.8633, 0.4270900
744.3455, 0.4041270
744.8276, 0.5021900
745.3097, 0.6044770
745.7918, 0.4829790
746.2739, 9.8950997E-02
746.7560, 0.2597810
747.2382, 0.2825050
747.7203, 6.7919001E-02
748.2024, 0.1197030
748.6845, 0.2835740
749.1666, 0.3063760
749.6487, 0.1184560
750.1309, 0.1602080
750.6130, 0.4024400
751.0951, 0.6032310
751.5772, 0.7347640
752.0593, 0.7376980
752.5414, 0.7592760
753.0236, 0.8110990
753.5057, 0.9061410
753.9878, 1.116577
754.4699, 1.394217
754.9520, 1.531552
755.4341, 1.319436
755.9163, 1.104167
756.3984, 1.613611
756.8805, 2.589613
757.3626, 2.773526
757.8447, 1.919707
758.3268, 0.9522240
758.8090, 0.4989990
759.2911, 0.4445510
759.7732, 0.4066140
760.2553, 0.4526150
760.7374, 0.3889540
761.2195, 0.1115120
761.7017, 0.1562300
762.1838, 0.3471170
762.6659, 0.4452200
763.1480, 0.3950080
763.6301, 0.1724800
764.1122, 8.1630005E-03
764.5944, 0.1577270
765.0765, 0.4286650
765.5586, 0.4927140
766.0407, 0.3773360
766.5228, 0.2996050
767.0049, 0.3438380
767.4871, 0.4550160
767.9692, 0.5686590
768.4513, 0.6882030
768.9334, 0.7582440
769.4155, 0.7722050
769.8976, 0.7474770
770.3798, 0.6629190
770.8619, 0.5618600
771.3440, 0.4685150
771.8261, 0.3885070
772.3082, 0.3347890
772.7903, 0.3476610
773.2725, 0.3399730
773.7546, 0.1890640
774.2367, 5.4730000E-03
774.7188, 8.1709996E-03
775.2009, 0.1491450
775.6830, 0.3105490
776.1652, 0.3700490
776.6473, 0.3454490
777.1294, 0.2721300
777.6115, 0.1452160
778.0936, 3.7250000E-03
778.5757, 0.2070130
779.0579, 0.3670630
779.5400, 0.3927900
780.0221, 0.3581470
780.5042, 0.4035230
780.9863, 0.5661300
781.4684, 0.6431680
781.9506, 0.4828300
782.4327, 0.3244060
782.9148, 0.3280930
783.3969, 0.4376560
783.8790, 0.5720660
784.3611, 0.6971290
784.8433, 0.7657480
785.3254, 0.6930860
785.8075, 0.5566080
786.2896, 0.6325190
786.7717, 0.9244170
787.2538, 1.112116
787.7360, 1.095846
788.2181, 1.019933
788.7002, 1.022521
789.1823, 1.087238
789.6644, 1.071259
790.1465, 0.8366250
790.6286, 0.7230830
791.1107, 0.8377020
791.5928, 1.005245
792.0750, 1.122057
792.5571, 1.199771
793.0392, 1.299957
793.5213, 1.452805
794.0034, 1.556625
794.4855, 1.447250
794.9677, 1.258181
795.4498, 1.274312
795.9319, 1.478174
796.4140, 1.641645
796.8961, 1.667686
797.3782, 1.625064
797.8604, 1.609983
798.3425, 1.626762
798.8246, 1.686235
799.3067, 1.873571
799.7888, 1.945757
800.2709, 1.637342
800.7531, 1.362342
801.2352, 1.519064
801.7173, 2.011752
802.1994, 2.337507
802.6815, 2.287088
803.1636, 2.151190
803.6458, 2.043803
804.1279, 1.971501
804.6100, 1.924847
805.0921, 1.906292
805.5742, 1.946457
806.0563, 2.064890
806.5385, 2.165867
807.0206, 2.043537
807.5027, 1.732985
807.9848, 1.678722
808.4669, 1.952385
808.9490, 2.185544
809.4312, 2.184805
809.9133, 2.103484
810.3954, 2.194792
810.8775, 2.509920
811.3596, 2.645397
811.8417, 2.432950
812.3239, 2.257569
812.8060, 2.237078
813.2881, 2.290811
813.7702, 2.368616
814.2523, 2.447526
814.7344, 2.484398
815.2166, 2.438852
815.6987, 2.389097
816.1808, 2.420947
816.6629, 2.506057
817.1450, 2.595564
817.6271, 2.680804
818.1093, 2.739161
818.5914, 2.751623
819.0735, 2.758646
819.5556, 2.850313
820.0377, 3.059163
820.5198, 3.145563
821.0020, 3.069197
821.4841, 2.977187
821.9662, 2.900897
822.4483, 2.827440
822.9304, 2.744619
823.4125, 2.663513
823.8947, 2.626944
824.3768, 2.681072
824.8589, 2.720584
825.3410, 2.676925
825.8231, 2.606606
826.3052, 2.595763
826.7874, 2.628625
827.2695, 2.599006
827.7516, 2.437731
828.2337, 2.267795
828.7158, 2.304310
829.1979, 2.483166
829.6801, 2.527564
830.1622, 2.411079
830.6443, 2.240028
831.1264, 2.050501
831.6085, 1.906730
832.0906, 1.919301
832.5728, 2.113455
833.0549, 2.178642
833.5370, 2.040123
834.0191, 1.882843
834.5012, 1.689850
834.9833, 1.552328
835.4655, 1.578040
835.9476, 1.739320
836.4297, 1.885676
836.9118, 1.994302
837.3939, 2.025939
837.8760, 1.891010
838.3582, 1.716603
838.8403, 1.661001
839.3224, 1.705000
839.8045, 1.730527
840.2866, 1.684624
840.7687, 1.634691
841.2509, 1.703967
841.7330, 1.856789
842.2151, 1.852668
842.6972, 1.673769
843.1793, 1.525096
843.6614, 1.472891
844.1436, 1.509501
844.6257, 1.657712
845.1078, 1.906774
845.5899, 1.979761
846.0720, 1.686372
846.5541, 1.492551
847.0363, 1.520046
847.5184, 1.579491
848.0005, 1.534275
848.4826, 1.428585
848.9647, 1.384235
849.4468, 1.445931
849.9290, 1.503421
850.4111, 1.493079
850.8932, 1.452690
851.3753, 1.391473
851.8574, 1.337098
852.3395, 1.366315
852.8217, 1.489781
853.3038, 1.601962
853.7859, 1.593544
854.2680, 1.497178
854.7501, 1.397461
855.2322, 1.293468
855.7144, 1.272894
856.1965, 1.377701
856.6786, 1.458999
857.1607, 1.387921
857.6428, 1.222897
858.1249, 1.156732
858.6071, 1.243543
859.0892, 1.302472
859.5713, 1.346448
860.0534, 1.354019
860.5355, 1.276579
861.0176, 1.180964
861.4998, 1.156677
861.9819, 1.202485
862.4640, 1.220686
862.9461, 1.116415
863.4282, 1.044959
863.9103, 1.166970
864.3925, 1.355312
864.8746, 1.413949
865.3567, 1.334881
865.8388, 1.253518
866.3209, 1.263685
866.8030, 1.307117
867.2852, 1.272036
867.7673, 1.176581
868.2494, 1.137297
868.7315, 1.173450
869.2136, 1.236576
869.6957, 1.298882
870.1779, 1.356764
870.6600, 1.407836
871.1421, 1.451211
871.6242, 1.521005
872.1063, 1.664905
872.5884, 1.749973
873.0705, 1.674312
873.5526, 1.608330
874.0347, 1.687325
874.5168, 1.844958
874.9990, 1.915412
875.4811, 1.834649
875.9632, 1.807585
876.4453, 1.949584
876.9274, 2.116979
877.4095, 2.204457
877.8917, 2.237834
878.3738, 2.284330
878.8559, 2.357280
879.3380, 2.408491
879.8201, 2.405313
880.3022, 2.354553
880.7844, 2.237885
881.2665, 2.082192
881.7486, 2.012069
882.2307, 2.040028
882.7128, 2.003885
883.1949, 1.784380
883.6771, 1.510634
884.1592, 1.476014
884.6413, 1.725191
885.1234, 1.872024
885.6055, 1.873806
886.0876, 1.873935
886.5698, 1.902979
887.0519, 1.974396
887.5340, 2.151227
888.0161, 2.417145
888.4982, 2.528046
888.9803, 2.257783
889.4625, 2.141659
889.9446, 2.379527
890.4267, 2.700236
890.9088, 2.910500
891.3909, 3.061379
891.8730, 3.292205
892.3552, 3.645909
892.8373, 3.995831
893.3194, 4.250859
893.8015, 4.474675
894.2836, 4.715031
894.7657, 4.979837
895.2479, 5.276926
895.7300, 5.606701
896.2121, 5.977401
896.6942, 6.405336
897.1763, 6.836855
897.6584, 7.155313
898.1406, 7.367926
898.6227, 7.538617
899.1048, 7.663279
899.5869, 7.879690
900.0690, 8.274657
900.5511, 8.732326
901.0333, 9.077501
901.5154, 9.303232
901.9975, 9.584392
902.4796, 9.985625
902.9617, 10.32494
903.4438, 10.53153
903.9260, 10.70118
904.4081, 10.97428
904.8902, 11.25376
905.3723, 11.27102
905.8544, 10.93529
906.3365, 10.51411
906.8187, 10.11615
907.3008, 9.606434
907.7829, 8.833562
908.2650, 7.939444
908.7471, 7.090146
909.2292, 6.327870
909.7114, 5.636114
910.1935, 5.012290
910.6756, 4.453535
911.1577, 3.981356
911.6398, 3.557504
912.1219, 3.106517
912.6041, 2.632563
913.0862, 2.193034
913.5683, 1.816238
914.0504, 1.464768
914.5325, 1.054623
915.0146, 0.6205780
915.4968, 0.3778720
915.9789, 0.3332060
916.4610, 0.2972950
916.9431, 0.2227300
917.4252, 0.1387620
917.9073, 6.1048999E-02
918.3895, 6.4899999E-04
918.8716, 7.7300001E-04
919.3537, 0.1194120
919.8358, 0.1523610
920.3179, 4.3505002E-02
920.8000, 7.7826999E-02
921.2822, 0.1894670
921.7643, 0.2664510
922.2464, 0.2528390
922.7285, 0.1569660
923.2106, 0.1384140
923.6927, 0.3384250
924.1749, 0.4563860
924.6570, 0.2712060
925.1391, 9.5481999E-02
925.6212, 0.2302840
926.1033, 0.5547100
926.5854, 0.7900990
927.0676, 0.8544440
927.5497, 0.8541930
928.0318, 0.8463950
928.5139, 0.8192580
928.9960, 0.7414270
929.4781, 0.6408340
929.9603, 0.5868430
930.4424, 0.5766270
930.9245, 0.5135300
931.4066, 0.3219830
931.8887, 0.1207070
932.3708, 0.1303290
932.8530, 0.2976870
933.3351, 0.4170230
933.8172, 0.4747950
934.2993, 0.4387490
934.7814, 0.2913200
935.2635, 0.1227330
935.7457, 3.4068000E-02
936.2278, 8.7190000E-03
936.7099, 4.8955999E-02
937.1920, 0.1405320
937.6741, 0.2579330
938.1563, 0.3989110
938.6384, 0.5744300
939.1205, 0.8317850
939.6026, 1.096219
940.0847, 1.219006
940.5668, 1.162107
941.0490, 1.187134
941.5311, 1.281952
942.0132, 1.468154
942.4953, 1.850320
942.9774, 2.237343
943.4595, 2.499489
943.9417, 2.655232
944.4238, 2.756036
944.9059, 2.789807
945.3880, 2.855255
945.8701, 3.036968
946.3522, 3.210098
946.8344, 3.351494
947.3165, 3.398362
947.7986, 3.231632
948.2807, 2.875652
948.7628, 2.513800
949.2449, 2.248792
949.7271, 1.998359
950.2092, 1.629086
950.6913, 1.253365
951.1734, 1.060553
951.6555, 1.023012
952.1376, 1.023346
952.6198, 1.014416
953.1019, 0.9671950
953.5840, 0.8467160
954.0661, 0.6768350
954.5482, 0.4983090
955.0303, 0.3185400
955.5124, 0.1673970
955.9945, 4.9385000E-02
956.4766, 6.7727000E-02
956.9587, 0.2942710
957.4409, 0.5947440
957.9230, 0.7424830
958.4051, 0.7427990
958.8872, 0.8424350
959.3693, 1.081143
959.8514, 1.245550
960.3336, 1.267151
960.8157, 1.252079
961.2978, 1.252956
961.7799, 1.290548
962.2620, 1.428531
962.7441, 1.700014
963.2263, 1.969015
963.7084, 2.240410
964.1905, 2.501277
964.6726, 2.701002
965.1547, 2.926583
965.6368, 3.265732
966.1190, 3.700970
966.6011, 4.138232
967.0832, 4.521162
967.5653, 4.999365
968.0474, 5.598000
968.5295, 6.308662
969.0117, 7.232085
969.4938, 8.202996
969.9759, 8.926021
970.4580, 9.424707
970.9401, 10.12177
971.4222, 11.24330
971.9044, 12.53940
972.3865, 13.82466
972.8686, 15.22644
973.3507, 16.87922
973.8328, 18.75592
974.3149, 20.72189
974.7971, 22.74966
975.2792, 25.04698
975.7613, 27.74545
976.2434, 30.82282
976.7255, 34.33686
977.2076, 38.18589
977.6898, 42.16371
978.1719, 46.26795
978.6540, 50.50967
979.1361, 54.92120
979.6182, 59.63424
980.1003, 64.75196
980.5825, 70.35477
981.0646, 76.54379
981.5467, 83.29219
982.0288, 90.63398
982.5109, 98.56339
982.9930, 107.0160
983.4752, 115.8960
983.9573, 125.2478
984.4394, 135.1762
984.9215, 145.6734
985.4036, 156.8519
985.8857, 168.8036
986.3679, 180.9266
986.8500, 193.2061
987.3321, 205.3965
987.8142, 217.5858
988.2963, 229.2675
988.7784, 239.0384
989.2606, 247.3479
989.7427, 252.0540
990.2248, 253.0048
990.7069, 250.5454
991.1890, 244.3429
991.6711, 235.2044
992.1533, 223.1461
992.6354, 208.6494
993.1175, 194.6205
993.5996, 181.0119
994.0817, 168.0066
994.5638, 155.7101
995.0460, 143.7967
995.5281, 131.9432
996.0102, 120.5979
996.4923, 110.3065
996.9744, 101.0068
997.4565, 92.29528
997.9387, 83.96275
998.4208, 76.49151
998.9029, 70.21391
999.3850, 64.65195
999.8671, 59.68607
1000.349, 55.21671
1000.831, 51.17020
1001.313, 47.53289
1001.796, 44.37701
1002.278, 41.75468
1002.760, 39.60910
1003.242, 38.05096
1003.724, 36.84271
1004.206, 35.67593
1004.688, 34.69410
1005.170, 34.23196
1005.653, 34.34959
1006.135, 34.73367
1006.617, 35.20047
1007.099, 35.82890
1007.581, 36.73627
1008.063, 37.83117
1008.545, 39.18718
1009.027, 40.58932
1009.509, 41.54053
1009.992, 41.85854
1010.474, 41.67359
1010.956, 41.06976
1011.438, 40.06156
1011.920, 38.60824
1012.402, 36.78427
1012.884, 34.61430
1013.366, 32.21703
1013.849, 30.00373
1014.331, 28.14856
1014.813, 26.60785
1015.295, 25.42176
1015.777, 24.43699
1016.259, 23.25408
1016.741, 21.91732
1017.223, 20.66838
1017.705, 19.53778
1018.188, 18.36691
1018.670, 17.07147
1019.152, 15.76424
1019.634, 14.57733
1020.116, 13.52124
1020.598, 12.62508
1021.080, 11.89128
1021.562, 11.31904
1022.044, 10.91209
1022.527, 10.57190
1023.009, 10.22940
1023.491, 9.980909
1023.973, 9.993029
1024.455, 10.25410
1024.937, 10.53190
1025.419, 10.79403
1025.901, 11.34694
1026.384, 12.26894
1026.866, 13.42192
1027.348, 14.76794
1027.830, 16.18983
1028.312, 17.43198
1028.794, 18.48596
1029.276, 19.79598
1029.758, 21.39793
1030.240, 23.15296
1030.723, 25.05927
1031.205, 27.06912
1031.687, 29.15096
1032.169, 31.31948
1032.651, 33.59806
1033.133, 35.96681
1033.615, 38.54722
1034.097, 41.15477
1034.579, 44.41722
1035.062, 48.70705
1035.544, 53.29311
1036.026, 57.60558
1036.508, 61.89839
1036.990, 66.78216
1037.472, 72.45503
1037.954, 77.57894
1038.436, 82.17091
1038.919, 86.14057
1039.401, 89.94622
1039.883, 92.58996
1040.365, 93.67894
1040.847, 93.06732
1041.329, 90.31842
1041.811, 85.14733
1042.293, 79.33393
1042.776, 72.39315
1043.258, 65.51012
1043.740, 58.78270
1044.222, 52.29409
1044.704, 46.01216
1045.186, 40.05630
1045.668, 34.67623
1046.150, 29.90210
1046.632, 25.74244
1047.115, 22.31608
1047.597, 19.34289
1048.079, 16.83138
1048.561, 14.69388
1049.043, 12.94367
1049.525, 11.49054
1050.007, 10.17307
1050.489, 8.988955
1050.971, 7.862382
1051.454, 6.717682
1051.936, 5.721065
1052.418, 5.016940
1052.900, 4.404083
1053.382, 3.674096
1053.864, 2.941588
1054.346, 2.465842
1054.828, 2.286814
1055.311, 2.077999
1055.793, 1.753618
1056.275, 1.379524
1056.757, 0.8973220
1057.239, 0.4635310
1057.721, 0.1955570
1058.203, 6.0245000E-02
1058.685, 1.3083000E-02
1059.167, 4.1471001E-02
1059.650, 2.4599999E-02
1060.132, 7.6352000E-02
1060.614, 0.2282200
1061.096, 0.5185460
1061.578, 0.7540350
1062.060, 0.7566500
1062.542, 0.6210130
1063.024, 0.5224450
1063.506, 0.4831690
1063.989, 0.3668900
1064.471, 2.0385999E-02
1064.953, 0.2617210
1065.435, 0.2897660
1065.917, 0.2837040
1066.399, 0.3758720
1066.881, 0.5588010
1067.363, 0.8189270
1067.846, 1.145641
1068.328, 1.486941
1068.810, 1.790015
1069.292, 2.149165
1069.774, 2.744499
1070.256, 3.270566
1070.738, 3.431103
1071.220, 3.415332
1071.703, 3.496572
1072.185, 3.707371
1072.667, 3.942324
1073.149, 4.190746
1073.631, 4.387066
1074.113, 4.309624
1074.595, 4.372044
1075.077, 4.926151
1075.559, 5.768101
1076.042, 6.560539
1076.524, 7.343187
1077.006, 8.450290
1077.488, 9.963161
1077.970, 11.92259
1078.452, 14.34606
1078.934, 17.23646
1079.416, 20.82498
1079.898, 24.73905
1080.380, 28.81721
1080.863, 32.81812
1081.345, 36.13802
1081.827, 38.47662
1082.309, 40.66235
1082.791, 42.51014
1083.273, 44.98577
1083.755, 48.28836
1084.237, 52.81385
1084.720, 59.15717
1085.202, 67.03197
1085.684, 75.54662
1086.166, 84.36538
1086.648, 94.69578
1087.130, 106.3338
1087.612, 120.4767
1088.094, 136.3980
1088.577, 156.4516
1089.059, 183.7881
1089.541, 216.6428
1090.023, 254.8882
1090.505, 298.8047
1090.987, 326.6317
1091.469, 331.9441
1091.951, 317.5351
1092.433, 273.5719
1092.916, 221.1129
1093.398, 171.3332
1093.880, 127.5943
1094.362, 93.25151
1094.844, 68.56839
1095.326, 49.58909
1095.808, 36.76645
1096.290, 27.13631
1096.772, 20.77579
1097.255, 16.19422
1097.737, 12.88439
1098.219, 10.43493
1098.701, 8.522936
1099.183, 7.060156
1099.665, 5.785480
1100.147, 4.604962
1100.629, 3.675456
1101.112, 3.212569
1101.594, 2.810826
1102.076, 2.213507
1102.558, 1.615662
1103.040, 1.255779
1103.522, 1.091180
1104.004, 0.9050060
1104.486, 0.6399990
1104.969, 0.4365650
1105.451, 0.3391770
1105.933, 0.2787020
1106.415, 0.2564600
1106.897, 0.2414950
1107.379, 0.2040040
1107.861, 0.1544050
1108.343, 0.1331170
1108.825, 0.1611570
1109.307, 0.1111810
1109.790, 0.1206770
1110.272, 0.2990820
1110.754, 0.3501690
1111.236, 0.3620790
1111.718, 0.3974960
1112.200, 0.4258780
1112.682, 0.3750250
1113.164, 0.2369160
1113.647, 0.1704870
1114.129, 0.2230880
1114.611, 0.2691710
1115.093, 0.3113550
1115.575, 0.3314070
1116.057, 0.3147310
1116.539, 0.2777550
1117.021, 0.2290230
1117.504, 0.1741140
1117.986, 0.1584140
1118.468, 0.2232590
1118.950, 0.2275810
1119.432, 9.7693004E-02
1119.914, 5.9473000E-02
1120.396, 0.2493660
1120.878, 0.4371690
1121.360, 0.4031720
1121.843, 0.2348350
1122.325, 0.2062780
1122.807, 0.3693200
1123.289, 0.3633100
1123.771, 0.1127050
1124.253, 3.9191000E-02
1124.735, 2.4160000E-03
1125.217, 9.3460999E-02
1125.699, 0.1615500
1126.182, 0.1825750
1126.664, 9.9748001E-02
1127.146, 7.7997997E-02
1127.628, 0.1761070
1128.110, 0.1833920
1128.592, 0.2147860
1129.074, 0.2934240
1129.556, 0.3241970
1130.039, 0.2533970
1130.521, 0.1780160
1131.003, 0.2189750
1131.485, 0.3298180
1131.967, 0.3231350
1132.449, 0.2096700
1132.931, 0.2066050
1133.413, 0.3231410
1133.896, 0.4218770
1134.378, 0.4604130
1134.860, 0.4681470
1135.342, 0.4642530
1135.824, 0.4630250
1136.306, 0.5099440
1136.788, 0.5793640
1137.270, 0.5417050
1137.752, 0.4284180
1138.234, 0.3999800
1138.717, 0.4786290
1139.199, 0.6015730
1139.681, 0.7364030
1140.163, 0.8128400
1140.645, 0.6875450
1141.127, 0.5133190
1141.609, 0.6431360
1142.091, 0.9125740
1142.574, 0.9283790
1143.056, 0.7290620
1143.538, 0.5801290
1144.020, 0.5677390
1144.502, 0.6253110
1144.984, 0.7206590
1145.466, 0.8309560
1145.948, 0.9600380
1146.431, 1.068394
1146.913, 1.100573
1147.395, 1.075610
1147.877, 1.002869
1148.359, 0.9113230
1148.841, 0.9040470
1149.323, 1.044504
1149.805, 1.146458
1150.287, 1.054671
1150.770, 0.9252820
1151.252, 0.8195980
1151.734, 0.7776460
1152.216, 0.8947880
1152.698, 1.091991
1153.180, 1.178826
1153.662, 1.116223
1154.144, 1.072717
1154.626, 1.121105
1155.109, 1.174451
1155.591, 1.232997
1156.073, 1.255320
1156.555, 1.168780
1157.037, 1.062206
1157.519, 1.064228
1158.001, 1.163107
1158.483, 1.224453
1158.966, 1.208863
1159.448, 1.213848
1159.930, 1.258174
1160.412, 1.306368
1160.894, 1.370103
1161.376, 1.408598
1161.858, 1.353394
1162.340, 1.275196
1162.822, 1.350587
1163.305, 1.607841
1163.787, 1.705088
1164.269, 1.572763
1164.751, 1.483020
1165.233, 1.478473
1165.715, 1.502194
1166.197, 1.537166
1166.679, 1.564416
1167.161, 1.560054
1167.644, 1.521087
1168.126, 1.459240
1168.608, 1.378180
1169.090, 1.391319
1169.572, 1.505365
1170.054, 1.570346
1170.536, 1.550106
1171.018, 1.502209
1171.500, 1.453911
1171.983, 1.418144
1172.465, 1.434759
1172.947, 1.487247
1173.429, 1.532232
1173.911, 1.565300
1174.393, 1.568520
1174.875, 1.543095
1175.357, 1.496092
1175.840, 1.431141
1176.322, 1.386520
1176.804, 1.420205
1177.286, 1.462490
1177.768, 1.365936
1178.250, 1.228164
1178.732, 1.255990
1179.214, 1.367583
1179.697, 1.335759
1180.179, 1.160940
1180.661, 1.055362
1181.143, 1.132344
1181.625, 1.227938
1182.107, 1.221813
1182.589, 1.186140
1183.071, 1.176696
1183.553, 1.158756
1184.036, 1.069126
1184.518, 0.9662650
1185.000, 0.9801790
1185.482, 1.112287
1185.964, 1.164854
1186.446, 1.004549
1186.928, 0.9123050
1187.410, 1.018618
1187.892, 1.087311
1188.375, 0.9491320
1188.857, 0.7987810
1189.339, 0.8443640
1189.821, 1.005442
1190.303, 1.052417
1190.785, 0.9630980
1191.267, 0.9294380
1191.749, 0.9866690
1192.232, 0.9907170
1192.714, 0.9066880
1193.196, 0.7856440
1193.678, 0.6191810
1194.160, 0.5411380
1194.642, 0.7568820
1195.124, 1.142884
1195.606, 1.168227
1196.089, 0.8548070
1196.571, 0.7422080
1197.053, 0.8447550
1197.535, 0.9423750
1198.017, 0.9773270
1198.499, 0.9765640
1198.981, 0.9545280
1199.463, 0.9385450
1199.945, 0.9708030
1200.427, 1.014000
1200.910, 0.9973780
1201.392, 0.9363280
1201.874, 0.8360960
1202.356, 0.7347660
1202.838, 0.7449750
1203.320, 0.8760020
1203.802, 0.9902330
1204.284, 1.006088
1204.767, 0.9808420
1205.249, 0.9360280
1205.731, 0.8897780
1206.213, 0.8444200
1206.695, 0.8170040
1207.177, 0.8316980
1207.659, 0.8806440
1208.141, 0.9568000
1208.624, 1.063739
1209.106, 1.078959
1209.588, 0.8591140
1210.070, 0.7209630
1210.552, 0.8186260
1211.034, 0.9056190
1211.516, 0.8282860
1211.998, 0.7075790
1212.480, 0.6446080
1212.963, 0.6404960
1213.445, 0.7080910
1213.927, 0.8824010
1214.409, 0.9404150
1214.891, 0.8514080
1215.373, 0.7707860
1215.855, 0.7260370
1216.337, 0.6737410
1216.819, 0.5836900
1217.302, 0.5052650
1217.784, 0.5007220
1218.266, 0.5534020
1218.748, 0.6307780
1219.230, 0.7193140
1219.712, 0.7347590
1220.194, 0.6910390
1220.676, 0.6993800
1221.159, 0.7668080
1221.641, 0.7659930
1222.123, 0.6212500
1222.605, 0.5354690
1223.087, 0.8387480
1223.569, 1.182087
1224.051, 1.147463
1224.533, 0.9224820
1225.016, 0.6824640
1225.498, 0.4822940
1225.980, 0.3781450
1226.462, 0.3719080
1226.944, 0.4147500
1227.426, 0.5092220
1227.908, 0.5944090
1228.390, 0.6640990
1228.872, 0.7016070
1229.354, 0.7076490
1229.837, 0.6734260
1230.319, 0.4353850
1230.801, 0.2351070
1231.283, 0.6426090
1231.765, 1.620052
1232.247, 1.796068
1232.729, 0.6457890
1233.211, 0.4144690
1233.694, 1.593092
1234.176, 2.229087
1234.658, 1.632361
1235.140, 0.8134980
1235.622, 0.4828300
1236.104, 0.4512110
1236.586, 0.4297800
1237.068, 0.4184180
1237.551, 0.4446840
1238.033, 0.4916030
1238.515, 0.4635550
1238.997, 0.3729040
1239.479, 0.3251600
1239.961, 0.3480170
1240.443, 0.3797250
1240.925, 0.3731600
1241.407, 0.3580090
1241.890, 0.3603770
1242.372, 0.3656110
1242.854, 0.3744880
1243.336, 0.3660330
1243.818, 0.2802990
1244.300, 0.1699140
1244.782, 0.1659940
1245.264, 0.2773990
1245.746, 0.3304720
1246.229, 0.2303500
1246.711, 0.1615710
1247.193, 0.1620140
1247.675, 0.1901940
1248.157, 0.2700710
1248.639, 0.3265260
1249.121, 0.2967700
1249.603, 0.2196250
1250.085, 0.1559910
1250.568, 0.1064770
1251.050, 7.6462999E-02
1251.532, 6.3161001E-02
1252.014, 0.1114960
1252.496, 0.2287050
1252.978, 0.2381750
1253.460, 8.8054001E-02
1253.942, 3.4940001E-03
1254.425, 0.1472170
1254.907, 0.3608120
1255.389, 0.4345870
1255.871, 0.4159200
1256.353, 0.3718070
1256.835, 0.3219510
1257.317, 0.3215590
1257.799, 0.3436750
1258.281, 0.3086480
1258.764, 0.2125120
1259.246, 0.1056310
1259.728, 1.1006000E-02
1260.210, 5.2850001E-02
1260.692, 0.1070940
1261.174, 0.2355600
1261.656, 0.1701350
1262.138, 8.3948001E-02
1262.620, 0.1358510
1263.103, 0.2414410
1263.585, 0.2580440
1264.067, 0.1939510
1264.549, 0.1172180
1265.031, 8.0709998E-03
1265.513, 1.5187000E-02
1265.995, 0.1292970
1266.477, 0.2177260
1266.960, 0.2008730
1267.442, 0.1593280
1267.924, 0.1367300
1268.406, 0.1073330
1268.888, 3.0742001E-02
1269.370, 4.6679001E-02
1269.852, 1.6571000E-02
1270.334, 0.1628270
1270.817, 0.2385210
1271.299, 0.2412290
1271.781, 0.1486050
1272.263, 4.7579999E-03
1272.745, 4.6815000E-02
1273.227, 8.0363996E-02
1273.709, 0.2812680
1274.191, 0.6566210
1274.673, 0.8789810
1275.156, 0.6443400
1275.638, 0.3582500
1276.120, 0.3153860
1276.602, 0.3504300
1277.084, 0.2408190
1277.566, 2.9828999E-02
1278.048, 2.9301999E-02
1278.530, 6.2889002E-02
1279.012, 9.9712998E-02
1279.495, 0.1250960
1279.977, 0.1717610
1280.459, 0.2603000
1280.941, 0.2787020
1281.423, 0.1738800
1281.905, 3.5169002E-02
1282.387, 5.9664000E-02
1282.869, 0.1269320
1283.352, 0.1115470
1283.834, 5.6542002E-02
1284.316, 1.6334999E-02
1284.798, 0.0000000E+00
##END=



