##NAMES=Schaurteite
##RRUFFID=R120054
##IDEAL CHEMISTRY=Ca_3_Ge^4+^(SO_4_)_2_(OH)_6_&#183;3H_2_O
##LOCALITY=Tsumeb, Namibia
##OWNER=RRUFF
##SOURCE=William W. Pinch
##DESCRIPTION=Massive aggregate of parallel and radiating colorless needles intermixed with calcite, associated with tennantite and renierite
##STATUS=The identification of this mineral has been confirmed by single-crystal X-ray diffraction.
##URL=rruff.info/R120054
102.6922, 0.0000000E+00
103.1743, 5.6690001E-03
103.6564, 0.2098010
104.1385, 0.4740300
104.6207, 0.7090990
105.1028, 0.8554760
105.5849, 0.8841020
106.0670, 0.8217700
106.5491, 0.5427250
107.0313, 0.3499680
107.5134, 0.2523350
107.9955, 0.1934660
108.4776, 7.6743998E-02
108.9597, 0.1537250
109.4418, 0.2063830
109.9240, 0.1278990
110.4061, 0.5912170
110.8882, 0.9907300
111.3703, 1.247711
111.8524, 1.430725
112.3345, 1.714645
112.8167, 2.038971
113.2988, 2.579147
113.7809, 3.491714
114.2630, 4.588921
114.7451, 5.638527
115.2272, 6.482132
115.7094, 7.139679
116.1915, 7.881310
116.6736, 8.802322
117.1557, 9.702065
117.6378, 10.50831
118.1199, 11.23042
118.6021, 11.90688
119.0842, 12.54243
119.5663, 13.13831
120.0484, 13.88038
120.5305, 14.74628
121.0126, 15.76524
121.4948, 17.07586
121.9769, 18.73616
122.4590, 20.32655
122.9411, 21.29813
123.4232, 21.80739
123.9053, 22.28272
124.3875, 22.81551
124.8696, 23.41890
125.3517, 24.10777
125.8338, 24.84657
126.3159, 25.75257
126.7980, 26.91559
127.2802, 28.29879
127.7623, 29.73730
128.2444, 31.08585
128.7265, 32.31778
129.2086, 33.66459
129.6907, 35.05708
130.1729, 36.64849
130.6550, 38.72737
131.1371, 41.23350
131.6192, 43.69146
132.1013, 45.37705
132.5834, 45.75246
133.0656, 46.41153
133.5477, 47.67776
134.0298, 49.01575
134.5119, 49.95323
134.9940, 50.34617
135.4761, 50.47227
135.9583, 50.96251
136.4404, 52.60243
136.9225, 53.63074
137.4046, 54.05619
137.8867, 53.79910
138.3688, 52.62421
138.8510, 50.32629
139.3331, 47.22569
139.8152, 44.40710
140.2973, 42.22875
140.7794, 39.76677
141.2615, 36.45369
141.7437, 32.46723
142.2258, 28.45152
142.7079, 24.52014
143.1900, 20.96768
143.6721, 18.26572
144.1542, 16.71999
144.6364, 15.69923
145.1185, 14.74786
145.6006, 13.83023
146.0827, 12.82397
146.5648, 11.62379
147.0469, 10.25583
147.5291, 9.087547
148.0112, 8.346859
148.4933, 7.792267
148.9754, 7.339775
149.4575, 7.162533
149.9396, 7.174126
150.4218, 7.234261
150.9039, 7.180202
151.3860, 6.976643
151.8681, 6.581062
152.3502, 5.934113
152.8323, 5.625179
153.3145, 5.871475
153.7966, 6.138279
154.2787, 6.555069
154.7608, 6.992985
155.2429, 7.175949
155.7250, 6.838551
156.2072, 5.926563
156.6893, 5.472382
157.1714, 5.612278
157.6535, 5.979820
158.1356, 6.555351
158.6177, 7.265377
159.0999, 7.904610
159.5820, 8.249378
160.0641, 8.231876
160.5462, 8.451286
161.0283, 9.124195
161.5104, 9.835751
161.9926, 10.18204
162.4747, 10.11613
162.9568, 10.06081
163.4389, 10.54415
163.9210, 11.53399
164.4031, 12.36734
164.8853, 12.80561
165.3674, 13.05984
165.8495, 13.48431
166.3316, 14.22110
166.8137, 14.87531
167.2958, 15.02570
167.7780, 14.78310
168.2601, 14.46546
168.7422, 14.22467
169.2243, 14.03231
169.7064, 13.79248
170.1885, 13.55289
170.6707, 13.17050
171.1528, 12.48412
171.6349, 11.56237
172.1170, 10.68172
172.5991, 10.13274
173.0812, 9.940136
173.5634, 9.550034
174.0455, 8.673328
174.5276, 7.786877
175.0097, 7.102451
175.4918, 6.612431
175.9739, 6.181854
176.4561, 5.649971
176.9382, 4.939995
177.4203, 4.380424
177.9024, 4.051018
178.3845, 3.790970
178.8666, 3.557743
179.3488, 3.326687
179.8309, 3.057636
180.3130, 2.695103
180.7951, 2.185734
181.2772, 1.697571
181.7593, 1.136074
182.2415, 0.6514400
182.7236, 0.3926620
183.2057, 0.3829570
183.6878, 0.4908640
184.1699, 0.5186730
184.6520, 0.4061890
185.1342, 0.3285290
185.6163, 0.3535460
186.0984, 0.3880840
186.5805, 0.2998960
187.0626, 4.1942999E-02
187.5447, 0.2514310
188.0269, 0.3128930
188.5090, 6.2351000E-02
188.9911, 5.8444999E-02
189.4732, 0.2419200
189.9553, 0.7067990
190.4374, 0.8209080
190.9196, 0.3294940
191.4017, 0.3172680
191.8838, 0.4006540
192.3659, 0.1108360
192.8480, 0.5511930
193.3301, 0.5437360
193.8123, 0.2001570
194.2944, 8.4213004E-02
194.7765, 0.2600560
195.2586, 0.2645340
195.7407, 5.2829999E-03
196.2228, 0.5548250
196.7050, 1.036842
197.1871, 1.187553
197.6692, 1.017628
198.1513, 0.7590100
198.6334, 0.2919810
199.1155, 0.1068730
199.5977, 0.1971930
200.0798, 1.8634999E-02
200.5619, 0.2717400
201.0440, 0.2539630
201.5261, 9.8839000E-02
202.0082, 0.2948950
202.4904, 2.1880999E-02
202.9725, 0.2449680
203.4546, 0.2343940
203.9367, 7.0193999E-02
204.4188, 0.4695170
204.9009, 0.7301060
205.3831, 0.8287580
205.8652, 0.8492930
206.3473, 0.6614990
206.8294, 0.5022470
207.3115, 0.5405770
207.7936, 0.7864150
208.2758, 1.105267
208.7579, 1.309078
209.2400, 1.344891
209.7221, 1.370983
210.2042, 1.417137
210.6863, 1.435886
211.1685, 1.379147
211.6506, 1.244919
212.1327, 1.085316
212.6148, 0.9774060
213.0969, 0.9697070
213.5790, 0.9128150
214.0612, 0.7362290
214.5433, 0.5571630
215.0254, 0.4603420
215.5075, 0.4679370
215.9896, 0.5573460
216.4717, 0.7041850
216.9539, 0.9480400
217.4360, 1.158634
217.9181, 1.399818
218.4002, 1.574753
218.8823, 1.534195
219.3644, 1.239952
219.8466, 0.8959810
220.3287, 0.7932210
220.8108, 0.9742660
221.2929, 1.144665
221.7750, 1.208664
222.2571, 1.263756
222.7393, 1.470917
223.2214, 1.885849
223.7035, 2.318573
224.1856, 2.517204
224.6677, 2.503918
225.1498, 2.429340
225.6320, 2.238461
226.1141, 2.031933
226.5962, 1.979519
227.0783, 2.122639
227.5604, 2.382977
228.0425, 2.798306
228.5247, 3.311199
229.0068, 3.634480
229.4889, 3.460541
229.9710, 3.033493
230.4531, 2.926693
230.9352, 3.293671
231.4174, 3.783684
231.8995, 4.141907
232.3816, 4.403725
232.8637, 4.659374
233.3458, 4.958931
233.8279, 5.286602
234.3101, 5.625214
234.7922, 6.080799
235.2743, 6.374588
235.7564, 6.193153
236.2385, 5.731213
236.7206, 5.414040
237.2028, 5.536049
237.6849, 6.007851
238.1670, 6.449139
238.6491, 6.922855
239.1312, 7.258343
239.6133, 7.307587
240.0955, 7.188019
240.5776, 7.121861
241.0597, 7.278484
241.5418, 7.597168
242.0239, 7.742443
242.5060, 7.537170
242.9882, 7.389599
243.4703, 7.389854
243.9524, 7.524685
244.4345, 7.795254
244.9166, 8.225395
245.3987, 8.744312
245.8809, 9.040768
246.3630, 8.900032
246.8451, 8.839836
247.3272, 8.919220
247.8093, 9.106094
248.2914, 9.424316
248.7736, 9.927769
249.2557, 10.54960
249.7378, 10.95509
250.2199, 10.94839
250.7020, 10.88157
251.1841, 10.67731
251.6663, 10.53681
252.1484, 10.71943
252.6305, 11.35096
253.1126, 12.24316
253.5947, 12.82443
254.0768, 12.66799
254.5590, 12.64968
255.0411, 13.03719
255.5232, 13.55551
256.0053, 13.86379
256.4874, 13.82800
256.9695, 13.59009
257.4517, 13.48369
257.9338, 13.44383
258.4159, 13.60719
258.8980, 14.26131
259.3801, 15.04079
259.8622, 15.50840
260.3444, 15.49837
260.8265, 15.21076
261.3086, 15.04893
261.7907, 15.23311
262.2728, 15.22741
262.7549, 14.77378
263.2371, 14.22865
263.7192, 13.98454
264.2013, 14.13813
264.6834, 14.45194
265.1655, 14.57962
265.6476, 14.42855
266.1298, 14.29998
266.6119, 14.13861
267.0940, 14.03211
267.5761, 14.10143
268.0582, 14.36387
268.5403, 14.67720
269.0225, 14.89823
269.5046, 15.02608
269.9867, 14.97788
270.4688, 14.67005
270.9509, 14.23630
271.4330, 13.74574
271.9152, 13.21630
272.3973, 12.72982
272.8794, 12.40990
273.3615, 12.26786
273.8436, 11.91983
274.3257, 11.29011
274.8079, 10.49962
275.2900, 9.516201
275.7721, 8.371063
276.2542, 7.437248
276.7363, 7.078739
277.2184, 7.228954
277.7006, 7.104034
278.1827, 6.502560
278.6648, 5.787285
279.1469, 5.168385
279.6290, 4.650154
280.1111, 4.212097
280.5933, 3.832077
281.0754, 3.543415
281.5575, 3.401009
282.0396, 3.555988
282.5217, 3.673786
283.0038, 3.517071
283.4860, 3.128288
283.9681, 2.726578
284.4502, 2.404678
284.9323, 2.134563
285.4144, 1.856907
285.8965, 1.583771
286.3787, 1.277302
286.8608, 0.8322220
287.3429, 0.3170050
287.8250, 1.6579000E-02
288.3071, 5.5629998E-02
288.7892, 9.0888999E-02
289.2714, 0.3029170
289.7535, 0.6064260
290.2356, 0.7856100
290.7177, 0.7131840
291.1998, 0.4394300
291.6819, 4.2877000E-02
292.1641, 0.5643500
292.6462, 1.079708
293.1283, 1.115326
293.6104, 0.7293090
294.0925, 0.2965430
294.5746, 0.1666260
295.0568, 0.5543750
295.5389, 0.5819400
296.0210, 0.1064000
296.5031, 0.4011270
296.9852, 0.4982150
297.4673, 0.3003500
297.9495, 8.3824001E-02
298.4316, 0.1173860
298.9137, 0.2649230
299.3958, 0.2606090
299.8779, 6.5548003E-02
300.3600, 0.1027570
300.8422, 0.1318170
301.3243, 2.7866000E-02
301.8064, 0.2340280
302.2885, 0.7754820
302.7706, 1.368885
303.2527, 1.767708
303.7349, 1.967903
304.2170, 2.045837
304.6991, 1.954967
305.1812, 1.796764
305.6633, 1.692692
306.1454, 1.637547
306.6276, 1.688873
307.1097, 2.002842
307.5918, 2.554729
308.0739, 2.885014
308.5560, 2.642414
309.0381, 2.288017
309.5203, 2.348579
310.0024, 2.865025
310.4845, 3.510044
310.9666, 4.139648
311.4487, 4.734852
311.9308, 5.174648
312.4130, 5.355232
312.8951, 5.483307
313.3772, 5.803146
313.8593, 6.276112
314.3414, 6.625751
314.8235, 6.584671
315.3057, 6.323727
315.7878, 6.276207
316.2699, 6.486088
316.7520, 6.895935
317.2341, 7.594212
317.7162, 8.454926
318.1984, 9.204971
318.6805, 9.684254
319.1626, 10.02284
319.6447, 10.39126
320.1268, 10.77403
320.6089, 11.26777
321.0911, 12.11760
321.5732, 13.06438
322.0553, 13.72602
322.5374, 13.96097
323.0195, 14.00319
323.5016, 13.99731
323.9838, 13.94078
324.4659, 14.10894
324.9480, 14.79785
325.4301, 15.63434
325.9122, 16.08608
326.3943, 16.03878
326.8765, 16.08552
327.3586, 16.85202
327.8407, 18.17073
328.3228, 19.02349
328.8049, 18.90558
329.2870, 18.63015
329.7692, 19.06660
330.2513, 20.15409
330.7334, 21.29363
331.2155, 22.23985
331.6976, 23.02524
332.1797, 23.71612
332.6619, 24.30870
333.1440, 24.83460
333.6261, 25.25945
334.1082, 25.63084
334.5903, 26.07604
335.0724, 26.63866
335.5546, 27.28888
336.0367, 28.03283
336.5188, 28.88277
337.0009, 29.65954
337.4830, 30.19804
337.9651, 30.61192
338.4473, 31.10757
338.9294, 31.70696
339.4115, 32.39193
339.8936, 33.23466
340.3757, 34.19966
340.8578, 34.97994
341.3400, 35.32520
341.8221, 35.52058
342.3042, 36.07060
342.7863, 37.05875
343.2684, 37.99501
343.7505, 38.51295
344.2327, 38.80503
344.7148, 39.37206
345.1969, 40.38534
345.6790, 41.49637
346.1611, 42.17130
346.6432, 42.48480
347.1254, 43.11735
347.6075, 44.52435
348.0896, 46.23888
348.5717, 47.64198
349.0538, 48.66386
349.5359, 49.58078
350.0181, 50.55799
350.5002, 51.60537
350.9823, 52.71972
351.4644, 54.06998
351.9465, 55.32455
352.4286, 56.09449
352.9108, 56.52806
353.3929, 57.31420
353.8750, 58.93793
354.3571, 60.90051
354.8392, 62.03530
355.3214, 62.26766
355.8035, 62.01292
356.2856, 61.39896
356.7677, 60.42773
357.2498, 58.97191
357.7319, 56.95050
358.2141, 54.71802
358.6962, 52.73348
359.1783, 51.06678
359.6604, 49.20957
360.1425, 47.04884
360.6246, 44.69560
361.1068, 42.18168
361.5889, 39.51833
362.0710, 36.92217
362.5531, 34.54800
363.0352, 32.40539
363.5173, 30.50307
363.9995, 29.05402
364.4816, 27.60100
364.9637, 25.71790
365.4458, 23.64581
365.9279, 22.05247
366.4100, 21.33376
366.8922, 21.21687
367.3743, 20.83212
367.8564, 19.98639
368.3385, 19.16526
368.8206, 18.40286
369.3027, 17.70689
369.7849, 17.10017
370.2670, 16.58919
370.7491, 16.13759
371.2312, 15.68681
371.7133, 15.19176
372.1954, 14.87083
372.6776, 14.80666
373.1597, 14.83305
373.6418, 14.88634
374.1239, 14.94205
374.6060, 14.95973
375.0881, 14.89254
375.5703, 14.74742
376.0524, 14.74900
376.5345, 15.07721
377.0166, 15.34371
377.4987, 15.36160
377.9808, 15.28991
378.4630, 15.37852
378.9451, 15.74366
379.4272, 16.27406
379.9093, 16.71219
380.3914, 17.06417
380.8735, 17.29934
381.3557, 17.47152
381.8378, 17.50549
382.3199, 17.34996
382.8020, 16.99547
383.2841, 16.45715
383.7662, 15.72590
384.2484, 14.76405
384.7305, 13.84962
385.2126, 13.16817
385.6947, 12.34628
386.1768, 11.13330
386.6589, 9.692970
387.1411, 8.335007
387.6232, 7.227905
388.1053, 6.354618
388.5874, 5.683144
389.0695, 5.317253
389.5516, 4.966946
390.0338, 4.577763
390.5159, 4.161968
390.9980, 3.720722
391.4801, 3.254246
391.9622, 2.796227
392.4443, 2.375221
392.9265, 1.989296
393.4086, 1.668549
393.8907, 1.451462
394.3728, 1.275146
394.8549, 1.079220
395.3370, 0.8844110
395.8192, 0.7770500
396.3013, 0.9340520
396.7834, 1.218018
397.2655, 1.103703
397.7476, 0.4033510
398.2297, 0.2067070
398.7119, 0.2506070
399.1940, 2.8851001E-02
399.6761, 8.9740999E-02
400.1582, 3.4099999E-03
400.6403, 0.1875920
401.1224, 0.3726730
401.6046, 0.5572590
402.0867, 0.6870230
402.5688, 0.7562750
403.0509, 0.7458310
403.5330, 0.6007770
404.0151, 0.3158760
404.4973, 0.1100730
404.9794, 0.1826210
405.4615, 0.3674470
405.9436, 0.3267170
406.4257, 8.3579998E-03
406.9078, 0.3197210
407.3900, 0.2907410
407.8721, 1.1750000E-03
408.3542, 0.1309810
408.8363, 0.1776770
409.3184, 0.4346620
409.8005, 0.2166860
410.2827, 0.3429870
410.7648, 0.7842290
411.2469, 0.9093170
411.7290, 0.7924800
412.2111, 0.5498500
412.6932, 6.4579003E-02
413.1754, 0.2422450
413.6575, 2.6936000E-02
414.1396, 0.2575800
414.6217, 1.2344000E-02
415.1038, 0.8176920
415.5859, 1.652840
416.0681, 1.896988
416.5502, 1.480492
417.0323, 1.191620
417.5144, 0.9810490
417.9965, 0.9235800
418.4786, 1.092834
418.9608, 1.432919
419.4429, 1.855732
419.9250, 2.319611
420.4071, 2.804363
420.8892, 3.262913
421.3713, 3.805325
421.8535, 4.132416
422.3356, 4.075764
422.8177, 3.930336
423.2998, 3.843666
423.7819, 3.880486
424.2640, 4.134968
424.7462, 4.772663
425.2283, 5.841995
425.7104, 6.613224
426.1925, 7.009407
426.6746, 7.153934
427.1567, 6.829369
427.6389, 6.335583
428.1210, 6.150528
428.6031, 6.533489
429.0852, 7.211834
429.5673, 7.649818
430.0494, 7.813183
430.5316, 7.864471
431.0137, 7.689140
431.4958, 7.513714
431.9779, 7.516727
432.4600, 7.696270
432.9421, 7.868656
433.4243, 7.769352
433.9064, 7.520191
434.3885, 7.679039
434.8706, 8.372566
435.3527, 9.244282
435.8348, 10.20074
436.3170, 11.16011
436.7991, 11.97097
437.2812, 12.52198
437.7633, 13.01233
438.2454, 13.61897
438.7275, 14.32767
439.2097, 15.03369
439.6918, 15.60539
440.1739, 16.29648
440.6560, 17.61073
441.1381, 19.60294
441.6202, 21.40091
442.1024, 22.56743
442.5845, 23.51825
443.0666, 24.74477
443.5487, 26.28400
444.0308, 27.83973
444.5129, 29.21613
444.9951, 30.41079
445.4772, 31.46564
445.9593, 32.37756
446.4414, 33.14064
446.9235, 33.60819
447.4056, 33.98004
447.8878, 34.57119
448.3699, 35.48515
448.8520, 36.55060
449.3341, 37.49655
449.8162, 38.18354
450.2983, 39.15763
450.7805, 40.45951
451.2626, 41.96305
451.7447, 43.77851
452.2268, 45.77956
452.7089, 47.67390
453.1910, 49.23740
453.6732, 50.46228
454.1553, 51.33073
454.6374, 51.67821
455.1195, 51.93085
455.6016, 52.10199
456.0837, 52.22948
456.5659, 52.44666
457.0480, 52.76073
457.5301, 52.92637
458.0122, 52.56668
458.4943, 51.67686
458.9764, 51.10798
459.4586, 51.39128
459.9407, 51.27316
460.4228, 50.02436
460.9049, 47.95703
461.3870, 45.62590
461.8691, 43.16145
462.3513, 40.64563
462.8334, 38.07072
463.3155, 35.44833
463.7976, 33.19847
464.2797, 31.52728
464.7618, 30.22022
465.2440, 28.96222
465.7261, 27.72957
466.2082, 26.73441
466.6903, 26.09344
467.1724, 25.74099
467.6545, 25.61361
468.1367, 25.65983
468.6188, 25.77018
469.1009, 25.84850
469.5830, 26.00822
470.0651, 26.70010
470.5472, 28.33094
471.0294, 29.88749
471.5115, 30.88263
471.9936, 31.73400
472.4757, 33.01051
472.9578, 34.80305
473.4399, 36.78164
473.9221, 38.60852
474.4042, 40.37351
474.8863, 41.41718
475.3684, 41.48251
475.8505, 41.25131
476.3326, 41.01770
476.8148, 40.61850
477.2969, 39.76218
477.7790, 38.31527
478.2611, 36.36892
478.7432, 34.01234
479.2253, 31.03141
479.7075, 28.27567
480.1896, 26.00829
480.6717, 23.86253
481.1538, 21.55810
481.6359, 19.16972
482.1180, 17.03459
482.6002, 15.41134
483.0823, 14.20733
483.5644, 13.16043
484.0465, 12.33261
484.5286, 11.46691
485.0107, 10.30344
485.4929, 9.126240
485.9750, 8.314293
486.4571, 7.967136
486.9392, 7.655891
487.4213, 7.090431
487.9034, 6.401695
488.3856, 5.825027
488.8677, 5.394047
489.3498, 5.069874
489.8319, 4.836224
490.3140, 4.704121
490.7961, 4.602886
491.2783, 4.768646
491.7604, 4.748547
492.2425, 4.133461
492.7246, 3.223648
493.2067, 2.623260
493.6888, 2.546772
494.1710, 2.648800
494.6531, 2.363781
495.1352, 1.418922
495.6173, 0.9680980
496.0994, 1.417336
496.5815, 1.892654
497.0637, 1.915764
497.5458, 1.634323
498.0279, 1.460430
498.5100, 1.641346
498.9921, 1.991055
499.4742, 2.017727
499.9564, 1.579281
500.4385, 1.172817
500.9206, 0.8582990
501.4027, 0.6018680
501.8848, 0.3486290
502.3669, 0.1226230
502.8491, 4.9400002E-02
503.3312, 0.3289600
503.8133, 0.7979390
504.2954, 0.9848330
504.7775, 0.8358880
505.2596, 0.6541020
505.7418, 0.5635600
506.2239, 0.5290220
506.7060, 0.5063290
507.1881, 0.5031390
507.6702, 0.4710770
508.1523, 0.4024120
508.6345, 0.2839200
509.1166, 1.5549000E-02
509.5987, 0.5174450
510.0808, 0.7560730
510.5629, 0.2212330
511.0450, 0.9771730
511.5272, 1.556984
512.0093, 0.9715540
512.4914, 0.5059320
512.9735, 0.7307320
513.4556, 1.210693
513.9377, 1.325886
514.4199, 0.9266700
514.9020, 0.3760380
515.3841, 0.1494940
515.8662, 0.3204610
516.3483, 0.3142430
516.8304, 0.1977920
517.3126, 0.5380020
517.7947, 0.3770640
518.2768, 3.5255000E-02
518.7589, 0.3347280
519.2410, 0.3761900
519.7231, 0.2761760
520.2053, 0.1608810
520.6874, 2.2259001E-02
521.1695, 3.7040000E-03
521.6516, 0.2244680
522.1337, 0.4411280
522.6158, 0.5007550
523.0980, 0.4279750
523.5801, 0.2846150
524.0622, 4.2229998E-03
524.5443, 0.2504270
525.0264, 0.2249870
525.5085, 1.8711001E-02
525.9907, 5.2333999E-02
526.4728, 0.3732030
526.9549, 0.8438530
527.4370, 0.6117250
527.9191, 0.5160450
528.4012, 1.092716
528.8834, 0.4227870
529.3655, 0.3691370
529.8476, 0.4397390
530.3297, 4.4918001E-02
530.8118, 0.4844860
531.2939, 0.5615580
531.7761, 0.3608250
532.2582, 7.4336998E-02
532.7403, 0.4751470
533.2224, 0.7742960
533.7045, 0.7146450
534.1866, 0.5262260
534.6688, 0.2759900
535.1509, 1.3783000E-02
535.6330, 0.1723440
536.1151, 0.2035710
536.5972, 0.1478610
537.0793, 0.2076680
537.5615, 0.4248430
538.0436, 0.5866550
538.5257, 0.6470640
539.0078, 0.6087190
539.4899, 0.4105610
539.9720, 6.8359002E-02
540.4542, 0.1614150
540.9363, 3.3732999E-02
541.4184, 0.2214810
541.9005, 0.2659570
542.3826, 9.5348001E-02
542.8647, 0.1430780
543.3469, 0.4455180
543.8290, 0.6933250
544.3111, 0.5160790
544.7932, 0.3521770
545.2753, 0.9559560
545.7574, 1.107346
546.2396, 0.9815480
546.7217, 0.4930950
547.2038, 0.1878090
547.6859, 0.4590800
548.1680, 0.1674190
548.6501, 1.412308
549.1323, 2.000450
549.6144, 1.434784
550.0965, 1.054646
550.5786, 1.111458
551.0607, 1.301777
551.5428, 1.408356
552.0250, 1.423244
552.5071, 1.472279
552.9892, 1.684769
553.4713, 1.984081
553.9534, 2.163834
554.4355, 2.208389
554.9177, 2.179844
555.3998, 2.002522
555.8819, 1.840260
556.3640, 1.942516
556.8461, 2.352104
557.3282, 2.701855
557.8104, 2.815701
558.2925, 2.815315
558.7746, 2.787716
559.2567, 2.760410
559.7388, 2.849148
560.2209, 3.138882
560.7031, 3.574226
561.1852, 3.978985
561.6673, 4.399326
562.1494, 4.708374
562.6315, 4.661892
563.1136, 4.686169
563.5958, 5.157825
564.0779, 6.015850
564.5600, 6.914303
565.0421, 7.607807
565.5242, 8.166840
566.0063, 8.835766
566.4885, 9.646011
566.9706, 10.44546
567.4527, 11.21903
567.9348, 11.93819
568.4169, 12.50168
568.8990, 12.96842
569.3812, 13.70658
569.8633, 15.15295
570.3454, 16.86340
570.8275, 18.04786
571.3096, 18.76051
571.7917, 19.92053
572.2739, 22.00449
572.7560, 24.61965
573.2381, 27.03388
573.7202, 29.07042
574.2023, 31.69672
574.6844, 35.19591
575.1666, 39.11994
575.6487, 43.25270
576.1308, 47.59795
576.6129, 52.21230
577.0950, 57.15358
577.5771, 62.29412
578.0593, 67.43141
578.5414, 72.71938
579.0235, 77.57037
579.5056, 81.24702
579.9877, 85.15892
580.4698, 90.24398
580.9520, 96.04244
581.4341, 101.3921
581.9162, 105.4837
582.3983, 109.4856
582.8804, 115.0412
583.3625, 122.0721
583.8447, 129.3298
584.3268, 136.4364
584.8089, 143.7735
585.2910, 151.5752
585.7731, 159.9109
586.2552, 169.1193
586.7374, 179.2348
587.2195, 190.2034
587.7016, 201.9767
588.1837, 214.6342
588.6658, 228.4305
589.1479, 243.3966
589.6301, 258.8877
590.1122, 274.4438
590.5943, 290.2551
591.0764, 303.8788
591.5585, 316.1060
592.0406, 325.0457
592.5228, 331.0129
593.0049, 333.1153
593.4870, 330.1852
593.9691, 321.9404
594.4512, 309.4308
594.9333, 292.6498
595.4155, 272.2001
595.8976, 250.5105
596.3797, 227.3871
596.8618, 204.5441
597.3439, 182.5363
597.8260, 161.8554
598.3082, 143.4385
598.7903, 127.5600
599.2724, 113.2911
599.7545, 100.3085
600.2366, 88.79257
600.7188, 79.28102
601.2009, 71.59265
601.6830, 64.89778
602.1651, 58.65175
602.6472, 52.91708
603.1293, 47.85717
603.6115, 43.48941
604.0936, 39.81299
604.5757, 37.01148
605.0578, 34.66746
605.5399, 32.64970
606.0220, 30.90241
606.5042, 29.21569
606.9863, 27.42317
607.4684, 25.78714
607.9505, 24.74017
608.4326, 24.27244
608.9147, 24.04059
609.3969, 24.03310
609.8790, 24.08652
610.3611, 23.86285
610.8432, 23.41817
611.3253, 23.61761
611.8074, 25.10638
612.2896, 26.68176
612.7717, 27.75113
613.2538, 28.47153
613.7359, 29.04603
614.2180, 29.56394
614.7001, 30.21447
615.1823, 31.24632
615.6644, 32.65931
616.1465, 34.21262
616.6286, 36.08600
617.1107, 37.83845
617.5928, 39.13029
618.0750, 40.37789
618.5571, 42.01098
619.0392, 44.10577
619.5213, 46.43985
620.0034, 48.82212
620.4855, 51.32460
620.9677, 54.21434
621.4498, 57.51036
621.9319, 60.70917
622.4140, 63.40298
622.8961, 66.01305
623.3782, 69.52122
623.8604, 74.10909
624.3425, 78.87375
624.8246, 83.97211
625.3067, 88.95885
625.7888, 93.60928
626.2709, 97.90031
626.7531, 101.9777
627.2352, 105.8957
627.7173, 109.4742
628.1994, 112.4951
628.6815, 115.1178
629.1636, 116.3398
629.6458, 115.9804
630.1279, 114.2629
630.6100, 111.1936
631.0921, 107.0325
631.5742, 102.1187
632.0563, 96.27641
632.5385, 90.48048
633.0206, 85.51414
633.5027, 81.08141
633.9848, 76.64722
634.4669, 72.12630
634.9490, 67.37815
635.4312, 62.21018
635.9133, 56.76561
636.3954, 51.65503
636.8775, 46.97366
637.3596, 42.56987
637.8417, 38.54789
638.3239, 34.73671
638.8060, 30.95615
639.2881, 27.26736
639.7702, 23.89551
640.2523, 20.96049
640.7344, 18.44950
641.2166, 16.43201
641.6987, 14.91573
642.1808, 13.57750
642.6629, 12.43719
643.1450, 11.31245
643.6271, 9.901932
644.1093, 8.333561
644.5914, 7.153244
645.0735, 6.765533
645.5556, 6.409328
646.0377, 5.696575
646.5198, 4.832985
647.0020, 4.085632
647.4841, 3.502918
647.9662, 3.014439
648.4483, 2.552273
648.9304, 2.142578
649.4125, 1.963387
649.8947, 2.244469
650.3768, 2.352486
650.8589, 1.926533
651.3410, 1.413063
651.8231, 1.163536
652.3052, 1.176464
652.7874, 1.231960
653.2695, 1.253159
653.7516, 1.229214
654.2337, 1.147224
654.7158, 1.008244
655.1979, 0.7842410
655.6801, 0.4449080
656.1622, 0.1529620
656.6443, 0.1041220
657.1264, 0.3169210
657.6085, 0.4836310
658.0906, 0.6936490
658.5728, 0.7582970
659.0549, 0.4072800
659.5370, 5.2410001E-03
660.0191, 5.0163001E-02
660.5012, 0.5391730
660.9833, 0.9351840
661.4655, 0.7609560
661.9476, 0.1842380
662.4297, 0.3717730
662.9118, 0.9425510
663.3939, 1.168591
663.8760, 0.7763440
664.3582, 0.1859170
664.8403, 8.0902003E-02
665.3224, 5.3936001E-02
665.8045, 0.1038400
666.2866, 0.4419630
666.7687, 0.7116550
667.2509, 0.6689990
667.7330, 0.4389690
668.2151, 0.1859470
668.6972, 2.7863000E-02
669.1793, 0.1268460
669.6614, 1.8080000E-03
670.1436, 0.3230360
670.6257, 0.5046650
671.1078, 0.5490380
671.5899, 0.4378510
672.0720, 8.4549002E-02
672.5541, 0.5910990
673.0363, 0.7481420
673.5184, 0.5483970
674.0005, 0.1799350
674.4826, 0.4488490
674.9647, 1.075356
675.4468, 1.460503
675.9290, 1.626598
676.4111, 1.609867
676.8932, 1.418285
677.3753, 1.185394
677.8574, 1.060467
678.3395, 1.044590
678.8217, 1.113155
679.3038, 1.450245
679.7859, 1.633305
680.2680, 1.565506
680.7501, 1.332634
681.2322, 0.8622090
681.7144, 0.2424130
682.1965, 8.7559000E-02
682.6786, 0.3894690
683.1607, 1.175056
683.6428, 1.344032
684.1249, 0.9855880
684.6071, 0.9180300
685.0892, 1.456280
685.5713, 2.113949
686.0534, 2.333553
686.5355, 2.084705
687.0176, 1.878288
687.4998, 1.684822
687.9819, 1.566044
688.4640, 1.624340
688.9461, 1.710358
689.4282, 1.641884
689.9103, 1.422585
690.3925, 1.231548
690.8746, 1.228004
691.3567, 1.325329
691.8388, 1.298477
692.3209, 1.140976
692.8030, 1.040302
693.2852, 1.073822
693.7673, 1.128471
694.2494, 1.100136
694.7315, 0.9881670
695.2136, 0.8154830
695.6957, 0.4123570
696.1779, 0.1542020
696.6600, 0.2516100
697.1421, 0.5287320
697.6242, 0.8495030
698.1063, 1.130493
698.5884, 1.198803
699.0706, 0.8670850
699.5527, 0.3517300
700.0348, 0.3721690
700.5169, 1.070904
700.9990, 1.351009
701.4811, 0.7641830
701.9633, 3.3424001E-02
702.4454, 0.2086830
702.9275, 8.7485999E-02
703.4096, 9.3879998E-03
703.8917, 9.2007004E-02
704.3738, 0.1370740
704.8560, 3.2393999E-02
705.3381, 0.2333600
705.8202, 0.2473030
706.3023, 5.8715999E-02
706.7844, 0.2649190
707.2665, 0.7162210
707.7487, 1.169601
708.2308, 1.171894
708.7129, 0.5937770
709.1950, 0.1163220
709.6771, 0.1559450
710.1592, 0.3572960
710.6414, 0.5977100
711.1235, 0.8401150
711.6056, 0.9647450
712.0877, 0.9298670
712.5698, 0.8249550
713.0519, 0.6568720
713.5341, 0.4727020
714.0162, 0.3225360
714.4983, 0.2100070
714.9804, 0.1146930
715.4625, 1.2711000E-02
715.9446, 7.2269000E-02
716.4268, 3.5174999E-02
716.9089, 0.1633070
717.3910, 0.3444060
717.8731, 0.5592120
718.3552, 0.6779250
718.8373, 0.5098800
719.3195, 0.2640380
719.8016, 0.3705440
720.2837, 0.9912830
720.7658, 1.399120
721.2479, 1.028328
721.7300, 0.4840430
722.2122, 0.4463500
722.6943, 0.8036080
723.1764, 1.054016
723.6585, 0.9791530
724.1406, 0.7793920
724.6227, 0.7675170
725.1049, 0.9731940
725.5870, 1.076477
726.0691, 0.9997710
726.5512, 0.9520450
727.0333, 1.045303
727.5154, 1.174717
727.9976, 1.230000
728.4797, 1.201519
728.9618, 1.141693
729.4439, 0.9167480
729.9260, 0.8017810
730.4081, 1.192577
730.8903, 1.868679
731.3724, 2.251713
731.8545, 2.186417
732.3366, 2.014481
732.8187, 2.109436
733.3008, 2.442856
733.7830, 2.669441
734.2651, 2.764183
734.7472, 2.805763
735.2293, 2.685177
735.7114, 2.618900
736.1935, 2.869110
736.6757, 3.358089
737.1578, 3.724152
737.6399, 3.836376
738.1220, 3.821465
738.6041, 3.733700
739.0862, 3.585911
739.5684, 3.298782
740.0505, 2.919590
740.5326, 2.835808
741.0147, 3.385273
741.4968, 4.243279
741.9789, 4.321568
742.4611, 3.289303
742.9432, 2.714378
743.4253, 3.068348
743.9074, 3.498474
744.3895, 3.543991
744.8716, 3.322762
745.3538, 3.011597
745.8359, 2.568092
746.3180, 2.265285
746.8001, 2.379005
747.2822, 2.584473
747.7643, 2.532669
748.2465, 2.263268
748.7286, 1.948006
749.2107, 1.665726
749.6928, 1.520763
750.1749, 1.758640
750.6570, 2.414459
751.1392, 2.699150
751.6213, 2.501911
752.1034, 2.186302
752.5855, 1.868690
753.0676, 1.518867
753.5497, 1.044167
754.0319, 0.4356610
754.5140, 3.5934001E-02
754.9961, 1.4938000E-02
755.4782, 0.1044690
755.9603, 0.4241370
756.4424, 0.7889560
756.9246, 0.9432300
757.4067, 0.8554190
757.8888, 0.7308040
758.3709, 0.7465930
758.8530, 0.8602450
759.3351, 0.9305460
759.8173, 0.9504780
760.2994, 0.9459190
760.7815, 0.9588010
761.2636, 0.9368320
761.7457, 0.8158340
762.2278, 0.6141240
762.7100, 0.4274980
763.1921, 0.2274740
763.6742, 7.7010997E-02
764.1563, 5.1883999E-02
764.6384, 0.1098180
765.1205, 5.9891000E-02
765.6027, 0.3284000
766.0848, 0.3602520
766.5669, 1.0300000E-02
767.0490, 0.3925400
767.5311, 0.3538550
768.0132, 2.0226000E-02
768.4954, 0.1563190
768.9775, 9.2120003E-03
769.4596, 0.1504440
769.9417, 9.3039997E-02
770.4238, 4.9934000E-02
770.9059, 7.6576002E-02
771.3881, 5.4432001E-02
771.8702, 0.1404110
772.3523, 0.2462230
772.8344, 0.2405200
773.3165, 1.1112000E-02
773.7986, 0.3442540
774.2808, 0.6551250
774.7629, 0.8930360
775.2450, 0.8952180
775.7271, 0.3139500
776.2092, 0.3397330
776.6913, 0.1642420
777.1735, 0.6297720
777.6556, 1.235695
778.1377, 1.470734
778.6198, 1.390739
779.1019, 0.9778100
779.5840, 0.3391910
780.0662, 2.5402000E-02
780.5483, 7.5947002E-02
781.0304, 0.3849110
781.5125, 1.540672
781.9946, 2.346619
782.4767, 1.892147
782.9589, 0.7505950
783.4410, 1.9370999E-02
783.9231, 7.9269996E-03
784.4052, 0.2396280
784.8873, 0.6992000
785.3694, 1.162376
785.8516, 1.348972
786.3337, 1.299515
786.8158, 1.201759
787.2979, 1.131489
787.7800, 1.054695
788.2621, 0.9111670
788.7443, 0.7066920
789.2264, 0.5913770
789.7085, 0.5618930
790.1906, 0.6477930
790.6727, 1.059074
791.1548, 1.393963
791.6370, 1.077934
792.1191, 0.2404060
792.6012, 0.1753350
793.0833, 0.3859370
793.5654, 0.8689190
794.0475, 0.7659950
794.5297, 0.4673190
795.0118, 0.3494220
795.4939, 0.4299810
795.9760, 0.5787540
796.4581, 0.7366220
796.9402, 0.8445010
797.4224, 0.7184410
797.9045, 0.4263920
798.3866, 0.4761280
798.8687, 0.9426270
799.3508, 1.469070
799.8329, 1.942604
800.3151, 2.259380
800.7972, 2.183407
801.2793, 1.563774
801.7614, 1.144165
802.2435, 1.081818
802.7256, 1.006123
803.2078, 0.7189900
803.6899, 0.4249150
804.1720, 0.3308720
804.6541, 0.4555280
805.1362, 0.7048760
805.6183, 1.132053
806.1005, 1.540653
806.5826, 1.694561
807.0647, 1.678638
807.5468, 1.657383
808.0289, 1.668793
808.5110, 1.762123
808.9932, 1.995068
809.4753, 2.258549
809.9574, 2.231750
810.4395, 1.827316
810.9216, 1.522579
811.4037, 1.360180
811.8859, 1.264969
812.3680, 1.255993
812.8501, 1.264114
813.3322, 1.164040
813.8143, 0.9310340
814.2964, 0.7570570
814.7786, 0.5629620
815.2607, 0.5627980
815.7428, 1.128864
816.2249, 1.850094
816.7070, 2.056679
817.1891, 1.703121
817.6713, 1.383240
818.1534, 1.597118
818.6355, 2.050095
819.1176, 2.138592
819.5997, 1.913807
820.0818, 1.810516
820.5640, 1.922348
821.0461, 1.964924
821.5282, 1.700256
822.0103, 1.260040
822.4924, 1.070408
822.9745, 1.337238
823.4567, 1.438248
823.9388, 1.179100
824.4209, 0.9530030
824.9030, 0.8514330
825.3851, 0.8906330
825.8672, 1.167358
826.3494, 1.658901
826.8315, 1.911839
827.3136, 1.489628
827.7957, 0.9677810
828.2778, 0.7811930
828.7599, 0.8526230
829.2421, 1.125484
829.7242, 1.529896
830.2063, 1.787743
830.6884, 1.679630
831.1705, 1.348289
831.6526, 1.055508
832.1348, 0.7928430
832.6169, 0.7191010
833.0990, 0.8885770
833.5811, 1.122833
834.0632, 1.379677
834.5453, 1.586838
835.0275, 1.439114
835.5096, 0.6498910
835.9917, 0.3172720
836.4738, 0.9417950
836.9559, 1.439381
837.4380, 1.218964
837.9202, 0.7765660
838.4023, 0.7539750
838.8844, 1.172092
839.3665, 1.478706
839.8486, 1.267319
840.3307, 0.9564510
840.8129, 0.9950140
841.2950, 1.233829
841.7771, 1.408257
842.2592, 1.478336
842.7413, 1.480408
843.2234, 1.434799
843.7056, 1.352936
844.1877, 1.223637
844.6698, 1.029251
845.1519, 1.055500
845.6340, 1.437557
846.1161, 1.655346
846.5983, 1.309807
847.0804, 0.8582730
847.5625, 1.054325
848.0446, 1.958618
848.5267, 2.460045
849.0089, 2.263229
849.4910, 1.981068
849.9731, 1.682045
850.4552, 1.437191
850.9373, 1.409729
851.4194, 1.510845
851.9016, 1.435379
852.3837, 0.9462470
852.8658, 0.6302220
853.3479, 1.315300
853.8300, 2.403965
854.3121, 2.802914
854.7943, 2.545490
855.2764, 2.224049
855.7585, 2.093922
856.2406, 1.965351
856.7227, 1.538826
857.2048, 0.8592910
857.6870, 0.5075490
858.1691, 0.5351720
858.6512, 0.7297820
859.1333, 1.193432
859.6154, 1.559769
860.0975, 1.399776
860.5797, 0.8377270
861.0618, 0.5854340
861.5439, 0.7681960
862.0260, 1.042366
862.5081, 1.495075
862.9902, 1.906883
863.4724, 2.227142
863.9545, 2.386612
864.4366, 2.200951
864.9187, 1.640293
865.4008, 1.203781
865.8829, 1.403179
866.3651, 1.752361
866.8472, 1.652420
867.3293, 1.258289
867.8114, 0.9564550
868.2935, 0.8280560
868.7756, 0.7292370
869.2578, 0.5428540
869.7399, 0.3358800
870.2220, 0.2746430
870.7041, 0.3625070
871.1862, 0.5648690
871.6683, 0.9379690
872.1505, 1.189991
872.6326, 1.086212
873.1147, 0.8750950
873.5968, 1.040344
874.0789, 1.740067
874.5610, 1.953548
875.0432, 1.153751
875.5253, 0.5828060
876.0074, 0.6803280
876.4895, 0.9900470
876.9716, 1.190838
877.4537, 1.249969
877.9359, 1.191822
878.4180, 0.9775280
878.9001, 0.7713780
879.3822, 0.6469570
879.8643, 0.5935780
880.3464, 0.5943530
880.8286, 0.6509510
881.3107, 0.8094410
881.7928, 1.080807
882.2749, 1.322628
882.7570, 1.338734
883.2391, 1.171726
883.7213, 0.9758530
884.2034, 0.7602420
884.6855, 0.5880850
885.1676, 0.4670330
885.6497, 0.4687270
886.1318, 0.7342000
886.6140, 1.130169
887.0961, 1.220009
887.5782, 0.8659100
888.0603, 0.6120190
888.5424, 0.5828170
889.0245, 0.5057870
889.5067, 0.1438140
889.9888, 0.2552110
890.4709, 0.4058570
890.9530, 0.3027000
891.4351, 0.1095310
891.9172, 0.2230530
892.3994, 0.5462230
892.8815, 0.9209590
893.3636, 1.162861
893.8457, 0.9504200
894.3278, 0.4571150
894.8099, 0.2003590
895.2921, 0.4127120
895.7742, 0.6993410
896.2563, 0.7174220
896.7384, 0.5757940
897.2205, 0.3887140
897.7026, 0.2069780
898.1848, 0.2232930
898.6669, 0.4883000
899.1490, 0.7833600
899.6311, 0.9254260
900.1132, 0.9332200
900.5953, 0.9307560
901.0775, 0.9203950
901.5596, 0.8000640
902.0417, 0.5062370
902.5238, 0.2537650
903.0059, 0.1596760
903.4880, 0.2236180
903.9702, 0.4517250
904.4523, 0.9757040
904.9344, 1.211578
905.4165, 0.7583430
905.8986, 0.5366820
906.3807, 1.092678
906.8629, 1.690742
907.3450, 1.549522
907.8271, 0.8475150
908.3092, 0.4741100
908.7913, 0.8554840
909.2734, 1.176086
909.7556, 0.9316180
910.2377, 0.5912510
910.7198, 0.5866810
911.2019, 0.8134120
911.6840, 0.9933130
912.1661, 1.071037
912.6483, 1.172508
913.1304, 1.502731
913.6125, 1.847755
914.0946, 1.772503
914.5767, 1.415077
915.0588, 1.229187
915.5410, 1.281681
916.0231, 1.377140
916.5052, 1.392982
916.9873, 1.378262
917.4694, 1.491585
917.9515, 1.687435
918.4337, 1.538094
918.9158, 0.8952100
919.3979, 0.6274990
919.8800, 1.200325
920.3621, 1.920048
920.8442, 2.029140
921.3264, 1.592136
921.8085, 1.294685
922.2906, 1.255596
922.7727, 1.160812
923.2548, 0.8496890
923.7369, 0.6420780
924.2191, 0.7730870
924.7012, 1.065403
925.1833, 1.270363
925.6654, 1.360146
926.1475, 1.353088
926.6296, 1.173187
927.1118, 0.9928590
927.5939, 0.8746300
928.0760, 0.8181990
928.5581, 0.8665620
929.0402, 0.9742010
929.5223, 0.9827610
930.0045, 0.7985190
930.4866, 0.6649860
930.9687, 0.9102250
931.4508, 1.283337
931.9329, 1.396351
932.4150, 1.284626
932.8972, 1.081192
933.3793, 0.8411940
933.8614, 0.6744160
934.3435, 0.7051430
934.8256, 0.8129040
935.3077, 0.6154140
935.7899, 0.1518670
936.2720, 5.7815999E-02
936.7541, 0.4353560
937.2362, 0.7961120
937.7183, 0.9187320
938.2004, 0.8334690
938.6826, 0.5394400
939.1647, 2.6333001E-02
939.6468, 0.2268750
940.1289, 0.1826400
940.6110, 5.1876001E-02
941.0931, 0.7073020
941.5753, 1.221634
942.0574, 1.145836
942.5395, 0.6375430
943.0216, 8.1069998E-02
943.5037, 0.6805040
943.9858, 1.004223
944.4680, 0.4181710
944.9501, 0.1020930
945.4322, 0.1548650
945.9143, 7.5150002E-03
946.3964, 0.1623650
946.8785, 0.2752720
947.3607, 0.3483160
947.8428, 0.4156570
948.3249, 0.4083560
948.8070, 0.2173880
949.2891, 3.8288001E-02
949.7712, 0.3116000
950.2534, 0.5206300
950.7355, 0.4827350
951.2176, 0.1832850
951.6997, 0.1054380
952.1818, 0.2181780
952.6639, 0.1568110
953.1461, 0.2347150
953.6282, 0.7591550
954.1103, 0.8942260
954.5924, 0.6407780
955.0745, 0.4185750
955.5566, 0.4361460
956.0388, 0.4714550
956.5209, 0.1415750
957.0030, 0.4309810
957.4851, 0.5885540
957.9672, 0.3332820
958.4493, 4.3044999E-02
958.9315, 0.5156900
959.4136, 0.7527620
959.8957, 0.4490970
960.3778, 0.1392250
960.8599, 0.3297730
961.3420, 2.6123000E-02
961.8242, 0.1959080
962.3063, 0.3308560
962.7884, 0.3850560
963.2705, 0.3083460
963.7526, 0.2191730
964.2347, 0.2500950
964.7169, 0.3803410
965.1990, 0.4572070
965.6811, 0.4731600
966.1632, 0.4452170
966.6453, 0.2142300
967.1274, 0.1220210
967.6096, 0.5772740
968.0917, 1.097103
968.5738, 0.9553030
969.0559, 0.1510430
969.5380, 0.3912350
970.0201, 0.3602260
970.5023, 0.1554950
970.9844, 0.1543920
971.4665, 0.5154880
971.9486, 1.039547
972.4307, 1.536655
972.9128, 1.628250
973.3950, 1.221375
973.8771, 0.6891290
974.3592, 9.5427997E-02
974.8413, 0.5637020
975.3234, 0.1243860
975.8055, 1.260109
976.2877, 1.836792
976.7698, 1.796909
977.2519, 1.463795
977.7340, 0.9747200
978.2161, 0.6080060
978.6982, 0.7513660
979.1804, 1.178288
979.6625, 1.619122
980.1446, 1.957363
980.6267, 1.661411
981.1088, 0.7185820
981.5909, 3.9369999E-03
982.0731, 0.1334840
982.5552, 0.7474440
983.0373, 1.271942
983.5194, 1.702515
984.0015, 1.963371
984.4836, 2.055611
984.9658, 2.320000
985.4479, 2.892864
985.9300, 3.388325
986.4121, 3.422092
986.8942, 3.139824
987.3763, 3.082397
987.8585, 3.298969
988.3406, 3.410759
988.8227, 3.370010
989.3048, 3.303909
989.7869, 3.196911
990.2690, 3.217247
990.7512, 3.616894
991.2333, 4.354012
991.7154, 4.895046
992.1975, 5.212547
992.6796, 5.376961
993.1617, 5.157593
993.6439, 5.109291
994.1260, 5.573532
994.6081, 6.323227
995.0902, 7.030666
995.5723, 7.691753
996.0544, 8.414165
996.5366, 9.284168
997.0187, 10.09683
997.5008, 10.73585
997.9829, 11.39489
998.4650, 12.32637
998.9471, 13.30444
999.4293, 13.84031
999.9114, 13.83978
1000.393, 14.16363
1000.876, 14.98632
1001.358, 16.20457
1001.840, 18.06461
1002.322, 20.17776
1002.804, 21.96214
1003.286, 23.68393
1003.768, 26.10561
1004.250, 29.43999
1004.733, 33.17567
1005.215, 36.84982
1005.697, 41.01359
1006.179, 45.43095
1006.661, 50.99612
1007.143, 58.57028
1007.625, 68.34140
1008.107, 81.06094
1008.589, 97.21870
1009.072, 113.4751
1009.554, 127.4954
1010.036, 139.5691
1010.518, 149.2784
1011.000, 157.6167
1011.482, 166.5313
1011.964, 176.2637
1012.446, 185.7144
1012.929, 194.1998
1013.411, 203.8480
1013.893, 216.8631
1014.375, 233.0571
1014.857, 252.0062
1015.339, 273.8276
1015.821, 299.2180
1016.303, 328.2668
1016.785, 360.0697
1017.268, 393.6472
1017.750, 432.3523
1018.232, 482.1663
1018.714, 542.2712
1019.196, 613.0751
1019.678, 692.6301
1020.160, 772.9780
1020.642, 851.9095
1021.125, 905.6471
1021.607, 916.1880
1022.089, 886.7169
1022.571, 817.6911
1023.053, 710.6233
1023.535, 600.9769
1024.017, 489.3202
1024.499, 391.6671
1024.981, 312.7654
1025.464, 249.6648
1025.946, 200.8257
1026.428, 164.3136
1026.910, 134.7003
1027.392, 112.2705
1027.874, 94.10328
1028.356, 80.45399
1028.838, 69.61208
1029.321, 61.32659
1029.803, 54.68885
1030.285, 48.86726
1030.767, 43.79537
1031.249, 39.16341
1031.731, 34.88939
1032.213, 31.33805
1032.695, 28.62318
1033.177, 26.32327
1033.660, 24.30978
1034.142, 22.49029
1034.624, 20.69349
1035.106, 19.01377
1035.588, 18.13040
1036.070, 18.67342
1036.552, 18.44501
1037.034, 16.87127
1037.516, 15.42455
1037.999, 14.76658
1038.481, 14.38449
1038.963, 13.70516
1039.445, 12.84583
1039.927, 12.32464
1040.409, 12.29510
1040.891, 12.15505
1041.373, 12.04799
1041.855, 11.72360
1042.338, 10.85335
1042.820, 9.908367
1043.302, 9.405033
1043.784, 9.280197
1044.266, 9.039055
1044.748, 8.472919
1045.230, 8.095165
1045.712, 8.118980
1046.195, 8.136074
1046.677, 7.926388
1047.159, 7.667343
1047.641, 7.580910
1048.123, 7.628681
1048.605, 7.513706
1049.087, 6.979496
1049.569, 6.614220
1050.052, 6.715710
1050.534, 6.730236
1051.016, 6.290581
1051.498, 5.740601
1051.980, 5.432472
1052.462, 5.377121
1052.944, 5.467369
1053.426, 5.834003
1053.908, 6.035778
1054.391, 5.923920
1054.873, 5.682091
1055.355, 5.318512
1055.837, 4.933704
1056.319, 4.632915
1056.801, 4.413010
1057.283, 4.200264
1057.765, 3.961655
1058.248, 3.770473
1058.730, 3.479073
1059.212, 3.432819
1059.694, 4.266209
1060.176, 5.141342
1060.658, 4.926826
1061.140, 3.807053
1061.622, 2.966057
1062.104, 2.743038
1062.587, 2.763859
1063.069, 3.189793
1063.551, 3.488308
1064.033, 3.313011
1064.515, 2.864738
1064.997, 2.217407
1065.479, 1.525974
1065.961, 1.242550
1066.443, 1.632008
1066.926, 1.950314
1067.408, 1.857849
1067.890, 1.648090
1068.372, 1.364319
1068.854, 1.153309
1069.336, 1.210751
1069.818, 1.481686
1070.300, 1.775322
1070.782, 2.083881
1071.265, 2.181473
1071.747, 1.767845
1072.229, 1.347027
1072.711, 1.282215
1073.193, 1.325912
1073.675, 1.173302
1074.157, 0.8817180
1074.639, 0.6763000
1075.122, 0.6101110
1075.604, 0.7113720
1076.086, 1.178814
1076.568, 1.597630
1077.050, 1.731560
1077.532, 1.688862
1078.014, 1.537006
1078.496, 1.320751
1078.979, 1.064682
1079.461, 0.7630840
1079.943, 0.6566850
1080.425, 0.8623010
1080.907, 1.286358
1081.389, 2.220936
1081.871, 3.054909
1082.353, 3.041767
1082.835, 2.512966
1083.318, 2.220036
1083.800, 2.334969
1084.282, 2.633953
1084.764, 3.314137
1085.246, 3.780399
1085.728, 3.608719
1086.210, 3.213272
1086.692, 2.855701
1087.175, 2.583942
1087.657, 2.485222
1088.139, 2.548622
1088.621, 2.446926
1089.103, 1.749615
1089.585, 1.282974
1090.067, 1.830395
1090.549, 2.319664
1091.031, 1.730259
1091.514, 0.6340290
1091.996, 8.3359003E-02
1092.478, 0.3119430
1092.960, 0.3925740
1093.442, 0.4130820
1093.924, 0.3507040
1094.406, 0.1082920
1094.888, 0.1246760
1095.370, 0.3494380
1095.853, 0.4111900
1096.335, 9.5725998E-02
1096.817, 0.9968990
1097.299, 1.310135
1097.781, 0.4968910
1098.263, 0.1970980
1098.745, 0.3741950
1099.227, 0.3392790
1099.709, 0.1355740
1100.192, 0.1096650
1100.674, 0.3073620
1101.156, 0.4347500
1101.638, 0.4442060
1102.120, 0.2891310
1102.602, 0.1616740
1103.084, 0.2944260
1103.566, 0.2253110
1104.049, 0.6427000
1104.531, 1.418186
1105.013, 1.156868
1105.495, 0.2465740
1105.977, 0.3297770
1106.459, 0.4301680
1106.941, 0.3800130
1107.423, 0.2019230
1107.906, 7.8010999E-02
1108.388, 0.6845970
1108.870, 1.154274
1109.352, 1.039589
1109.834, 0.6429250
1110.316, 0.4876790
1110.798, 0.6113930
1111.280, 0.7797390
1111.762, 1.099319
1112.245, 1.275173
1112.727, 1.044605
1113.209, 0.9241330
1113.691, 1.293610
1114.173, 1.829849
1114.655, 2.127018
1115.137, 2.198769
1115.619, 2.266273
1116.102, 2.433308
1116.584, 2.402187
1117.066, 1.914917
1117.548, 1.611107
1118.030, 1.845402
1118.512, 2.203560
1118.994, 2.225834
1119.476, 2.053162
1119.958, 2.302200
1120.441, 3.276230
1120.923, 3.657188
1121.405, 3.034252
1121.887, 2.741463
1122.369, 3.248207
1122.851, 3.913082
1123.333, 4.264828
1123.815, 4.451202
1124.297, 4.796783
1124.780, 5.307526
1125.262, 5.914787
1125.744, 6.705860
1126.226, 7.180843
1126.708, 7.114559
1127.190, 7.266396
1127.672, 8.124363
1128.154, 9.219303
1128.636, 9.817764
1129.119, 10.01929
1129.601, 10.66491
1130.083, 11.80693
1130.565, 12.95758
1131.047, 14.04061
1131.529, 15.08607
1132.011, 16.08451
1132.493, 17.12263
1132.976, 18.29008
1133.458, 19.59718
1133.940, 20.99048
1134.422, 22.44714
1134.904, 23.79930
1135.386, 25.02675
1135.868, 26.46545
1136.350, 28.23547
1136.833, 30.21001
1137.315, 32.31219
1137.797, 34.51305
1138.279, 36.98997
1138.761, 39.61800
1139.243, 41.69751
1139.725, 43.38898
1140.207, 45.36832
1140.689, 47.74229
1141.172, 50.39140
1141.654, 53.26395
1142.136, 55.99150
1142.618, 58.12394
1143.100, 59.94106
1143.582, 61.85799
1144.064, 63.83590
1144.546, 65.81186
1145.029, 67.78395
1145.511, 69.68083
1145.993, 71.53313
1146.475, 73.58237
1146.957, 76.05498
1147.439, 78.63223
1147.921, 81.17422
1148.403, 83.50176
1148.885, 85.33218
1149.368, 86.78642
1149.850, 88.22931
1150.332, 89.53610
1150.814, 90.16788
1151.296, 89.95253
1151.778, 88.70056
1152.260, 86.09650
1152.742, 82.67595
1153.224, 78.28227
1153.707, 73.64008
1154.189, 69.50439
1154.671, 65.66545
1155.153, 61.68148
1155.635, 57.51302
1156.117, 53.14887
1156.599, 47.98892
1157.081, 43.40280
1157.563, 40.17820
1158.046, 37.24645
1158.528, 33.90623
1159.010, 30.52049
1159.492, 27.61971
1159.974, 25.20227
1160.456, 22.76345
1160.938, 19.83248
1161.420, 17.69730
1161.903, 17.05325
1162.385, 16.31477
1162.867, 15.01243
1163.349, 13.50770
1163.831, 11.89233
1164.313, 10.36705
1164.795, 9.446892
1165.277, 9.231766
1165.760, 8.831242
1166.242, 8.162212
1166.724, 7.512375
1167.206, 6.920704
1167.688, 6.376324
1168.170, 5.870850
1168.652, 5.433937
1169.134, 5.124783
1169.616, 4.898857
1170.099, 4.539597
1170.581, 4.044575
1171.063, 3.536926
1171.545, 3.021706
1172.027, 2.632732
1172.509, 2.407257
1172.991, 2.406284
1173.473, 2.714943
1173.956, 3.043522
1174.438, 2.797554
1174.920, 2.186520
1175.402, 1.868538
1175.884, 1.801884
1176.366, 1.893002
1176.848, 2.063099
1177.330, 2.054890
1177.813, 1.760525
1178.295, 1.310524
1178.777, 0.6749380
1179.259, 0.1565550
1179.741, 0.3117600
1180.223, 0.6970860
1180.705, 0.6550410
1181.187, 0.3253170
1181.669, 8.0559000E-02
1182.151, 1.7930000E-03
1182.634, 5.3249998E-03
1183.116, 6.5413997E-02
1183.598, 8.4270000E-02
1184.080, 8.6608998E-02
1184.562, 0.2610400
1185.044, 0.3750690
1185.526, 0.3790700
1186.008, 0.1038250
1186.490, 0.2846870
1186.973, 0.3520160
1187.455, 7.2900002E-04
1187.937, 0.1660190
1188.419, 0.1286850
1188.901, 0.3799130
1189.383, 0.6228710
1189.865, 0.6463620
1190.347, 0.1386070
1190.830, 0.4851720
1191.312, 0.8256260
1191.794, 0.8951380
1192.276, 0.7226750
1192.758, 0.1252630
1193.240, 5.7411000E-02
1193.722, 0.3640210
1194.204, 0.7299880
1194.687, 1.115540
1195.169, 0.5241200
1195.651, 2.036144
1196.133, 4.927402
1196.615, 5.466469
1197.097, 4.005219
1197.579, 2.487629
1198.061, 0.9403500
1198.543, 6.7107998E-02
1199.026, 9.5715001E-02
1199.508, 5.6720998E-02
1199.990, 0.3753930
1200.472, 0.7301830
1200.954, 1.047012
1201.436, 1.185028
1201.918, 0.6051520
1202.400, 0.1173630
1202.883, 0.4673920
1203.365, 1.758820
1203.847, 2.266125
1204.329, 1.989910
1204.811, 1.830620
1205.293, 2.117687
1205.775, 2.440701
1206.257, 2.499004
1206.740, 2.521408
1207.222, 2.649704
1207.704, 2.840492
1208.186, 2.996998
1208.668, 3.224213
1209.150, 3.731697
1209.632, 4.476074
1210.114, 5.189442
1210.596, 5.889019
1211.078, 6.293896
1211.561, 6.053196
1212.043, 5.923943
1212.525, 6.091579
1213.007, 6.496738
1213.489, 7.320408
1213.971, 8.179482
1214.453, 8.348721
1214.935, 7.897644
1215.417, 8.170429
1215.900, 9.429829
1216.382, 10.39283
1216.864, 10.91276
1217.346, 11.48293
1217.828, 12.28096
1218.310, 13.02316
1218.792, 13.47614
1219.274, 13.84202
1219.757, 14.56327
1220.239, 15.51990
1220.721, 16.11907
1221.203, 16.42580
1221.685, 16.64882
1222.167, 16.88938
1222.649, 17.58157
1223.131, 18.81989
1223.614, 19.88675
1224.096, 20.18903
1224.578, 20.24563
1225.060, 20.72488
1225.542, 21.19719
1226.024, 20.84962
1226.506, 20.30580
1226.988, 20.84698
1227.470, 22.09531
1227.953, 22.48802
1228.435, 21.56690
1228.917, 20.70514
1229.399, 20.41887
1229.881, 20.29496
1230.363, 20.58993
1230.845, 20.55750
1231.327, 19.35313
1231.810, 17.88577
1232.292, 17.33716
1232.774, 17.45761
1233.256, 17.26242
1233.738, 16.66760
1234.220, 16.02114
1234.702, 15.31546
1235.184, 14.65918
1235.667, 14.09154
1236.149, 13.65659
1236.631, 13.30211
1237.113, 12.93933
1237.595, 12.52174
1238.077, 12.05156
1238.559, 11.44795
1239.041, 10.83345
1239.523, 10.56952
1240.005, 10.40508
1240.488, 9.991062
1240.970, 9.526047
1241.452, 9.496620
1241.934, 10.21880
1242.416, 10.94642
1242.898, 10.80273
1243.380, 10.61310
1243.862, 11.38543
1244.344, 12.40896
1244.827, 12.88445
1245.309, 13.05108
1245.791, 13.39140
1246.273, 13.96584
1246.755, 14.64977
1247.237, 15.46506
1247.719, 16.20447
1248.201, 16.99003
1248.684, 17.46156
1249.166, 16.99562
1249.648, 16.79612
1250.130, 17.78089
1250.612, 19.17008
1251.094, 19.95797
1251.576, 20.20619
1252.058, 20.23628
1252.541, 19.96650
1253.023, 20.19730
1253.505, 21.03193
1253.987, 21.30021
1254.469, 20.72057
1254.951, 20.03633
1255.433, 19.66995
1255.915, 19.48702
1256.397, 19.40052
1256.880, 19.28063
1257.362, 18.75566
1257.844, 18.07352
1258.326, 17.85632
1258.808, 17.86897
1259.290, 17.41053
1259.772, 16.46165
1260.254, 15.57501
1260.737, 14.97626
1261.219, 14.46303
1261.701, 14.00767
1262.183, 13.50630
1262.665, 13.08637
1263.147, 12.41702
1263.629, 10.87170
1264.111, 9.169998
1264.594, 8.471554
1265.076, 8.594772
1265.558, 8.306030
1266.040, 7.466805
1266.522, 6.673363
1267.004, 5.819248
1267.486, 5.453175
1267.968, 5.804813
1268.450, 6.056271
1268.932, 5.800457
1269.415, 5.164707
1269.897, 4.169834
1270.379, 3.167511
1270.861, 3.188644
1271.343, 3.841061
1271.825, 4.019440
1272.307, 3.738823
1272.789, 3.039967
1273.271, 2.103859
1273.754, 1.527969
1274.236, 1.523354
1274.718, 1.592899
1275.200, 1.471199
1275.682, 1.246075
1276.164, 0.8044430
1276.646, 0.4614720
1277.128, 0.5753060
1277.611, 0.8137020
1278.093, 0.7662660
1278.575, 0.5099410
1279.057, 0.3534970
1279.539, 0.3065450
1280.021, 0.4107700
1280.503, 0.8163800
1280.985, 0.8917080
1281.468, 0.4903410
1281.950, 0.1223450
1282.432, 3.5728000E-02
1282.914, 5.5920001E-02
1283.396, 7.8999996E-03
1283.878, 0.1948010
1284.360, 0.5968630
1284.842, 0.5851440
1285.324, 0.0000000E+00
##END=



