##NAMES=Schafarzikite
##RRUFFID=R120039
##IDEAL CHEMISTRY=Fe^2+^Sb^3+^_2_O_4_
##LOCALITY=Pernek, Slovakia
##OWNER=RRUFF
##SOURCE=Bob Jenkins
##DESCRIPTION=Dark red elongated prismatic crystals with good cleavage, associated with white prismatic valentinite crystals.
##STATUS=The identification of this mineral has been confirmed only by single crystal X-ray diffraction.
##URL=rruff.info/R120039
114.7451, 0.0000000E+00
115.2272, 8.4137000E-02
115.7094, 3.738770
116.1915, 9.389130
116.6736, 16.67870
117.1557, 24.95538
117.6378, 35.09311
118.1199, 46.55701
118.6021, 57.40651
119.0842, 66.65923
119.5663, 74.02643
120.0484, 77.97382
120.5305, 77.52960
121.0126, 73.64868
121.4948, 66.67372
121.9769, 56.49150
122.4590, 45.33156
122.9411, 34.92471
123.4232, 25.23135
123.9053, 16.80537
124.3875, 10.10248
124.8696, 5.429016
125.3517, 2.915817
125.8338, 3.457565
126.3159, 6.405792
126.7980, 10.24641
127.2802, 13.76540
127.7623, 16.68745
128.2444, 19.49463
128.7265, 22.50479
129.2086, 25.65897
129.6907, 29.70192
130.1729, 33.49893
130.6550, 37.10548
131.1371, 40.27217
131.6192, 42.17301
132.1013, 41.54715
132.5834, 37.25958
133.0656, 32.33372
133.5477, 26.21724
134.0298, 19.97131
134.5119, 14.25310
134.9940, 9.324364
135.4761, 5.158112
135.9583, 1.784096
136.4404, 0.5959630
136.9225, 2.334030
137.4046, 3.382645
137.8867, 3.812271
138.3688, 3.644829
138.8510, 2.851677
139.3331, 1.549774
139.8152, 0.1195600
140.2973, 1.407341
140.7794, 3.062218
141.2615, 4.875092
141.7437, 6.830414
142.2258, 8.879684
142.7079, 10.96545
143.1900, 13.24197
143.6721, 15.79086
144.1542, 18.44234
144.6364, 21.56702
145.1185, 25.95062
145.6006, 31.91321
146.0827, 37.31237
146.5648, 40.06001
147.0469, 41.87009
147.5291, 44.49104
148.0112, 48.37244
148.4933, 53.24931
148.9754, 58.21304
149.4575, 63.09979
149.9396, 68.40288
150.4218, 74.27586
150.9039, 80.63982
151.3860, 87.36277
151.8681, 94.46868
152.3502, 101.9719
152.8323, 109.4809
153.3145, 117.1352
153.7966, 124.5861
154.2787, 131.8175
154.7608, 138.8933
155.2429, 146.0076
155.7250, 153.5331
156.2072, 161.5920
156.6893, 167.9469
157.1714, 172.6478
157.6535, 176.0220
158.1356, 178.3566
158.6177, 179.5463
159.0999, 179.2071
159.5820, 176.9645
160.0641, 172.5068
160.5462, 166.6683
161.0283, 159.1016
161.5104, 150.5262
161.9926, 141.2994
162.4747, 131.5052
162.9568, 121.3622
163.4389, 111.0383
163.9210, 100.5319
164.4031, 90.47464
164.8853, 80.88158
165.3674, 71.83145
165.8495, 63.60577
166.3316, 56.21375
166.8137, 49.65921
167.2958, 44.09528
167.7780, 39.33565
168.2601, 34.92685
168.7422, 30.66510
169.2243, 26.58134
169.7064, 22.87594
170.1885, 19.57246
170.6707, 16.72669
171.1528, 14.33777
171.6349, 12.36838
172.1170, 10.64445
172.5991, 9.490471
173.0812, 8.503708
173.5634, 7.562149
174.0455, 6.660507
174.5276, 5.788406
175.0097, 4.975586
175.4918, 4.203522
175.9739, 3.413300
176.4561, 2.488235
176.9382, 1.262779
177.4203, 0.4676210
177.9024, 0.3802340
178.3845, 0.4412920
178.8666, 0.3374940
179.3488, 5.1902998E-02
179.8309, 0.2035830
180.3130, 0.1085740
180.7951, 0.6079410
181.2772, 1.067253
181.7593, 1.102585
182.2415, 1.029518
182.7236, 1.033676
183.2057, 1.156296
183.6878, 1.354645
184.1699, 1.628494
184.6520, 2.210190
185.1342, 2.505852
185.6163, 2.325058
186.0984, 1.929573
186.5805, 1.609917
187.0626, 1.462097
187.5447, 1.359993
188.0269, 1.075584
188.5090, 0.5327070
188.9911, 9.4742000E-02
189.4732, 0.1078490
189.9553, 0.1467900
190.4374, 0.1402590
190.9196, 0.1256330
191.4017, 6.8291001E-02
191.8838, 8.3022997E-02
192.3659, 0.3355560
192.8480, 0.5303420
193.3301, 0.4944610
193.8123, 0.2616730
194.2944, 7.8468002E-02
194.7765, 9.7121999E-02
195.2586, 0.1921690
195.7407, 0.2062840
196.2228, 0.1756590
196.7050, 0.2100370
197.1871, 0.3264690
197.6692, 0.5336840
198.1513, 1.043030
198.6334, 2.032860
199.1155, 3.180176
199.5977, 4.257980
200.0798, 5.249367
200.5619, 6.270042
201.0440, 7.452187
201.5261, 8.827293
202.0082, 10.20764
202.4904, 11.54804
202.9725, 12.90703
203.4546, 14.31622
203.9367, 15.78011
204.4188, 17.28638
204.9009, 18.82292
205.3831, 20.40387
205.8652, 21.96505
206.3473, 23.50185
206.8294, 25.01961
207.3115, 26.52711
207.7936, 28.01775
208.2758, 29.46777
208.7579, 30.78748
209.2400, 31.71365
209.7221, 33.12605
210.2042, 35.49261
210.6863, 37.92617
211.1685, 39.74471
211.6506, 40.85488
212.1327, 41.74052
212.6148, 43.12605
213.0969, 45.35378
213.5790, 47.37537
214.0612, 49.25579
214.5433, 50.90704
215.0254, 52.16456
215.5075, 53.01119
215.9896, 53.77667
216.4717, 54.97950
216.9539, 57.10950
217.4360, 58.41811
217.9181, 58.46339
218.4002, 57.88302
218.8823, 57.25171
219.3644, 56.70865
219.8466, 56.14648
220.3287, 55.45267
220.8108, 54.65486
221.2929, 53.54803
221.7750, 52.13099
222.2571, 50.37795
222.7393, 48.16184
223.2214, 45.41364
223.7035, 42.48145
224.1856, 39.73122
224.6677, 37.14870
225.1498, 34.82882
225.6320, 33.10472
226.1141, 31.58655
226.5962, 29.51534
227.0783, 26.58546
227.5604, 23.63464
228.0425, 21.59857
228.5247, 20.28055
229.0068, 18.94373
229.4889, 17.17208
229.9710, 15.21373
230.4531, 13.66186
230.9352, 12.73698
231.4174, 11.90026
231.8995, 10.68487
232.3816, 9.217346
232.8637, 7.844688
233.3458, 6.707977
233.8279, 5.789764
234.3101, 5.019974
234.7922, 4.415703
235.2743, 3.941490
235.7564, 3.706619
236.2385, 3.588310
236.7206, 3.303459
237.2028, 2.593437
237.6849, 1.576408
238.1670, 0.7844770
238.6491, 0.3756260
239.1312, 2.2232000E-02
239.6133, 0.5673900
240.0955, 1.191956
240.5776, 1.482162
241.0597, 1.109688
241.5418, 0.2529680
242.0239, 0.1845550
242.5060, 0.1611860
242.9882, 0.4455570
243.4703, 0.3365630
243.9524, 3.5094999E-02
244.4345, 0.1392440
244.9166, 2.8297000E-02
245.3987, 0.4258420
245.8809, 0.5117030
246.3630, 2.1523001E-02
246.8451, 0.4641420
247.3272, 0.7184140
247.8093, 0.8128810
248.2914, 0.7668690
248.7736, 0.5845790
249.2557, 0.2936170
249.7378, 7.0650000E-03
250.2199, 0.5267870
250.7020, 0.7755580
251.1841, 0.5024110
251.6663, 5.8209999E-03
252.1484, 0.3993150
252.6305, 0.5753710
253.1126, 0.5459290
253.5947, 0.3673320
254.0768, 0.2679140
254.5590, 0.6815190
255.0411, 0.7164760
255.5232, 0.5582580
256.0053, 0.4164580
256.4874, 0.3776250
256.9695, 0.3746870
257.4517, 0.2468640
257.9338, 0.2388530
258.4159, 0.5698170
258.8980, 0.5666050
259.3801, 0.4847790
259.8622, 0.5366590
260.3444, 0.8013230
260.8265, 1.320900
261.3086, 2.197731
261.7907, 3.884544
262.2728, 5.223091
262.7549, 5.936859
263.2371, 6.428001
263.7192, 7.081696
264.2013, 8.004044
264.6834, 9.056778
265.1655, 10.02600
265.6476, 10.79893
266.1298, 11.78437
266.6119, 13.13324
267.0940, 14.62460
267.5761, 16.01050
268.0582, 17.25548
268.5403, 18.54930
269.0225, 20.10580
269.5046, 21.96830
269.9867, 24.02740
270.4688, 26.45983
270.9509, 28.97296
271.4330, 31.26971
271.9152, 33.32259
272.3973, 35.39114
272.8794, 37.66526
273.3615, 40.18424
273.8436, 42.99841
274.3257, 46.28603
274.8079, 49.76024
275.2900, 53.21244
275.7721, 56.63534
276.2542, 59.97162
276.7363, 63.10970
277.2184, 66.10708
277.7006, 69.50015
278.1827, 73.55664
278.6648, 77.77360
279.1469, 81.78439
279.6290, 85.60022
280.1111, 89.40903
280.5933, 93.23699
281.0754, 97.18947
281.5575, 101.5270
282.0396, 106.3256
282.5217, 111.3937
283.0038, 116.7685
283.4860, 122.3822
283.9681, 127.9049
284.4502, 133.1004
284.9323, 138.1945
285.4144, 143.6669
285.8965, 149.6379
286.3787, 155.6653
286.8608, 161.4088
287.3429, 166.9718
287.8250, 172.8540
288.3071, 179.3097
288.7892, 186.0324
289.2714, 192.6161
289.7535, 199.0481
290.2356, 205.3586
290.7177, 212.0331
291.1998, 218.6198
291.6819, 223.9715
292.1641, 227.7412
292.6462, 230.3442
293.1283, 232.4163
293.6104, 233.9732
294.0925, 234.2655
294.5746, 232.8145
295.0568, 229.9181
295.5389, 226.0766
296.0210, 221.2499
296.5031, 215.7702
296.9852, 209.8959
297.4673, 203.5969
297.9495, 196.5376
298.4316, 188.4614
298.9137, 179.6874
299.3958, 170.4649
299.8779, 160.6248
300.3600, 151.0561
300.8422, 142.6817
301.3243, 134.9701
301.8064, 127.1170
302.2885, 118.4927
302.7706, 109.9781
303.2527, 102.6848
303.7349, 96.66396
304.2170, 90.83088
304.6991, 84.52278
305.1812, 78.18576
305.6633, 72.40799
306.1454, 67.29999
306.6276, 62.70998
307.1097, 58.65128
307.5918, 55.10475
308.0739, 51.57086
308.5560, 47.86841
309.0381, 44.20956
309.5203, 40.76598
310.0024, 37.51081
310.4845, 34.55209
310.9666, 32.05607
311.4487, 29.95517
311.9308, 27.93534
312.4130, 25.91996
312.8951, 23.99701
313.3772, 22.29535
313.8593, 20.77757
314.3414, 19.26108
314.8235, 17.50688
315.3057, 15.70052
315.7878, 14.35522
316.2699, 13.68234
316.7520, 13.10397
317.2341, 12.04816
317.7162, 10.73534
318.1984, 9.677956
318.6805, 9.232086
319.1626, 9.082367
319.6447, 8.726349
320.1268, 8.128624
320.6089, 7.574020
321.0911, 7.286041
321.5732, 7.122246
322.0553, 6.884865
322.5374, 6.495155
323.0195, 6.037537
323.5016, 5.582184
323.9838, 5.131592
324.4659, 4.822937
324.9480, 4.810432
325.4301, 4.905464
325.9122, 4.855965
326.3943, 4.618896
326.8765, 4.397530
327.3586, 4.301048
327.8407, 4.334175
328.3228, 4.549988
328.8049, 5.066429
329.2870, 5.623123
329.7692, 5.906761
330.2513, 5.944092
330.7334, 6.048561
331.2155, 6.444908
331.6976, 7.009697
332.1797, 7.438477
332.6619, 7.659683
333.1440, 7.856728
333.6261, 8.131271
334.1082, 8.489227
334.5903, 8.985435
335.0724, 9.757423
335.5546, 10.61362
336.0367, 11.23059
336.5188, 11.56773
337.0009, 12.07381
337.4830, 13.14396
337.9651, 14.52058
338.4473, 15.70670
338.9294, 16.59303
339.4115, 17.36915
339.8936, 18.18801
340.3757, 19.03667
340.8578, 19.77021
341.3400, 20.24701
341.8221, 20.68060
342.3042, 21.42625
342.7863, 22.54678
343.2684, 23.62209
343.7505, 24.37580
344.2327, 24.93497
344.7148, 25.59344
345.1969, 26.40577
345.6790, 27.34755
346.1611, 28.51755
346.6432, 29.86964
347.1254, 31.01030
347.6075, 31.77849
348.0896, 32.30728
348.5717, 32.75318
349.0538, 33.13307
349.5359, 33.35837
350.0181, 33.31013
350.5002, 33.03658
350.9823, 32.80386
351.4644, 32.74461
351.9465, 32.62968
352.4286, 32.29343
352.9108, 31.76159
353.3929, 31.17468
353.8750, 30.66351
354.3571, 30.07011
354.8392, 28.98508
355.3214, 27.24761
355.8035, 25.48130
356.2856, 23.86893
356.7677, 22.38708
357.2498, 21.04758
357.7319, 19.87989
358.2141, 18.70716
358.6962, 17.21630
359.1783, 15.33692
359.6604, 13.61724
360.1425, 12.14260
360.6246, 10.81792
361.1068, 9.527039
361.5889, 8.263390
362.0710, 7.217392
362.5531, 6.587078
363.0352, 6.369556
363.5173, 6.056190
363.9995, 5.601475
364.4816, 5.051922
364.9637, 4.356750
365.4458, 3.586063
365.9279, 2.914391
366.4100, 2.448410
366.8922, 2.127605
367.3743, 1.724735
367.8564, 1.113602
368.3385, 0.5635910
368.8206, 8.2901001E-02
369.3027, 0.2972030
369.7849, 0.5182230
370.2670, 0.5656170
370.7491, 0.5113910
371.2312, 0.4430540
371.7133, 0.3246570
372.1954, 0.2771950
372.6776, 0.2919730
373.1597, 0.3737720
373.6418, 0.6576920
374.1239, 1.076736
374.6060, 1.385994
375.0881, 1.393169
375.5703, 1.103992
376.0524, 0.8500750
376.5345, 0.5616720
377.0166, 0.3820690
377.4987, 0.3928990
377.9808, 0.5180360
378.4630, 0.6846200
378.9451, 0.8548320
379.4272, 0.9793050
379.9093, 0.9291150
380.3914, 0.5477030
380.8735, 0.2453420
381.3557, 7.3513001E-02
381.8378, 4.7974002E-02
382.3199, 0.1455040
382.8020, 0.2429700
383.2841, 0.3964200
383.7662, 0.6927830
384.2484, 1.170265
384.7305, 1.526791
385.2126, 1.554283
385.6947, 1.659618
386.1768, 2.032997
386.6589, 2.580841
387.1411, 3.114147
387.6232, 3.530014
388.1053, 3.835136
388.5874, 4.051994
389.0695, 4.182423
389.5516, 4.210178
390.0338, 3.972866
390.5159, 3.731743
390.9980, 3.735577
391.4801, 4.052952
391.9622, 4.549942
392.4443, 5.097157
392.9265, 5.702255
393.4086, 6.274605
393.8907, 6.740753
394.3728, 7.231750
394.8549, 7.948906
395.3370, 8.792400
395.8192, 9.384289
396.3013, 9.314499
396.7834, 8.811764
397.2655, 8.649227
397.7476, 8.921146
398.2297, 9.291729
398.7119, 9.604179
399.1940, 9.903042
399.6761, 10.27072
400.1582, 10.78625
400.6403, 11.24506
401.1224, 11.35820
401.6046, 11.15168
402.0867, 11.09860
402.5688, 11.48827
403.0509, 11.91914
403.5330, 11.91031
404.0151, 11.45972
404.4973, 10.90493
404.9794, 10.31815
405.4615, 9.743816
405.9436, 9.262379
406.4257, 8.889885
406.9078, 8.590260
407.3900, 8.446228
407.8721, 8.372265
408.3542, 7.956291
408.8363, 6.792503
409.3184, 5.618786
409.8005, 4.960938
410.2827, 4.708076
410.7648, 4.485554
411.2469, 4.135883
411.7290, 3.708340
412.2111, 3.292881
412.6932, 2.814400
413.1754, 2.521461
413.6575, 2.669987
414.1396, 2.911472
414.6217, 2.866943
415.1038, 2.478813
415.5859, 1.934704
416.0681, 1.390694
416.5502, 0.8339420
417.0323, 0.4591670
417.5144, 0.3719900
417.9965, 0.3240280
418.4786, 0.2409480
418.9608, 0.1206780
419.4429, 6.6441000E-02
419.9250, 0.3456000
420.4071, 0.6122210
420.8892, 0.5570640
421.3713, 0.2167510
421.8535, 0.7132760
422.3356, 0.8302960
422.8177, 0.7351650
423.2998, 0.4605870
423.7819, 6.7576997E-02
424.2640, 0.2658460
424.7462, 0.3352170
425.2283, 0.1188930
425.7104, 3.3248998E-02
426.1925, 1.9966001E-02
426.6746, 4.8758999E-02
427.1567, 0.2607540
427.6389, 0.5240360
428.1210, 0.6265600
428.6031, 0.4594540
429.0852, 0.1212880
429.5673, 0.2611960
430.0494, 0.8007200
430.5316, 1.006538
431.0137, 0.4188270
431.4958, 0.3040960
431.9779, 0.7793050
432.4600, 0.9789510
432.9421, 1.056171
433.4243, 1.119469
433.9064, 1.157658
434.3885, 1.092667
434.8706, 0.8076550
435.3527, 0.6549680
435.8348, 1.009525
436.3170, 1.620987
436.7991, 2.083893
437.2812, 2.260750
437.7633, 2.325539
438.2454, 2.371342
438.7275, 2.418869
439.2097, 2.662502
439.6918, 3.228771
440.1739, 3.924599
440.6560, 4.452427
441.1381, 4.804501
441.6202, 5.181316
442.1024, 5.676960
442.5845, 6.205147
443.0666, 6.674568
443.5487, 7.075974
444.0308, 7.402145
444.5129, 7.600853
444.9951, 7.709301
445.4772, 8.077774
445.9593, 8.880211
446.4414, 9.696007
446.9235, 10.46637
447.4056, 11.15093
447.8878, 11.66098
448.3699, 11.97045
448.8520, 12.20106
449.3341, 12.52388
449.8162, 12.89046
450.2983, 13.51605
450.7805, 14.66843
451.2626, 15.79179
451.7447, 16.50160
452.2268, 16.92960
452.7089, 17.49735
453.1910, 18.50548
453.6732, 19.82464
454.1553, 20.91686
454.6374, 21.80272
455.1195, 22.39442
455.6016, 22.38528
456.0837, 22.30561
456.5659, 22.57842
457.0480, 23.28964
457.5301, 24.27261
458.0122, 25.56078
458.4943, 27.14182
458.9764, 28.05030
459.4586, 27.83828
459.9407, 27.56285
460.4228, 27.82193
460.9049, 28.39551
461.3870, 28.88364
461.8691, 29.09484
462.3513, 29.25020
462.8334, 29.71832
463.3155, 30.47762
463.7976, 30.93867
464.2797, 30.82662
464.7618, 30.43964
465.2440, 30.15440
465.7261, 29.97225
466.2082, 29.76273
466.6903, 29.46925
467.1724, 29.13071
467.6545, 28.80403
468.1367, 28.49158
468.6188, 28.12723
469.1009, 27.64620
469.5830, 27.08604
470.0651, 26.62357
470.5472, 26.18315
471.0294, 25.91692
471.5115, 26.10192
471.9936, 26.38697
472.4757, 26.30468
472.9578, 25.74228
473.4399, 24.93045
473.9221, 24.11780
474.4042, 23.27317
474.8863, 22.59304
475.3684, 22.21472
475.8505, 21.84291
476.3326, 21.39545
476.8148, 20.87177
477.2969, 20.28941
477.7790, 19.65743
478.2611, 18.95473
478.7432, 18.14864
479.2253, 17.24145
479.7075, 16.36190
480.1896, 15.43521
480.6717, 14.59472
481.1538, 13.99120
481.6359, 13.56086
482.1180, 13.04799
482.6002, 12.26060
483.0823, 11.31844
483.5644, 10.50307
484.0465, 9.841827
484.5286, 9.177639
485.0107, 8.374100
485.4929, 7.574123
485.9750, 6.934841
486.4571, 6.476776
486.9392, 6.133537
487.4213, 5.961258
487.9034, 5.839188
488.3856, 5.524742
488.8677, 5.006844
489.3498, 4.474464
489.8319, 4.043293
490.3140, 3.712967
490.7961, 3.457470
491.2783, 3.282154
491.7604, 3.173946
492.2425, 3.207832
492.7246, 3.285557
493.2067, 3.187569
493.6888, 2.859730
494.1710, 2.502480
494.6531, 2.458080
495.1352, 2.919502
495.6173, 3.075714
496.0994, 2.654633
496.5815, 2.239967
497.0637, 2.124393
497.5458, 2.239182
498.0279, 2.400696
498.5100, 2.513401
498.9921, 2.572086
499.4742, 2.549057
499.9564, 2.387562
500.4385, 2.288406
500.9206, 2.242992
501.4027, 2.296398
501.8848, 2.460331
502.3669, 2.747925
502.8491, 3.203644
503.3312, 4.011925
503.8133, 4.976074
504.2954, 5.551273
504.7775, 5.699844
505.2596, 5.634636
505.7418, 5.241787
506.2239, 4.810413
506.7060, 4.748142
507.1881, 5.118969
507.6702, 5.680851
508.1523, 6.422234
508.6345, 7.231865
509.1166, 7.890972
509.5987, 8.381733
510.0808, 8.918831
510.5629, 9.672333
511.0450, 10.59774
511.5272, 11.41854
512.0093, 12.13971
512.4914, 12.79545
512.9735, 13.26860
513.4556, 13.72278
513.9377, 14.41398
514.4199, 15.39011
514.9020, 16.44712
515.3841, 17.32314
515.8662, 18.00130
516.3483, 18.82161
516.8304, 19.93904
517.3126, 20.97903
517.7947, 21.76623
518.2768, 22.41473
518.7589, 23.06919
519.2410, 23.78582
519.7231, 24.62385
520.2053, 25.78095
520.6874, 27.30466
521.1695, 28.52991
521.6516, 29.33961
522.1337, 29.85425
522.6158, 30.01241
523.0980, 29.92079
523.5801, 29.96743
524.0622, 30.51206
524.5443, 31.09225
525.0264, 31.18375
525.5085, 30.83067
525.9907, 30.36403
526.4728, 29.91641
526.9549, 29.37594
527.4370, 28.56897
527.9191, 27.48006
528.4012, 26.27035
528.8834, 24.81398
529.3655, 23.32868
529.8476, 21.94595
530.3297, 20.68425
530.8118, 19.59921
531.2939, 18.73192
531.7761, 17.96447
532.2582, 17.00183
532.7403, 15.67218
533.2224, 14.46273
533.7045, 13.36113
534.1866, 12.38492
534.6688, 11.56528
535.1509, 10.87865
535.6330, 10.26028
536.1151, 9.665489
536.5972, 9.113659
537.0793, 8.697037
537.5615, 8.491707
538.0436, 8.110889
538.5257, 7.257813
539.0078, 6.329639
539.4899, 5.690182
539.9720, 5.338558
540.4542, 5.012024
540.9363, 4.533325
541.4184, 4.031147
541.9005, 3.707916
542.3826, 3.563480
542.8647, 3.447891
543.3469, 3.279778
543.8290, 3.093067
544.3111, 2.984676
544.7932, 3.000755
545.2753, 2.974541
545.7574, 2.780399
546.2396, 2.607487
546.7217, 2.673847
547.2038, 2.939041
547.6859, 3.169636
548.1680, 3.201942
548.6501, 3.070148
549.1323, 2.900108
549.6144, 2.473991
550.0965, 2.408295
550.5786, 3.195145
551.0607, 3.993038
551.5428, 4.040028
552.0250, 3.411602
552.5071, 2.894279
552.9892, 3.205296
553.4713, 4.002899
553.9534, 4.223660
554.4355, 3.738163
554.9177, 3.324509
555.3998, 3.348454
555.8819, 3.566307
556.3640, 3.647957
556.8461, 3.578152
557.3282, 3.461121
557.8104, 3.288811
558.2925, 3.118805
558.7746, 3.050152
559.2567, 3.070488
559.7388, 3.055622
560.2209, 2.938404
560.7031, 2.721115
561.1852, 2.410702
561.6673, 1.852081
562.1494, 1.416485
562.6315, 1.207569
563.1136, 1.046005
563.5958, 0.7829400
564.0779, 0.4370310
564.5600, 0.1312480
565.0421, 4.7828998E-02
565.5242, 0.1241260
566.0063, 0.1425970
566.4885, 2.1811999E-02
566.9706, 8.2580999E-02
567.4527, 0.6362500
567.9348, 1.223854
568.4169, 1.481640
568.8990, 1.437756
569.3812, 1.438099
569.8633, 1.764362
570.3454, 2.186485
570.8275, 2.370670
571.3096, 2.323723
571.7917, 2.161110
572.2739, 1.858715
572.7560, 1.578644
573.2381, 1.669331
573.7202, 2.277100
574.2023, 2.655243
574.6844, 2.641804
575.1666, 2.458736
575.6487, 2.180355
576.1308, 1.861504
576.6129, 1.582451
577.0950, 1.381351
577.5771, 1.266148
578.0593, 1.264351
578.5414, 1.419624
579.0235, 1.570400
579.5056, 1.874699
579.9877, 2.015171
580.4698, 1.680767
580.9520, 1.075409
581.4341, 0.6827200
581.9162, 0.7841380
582.3983, 1.054276
582.8804, 1.059673
583.3625, 0.8219760
583.8447, 0.5561140
584.3268, 0.2681160
584.8089, 6.7630999E-02
585.2910, 0.1783830
585.7731, 0.5498660
586.2552, 0.6416130
586.7374, 5.6717001E-02
587.2195, 0.4536170
587.7016, 0.3451540
588.1837, 6.4575002E-02
588.6658, 0.1915660
589.1479, 0.1329040
589.6301, 0.6154630
590.1122, 0.8880420
590.5943, 0.9147610
591.0764, 1.074921
591.5585, 1.603817
592.0406, 1.990101
592.5228, 1.926472
593.0049, 1.744370
593.4870, 1.860481
593.9691, 2.377903
594.4512, 3.000248
594.9333, 3.460667
595.4155, 3.793449
595.8976, 4.181622
596.3797, 4.682476
596.8618, 5.000683
597.3439, 4.740658
597.8260, 4.268856
598.3082, 4.508064
598.7903, 5.830784
599.2724, 6.922264
599.7545, 7.111900
600.2366, 7.012802
600.7188, 7.262135
601.2009, 7.895676
601.6830, 8.637947
602.1651, 9.317429
602.6472, 9.944641
603.1293, 10.55035
603.6115, 11.13896
604.0936, 11.68712
604.5757, 12.17906
605.0578, 12.65726
605.5399, 13.11549
606.0220, 13.57131
606.5042, 14.07747
606.9863, 14.64149
607.4684, 15.29171
607.9505, 16.19753
608.4326, 17.36092
608.9147, 18.21025
609.3969, 18.44981
609.8790, 18.60659
610.3611, 19.30955
610.8432, 20.51500
611.3253, 21.61089
611.8074, 22.62078
612.2896, 23.41607
612.7717, 23.74099
613.2538, 23.85798
613.7359, 24.22848
614.2180, 24.98181
614.7001, 25.86986
615.1823, 26.59502
615.6644, 27.14238
616.1465, 27.83922
616.6286, 28.85651
617.1107, 29.78231
617.5928, 30.48885
618.0750, 31.06792
618.5571, 31.63515
619.0392, 32.20558
619.5213, 32.64906
620.0034, 32.67644
620.4855, 32.55110
620.9677, 32.88109
621.4498, 33.69541
621.9319, 34.71114
622.4140, 35.83693
622.8961, 37.03762
623.3782, 38.28936
623.8604, 39.71877
624.3425, 40.82526
624.8246, 41.17039
625.3067, 41.45139
625.7888, 42.12920
626.2709, 43.17349
626.7531, 44.43389
627.2352, 45.82226
627.7173, 47.21498
628.1994, 48.37740
628.6815, 49.27626
629.1636, 50.24025
629.6458, 51.12055
630.1279, 52.31425
630.6100, 54.19334
631.0921, 56.42039
631.5742, 58.35954
632.0563, 59.77279
632.5385, 61.23413
633.0206, 63.18822
633.5027, 65.47453
633.9848, 67.84978
634.4669, 70.26552
634.9490, 72.49950
635.4312, 74.28370
635.9133, 75.82298
636.3954, 78.15242
636.8775, 82.01986
637.3596, 85.67726
637.8417, 88.98501
638.3239, 92.16499
638.8060, 95.23103
639.2881, 98.28894
639.7702, 101.5485
640.2523, 105.1295
640.7344, 109.0284
641.2166, 113.2018
641.6987, 117.6680
642.1808, 122.3248
642.6629, 127.1360
643.1450, 132.1815
643.6271, 137.6554
644.1093, 143.4735
644.5914, 149.2449
645.0735, 154.6591
645.5556, 160.2431
646.0377, 166.2790
646.5198, 172.6212
647.0020, 178.9891
647.4841, 185.3291
647.9662, 191.9038
648.4483, 198.9519
648.9304, 206.4059
649.4125, 214.0969
649.8947, 221.7819
650.3768, 230.0900
650.8589, 239.9736
651.3410, 249.7779
651.8231, 258.0487
652.3052, 265.0189
652.7874, 272.3166
653.2695, 280.6776
653.7516, 289.8425
654.2337, 299.6472
654.7158, 309.9821
655.1979, 320.4275
655.6801, 330.9175
656.1622, 341.1446
656.6443, 350.7869
657.1264, 359.7910
657.6085, 368.7916
658.0906, 377.8308
658.5728, 386.7984
659.0549, 395.9946
659.5370, 404.9812
660.0191, 413.3332
660.5012, 421.0372
660.9833, 428.4307
661.4655, 435.8133
661.9476, 443.1127
662.4297, 450.1466
662.9118, 457.0584
663.3939, 462.4432
663.8760, 465.4242
664.3582, 467.1852
664.8403, 469.2455
665.3224, 471.5443
665.8045, 472.6375
666.2866, 471.4459
666.7687, 469.8813
667.2509, 469.7944
667.7330, 469.7891
668.2151, 467.4269
668.6972, 462.1368
669.1793, 455.3258
669.6614, 448.2778
670.1436, 440.9906
670.6257, 433.5480
671.1078, 426.2578
671.5899, 418.1325
672.0720, 408.2198
672.5541, 397.7410
673.0363, 387.6535
673.5184, 377.9491
674.0005, 367.7819
674.4826, 356.1790
674.9647, 344.3178
675.4468, 333.3514
675.9290, 323.0752
676.4111, 312.8454
676.8932, 302.4804
677.3753, 292.1185
677.8574, 281.9842
678.3395, 272.0844
678.8217, 262.2928
679.3038, 252.7823
679.7859, 243.1481
680.2680, 233.0505
680.7501, 223.0746
681.2322, 213.6741
681.7144, 204.9837
682.1965, 196.8802
682.6786, 189.5669
683.1607, 182.6971
683.6428, 175.8266
684.1249, 168.9324
684.6071, 161.9703
685.0892, 154.7867
685.5713, 147.9106
686.0534, 141.9516
686.5355, 136.9976
687.0176, 132.0181
687.4998, 126.9167
687.9819, 121.9545
688.4640, 117.1337
688.9461, 112.5152
689.4282, 108.1035
689.9103, 103.9299
690.3925, 100.0636
690.8746, 96.67624
691.3567, 93.55807
691.8388, 90.17731
692.3209, 86.52466
692.8030, 83.00904
693.2852, 79.71574
693.7673, 76.63044
694.2494, 73.76427
694.7315, 71.09422
695.2136, 68.47433
695.6957, 65.78883
696.1779, 63.27299
696.6600, 61.10133
697.1421, 59.11629
697.6242, 57.14503
698.1063, 55.16371
698.5884, 53.20861
699.0706, 51.28924
699.5527, 49.48756
700.0348, 48.07518
700.5169, 47.14307
700.9990, 45.94705
701.4811, 44.10065
701.9633, 42.22720
702.4454, 40.93819
702.9275, 40.09846
703.4096, 39.14991
703.8917, 37.85888
704.3738, 36.66120
704.8560, 35.84557
705.3381, 35.12371
705.8202, 34.10099
706.3023, 32.78532
706.7844, 31.46897
707.2665, 30.35201
707.7487, 29.36205
708.2308, 28.35233
708.7129, 27.32529
709.1950, 26.30273
709.6771, 25.25175
710.1592, 24.22134
710.6414, 23.31610
711.1235, 22.47298
711.6056, 21.49866
712.0877, 20.24443
712.5698, 19.11288
713.0519, 18.26112
713.5341, 17.66173
714.0162, 17.48361
714.4983, 17.58563
714.9804, 17.36929
715.4625, 16.46574
715.9446, 15.18871
716.4268, 14.22806
716.9089, 13.69610
717.3910, 12.87362
717.8731, 11.39056
718.3552, 10.11747
718.8373, 9.539646
719.3195, 9.365520
719.8016, 9.199574
720.2837, 8.975784
720.7658, 8.793720
721.2479, 8.967777
721.7300, 9.023312
722.2122, 8.206806
722.6943, 6.774551
723.1764, 5.724388
723.6585, 5.484093
724.1406, 5.554665
724.6227, 5.177425
725.1049, 4.278885
725.5870, 3.671078
726.0691, 3.510201
726.5512, 3.416710
727.0333, 3.312664
727.5154, 3.161671
727.9976, 2.912132
728.4797, 2.566959
728.9618, 2.255951
729.4439, 2.066399
729.9260, 1.920509
730.4081, 1.748398
730.8903, 1.552761
731.3724, 1.347656
731.8545, 1.148567
732.3366, 1.006905
732.8187, 0.9936640
733.3008, 1.082573
733.7830, 0.9700510
734.2651, 0.5472490
734.7472, 0.1586840
735.2293, 0.1476670
735.7114, 0.3610650
736.1935, 0.4508970
736.6757, 0.4387860
737.1578, 0.3985980
737.6399, 0.2786410
738.1220, 0.2296870
738.6041, 0.4135360
739.0862, 0.7090260
739.5684, 0.9298670
740.0505, 1.047153
740.5326, 1.121338
741.0147, 1.199371
741.4968, 1.254406
741.9789, 1.194611
742.4611, 0.9829940
742.9432, 0.7795220
743.4253, 0.4943160
743.9074, 0.3591650
744.3895, 0.6121640
744.8716, 1.068474
745.3538, 1.386631
745.8359, 1.490852
746.3180, 1.528210
746.8001, 1.607239
747.2822, 1.620342
747.7643, 1.372280
748.2465, 0.9546170
748.7286, 0.6647680
749.2107, 0.6384700
749.6928, 0.7399440
750.1749, 0.7452620
750.6570, 0.6428870
751.1392, 0.7695200
751.6213, 1.328930
752.1034, 1.639645
752.5855, 1.186539
753.0676, 0.5197450
753.5497, 0.3375360
754.0319, 0.6633110
754.5140, 0.9515080
754.9961, 1.100929
755.4782, 1.142906
755.9603, 0.9641150
756.4424, 0.7495040
756.9246, 0.8548360
757.4067, 1.298935
757.8888, 1.686440
758.3709, 1.692986
758.8530, 1.371742
759.3351, 0.7731590
759.8173, 0.1919170
760.2994, 0.6204070
760.7815, 5.5626001E-02
761.2636, 0.6218340
761.7457, 0.6407390
762.2278, 0.1234590
762.7100, 0.2879140
763.1921, 0.6265720
763.6742, 0.7923890
764.1563, 0.6197970
764.6384, 0.3842280
765.1205, 0.3275180
765.6027, 0.3978390
766.0848, 0.3725810
766.5669, 0.1384470
767.0490, 6.3960999E-02
767.5311, 0.2239490
768.0132, 0.8640630
768.4954, 1.002647
768.9775, 0.5241890
769.4596, 0.1007730
769.9417, 5.1003002E-02
770.4238, 0.2434120
770.9059, 0.4732060
771.3881, 0.7751810
771.8702, 0.9647450
772.3523, 0.9726720
772.8344, 0.9565730
773.3165, 0.8973080
773.7986, 0.8846590
774.2808, 1.099792
774.7629, 1.511410
775.2450, 1.771194
775.7271, 1.531704
776.2092, 1.119530
776.6913, 1.009594
777.1735, 1.153759
777.6556, 1.377026
778.1377, 1.643127
778.6198, 1.904861
779.1019, 2.136528
779.5840, 2.319794
780.0662, 2.336205
780.5483, 1.953541
781.0304, 1.848137
781.5125, 2.341621
781.9946, 2.832584
782.4767, 3.093164
782.9589, 3.125776
783.4410, 2.895639
783.9231, 2.314373
784.4052, 1.881586
784.8873, 1.989590
785.3694, 2.348242
785.8516, 2.691792
786.3337, 2.964687
786.8158, 3.028728
787.2979, 2.832888
787.7800, 2.639788
788.2621, 2.838228
788.7443, 3.409180
789.2264, 3.715279
789.7085, 3.640867
790.1906, 3.623447
790.6727, 3.809721
791.1548, 4.084988
791.6370, 4.429726
792.1191, 4.802914
792.6012, 4.882473
793.0833, 4.294838
793.5654, 3.806879
794.0475, 3.773245
794.5297, 3.939180
795.0118, 4.080145
795.4939, 4.164747
795.9760, 4.222038
796.4581, 4.261539
796.9402, 4.297188
797.4224, 4.362219
797.9045, 4.452660
798.3866, 4.535780
798.8687, 4.612492
799.3508, 4.640213
799.8329, 4.583225
800.3151, 4.502193
800.7972, 4.503180
801.2793, 4.612461
801.7614, 4.705088
802.2435, 4.797859
802.7256, 4.821800
803.2078, 4.702635
803.6899, 4.556215
804.1720, 4.447531
804.6541, 4.409004
805.1362, 4.556883
805.6183, 5.171665
806.1005, 5.778200
806.5826, 5.777512
807.0647, 5.383335
807.5468, 5.086317
808.0289, 4.973392
808.5110, 4.888716
808.9932, 4.697348
809.4753, 4.453541
809.9574, 4.384153
810.4395, 4.568377
810.9216, 4.841770
811.4037, 5.351458
811.8859, 5.593178
812.3680, 5.075258
812.8501, 4.267136
813.3322, 3.860605
813.8143, 3.952501
814.2964, 4.053999
814.7786, 4.031015
815.2607, 3.951485
815.7428, 3.891113
816.2249, 3.820423
816.7070, 3.637709
817.1891, 3.371307
817.6713, 3.222908
818.1534, 3.291674
818.6355, 3.488605
819.1176, 3.754810
819.5997, 4.108601
820.0818, 4.457563
820.5640, 4.790144
821.0461, 4.884026
821.5282, 4.489027
822.0103, 3.821444
822.4924, 3.593643
822.9745, 4.098770
823.4567, 4.417706
823.9388, 4.444693
824.4209, 4.386925
824.9030, 4.319082
825.3851, 4.242884
825.8672, 4.125881
826.3494, 3.936747
826.8315, 3.707012
827.3136, 3.356544
827.7957, 3.090258
828.2778, 3.177046
828.7599, 3.446196
829.2421, 3.568768
829.7242, 3.490353
830.2063, 3.392269
830.6884, 3.418186
831.1705, 3.519232
831.6526, 3.591042
832.1348, 3.641663
832.6169, 3.611217
833.0990, 3.422705
833.5811, 3.349789
834.0632, 3.612633
834.5453, 4.060488
835.0275, 4.372561
835.5096, 4.557451
835.9917, 4.571787
836.4738, 3.627014
836.9559, 3.428326
837.4380, 5.793520
837.9202, 8.500057
838.4023, 8.739822
838.8844, 6.473114
839.3665, 4.278652
839.8486, 3.576502
840.3307, 3.473471
840.8129, 3.067793
841.2950, 2.589777
841.7771, 2.606472
842.2592, 3.124069
842.7413, 3.605862
843.2234, 3.702425
843.7056, 3.576031
844.1877, 3.559242
844.6698, 3.658689
845.1519, 3.729919
845.6340, 3.777952
846.1161, 3.775816
846.5983, 3.662750
847.0804, 3.538881
847.5625, 3.584608
848.0446, 3.816751
848.5267, 3.900572
849.0089, 3.704958
849.4910, 3.514912
849.9731, 3.344238
850.4552, 3.259659
850.9373, 3.416887
851.4194, 3.710888
851.9016, 3.800165
852.3837, 3.476797
852.8658, 3.118296
853.3479, 3.120522
853.8300, 3.297487
854.3121, 3.304562
854.7943, 3.156267
855.2764, 3.052429
855.7585, 3.079245
856.2406, 3.188864
856.7227, 3.343262
857.2048, 3.530027
857.6870, 3.582905
858.1691, 3.468979
858.6512, 3.331398
859.1333, 3.132896
859.6154, 3.043793
860.0975, 3.341312
860.5797, 3.904608
861.0618, 4.056141
861.5439, 3.496971
862.0260, 3.036154
862.5081, 2.712440
862.9902, 2.554766
863.4724, 2.695156
863.9545, 2.969461
864.4366, 3.121943
864.9187, 3.086937
865.4008, 3.004658
865.8829, 2.970163
866.3651, 2.938234
866.8472, 2.825951
867.3293, 2.679461
867.8114, 2.620928
868.2935, 2.669956
868.7756, 2.743982
869.2578, 2.786821
869.7399, 2.796732
870.2220, 2.741636
870.7041, 2.607868
871.1862, 2.581284
871.6683, 2.731047
872.1505, 2.816149
872.6326, 2.690187
873.1147, 2.467688
873.5968, 2.301319
874.0789, 2.200127
874.5610, 2.121271
875.0432, 2.096462
875.5253, 2.050943
876.0074, 1.919481
876.4895, 1.803463
876.9716, 1.658266
877.4537, 1.595203
877.9359, 1.998863
878.4180, 3.199625
878.9001, 4.387344
879.3822, 5.319933
879.8643, 5.793221
880.3464, 5.331970
880.8286, 4.239141
881.3107, 3.293547
881.7928, 2.781616
882.2749, 2.475817
882.7570, 2.166376
883.2391, 1.858475
883.7213, 1.528170
884.2034, 1.185707
884.6855, 1.042109
885.1676, 1.160810
885.6497, 1.402033
886.1318, 1.699291
886.6140, 1.993086
887.0961, 2.072308
887.5782, 1.877581
888.0603, 1.605238
888.5424, 1.075335
889.0245, 0.7184910
889.5067, 0.8818130
889.9888, 1.203035
890.4709, 1.238306
890.9530, 0.9723380
891.4351, 0.7840820
891.9172, 0.8458820
892.3994, 0.8711360
892.8815, 0.6407090
893.3636, 0.4297920
893.8457, 0.6247350
894.3278, 1.079271
894.8099, 1.279146
895.2921, 0.9807720
895.7742, 0.5972310
896.2563, 0.5278130
896.7384, 0.6290860
897.2205, 0.6596680
897.7026, 0.6319540
898.1848, 0.6793000
898.6669, 0.8365080
899.1490, 0.9024010
899.6311, 0.6528950
900.1132, 0.2173840
900.5953, 9.5845997E-02
901.0775, 0.3136690
901.5596, 0.5969580
902.0417, 0.9764330
902.5238, 1.191822
903.0059, 1.037882
903.4880, 0.6811310
903.9702, 0.4108790
904.4523, 0.2224160
904.9344, 0.1953330
905.4165, 0.5150300
905.8986, 0.7556900
906.3807, 0.8001270
906.8629, 0.7493420
907.3450, 0.6749550
907.8271, 0.5802900
908.3092, 0.4421420
908.7913, 0.1657090
909.2734, 2.6794000E-02
909.7556, 0.2670650
910.2377, 0.5944140
910.7198, 0.7940580
911.2019, 0.8625050
911.6840, 0.8088670
912.1661, 0.6550200
912.6483, 0.5111330
913.1304, 0.4787620
913.6125, 0.4999690
914.0946, 0.4775920
914.5767, 0.4309710
915.0588, 0.4061660
915.5410, 0.4171770
916.0231, 0.5378060
916.5052, 0.8357640
916.9873, 1.150394
917.4694, 1.140406
917.9515, 0.7917750
918.4337, 0.4747980
918.9158, 0.1402450
919.3979, 9.4789997E-02
919.8800, 0.5998670
920.3621, 1.110899
920.8442, 0.9859310
921.3264, 0.3052390
921.8085, 8.0481000E-02
922.2906, 2.8685000E-02
922.7727, 8.5794002E-02
923.2548, 0.3695560
923.7369, 0.5659560
924.2191, 0.4723570
924.7012, 0.2477970
925.1833, 0.1489320
925.6654, 0.2115710
926.1475, 0.2216630
926.6296, 4.2969000E-02
927.1118, 0.1176780
927.5939, 0.1569020
928.0760, 0.1231900
928.5581, 1.8394001E-02
929.0402, 0.1062620
929.5223, 9.7290002E-02
930.0045, 0.1395610
930.4866, 0.3410220
930.9687, 0.2052120
931.4508, 8.0774002E-02
931.9329, 0.2307590
932.4150, 0.2679600
932.8972, 0.3135410
933.3793, 0.4002610
933.8614, 0.4780010
934.3435, 0.4961340
934.8256, 0.4899310
935.3077, 0.5626750
935.7899, 0.7073210
936.2720, 0.8312150
936.7541, 0.9337410
937.2362, 0.8665160
937.7183, 0.5052970
938.2004, 0.1018240
938.6826, 6.6866003E-02
939.1647, 0.4132790
939.6468, 0.5152380
940.1289, 0.2276270
940.6110, 5.2522998E-02
941.0931, 0.1570490
941.5753, 0.3017770
942.0574, 0.2916150
942.5395, 0.1996480
943.0216, 0.2442070
943.5037, 0.5223120
943.9858, 0.6420590
944.4680, 0.4435860
944.9501, 0.2381020
945.4322, 7.3110998E-02
945.9143, 6.5139998E-03
946.3964, 0.1839980
946.8785, 0.5286200
947.3607, 0.6852490
947.8428, 0.4750560
948.3249, 0.1912980
948.8070, 0.1651920
949.2891, 0.3895440
949.7712, 0.1323300
950.2534, 0.3642370
950.7355, 0.5829700
951.2176, 0.4100280
951.6997, 0.1886180
952.1818, 0.1677190
952.6639, 0.2462750
953.1461, 0.3083100
953.6282, 0.3559340
954.1103, 0.4208970
954.5924, 0.4889140
955.0745, 0.4236980
955.5566, 0.1528510
956.0388, 7.8712001E-02
956.5209, 0.1644170
957.0030, 0.7302110
957.4851, 0.7264900
957.9672, 0.1566160
958.4493, 3.5096999E-02
958.9315, 0.4243370
959.4136, 0.8118170
959.8957, 0.5513860
960.3778, 6.7791000E-02
960.8599, 0.2790240
961.3420, 1.5848000E-02
961.8242, 0.2203460
962.3063, 0.3357200
962.7884, 0.3471050
963.2705, 0.1870690
963.7526, 3.5610001E-03
964.2347, 7.2948001E-02
964.7169, 4.4955999E-02
965.1990, 7.3386997E-02
965.6811, 0.4536570
966.1632, 0.6587940
966.6453, 0.5084880
967.1274, 0.3870450
967.6096, 0.5898490
968.0917, 0.8383120
968.5738, 0.7116660
969.0559, 0.2082290
969.5380, 0.1420610
970.0201, 0.1711160
970.5023, 8.5212998E-02
970.9844, 0.1367090
971.4665, 0.3601890
971.9486, 0.5056400
972.4307, 0.5597040
972.9128, 0.4983180
973.3950, 0.3185860
973.8771, 0.1413330
974.3592, 2.5079999E-02
974.8413, 4.7015999E-02
975.3234, 0.1068250
975.8055, 0.1222690
976.2877, 1.0952000E-02
976.7698, 0.2400130
977.2519, 0.3554730
977.7340, 0.2590920
978.2161, 8.9100003E-02
978.6982, 3.4242999E-02
979.1804, 0.1133960
979.6625, 0.1845870
980.1446, 0.2082420
980.6267, 5.6360001E-03
981.1088, 0.4570790
981.5909, 0.7926620
982.0731, 0.7551310
982.5552, 0.5421090
983.0373, 0.5253090
983.5194, 0.6708980
984.0015, 0.7266900
984.4836, 0.6841620
984.9658, 0.5954880
985.4479, 0.4747710
985.9300, 0.3571570
986.4121, 0.2731090
986.8942, 0.2148820
987.3763, 0.1382750
987.8585, 8.0530001E-03
988.3406, 0.1009460
988.8227, 0.5672740
989.3048, 0.8654400
989.7869, 0.7011470
990.2690, 0.3818090
990.7512, 0.2697300
991.2333, 0.3469430
991.7154, 0.3873710
992.1975, 0.3562450
992.6796, 0.3607410
993.1617, 0.4116270
993.6439, 0.4938280
994.1260, 0.6080000
994.6081, 0.7459770
995.0902, 0.9131790
995.5723, 1.112864
996.0544, 1.246183
996.5366, 1.396111
997.0187, 1.360678
997.5008, 0.8677330
997.9829, 0.4205440
998.4650, 0.4076810
998.9471, 0.6168100
999.4293, 0.6357610
999.9114, 0.3951450
1000.393, 0.3036380
1000.876, 0.6279560
1001.358, 0.9302160
1001.840, 1.066534
1002.322, 1.086142
1002.804, 1.000099
1003.286, 0.8450830
1003.768, 0.6488630
1004.250, 0.4108750
1004.733, 0.3239420
1005.215, 0.6062090
1005.697, 0.9548240
1006.179, 1.235180
1006.661, 1.381250
1007.143, 1.222624
1007.625, 0.8830090
1008.107, 0.6824420
1008.589, 0.7620200
1009.072, 0.8879910
1009.554, 0.9088950
1010.036, 0.8470380
1010.518, 0.7292060
1011.000, 0.6292900
1011.482, 0.7008060
1011.964, 0.9188590
1012.446, 1.059803
1012.929, 0.9967630
1013.411, 0.8635040
1013.893, 0.8033450
1014.375, 0.7994310
1014.857, 0.7837370
1015.339, 0.7814580
1015.821, 0.9600300
1016.303, 1.310457
1016.785, 1.448250
1017.268, 1.074610
1017.750, 0.5573670
1018.232, 0.5546800
1018.714, 0.9185300
1019.196, 1.074087
1019.678, 1.014315
1020.160, 0.9567070
1020.642, 0.9609510
1021.125, 0.9378780
1021.607, 0.8000320
1022.089, 0.6171680
1022.571, 0.5276070
1023.053, 0.5346090
1023.535, 0.7781870
1024.017, 1.281443
1024.499, 1.531994
1024.981, 1.348022
1025.464, 1.014141
1025.946, 0.7654270
1026.428, 0.6082420
1026.910, 0.5793360
1027.392, 0.6885050
1027.874, 0.7929150
1028.356, 0.9017940
1028.838, 0.9594120
1029.321, 0.9334070
1029.803, 0.8723110
1030.285, 0.8070740
1030.767, 0.7566890
1031.249, 0.8306620
1031.731, 1.109524
1032.213, 1.195601
1032.695, 1.025967
1033.177, 0.7749690
1033.660, 0.4313350
1034.142, 0.1637710
1034.624, 0.1488700
1035.106, 0.3570800
1035.588, 0.6162450
1036.070, 1.005013
1036.552, 1.258358
1037.034, 1.389627
1037.516, 1.338682
1037.999, 0.9375320
1038.481, 0.5073950
1038.963, 0.3702930
1039.445, 0.5006330
1039.927, 0.7052520
1040.409, 1.159813
1040.891, 1.377146
1041.373, 1.193632
1041.855, 0.9787180
1042.338, 0.7930130
1042.820, 0.6948180
1043.302, 0.8346650
1043.784, 1.156797
1044.266, 1.233477
1044.748, 0.7521800
1045.230, 0.5170650
1045.712, 0.8087640
1046.195, 1.065931
1046.677, 1.055450
1047.159, 0.9073030
1047.641, 0.7380620
1048.123, 0.5600280
1048.605, 0.3941420
1049.087, 0.1097090
1049.569, 7.9369999E-02
1050.052, 0.6680950
1050.534, 1.152111
1051.016, 1.114618
1051.498, 0.8600730
1051.980, 0.7088360
1052.462, 0.6706920
1052.944, 0.6272320
1053.426, 0.4541820
1053.908, 0.4847600
1054.391, 1.093855
1054.873, 1.577635
1055.355, 1.463003
1055.837, 1.113667
1056.319, 0.9869590
1056.801, 1.050335
1057.283, 0.8974550
1057.765, 0.2006780
1058.248, 0.1594770
1058.730, 0.3630430
1059.212, 0.9596310
1059.694, 1.242151
1060.176, 1.310091
1060.658, 1.282501
1061.140, 1.177929
1061.622, 0.9750210
1062.104, 0.5912380
1062.587, 0.3315370
1063.069, 0.3914030
1063.551, 0.5102750
1064.033, 0.5237410
1064.515, 0.5226420
1064.997, 0.7477930
1065.479, 1.072369
1065.961, 0.9417250
1066.443, 2.9600000E-03
1066.926, 0.6820280
1067.408, 0.4506530
1067.890, 6.6091999E-02
1068.372, 6.9652997E-02
1068.854, 7.5193003E-02
1069.336, 9.0736002E-02
1069.818, 0.1269470
1070.300, 0.1428850
1070.782, 0.1233750
1071.265, 0.1224310
1071.747, 0.1263350
1072.229, 0.2150290
1072.711, 0.5916600
1073.193, 0.9607620
1073.675, 0.9354920
1074.157, 0.6207010
1074.639, 0.3992900
1075.122, 0.3888950
1075.604, 0.3990140
1076.086, 0.3357730
1076.568, 0.2456530
1077.050, 0.1818710
1077.532, 0.1324830
1078.014, 4.6959002E-02
1078.496, 3.0624000E-02
1078.979, 7.2360002E-03
1079.461, 0.1895640
1079.943, 0.4501150
1080.425, 0.9361670
1080.907, 1.273304
1081.389, 1.115971
1081.871, 0.8294910
1082.353, 0.7768610
1082.835, 0.8728430
1083.318, 0.8600920
1083.800, 0.6835460
1084.282, 0.5194320
1084.764, 0.3707920
1085.246, 0.3487780
1085.728, 0.6833480
1086.210, 1.006546
1086.692, 0.9168300
1087.175, 0.6171760
1087.657, 0.5240170
1088.139, 0.6985800
1088.621, 0.8267380
1089.103, 0.7506350
1089.585, 0.6498130
1090.067, 0.5261040
1090.549, 0.4822770
1091.031, 0.7119430
1091.514, 1.013351
1091.996, 1.029858
1092.478, 0.7611750
1092.960, 0.6150820
1093.442, 0.8373220
1093.924, 0.9940870
1094.406, 0.8626000
1094.888, 0.6813160
1095.370, 0.5691170
1095.853, 0.5239010
1096.335, 0.5644820
1096.817, 0.6626130
1097.299, 0.7373280
1097.781, 0.7706010
1098.263, 0.8331260
1098.745, 1.014414
1099.227, 1.151751
1099.709, 1.216379
1100.192, 1.152262
1100.674, 0.7580070
1101.156, 0.1825710
1101.638, 1.6040999E-02
1102.120, 0.4047530
1102.602, 0.6957320
1103.084, 0.5662100
1103.566, 0.4129830
1104.049, 0.3811070
1104.531, 0.3998170
1105.013, 0.4669020
1105.495, 0.5317800
1105.977, 0.4561960
1106.459, 0.1820930
1106.941, 5.4106001E-02
1107.423, 0.2008480
1107.906, 0.4006730
1108.388, 0.7039280
1108.870, 0.9310050
1109.352, 0.8518350
1109.834, 0.6661870
1110.316, 0.7883570
1110.798, 1.265886
1111.280, 1.459095
1111.762, 1.074808
1112.245, 0.7720600
1112.727, 0.6548460
1113.209, 0.6080210
1113.691, 0.5767970
1114.173, 0.5849270
1114.655, 0.7054750
1115.137, 0.9215560
1115.619, 1.005032
1116.102, 0.9029350
1116.584, 0.7501790
1117.066, 0.4069020
1117.548, 0.2121090
1118.030, 0.4161240
1118.512, 0.6690580
1118.994, 0.5840440
1119.476, 0.2776150
1119.958, 0.2408700
1120.441, 0.6248700
1120.923, 0.7816390
1121.405, 0.5655060
1121.887, 0.4566020
1122.369, 0.6774560
1122.851, 0.8414100
1123.333, 0.5992450
1123.815, 0.1678540
1124.297, 4.1983001E-02
1124.780, 0.2143500
1125.262, 0.3181780
1125.744, 0.3326510
1126.226, 0.3826180
1126.708, 0.5309870
1127.190, 0.5564980
1127.672, 0.2669050
1128.154, 5.3130999E-02
1128.636, 6.5858997E-02
1129.119, 0.5443270
1129.601, 0.6509020
1130.083, 0.3392910
1130.565, 0.2625870
1131.047, 0.5105690
1131.529, 0.6400070
1132.011, 0.4586490
1132.493, 0.1579990
1132.976, 0.1060030
1133.458, 0.2590770
1133.940, 8.8919997E-03
1134.422, 0.6396560
1134.904, 0.8927040
1135.386, 0.7544330
1135.868, 0.6578350
1136.350, 0.7165990
1136.833, 0.7130170
1137.315, 0.4729190
1137.797, 0.1880320
1138.279, 0.1904950
1138.761, 0.4149840
1139.243, 0.7525560
1139.725, 1.111351
1140.207, 1.004707
1140.689, 0.4422860
1141.172, 3.1925000E-02
1141.654, 6.0107999E-02
1142.136, 0.2163600
1142.618, 0.1548480
1143.100, 2.8223000E-02
1143.582, 0.1239190
1144.064, 0.3385770
1144.546, 0.4936730
1145.029, 0.5580350
1145.511, 0.4796280
1145.993, 0.2673590
1146.475, 9.9009000E-02
1146.957, 0.1122170
1147.439, 0.1729890
1147.921, 0.1446530
1148.403, 9.2974000E-02
1148.885, 0.1070190
1149.368, 0.1528030
1149.850, 0.1418210
1150.332, 8.8495001E-02
1150.814, 0.1112790
1151.296, 0.2705590
1151.778, 0.4379920
1152.260, 0.6532480
1152.742, 0.7150380
1153.224, 0.2822880
1153.707, 0.2095790
1154.189, 0.2648430
1154.671, 3.7799999E-03
1155.153, 0.2354850
1155.635, 0.3861290
1156.117, 0.4401150
1156.599, 0.3451460
1157.081, 0.2244990
1157.563, 3.1415999E-02
1158.046, 8.2705997E-02
1158.528, 2.0971000E-02
1159.010, 0.1741160
1159.492, 0.5678980
1159.974, 1.094181
1160.456, 1.192835
1160.938, 0.3850900
1161.420, 7.7860001E-03
1161.903, 0.3662490
1162.385, 0.7323930
1162.867, 0.9146630
1163.349, 0.9776540
1163.831, 0.9559330
1164.313, 0.8618300
1164.795, 0.6998920
1165.277, 0.4467700
1165.760, 0.3776910
1166.242, 0.5840440
1166.724, 0.6621360
1167.206, 0.4908280
1167.688, 0.3903430
1168.170, 0.5487100
1168.652, 0.7935010
1169.134, 0.9116880
1169.616, 0.9169920
1170.099, 0.8566590
1170.581, 0.7295490
1171.063, 0.5888860
1171.545, 0.4368170
1172.027, 0.5206470
1172.509, 0.9196720
1172.991, 1.255533
1173.473, 1.240929
1173.956, 1.017204
1174.438, 0.7530190
1174.920, 0.4984320
1175.402, 0.4502180
1175.884, 0.5678620
1176.366, 0.7497350
1176.848, 0.9419990
1177.330, 0.9783740
1177.813, 0.7940620
1178.295, 0.5737210
1178.777, 0.4734630
1179.259, 0.4327930
1179.741, 0.3687520
1180.223, 0.3216360
1180.705, 0.3745920
1181.187, 0.4831980
1181.669, 0.5598810
1182.151, 0.5797270
1182.634, 0.5590590
1183.116, 0.5051380
1183.598, 0.4034120
1184.080, 0.1650920
1184.562, 2.0122999E-02
1185.044, 2.9657001E-02
1185.526, 5.5062000E-02
1186.008, 0.2389300
1186.490, 0.4397820
1186.973, 0.3879180
1187.455, 9.1159996E-03
1187.937, 4.3173000E-02
1188.419, 0.7558290
1188.901, 1.299244
1189.383, 1.309801
1189.865, 1.104897
1190.347, 0.6039900
1190.830, 0.1219640
1191.312, 4.9027000E-02
1191.794, 0.3365220
1192.276, 0.5992530
1192.758, 0.8518140
1193.240, 1.019158
1193.722, 1.101051
1194.204, 1.090262
1194.687, 0.9663310
1195.169, 0.7980430
1195.651, 0.6035390
1196.133, 0.4642780
1196.615, 0.5132230
1197.097, 0.7330960
1197.579, 1.041563
1198.061, 1.424407
1198.543, 1.531114
1199.026, 1.348993
1199.508, 1.219664
1199.990, 1.254783
1200.472, 1.307907
1200.954, 1.263545
1201.436, 1.170502
1201.918, 1.090736
1202.400, 1.016438
1202.883, 0.9036860
1203.365, 0.7941010
1203.847, 0.7864220
1204.329, 0.8793250
1204.811, 1.060245
1205.293, 1.313520
1205.775, 1.409450
1206.257, 1.054047
1206.740, 0.6763380
1207.222, 0.5706630
1207.704, 0.5994980
1208.186, 0.7308060
1208.668, 0.8570170
1209.150, 0.7908920
1209.632, 0.5755490
1210.114, 0.4964940
1210.596, 0.6553610
1211.078, 0.7715720
1211.561, 0.7516360
1212.043, 0.7081580
1212.525, 0.6955430
1213.007, 0.6692730
1213.489, 0.5668780
1213.971, 0.4644710
1214.453, 0.5017270
1214.935, 0.6603450
1215.417, 0.7164620
1215.900, 0.6095670
1216.382, 0.6617020
1216.864, 0.9546600
1217.346, 1.107853
1217.828, 0.9846850
1218.310, 0.7699750
1218.792, 0.5845730
1219.274, 0.4634900
1219.757, 0.5555060
1220.239, 0.7684240
1220.721, 0.5770700
1221.203, 0.1035370
1221.685, 1.4472000E-02
1222.167, 0.3129560
1222.649, 0.4987530
1223.131, 0.4098220
1223.614, 0.3345840
1224.096, 0.4825340
1224.578, 0.7669870
1225.060, 1.232718
1225.542, 1.656489
1226.024, 1.742313
1226.506, 1.614265
1226.988, 1.462892
1227.470, 1.301563
1227.953, 1.044874
1228.435, 0.6705830
1228.917, 0.3716310
1229.399, 0.1590640
1229.881, 0.1303060
1230.363, 0.5832020
1230.845, 0.9244730
1231.327, 0.6002400
1231.810, 0.1279640
1232.292, 0.2098780
1232.774, 0.6827310
1233.256, 0.8597000
1233.738, 0.6257030
1234.220, 0.6172290
1234.702, 0.9383580
1235.184, 1.137864
1235.667, 1.134786
1236.149, 1.027311
1236.631, 0.8195350
1237.113, 0.6265560
1237.595, 0.6195570
1238.077, 0.6965150
1238.559, 0.4891300
1239.041, 0.1141830
1239.523, 0.2157060
1240.005, 0.6796670
1240.488, 0.7829440
1240.970, 0.4336670
1241.452, 7.1102999E-02
1241.934, 9.1591001E-02
1242.416, 9.1192998E-02
1242.898, 0.1145510
1243.380, 0.3772990
1243.862, 0.4762440
1244.344, 0.6141030
1244.827, 1.308035
1245.309, 2.058744
1245.791, 1.853296
1246.273, 0.7903150
1246.755, 2.8703000E-02
1247.237, 0.1000830
1247.719, 5.1442999E-02
1248.201, 0.2569970
1248.684, 0.4679290
1249.166, 0.3570230
1249.648, 0.2592170
1250.130, 0.4089520
1250.612, 0.6329960
1251.094, 0.7124100
1251.576, 0.6547430
1252.058, 0.4800290
1252.541, 0.1489100
1253.023, 2.9227000E-02
1253.505, 5.5505000E-02
1253.987, 0.2184940
1254.469, 0.8517340
1254.951, 1.234965
1255.433, 1.013377
1255.915, 0.5756870
1256.397, 0.3378730
1256.880, 0.2848740
1257.362, 0.4996890
1257.844, 0.8090310
1258.326, 0.8904580
1258.808, 0.7784070
1259.290, 0.5671630
1259.772, 0.3476860
1260.254, 0.3983970
1260.737, 0.8873210
1261.219, 1.213541
1261.701, 0.8884770
1262.183, 0.5539230
1262.665, 0.4959270
1263.147, 0.5665380
1263.629, 0.6767690
1264.111, 0.7534010
1264.594, 0.8981700
1265.076, 1.039953
1265.558, 1.008571
1266.040, 0.7550390
1266.522, 0.4339920
1267.004, 2.5411000E-02
1267.486, 7.1631998E-02
1267.968, 0.2491460
1268.450, 0.5871660
1268.932, 0.7391870
1269.415, 0.7452250
1269.897, 0.7087190
1270.379, 0.6465600
1270.861, 0.4096490
1271.343, 8.3130002E-02
1271.825, 5.5011000E-02
1272.307, 3.0197000E-02
1272.789, 0.1158410
1273.271, 0.3238120
1273.754, 0.3660400
1274.236, 0.1674920
1274.718, 0.1382000
1275.200, 0.7957070
1275.682, 1.325965
1276.164, 1.126465
1276.646, 0.6929540
1277.128, 0.4971960
1277.611, 0.4235380
1278.093, 0.4321720
1278.575, 0.4665740
1279.057, 0.3060210
1279.539, 8.5399002E-02
1280.021, 6.3726999E-02
1280.503, 0.3370460
1280.985, 0.5107340
1281.468, 0.5385700
1281.950, 0.4984340
1282.432, 0.4221080
1282.914, 0.3258710
1283.396, 0.2137730
1283.878, 0.1091200
1284.360, 8.4937997E-02
1284.842, 9.2621997E-02
1285.324, 0.0000000E+00
##END=



