##NAMES=Schairerite
##RRUFFID=R110093
##IDEAL CHEMISTRY=Na_21_(SO_4_)_7_ClF_6_
##LOCALITY=Searles Lake, Trona, San Bernardino County, California, USA
##OWNER=RRUFF
##SOURCE=Marus Origlieri
##DESCRIPTION=Unconsolidated gray, white and transparent colorless grains.  Associated with gaylussite and galeite R130025. NOTE: THE PHOTO IS GALEITE, AND THE RAMAN IS PROBABLY WRONG TOO. NEED TO X-RAY TO CONFIRM AND THEN SHOOT RAMAN ON X-RAY SAMPLE
##STATUS=The identification of this mineral is not yet confirmed.
##URL=rruff.info/R110093
201.5261, 0.0000000E+00
202.0082, 0.3096920
202.4904, 0.5286870
202.9725, 0.6552730
203.4546, 0.5479740
203.9367, 0.2387700
204.4188, 3.2960000E-03
204.9009, 0.2275390
205.3831, 1.053345
205.8652, 1.883423
206.3473, 2.581543
206.8294, 3.340820
207.3115, 4.640625
207.7936, 6.368164
208.2758, 7.666748
208.7579, 7.122925
209.2400, 3.210083
209.7221, 0.8168950
210.2042, 0.4208980
210.6863, 0.9083250
211.1685, 1.884155
211.6506, 3.109985
212.1327, 4.110474
212.6148, 4.103027
213.0969, 2.094727
213.5790, 1.226929
214.0612, 2.392334
214.5433, 4.056152
215.0254, 4.950195
215.5075, 4.797363
215.9896, 4.280029
216.4717, 4.411499
216.9539, 5.680420
217.4360, 6.390991
217.9181, 6.418335
218.4002, 5.925415
218.8823, 4.728638
219.3644, 2.778076
219.8466, 1.020874
220.3287, 1.004272
220.8108, 3.136963
221.2929, 4.597412
221.7750, 4.412720
222.2571, 3.592773
222.7393, 3.524780
223.2214, 4.620361
223.7035, 5.862549
224.1856, 5.962524
224.6677, 5.033569
225.1498, 4.043945
225.6320, 3.070068
226.1141, 2.230469
226.5962, 1.795776
227.0783, 1.919922
227.5604, 2.127319
228.0425, 1.846313
228.5247, 1.082153
229.0068, 0.8670650
229.4889, 2.494263
229.9710, 4.678955
230.4531, 5.678223
230.9352, 4.955444
231.4174, 3.852783
231.8995, 2.682495
232.3816, 1.704712
232.8637, 1.395386
233.3458, 2.453247
233.8279, 4.401733
234.3101, 5.686646
234.7922, 6.112427
235.2743, 6.080322
235.7564, 5.775879
236.2385, 5.260010
236.7206, 4.635498
237.2028, 3.909790
237.6849, 3.124512
238.1670, 2.386108
238.6491, 1.445923
239.1312, 0.9862060
239.6133, 1.435791
240.0955, 2.452881
240.5776, 3.483521
241.0597, 4.274658
241.5418, 4.804077
242.0239, 4.960205
242.5060, 4.687500
242.9882, 4.044312
243.4703, 2.476563
243.9524, 0.6970210
244.4345, 0.1848140
244.9166, 0.6054690
245.3987, 2.618164
245.8809, 3.707886
246.3630, 2.951050
246.8451, 2.406250
247.3272, 2.427856
247.8093, 2.906494
248.2914, 3.904419
248.7736, 5.533691
249.2557, 7.370239
249.7378, 7.614624
250.2199, 3.955444
250.7020, 1.546997
251.1841, 2.099365
251.6663, 3.903198
252.1484, 4.910889
252.6305, 4.124756
253.1126, 2.092896
253.5947, 0.4770510
254.0768, 0.6665040
254.5590, 1.334961
255.0411, 1.168091
255.5232, 0.6685790
256.0053, 0.4887700
256.4874, 0.8969730
256.9695, 1.505493
257.4517, 1.379028
257.9338, 0.4763180
258.4159, 1.915283
258.8980, 3.096558
259.3801, 3.765381
259.8622, 3.165283
260.3444, 1.084595
260.8265, 1.064453
261.3086, 0.5113530
261.7907, 6.197632
262.2728, 10.11279
262.7549, 9.068726
263.2371, 6.183350
263.7192, 4.526733
264.2013, 4.917725
264.6834, 6.173340
265.1655, 6.558472
265.6476, 5.625366
266.1298, 4.819580
266.6119, 4.268921
267.0940, 3.804443
267.5761, 2.991211
268.0582, 1.791748
268.5403, 1.186401
269.0225, 2.685303
269.5046, 7.157471
269.9867, 9.472046
270.4688, 7.611938
270.9509, 4.746460
271.4330, 3.587891
271.9152, 4.445679
272.3973, 6.042969
272.8794, 7.460083
273.3615, 8.640503
273.8436, 8.700684
274.3257, 6.205444
274.8079, 3.645996
275.2900, 3.253296
275.7721, 5.047485
276.2542, 6.627930
276.7363, 5.980957
277.2184, 3.365479
277.7006, 1.732666
278.1827, 1.419067
278.6648, 1.832520
279.1469, 2.931030
279.6290, 4.590454
280.1111, 5.968384
280.5933, 6.470093
281.0754, 6.318237
281.5575, 6.447510
282.0396, 7.428955
282.5217, 8.011963
283.0038, 6.767456
283.4860, 4.163574
283.9681, 2.827148
284.4502, 4.704346
284.9323, 7.925903
285.4144, 8.418213
285.8965, 5.088989
286.3787, 1.841064
286.8608, 1.070313
287.3429, 2.206543
287.8250, 3.131226
288.3071, 3.040771
288.7892, 2.608276
289.2714, 2.915283
289.7535, 4.064575
290.2356, 5.004761
290.7177, 5.114258
291.1998, 4.634644
291.6819, 4.091187
292.1641, 3.400757
292.6462, 3.068359
293.1283, 3.937866
293.6104, 5.844482
294.0925, 7.441162
294.5746, 8.307373
295.0568, 8.483887
295.5389, 7.874512
296.0210, 6.227905
296.5031, 4.516602
296.9852, 3.549072
297.4673, 3.163696
297.9495, 3.030518
298.4316, 3.293701
298.9137, 3.661743
299.3958, 3.585938
299.8779, 2.933716
300.3600, 2.448853
300.8422, 3.009888
301.3243, 4.019775
301.8064, 4.431152
302.2885, 3.629517
302.7706, 2.500610
303.2527, 2.095703
303.7349, 2.462769
304.2170, 2.787720
304.6991, 2.672363
305.1812, 2.298218
305.6633, 1.825806
306.1454, 1.121216
306.6276, 0.7196040
307.1097, 1.319214
307.5918, 2.856445
308.0739, 4.227173
308.5560, 5.167358
309.0381, 5.483521
309.5203, 5.012939
310.0024, 3.660400
310.4845, 2.504517
310.9666, 2.430664
311.4487, 3.216675
311.9308, 3.778076
312.4130, 3.731201
312.8951, 3.703979
313.3772, 4.546875
313.8593, 6.058960
314.3414, 6.939941
314.8235, 5.973999
315.3057, 3.957031
315.7878, 3.007202
316.2699, 3.574951
316.7520, 4.302856
317.2341, 4.075073
317.7162, 3.263062
318.1984, 2.640137
318.6805, 2.686157
319.1626, 3.003052
319.6447, 2.580811
320.1268, 1.130981
320.6089, 0.3248290
321.0911, 1.885864
321.5732, 4.486938
322.0553, 6.280884
322.5374, 6.665527
323.0195, 6.548584
323.5016, 7.144409
323.9838, 8.565186
324.4659, 9.091187
324.9480, 7.215820
325.4301, 4.353516
325.9122, 2.510132
326.3943, 1.939575
326.8765, 1.828369
327.3586, 1.630127
327.8407, 1.385498
328.3228, 1.319824
328.8049, 1.367798
329.2870, 1.812134
329.7692, 3.506104
330.2513, 6.266357
330.7334, 7.704834
331.2155, 5.297119
331.6976, 0.8723140
332.1797, 0.9658200
332.6619, 0.9543460
333.1440, 3.415039
333.6261, 3.539673
334.1082, 2.178345
334.5903, 1.233765
335.0724, 1.205200
335.5546, 1.899414
336.0367, 3.671997
336.5188, 6.730347
337.0009, 8.646484
337.4830, 7.170898
337.9651, 3.912720
338.4473, 1.859985
338.9294, 1.507202
339.4115, 1.895020
339.8936, 2.507813
340.3757, 3.297363
340.8578, 3.872803
341.3400, 4.109741
341.8221, 4.013184
342.3042, 3.531128
342.7863, 2.538696
343.2684, 1.796875
343.7505, 1.828735
344.2327, 2.374023
344.7148, 2.807861
345.1969, 2.979614
345.6790, 3.078857
346.1611, 3.345947
346.6432, 3.699219
347.1254, 4.019287
347.6075, 4.401733
348.0896, 4.681030
348.5717, 4.546753
349.0538, 3.952759
349.5359, 3.447876
350.0181, 3.531616
350.5002, 4.051636
350.9823, 4.281006
351.4644, 3.742676
351.9465, 3.290894
352.4286, 3.689575
352.9108, 4.754883
353.3929, 5.620728
353.8750, 5.928345
354.3571, 5.711426
354.8392, 4.961304
355.3214, 3.279541
355.8035, 1.984863
356.2856, 1.782593
356.7677, 2.253906
357.2498, 2.591919
357.7319, 2.524780
358.2141, 2.536499
358.6962, 3.514648
359.1783, 5.770386
359.6604, 7.021729
360.1425, 6.182617
360.6246, 4.745850
361.1068, 4.147339
361.5889, 4.487427
362.0710, 5.006592
362.5531, 5.125488
363.0352, 4.822876
363.5173, 4.281982
363.9995, 3.385376
364.4816, 2.385620
364.9637, 0.9963380
365.4458, 0.4246830
365.9279, 0.8593750
366.4100, 0.3604740
366.8922, 2.596802
367.3743, 3.749512
367.8564, 2.585938
368.3385, 2.145630
368.8206, 3.561035
369.3027, 5.572876
369.7849, 6.652588
370.2670, 6.394043
370.7491, 5.581299
371.2312, 5.350220
371.7133, 6.174805
372.1954, 6.076172
372.6776, 3.932373
373.1597, 1.888306
373.6418, 1.518921
374.1239, 2.597900
374.6060, 3.729370
375.0881, 3.785278
375.5703, 2.807861
376.0524, 2.068970
376.5345, 1.677002
377.0166, 1.395264
377.4987, 1.227051
377.9808, 1.121338
378.4630, 1.022217
378.9451, 0.9123540
379.4272, 0.7694090
379.9093, 0.5716550
380.3914, 0.4890140
380.8735, 1.8921001E-02
381.3557, 1.878174
381.8378, 3.428833
382.3199, 2.983154
382.8020, 0.5329590
383.2841, 2.395264
383.7662, 4.116821
384.2484, 4.486084
384.7305, 4.651855
385.2126, 4.623779
385.6947, 4.343140
386.1768, 3.462769
386.6589, 2.324097
387.1411, 1.645630
387.6232, 1.963379
388.1053, 2.868774
388.5874, 2.821655
389.0695, 1.109131
389.5516, 0.2243650
390.0338, 0.6303710
390.5159, 0.5180660
390.9980, 0.4302980
391.4801, 0.5013430
391.9622, 0.5377200
392.4443, 0.1795650
392.9265, 0.6673580
393.4086, 1.101685
393.8907, 0.7915040
394.3728, 0.2287600
394.8549, 0.7176510
395.3370, 1.769409
395.8192, 1.974609
396.3013, 8.9599997E-02
396.7834, 3.095947
397.2655, 4.849487
397.7476, 4.730957
398.2297, 4.319824
398.7119, 4.381226
399.1940, 4.658325
399.6761, 4.839722
400.1582, 4.836792
400.6403, 4.726318
401.1224, 4.720337
401.6046, 4.780029
402.0867, 4.240479
402.5688, 2.434204
403.0509, 0.4619140
403.5330, 0.3503420
404.0151, 1.5870000E-03
404.4973, 0.5791020
404.9794, 1.105103
405.4615, 1.555664
405.9436, 1.825684
406.4257, 1.877197
406.9078, 2.002319
407.3900, 2.485840
407.8721, 3.278809
408.3542, 4.046509
408.8363, 4.779663
409.3184, 5.479614
409.8005, 6.556274
410.2827, 7.693848
410.7648, 7.560303
411.2469, 5.268311
411.7290, 1.987183
412.2111, 0.4725340
412.6932, 1.279175
413.1754, 2.117310
413.6575, 2.374634
414.1396, 2.586548
414.6217, 3.531006
415.1038, 5.255371
415.5859, 6.844116
416.0681, 7.364502
416.5502, 6.713501
417.0323, 6.024780
417.5144, 4.973755
417.9965, 4.216797
418.4786, 3.987061
418.9608, 4.252319
419.4429, 5.039063
419.9250, 6.399414
420.4071, 7.994629
420.8892, 8.867310
421.3713, 8.569580
421.8535, 8.179565
422.3356, 7.548950
422.8177, 6.968018
423.2998, 6.732056
423.7819, 6.836182
424.2640, 6.955933
424.7462, 6.453979
425.2283, 5.200195
425.7104, 4.968628
426.1925, 7.306030
426.6746, 9.013062
427.1567, 8.890503
427.6389, 7.603638
428.1210, 6.045410
428.6031, 4.509155
429.0852, 3.445557
429.5673, 4.114746
430.0494, 7.235840
430.5316, 9.502930
431.0137, 9.554321
431.4958, 8.864502
431.9779, 8.246216
432.4600, 7.777710
432.9421, 7.189819
433.4243, 5.827881
433.9064, 4.084351
434.3885, 3.961548
434.8706, 6.385498
435.3527, 8.479248
435.8348, 7.458130
436.3170, 5.002197
436.7991, 4.013550
437.2812, 5.893799
437.7633, 8.473877
438.2454, 9.906982
438.7275, 10.26074
439.2097, 9.946899
439.6918, 9.010620
440.1739, 7.852783
440.6560, 6.792847
441.1381, 5.608887
441.6202, 5.318726
442.1024, 7.067627
442.5845, 9.393188
443.0666, 10.46936
443.5487, 10.19604
444.0308, 9.930664
444.5129, 10.85498
444.9951, 12.74207
445.4772, 12.41528
445.9593, 13.28491
446.4414, 12.26599
446.9235, 13.82056
447.4056, 12.35095
447.8878, 12.56616
448.3699, 10.79102
448.8520, 8.041260
449.3341, 5.825073
449.8162, 7.310547
450.2983, 8.804443
450.7805, 11.21899
451.2626, 13.85730
451.7447, 15.98242
452.2268, 17.44458
452.7089, 18.09875
453.1910, 17.78088
453.6732, 16.80627
454.1553, 16.43225
454.6374, 16.72107
455.1195, 17.28723
455.6016, 18.14001
456.0837, 19.14734
456.5659, 20.13135
457.0480, 21.08716
457.5301, 22.26697
458.0122, 23.92139
458.4943, 26.04773
458.9764, 28.61658
459.4586, 32.35046
459.9407, 35.39917
460.4228, 36.25928
460.9049, 35.94824
461.3870, 36.27698
461.8691, 38.16882
462.3513, 40.61560
462.8334, 42.41736
463.3155, 43.59644
463.7976, 44.78906
464.2797, 46.25476
464.7618, 47.74988
465.2440, 48.71667
465.7261, 49.11169
466.2082, 50.33765
466.6903, 53.31311
467.1724, 57.27893
467.6545, 61.21741
468.1367, 64.88391
468.6188, 68.22815
469.1009, 71.38062
469.5830, 74.07068
470.0651, 75.02698
470.5472, 72.94897
471.0294, 71.06677
471.5115, 70.53503
471.9936, 70.50073
472.4757, 70.12085
472.9578, 69.10974
473.4399, 67.16895
473.9221, 63.87292
474.4042, 59.03833
474.8863, 53.87415
475.3684, 48.04968
475.8505, 42.36914
476.3326, 36.46643
476.8148, 30.91174
477.2969, 26.79236
477.7790, 24.66797
478.2611, 23.71436
478.7432, 22.23804
479.2253, 20.00378
479.7075, 17.96802
480.1896, 15.93799
480.6717, 14.41003
481.1538, 14.11243
481.6359, 14.71692
482.1180, 14.87854
482.6002, 13.27295
483.0823, 10.73279
483.5644, 9.773804
484.0465, 10.91687
484.5286, 11.51233
485.0107, 9.519165
485.4929, 6.830566
485.9750, 5.825439
486.4571, 7.049438
486.9392, 8.504517
487.4213, 8.858398
487.9034, 8.591675
488.3856, 8.995483
488.8677, 10.37024
489.3498, 11.39929
489.8319, 10.65405
490.3140, 8.315308
490.7961, 7.144531
491.2783, 8.302246
491.7604, 9.392456
492.2425, 9.124634
492.7246, 8.060059
493.2067, 7.315918
493.6888, 7.292114
494.1710, 7.464478
494.6531, 6.924805
495.1352, 5.003540
495.6173, 4.590820
496.0994, 7.406738
496.5815, 9.851074
497.0637, 9.805908
497.5458, 8.039307
498.0279, 6.432251
498.5100, 6.044800
498.9921, 6.434082
499.4742, 6.440796
499.9564, 5.858032
500.4385, 5.395630
500.9206, 5.419312
501.4027, 5.358276
501.8848, 4.532837
502.3669, 3.153809
502.8491, 2.386230
503.3312, 3.341797
503.8133, 5.416016
504.2954, 7.159546
504.7775, 8.686279
505.2596, 9.286865
505.7418, 7.551636
506.2239, 5.305786
506.7060, 5.537964
507.1881, 9.188965
507.6702, 11.97510
508.1523, 11.10693
508.6345, 8.202637
509.1166, 5.678589
509.5987, 3.876831
510.0808, 2.911133
510.5629, 3.095459
511.0450, 4.310669
511.5272, 5.047363
512.0093, 4.997559
512.4914, 4.892090
512.9735, 4.966309
513.4556, 5.098633
513.9377, 5.030151
514.4199, 4.733887
514.9020, 4.553223
515.3841, 5.012817
515.8662, 6.286987
516.3483, 6.980103
516.8304, 7.139771
517.3126, 6.636108
517.7947, 4.807617
518.2768, 2.473145
518.7589, 0.7136230
519.2410, 5.2368000E-02
519.7231, 1.1108000E-02
520.2053, 0.8839110
520.6874, 2.635864
521.1695, 4.212036
521.6516, 5.852051
522.1337, 6.744019
522.6158, 6.267944
523.0980, 4.695435
523.5801, 2.718750
524.0622, 0.2034910
524.5443, 2.647583
525.0264, 2.595215
525.5085, 0.4631350
525.9907, 1.296021
526.4728, 1.843262
526.9549, 1.645020
527.4370, 1.255005
527.9191, 0.5982670
528.4012, 0.2131350
528.8834, 0.2910160
529.3655, 0.5452880
529.8476, 0.8704830
530.3297, 1.204346
530.8118, 1.496460
531.2939, 1.735962
531.7761, 1.780762
532.2582, 1.181763
532.7403, 1.133057
533.2224, 2.113892
533.7045, 0.9194340
534.1866, 0.7193600
534.6688, 1.814453
535.1509, 2.426392
535.6330, 3.169922
536.1151, 4.626343
536.5972, 6.236450
537.0793, 6.238892
537.5615, 4.117065
538.0436, 2.583862
538.5257, 3.231323
539.0078, 4.184692
539.4899, 3.575195
539.9720, 1.443237
540.4542, 0.3553470
540.9363, 0.6781010
541.4184, 0.2227780
541.9005, 0.1096190
542.3826, 0.2745360
542.8647, 0.2768550
543.3469, 6.4940996E-02
543.8290, 0.2614750
544.3111, 0.4276120
544.7932, 0.2869870
545.2753, 0.3480220
545.7574, 1.089478
546.2396, 1.786133
546.7217, 1.682373
547.2038, 0.8720700
547.6859, 2.6611000E-02
548.1680, 0.3881840
548.6501, 0.4429930
549.1323, 0.4471440
549.6144, 0.1665040
550.0965, 0.2685550
550.5786, 1.441040
551.0607, 2.507202
551.5428, 2.297852
552.0250, 0.9847410
552.5071, 4.2603001E-02
552.9892, 0.4196780
553.4713, 1.841187
553.9534, 2.596802
554.4355, 2.541748
554.9177, 2.572754
555.3998, 3.262451
555.8819, 4.035889
556.3640, 3.997803
556.8461, 3.005737
557.3282, 2.325195
557.8104, 2.670166
558.2925, 3.423218
558.7746, 3.956665
559.2567, 4.213379
559.7388, 4.234375
560.2209, 3.977051
560.7031, 3.589844
561.1852, 3.553955
561.6673, 4.549316
562.1494, 4.909302
562.6315, 4.146118
563.1136, 3.104126
563.5958, 2.239746
564.0779, 1.656250
564.5600, 1.469116
565.0421, 1.832397
565.5242, 2.508789
566.0063, 2.485474
566.4885, 1.113403
566.9706, 0.9436040
567.4527, 4.166870
567.9348, 7.613281
568.4169, 9.174927
568.8990, 8.852905
569.3812, 7.743774
569.8633, 5.700928
570.3454, 3.587402
570.8275, 2.968262
571.3096, 3.736450
571.7917, 4.066040
572.2739, 3.017944
572.7560, 1.398926
573.2381, 0.6772460
573.7202, 1.054688
574.2023, 1.442505
574.6844, 1.701416
575.1666, 1.975586
575.6487, 2.514771
576.1308, 3.143555
576.6129, 3.417236
577.0950, 3.091064
577.5771, 2.393188
578.0593, 1.749146
578.5414, 1.024902
579.0235, 0.7263180
579.5056, 1.323608
579.9877, 1.922241
580.4698, 1.875122
580.9520, 1.524658
581.4341, 1.751343
581.9162, 3.163452
582.3983, 4.689331
582.8804, 5.092529
583.3625, 4.619873
583.8447, 4.411621
584.3268, 4.725952
584.8089, 5.348022
585.2910, 6.398804
585.7731, 7.759155
586.2552, 8.086304
586.7374, 6.009399
587.2195, 4.200317
587.7016, 4.716064
588.1837, 6.277832
588.6658, 6.431396
589.1479, 4.494385
589.6301, 1.994751
590.1122, 0.7811280
590.5943, 0.8968510
591.0764, 1.147583
591.5585, 2.165527
592.0406, 2.846802
592.5228, 2.463257
593.0049, 1.732178
593.4870, 1.570679
593.9691, 2.199341
594.4512, 2.968872
594.9333, 3.328125
595.4155, 3.311890
595.8976, 2.956177
596.3797, 2.118530
596.8618, 1.694824
597.3439, 2.609009
597.8260, 4.129578
598.3082, 4.387085
598.7903, 2.768005
599.2724, 1.549255
599.7545, 1.653809
600.2366, 2.358582
600.7188, 2.939392
601.2009, 3.345703
601.6830, 3.952515
602.1651, 5.119202
602.6472, 6.512878
603.1293, 6.770752
603.6115, 5.191833
604.0936, 3.597290
604.5757, 1.814575
605.0578, 0.4383540
605.5399, 0.1660770
606.0220, 9.4360001E-02
606.5042, 0.4110110
606.9863, 1.354004
607.4684, 2.454773
607.9505, 3.368408
608.4326, 4.093384
608.9147, 4.292603
609.3969, 3.560181
609.8790, 2.855103
610.3611, 3.659363
610.8432, 5.808411
611.3253, 6.687134
611.8074, 4.597656
612.2896, 2.658630
612.7717, 3.130615
613.2538, 4.686340
613.7359, 4.819763
614.2180, 2.949463
614.7001, 0.9902950
615.1823, 1.376526
615.6644, 4.275513
616.1465, 5.909668
616.6286, 5.100159
617.1107, 4.619812
617.5928, 5.488647
618.0750, 6.822754
618.5571, 7.598267
619.0392, 7.655945
619.5213, 7.938049
620.0034, 9.383240
620.4855, 11.39893
620.9677, 12.99231
621.4498, 14.14227
621.9319, 14.93341
622.4140, 15.25793
622.8961, 15.41101
623.3782, 16.01501
623.8604, 17.08179
624.3425, 18.47430
624.8246, 20.29926
625.3067, 22.34747
625.7888, 24.69714
626.2709, 27.12006
626.7531, 29.22052
627.2352, 30.79663
627.7173, 31.86102
628.1994, 32.22144
628.6815, 31.59717
629.1636, 31.75476
629.6458, 33.45117
630.1279, 35.08112
630.6100, 35.64996
631.0921, 35.65741
631.5742, 35.95508
632.0563, 36.72546
632.5385, 37.91034
633.0206, 39.73920
633.5027, 41.88660
633.9848, 43.82312
634.4669, 45.45532
634.9490, 46.56458
635.4312, 47.00201
635.9133, 46.80688
636.3954, 46.12268
636.8775, 45.38452
637.3596, 43.51581
637.8417, 39.92822
638.3239, 35.70099
638.8060, 31.21490
639.2881, 26.69232
639.7702, 22.53174
640.2523, 18.95459
640.7344, 15.94849
641.2166, 13.63440
641.6987, 12.02985
642.1808, 10.38501
642.6629, 8.343811
643.1450, 6.565002
643.6271, 5.674866
644.1093, 5.502808
644.5914, 5.635010
645.0735, 6.458435
645.5556, 7.118042
646.0377, 7.213562
646.5198, 6.819641
647.0020, 5.835022
647.4841, 4.387207
647.9662, 3.451172
648.4483, 4.046021
648.9304, 5.866028
649.4125, 6.642212
649.8947, 5.764343
650.3768, 4.891113
650.8589, 4.291138
651.3410, 3.832947
651.8231, 3.449219
652.3052, 3.120422
652.7874, 2.828796
653.2695, 2.674988
653.7516, 2.446716
654.2337, 1.562927
654.7158, 0.2847900
655.1979, 2.0508001E-02
655.6801, 1.150024
656.1622, 2.733398
656.6443, 3.577454
657.1264, 3.637085
657.6085, 3.755371
658.0906, 4.084717
658.5728, 4.292786
659.0549, 4.487732
659.5370, 4.424194
660.0191, 3.588074
660.5012, 2.010681
660.9833, 0.7015990
661.4655, 0.5734250
661.9476, 1.264587
662.4297, 1.695862
662.9118, 1.866821
663.3939, 1.779785
663.8760, 1.271912
664.3582, 0.7236330
664.8403, 0.6533810
665.3224, 1.018738
665.8045, 1.316162
666.2866, 1.243103
666.7687, 1.303955
667.2509, 2.141174
667.7330, 3.178650
668.2151, 3.418213
668.6972, 2.631775
669.1793, 1.401733
669.6614, 0.1287840
670.1436, 1.094360
670.6257, 0.7636110
671.1078, 2.320374
671.5899, 4.469360
672.0720, 3.776672
672.5541, 2.349792
673.0363, 1.915039
673.5184, 2.475159
674.0005, 2.770203
674.4826, 1.896301
674.9647, 0.8004760
675.4468, 0.5595090
675.9290, 0.8864140
676.4111, 0.7027590
676.8932, 0.3444820
677.3753, 1.143982
677.8574, 0.2009280
678.3395, 2.604248
678.8217, 4.076294
679.3038, 3.093018
679.7859, 2.169800
680.2680, 1.784302
680.7501, 1.613281
681.2322, 1.255920
681.7144, 0.7480470
682.1965, 0.5847780
682.6786, 1.432251
683.1607, 2.593262
683.6428, 2.873901
684.1249, 2.348938
684.6071, 1.593811
685.0892, 0.6575320
685.5713, 3.2350000E-03
686.0534, 0.2418210
686.5355, 1.469177
687.0176, 2.198486
687.4998, 1.835327
687.9819, 1.755371
688.4640, 2.695435
688.9461, 3.831055
689.4282, 4.358154
689.9103, 4.171570
690.3925, 3.584167
690.8746, 2.671997
691.3567, 1.692566
691.8388, 1.421326
692.3209, 1.904480
692.8030, 2.032898
693.2852, 1.379272
693.7673, 0.5527950
694.2494, 0.2179570
694.7315, 0.3347170
695.2136, 0.2415770
695.6957, 0.4456790
696.1779, 0.9086300
696.6600, 0.7463380
697.1421, 0.2835690
697.6242, 0.2180180
698.1063, 0.6613160
698.5884, 0.9199220
699.0706, 0.8812870
699.5527, 0.6185300
700.0348, 0.2847290
700.5169, 0.1586300
700.9990, 0.4372560
701.4811, 0.4327390
701.9633, 0.3498540
702.4454, 0.5292360
702.9275, 0.8055420
703.4096, 0.5684810
703.8917, 0.6624150
704.3738, 1.876587
704.8560, 3.011963
705.3381, 3.696350
705.8202, 2.935364
706.3023, 1.069763
706.7844, 9.9730998E-02
707.2665, 1.541687
707.7487, 4.310486
708.2308, 5.317261
708.7129, 4.006897
709.1950, 3.340332
709.6771, 3.949646
710.1592, 4.802185
710.6414, 5.517944
711.1235, 6.032593
711.6056, 6.124084
712.0877, 5.662109
712.5698, 5.034302
713.0519, 4.090881
713.5341, 3.217468
714.0162, 3.155457
714.4983, 3.795044
714.9804, 4.376953
715.4625, 4.487793
715.9446, 4.129333
716.4268, 3.027710
716.9089, 0.6755370
717.3910, 0.1130370
717.8731, 1.463684
718.3552, 3.620544
718.8373, 6.398254
719.3195, 8.867493
719.8016, 9.414246
720.2837, 7.496948
720.7658, 5.517639
721.2479, 4.612610
721.7300, 4.227295
722.2122, 3.765320
722.6943, 3.266602
723.1764, 3.013489
723.6585, 3.139221
724.1406, 3.566650
724.6227, 4.248657
725.1049, 5.247192
725.5870, 5.857117
726.0691, 6.019958
726.5512, 5.878296
727.0333, 5.292053
727.5154, 4.544983
727.9976, 3.740601
728.4797, 3.004333
728.9618, 2.763367
729.4439, 3.429932
729.9260, 4.343628
730.4081, 4.955933
730.8903, 5.340393
731.3724, 5.671509
731.8545, 6.013916
732.3366, 6.478577
732.8187, 7.306824
733.3008, 8.389893
733.7830, 8.274475
734.2651, 6.123413
734.7472, 4.562744
735.2293, 4.603394
735.7114, 5.168152
736.1935, 5.556641
736.6757, 5.709534
737.1578, 5.636414
737.6399, 5.171875
738.1220, 4.708435
738.6041, 4.693237
739.0862, 4.775269
739.5684, 4.192749
740.0505, 2.976257
740.5326, 2.063782
741.0147, 2.162903
741.4968, 2.964783
741.9789, 3.584717
742.4611, 4.040955
742.9432, 4.232239
743.4253, 4.115051
743.9074, 3.766174
744.3895, 3.010132
744.8716, 2.112854
745.3538, 1.614075
745.8359, 1.737183
746.3180, 1.813538
746.8001, 1.157715
747.2822, 0.5902710
747.7643, 1.251831
748.2465, 2.796875
748.7286, 3.987732
749.2107, 4.258911
749.6928, 3.983887
750.1749, 3.683105
750.6570, 3.358398
751.1392, 2.849487
751.6213, 1.818359
752.1034, 1.384338
752.5855, 2.385864
753.0676, 3.950134
753.5497, 5.168640
754.0319, 6.044617
754.5140, 6.143066
754.9961, 4.514526
755.4782, 2.982910
755.9603, 2.859802
756.4424, 3.416687
756.9246, 3.352417
757.4067, 2.495239
757.8888, 1.914612
758.3709, 2.676392
758.8530, 4.209290
759.3351, 4.324707
759.8173, 2.764404
760.2994, 2.144714
760.7815, 3.492126
761.2636, 5.098389
761.7457, 5.670105
762.2278, 5.244934
762.7100, 4.329102
763.1921, 2.295044
763.6742, 0.7677000
764.1563, 0.6216430
764.6384, 0.7244870
765.1205, 2.5020000E-03
765.6027, 1.264221
766.0848, 2.074158
766.5669, 1.985535
767.0490, 1.349365
767.5311, 0.3411870
768.0132, 0.8806760
768.4954, 1.333679
768.9775, 0.8819580
769.4596, 0.2034910
769.9417, 0.6100460
770.4238, 1.133423
770.9059, 0.4585570
771.3881, 1.940796
771.8702, 3.391174
772.3523, 3.377441
772.8344, 3.070557
773.3165, 2.782837
773.7986, 2.457397
774.2808, 1.860291
774.7629, 1.044983
775.2450, 0.5068970
775.7271, 0.8189700
776.2092, 1.508240
776.6913, 2.012390
777.1735, 2.325867
777.6556, 2.427124
778.1377, 2.307007
778.6198, 2.018188
779.1019, 1.513245
779.5840, 0.9378660
780.0662, 1.133118
780.5483, 3.099426
781.0304, 3.919006
781.5125, 2.015747
781.9946, 0.3699950
782.4767, 0.9088750
782.9589, 2.621277
783.4410, 3.444824
783.9231, 2.731628
784.4052, 1.879089
784.8873, 1.835083
785.3694, 2.039124
785.8516, 1.747620
786.3337, 1.075012
786.8158, 0.4935300
787.2979, 0.2006230
787.7800, 0.3131710
788.2621, 1.131714
788.7443, 2.611267
789.2264, 3.253723
789.7085, 2.685242
790.1906, 2.332764
790.6727, 2.755920
791.1548, 3.413086
791.6370, 3.893066
792.1191, 4.175049
792.6012, 4.031067
793.0833, 2.506226
793.5654, 1.695251
794.0475, 3.019714
794.5297, 4.998169
795.0118, 6.352173
795.4939, 6.883545
795.9760, 6.619263
796.4581, 5.481323
796.9402, 4.166931
797.4224, 3.753662
797.9045, 4.122925
798.3866, 4.707336
798.8687, 5.552856
799.3508, 5.739075
799.8329, 4.545349
800.3151, 2.802063
800.7972, 2.071228
801.2793, 2.603455
801.7614, 3.159180
802.2435, 3.976013
802.7256, 4.526367
803.2078, 4.574158
803.6899, 4.347229
804.1720, 4.051819
804.6541, 3.725098
805.1362, 3.328674
805.6183, 2.719666
806.1005, 2.207764
806.5826, 2.067139
807.0647, 2.279480
807.5468, 2.955872
808.0289, 4.049377
808.5110, 5.053101
808.9932, 5.639404
809.4753, 5.784180
809.9574, 5.246277
810.4395, 3.672058
810.9216, 3.144165
811.4037, 4.684143
811.8859, 5.721863
812.3680, 3.812012
812.8501, 1.172607
813.3322, 1.283875
813.8143, 4.717407
814.2964, 7.794312
814.7786, 10.14178
815.2607, 11.40167
815.7428, 10.84619
816.2249, 9.322815
816.7070, 7.745239
817.1891, 6.435181
817.6713, 5.692383
818.1534, 5.916565
818.6355, 6.622437
819.1176, 6.858337
819.5997, 6.671448
820.0818, 6.456482
820.5640, 6.272888
821.0461, 6.146423
821.5282, 6.199402
822.0103, 6.210266
822.4924, 5.422607
822.9745, 2.910278
823.4567, 1.561096
823.9388, 2.231079
824.4209, 3.185242
824.9030, 4.132568
825.3851, 4.914001
825.8672, 5.242310
826.3494, 5.076721
826.8315, 4.780029
827.3136, 4.489319
827.7957, 4.133423
828.2778, 3.718018
828.7599, 3.304565
829.2421, 2.577942
829.7242, 1.634155
830.2063, 1.589050
830.6884, 3.520935
831.1705, 6.296082
831.6526, 6.873413
832.1348, 5.205933
832.6169, 3.884583
833.0990, 3.013733
833.5811, 2.855347
834.0632, 4.020996
834.5453, 5.770752
835.0275, 6.405823
835.5096, 5.364624
835.9917, 4.823730
836.4738, 5.490356
836.9559, 5.831787
837.4380, 4.657349
837.9202, 3.238953
838.4023, 3.229919
838.8844, 4.650024
839.3665, 6.082458
839.8486, 6.661926
840.3307, 6.513733
840.8129, 5.542969
841.2950, 4.290527
841.7771, 3.736023
842.2592, 3.993225
842.7413, 4.873291
843.2234, 6.373840
843.7056, 7.717896
844.1877, 6.841125
844.6698, 3.423523
845.1519, 1.859680
845.6340, 2.861328
846.1161, 4.084900
846.5983, 4.680969
847.0804, 4.941772
847.5625, 5.181396
848.0446, 5.310364
848.5267, 4.828735
849.0089, 2.688049
849.4910, 1.257080
849.9731, 1.664490
850.4552, 2.700134
850.9373, 3.374817
851.4194, 3.648987
851.9016, 3.865051
852.3837, 4.129272
852.8658, 4.504272
853.3479, 5.377502
853.8300, 6.251099
854.3121, 6.135437
854.7943, 5.117981
855.2764, 3.774963
855.7585, 2.353088
856.2406, 1.386047
856.7227, 1.715210
857.2048, 3.212769
857.6870, 4.221130
858.1691, 4.680847
858.6512, 4.755920
859.1333, 4.098999
859.6154, 3.722290
860.0975, 4.951477
860.5797, 7.314758
861.0618, 8.190369
861.5439, 6.497437
862.0260, 5.172791
862.5081, 4.762512
862.9902, 4.561584
863.4724, 3.792236
863.9545, 3.087036
864.4366, 3.913208
864.9187, 6.565613
865.4008, 8.507935
865.8829, 7.417480
866.3651, 5.263977
866.8472, 4.152649
867.3293, 3.824402
867.8114, 3.633240
868.2935, 3.400940
868.7756, 2.995911
869.2578, 2.251404
869.7399, 1.468262
870.2220, 1.627991
870.7041, 2.805603
871.1862, 3.031067
871.6683, 1.810181
872.1505, 0.8586430
872.6326, 1.135315
873.1147, 2.112915
873.5968, 2.999939
874.0789, 3.878235
874.5610, 4.180969
875.0432, 3.388062
875.5253, 2.733215
876.0074, 2.483826
876.4895, 2.504883
876.9716, 2.734253
877.4537, 3.112488
877.9359, 3.538269
878.4180, 4.138916
878.9001, 4.403503
879.3822, 3.620605
879.8643, 2.625977
880.3464, 2.514587
880.8286, 3.028320
881.3107, 3.177917
881.7928, 2.633667
882.2749, 2.037231
882.7570, 2.217224
883.2391, 2.833618
883.7213, 2.572815
884.2034, 1.524719
884.6855, 1.397339
885.1676, 2.719604
885.6497, 4.037292
886.1318, 4.163818
886.6140, 3.475647
887.0961, 3.331116
887.5782, 4.260315
888.0603, 4.160645
888.5424, 2.292114
889.0245, 0.4992070
889.5067, 0.7926030
889.9888, 1.438965
890.4709, 0.9517210
890.9530, 0.6805420
891.4351, 1.743042
891.9172, 1.456665
892.3994, 1.136597
892.8815, 1.495422
893.3636, 1.937561
893.8457, 1.683350
894.3278, 0.9787600
894.8099, 0.8883060
895.2921, 1.993652
895.7742, 2.707520
896.2563, 0.6301270
896.7384, 2.363525
897.2205, 2.670044
897.7026, 0.7991940
898.1848, 0.6339110
898.6669, 0.8264160
899.1490, 0.8306880
899.6311, 1.781738
900.1132, 3.226013
900.5953, 3.073853
901.0775, 1.097107
901.5596, 0.7461550
902.0417, 3.122620
902.5238, 4.993164
903.0059, 4.228027
903.4880, 1.916992
903.9702, 0.1542970
904.4523, 1.122742
904.9344, 1.461121
905.4165, 8.1542999E-02
905.8986, 1.473694
906.3807, 2.408630
906.8629, 2.902771
907.3450, 2.683655
907.8271, 2.004272
908.3092, 1.843445
908.7913, 2.820435
909.2734, 3.558899
909.7556, 3.304871
910.2377, 2.670898
910.7198, 2.018372
911.2019, 1.478882
911.6840, 1.233948
912.1661, 1.320068
912.6483, 1.508789
913.1304, 1.689392
913.6125, 1.784546
914.0946, 1.484924
914.5767, 1.005981
915.0588, 1.259094
915.5410, 2.253052
916.0231, 2.793884
916.5052, 2.143738
916.9873, 1.095276
917.4694, 1.354065
917.9515, 2.995911
918.4337, 3.733704
918.9158, 3.369080
919.3979, 2.932861
919.8800, 2.720825
920.3621, 2.687500
920.8442, 2.900024
921.3264, 3.290649
921.8085, 3.136230
922.2906, 1.766296
922.7727, 0.9514160
923.2548, 1.022949
923.7369, 1.366699
924.2191, 2.006348
924.7012, 2.603760
925.1833, 2.542603
925.6654, 1.721680
926.1475, 1.167664
926.6296, 1.578613
927.1118, 1.869507
927.5939, 1.097961
928.0760, 0.1942750
928.5581, 0.4301760
929.0402, 1.520203
929.5223, 2.037598
930.0045, 1.239197
930.4866, 0.5228880
930.9687, 1.536072
931.4508, 3.207520
931.9329, 4.033630
932.4150, 4.012024
932.8972, 3.128479
933.3793, 1.518188
933.8614, 0.2615970
934.3435, 0.3258060
934.8256, 1.349426
935.3077, 2.717712
935.7899, 4.361572
936.2720, 5.234802
936.7541, 5.201904
937.2362, 4.546936
937.7183, 3.237488
938.2004, 1.935303
938.6826, 1.742615
939.1647, 2.698120
939.6468, 2.897278
940.1289, 1.915283
940.6110, 1.221619
941.0931, 1.273438
941.5753, 1.451477
942.0574, 1.342773
942.5395, 1.030457
943.0216, 0.7266850
943.5037, 0.4168090
943.9858, 0.1543580
944.4680, 0.4102170
944.9501, 0.4887080
945.4322, 0.6566160
945.9143, 2.117126
946.3964, 3.189392
946.8785, 3.705994
947.3607, 3.310974
947.8428, 1.223083
948.3249, 0.2351070
948.8070, 0.7273560
949.2891, 2.371826
949.7712, 3.311279
950.2534, 3.607910
950.7355, 3.596008
951.2176, 3.393494
951.6997, 3.043884
952.1818, 2.428528
952.6639, 1.881470
953.1461, 1.942200
953.6282, 2.411194
954.1103, 2.857666
954.5924, 3.079407
955.0745, 3.319153
955.5566, 3.775757
956.0388, 4.105225
956.5209, 3.867249
957.0030, 3.120239
957.4851, 1.937805
957.9672, 0.3233030
958.4493, 0.5570070
958.9315, 0.4243770
959.4136, 0.3960570
959.8957, 1.909058
960.3778, 3.461182
960.8599, 3.090027
961.3420, 5.1514000E-02
961.8242, 0.9378050
962.3063, 1.104431
962.7884, 2.567566
963.2705, 2.083374
963.7526, 0.9729000
964.2347, 0.5921020
964.7169, 0.8398440
965.1990, 0.9807130
965.6811, 0.8363650
966.1632, 0.8583980
966.6453, 1.073792
967.1274, 1.434448
967.6096, 2.152100
968.0917, 2.867920
968.5738, 3.137512
969.0559, 2.940125
969.5380, 2.543884
970.0201, 1.757813
970.5023, 1.114929
970.9844, 1.027832
971.4665, 0.9759520
971.9486, 0.1826170
972.4307, 0.8629150
972.9128, 1.071167
973.3950, 0.1736450
973.8771, 0.7427370
974.3592, 1.056030
974.8413, 1.084473
975.3234, 0.9216920
975.8055, 0.7751460
976.2877, 0.8496700
976.7698, 1.220703
977.2519, 2.130005
977.7340, 3.717224
978.2161, 5.134644
978.6982, 5.166016
979.1804, 4.554138
979.6625, 4.618958
980.1446, 5.291504
980.6267, 6.211914
981.1088, 7.335388
981.5909, 9.115723
982.0731, 11.97662
982.5552, 15.01782
983.0373, 16.53821
983.5194, 16.70905
984.0015, 16.56616
984.4836, 16.16614
984.9658, 16.52747
985.4479, 17.99774
985.9300, 19.94739
986.4121, 21.78522
986.8942, 23.68829
987.3763, 26.14270
987.8585, 29.04712
988.3406, 33.13165
988.8227, 38.33533
989.3048, 45.07635
989.7869, 53.37518
990.2690, 63.39410
990.7512, 74.94958
991.2333, 88.24646
991.7154, 105.5883
992.1975, 128.5554
992.6796, 152.3639
993.1617, 178.7624
993.6439, 203.1635
994.1260, 224.2476
994.6081, 241.8094
995.0902, 255.2704
995.5723, 264.4880
996.0544, 272.1365
996.5366, 279.1135
997.0187, 283.5566
997.5008, 286.4968
997.9829, 285.4568
998.4650, 278.5331
998.9471, 266.7733
999.4293, 251.3350
999.9114, 232.1818
1000.393, 213.1712
1000.876, 194.0408
1001.358, 177.0365
1001.840, 162.3672
1002.322, 151.0262
1002.804, 145.1732
1003.286, 143.1338
1003.768, 141.4609
1004.250, 139.3458
1004.733, 135.5732
1005.215, 130.3025
1005.697, 122.2846
1006.179, 109.0288
1006.661, 93.51440
1007.143, 78.54974
1007.625, 65.03357
1008.107, 53.47070
1008.589, 44.14429
1009.072, 36.60266
1009.554, 31.05756
1010.036, 26.65759
1010.518, 22.44745
1011.000, 18.56891
1011.482, 15.05371
1011.964, 12.12036
1012.446, 10.74969
1012.929, 11.60938
1013.411, 12.78790
1013.893, 11.76855
1014.375, 9.526978
1014.857, 7.791321
1015.339, 6.625671
1015.821, 6.095459
1016.303, 6.122070
1016.785, 6.287048
1017.268, 6.298645
1017.750, 6.264221
1018.232, 6.595581
1018.714, 6.994324
1019.196, 6.554932
1019.678, 5.344238
1020.160, 4.689941
1020.642, 4.864929
1021.125, 5.152832
1021.607, 4.872498
1022.089, 4.215149
1022.571, 3.498840
1023.053, 2.773926
1023.535, 3.409973
1024.017, 5.533081
1024.499, 6.944763
1024.981, 6.962402
1025.464, 5.959778
1025.946, 4.022949
1026.428, 1.758667
1026.910, 1.597351
1027.392, 3.942505
1027.874, 4.143616
1028.356, 1.379639
1028.838, 0.2037350
1029.321, 1.053406
1029.803, 3.367004
1030.285, 5.186829
1030.767, 6.425354
1031.249, 6.564087
1031.731, 5.162415
1032.213, 4.103333
1032.695, 3.439331
1033.177, 3.240967
1033.660, 3.719055
1034.142, 4.246948
1034.624, 4.097229
1035.106, 4.463318
1035.588, 4.712158
1036.070, 4.447998
1036.552, 4.838928
1037.034, 4.300903
1037.516, 3.437500
1037.999, 2.025879
1038.481, 0.8795780
1038.963, 1.178955
1039.445, 2.649536
1039.927, 3.141235
1040.409, 1.956909
1040.891, 1.024963
1041.373, 0.2917480
1041.855, 9.8693997E-02
1042.338, 8.7096997E-02
1042.820, 0.3012700
1043.302, 1.381226
1043.784, 2.962524
1044.266, 3.577026
1044.748, 2.183533
1045.230, 1.512085
1045.712, 2.562317
1046.195, 3.328186
1046.677, 2.832458
1047.159, 1.786865
1047.641, 0.8153080
1048.123, 1.3611000E-02
1048.605, 0.5414430
1049.087, 0.7875370
1049.569, 0.6782230
1050.052, 0.3482670
1050.534, 1.078979
1051.016, 0.6814580
1051.498, 0.1104130
1051.980, 0.7798460
1052.462, 1.127808
1052.944, 0.4280400
1053.426, 1.938110
1053.908, 4.246399
1054.391, 6.790100
1054.873, 8.416687
1055.355, 8.074768
1055.837, 6.753479
1056.319, 5.230103
1056.801, 3.742004
1057.283, 2.785522
1057.765, 2.471924
1058.248, 2.727234
1058.730, 4.544312
1059.212, 5.781250
1059.694, 4.526001
1060.176, 2.534180
1060.658, 1.956848
1061.140, 2.648071
1061.622, 2.992798
1062.104, 2.406555
1062.587, 1.910828
1063.069, 1.762390
1063.551, 1.934509
1064.033, 2.633301
1064.515, 3.488953
1064.997, 4.135559
1065.479, 4.543274
1065.961, 4.841248
1066.443, 5.144836
1066.926, 5.040894
1067.408, 3.756714
1067.890, 2.701233
1068.372, 2.800110
1068.854, 3.516724
1069.336, 4.496094
1069.818, 5.473755
1070.300, 5.905884
1070.782, 5.554932
1071.265, 5.057739
1071.747, 4.700928
1072.229, 4.271057
1072.711, 3.286499
1073.193, 2.428955
1073.675, 2.999084
1074.157, 4.304810
1074.639, 4.011108
1075.122, 1.173218
1075.604, 0.9270630
1076.086, 8.0261000E-02
1076.568, 1.095520
1077.050, 1.207092
1077.532, 0.7648930
1078.014, 8.5326999E-02
1078.496, 0.9031980
1078.979, 0.6046750
1079.461, 1.167725
1079.943, 2.410950
1080.425, 1.716370
1080.907, 0.8467410
1081.389, 0.8765870
1081.871, 1.101196
1082.353, 0.7051390
1082.835, 1.2390000E-02
1083.318, 0.2746580
1083.800, 9.0576001E-02
1084.282, 0.5361330
1084.764, 0.8458860
1085.246, 1.165283
1085.728, 1.885071
1086.210, 2.342285
1086.692, 1.538757
1087.175, 0.2437740
1087.657, 7.7514999E-02
1088.139, 0.7554320
1088.621, 1.282959
1089.103, 0.6909180
1089.585, 2.8080000E-03
1090.067, 0.6491700
1090.549, 0.9311520
1091.031, 0.3969730
1091.514, 0.5755000
1091.996, 1.306030
1092.478, 1.792480
1092.960, 2.835327
1093.442, 5.241089
1093.924, 7.224304
1094.406, 8.452148
1094.888, 8.701111
1095.370, 7.144226
1095.853, 4.974731
1096.335, 3.627380
1096.817, 3.148621
1097.299, 2.819519
1097.781, 2.428284
1098.263, 2.234741
1098.745, 2.587097
1099.227, 2.850830
1099.709, 2.042725
1100.192, 1.475464
1100.674, 3.235352
1101.156, 6.457214
1101.638, 7.810791
1102.120, 5.969360
1102.602, 4.902405
1103.084, 6.624268
1103.566, 7.974243
1104.049, 7.281860
1104.531, 5.892639
1105.013, 4.964417
1105.495, 4.493652
1105.977, 4.350403
1106.459, 4.582275
1106.941, 4.489441
1107.423, 3.348083
1107.906, 2.805969
1108.388, 4.355652
1108.870, 5.457886
1109.352, 3.538940
1109.834, 0.4006350
1110.316, 0.4110720
1110.798, 1.504944
1111.280, 2.350464
1111.762, 0.3692020
1112.245, 0.5774540
1112.727, 1.009338
1113.209, 2.554688
1113.691, 2.462463
1114.173, 1.858276
1114.655, 2.531860
1115.137, 2.028503
1115.619, 1.362488
1116.102, 1.755066
1116.584, 5.6823999E-02
1117.066, 1.1780000E-02
1117.548, 0.2489010
1118.030, 9.3627997E-02
1118.512, 0.2602540
1118.994, 1.729614
1119.476, 4.048889
1119.958, 5.332214
1120.441, 5.064819
1120.923, 5.429932
1121.405, 6.766235
1121.887, 7.969482
1122.369, 8.560547
1122.851, 9.333252
1123.333, 11.00415
1123.815, 12.05878
1124.297, 14.63330
1124.780, 15.41541
1125.262, 16.98395
1125.744, 19.50372
1126.226, 22.28790
1126.708, 25.43591
1127.190, 28.08734
1127.672, 29.68536
1128.154, 30.76727
1128.636, 32.26416
1129.119, 32.18793
1129.601, 31.85834
1130.083, 31.44800
1130.565, 29.58661
1131.047, 28.52588
1131.529, 26.82257
1132.011, 23.83539
1132.493, 20.45209
1132.976, 17.43909
1133.458, 14.92731
1133.940, 13.86621
1134.422, 14.06354
1134.904, 13.50220
1135.386, 12.14081
1135.868, 11.01056
1136.350, 10.35333
1136.833, 9.966431
1137.315, 9.753845
1137.797, 9.196655
1138.279, 6.867554
1138.761, 3.649170
1139.243, 2.883850
1139.725, 4.079163
1140.207, 5.431274
1140.689, 6.428650
1141.172, 5.984863
1141.654, 3.652649
1142.136, 1.510864
1142.618, 2.163818
1143.100, 4.019470
1143.582, 4.332642
1144.064, 3.822083
1144.546, 4.007202
1145.029, 4.798889
1145.511, 5.555359
1145.993, 6.024841
1146.475, 5.725708
1146.957, 3.765076
1147.439, 2.352966
1147.921, 4.969116
1148.403, 8.241882
1148.885, 7.686157
1149.368, 4.963989
1149.850, 3.069885
1150.332, 2.483398
1150.814, 2.481873
1151.296, 2.891418
1151.778, 3.225281
1152.260, 3.204224
1152.742, 2.998169
1153.224, 2.518738
1153.707, 2.073792
1154.189, 2.107971
1154.671, 2.406311
1155.153, 2.357483
1155.635, 1.830200
1156.117, 1.590820
1156.599, 2.178345
1157.081, 2.666016
1157.563, 2.633911
1158.046, 2.561096
1158.528, 2.943237
1159.010, 3.340027
1159.492, 3.180542
1159.974, 2.463074
1160.456, 1.405579
1160.938, 1.033081
1161.420, 1.746704
1161.903, 1.036621
1162.385, 3.191711
1162.867, 3.260315
1163.349, 2.693848
1163.831, 2.496460
1164.313, 2.559265
1164.795, 2.636414
1165.277, 2.771301
1165.760, 2.823975
1166.242, 2.799927
1166.724, 2.550415
1167.206, 1.891296
1167.688, 1.530579
1168.170, 1.823059
1168.652, 2.672668
1169.134, 4.058044
1169.616, 5.676270
1170.099, 5.917297
1170.581, 4.819275
1171.063, 3.909180
1171.545, 3.275513
1172.027, 3.327271
1172.509, 4.208679
1172.991, 4.791992
1173.473, 4.142700
1173.956, 3.224915
1174.438, 3.966064
1174.920, 5.531982
1175.402, 5.452576
1175.884, 4.189514
1176.366, 3.453064
1176.848, 3.409485
1177.330, 3.281494
1177.813, 2.742554
1178.295, 2.218933
1178.777, 1.870239
1179.259, 2.074036
1179.741, 4.284058
1180.223, 6.636597
1180.705, 5.700134
1181.187, 2.976013
1181.669, 2.142883
1182.151, 3.589661
1182.634, 4.904541
1183.116, 5.071106
1183.598, 4.653931
1184.080, 3.498474
1184.562, 2.484253
1185.044, 1.855713
1185.526, 1.746521
1186.008, 2.886719
1186.490, 4.637390
1186.973, 5.507629
1187.455, 5.210510
1187.937, 4.822510
1188.419, 4.383606
1188.901, 4.138916
1189.383, 4.214478
1189.865, 4.407349
1190.347, 4.781616
1190.830, 5.091980
1191.312, 4.956238
1191.794, 5.222839
1192.276, 4.528320
1192.758, 5.328186
1193.240, 5.777039
1193.722, 5.845337
1194.204, 5.139771
1194.687, 3.210022
1195.169, 1.918884
1195.651, 2.601135
1196.133, 4.127563
1196.615, 4.744934
1197.097, 4.572083
1197.579, 4.254578
1198.061, 3.728516
1198.543, 3.214050
1199.026, 2.736328
1199.508, 2.125488
1199.990, 1.360535
1200.472, 1.139709
1200.954, 2.126343
1201.436, 3.408936
1201.918, 3.657227
1202.400, 3.188721
1202.883, 2.253357
1203.365, 1.263916
1203.847, 1.122742
1204.329, 1.831299
1204.811, 3.106506
1205.293, 4.792480
1205.775, 5.825500
1206.257, 4.971252
1206.740, 3.893799
1207.222, 4.155029
1207.704, 4.401367
1208.186, 2.730652
1208.668, 0.6251220
1209.150, 0.6246340
1209.632, 2.510010
1210.114, 3.843872
1210.596, 4.039795
1211.078, 3.828064
1211.561, 3.096680
1212.043, 2.327087
1212.525, 1.275330
1213.007, 0.6505740
1213.489, 1.109863
1213.971, 2.100891
1214.453, 2.832886
1214.935, 3.303955
1215.417, 3.512634
1215.900, 3.369812
1216.382, 3.306824
1216.864, 3.390259
1217.346, 3.378723
1217.828, 3.180603
1218.310, 2.881958
1218.792, 2.496826
1219.274, 1.977905
1219.757, 1.211304
1220.239, 0.3031620
1220.721, 0.4417110
1221.203, 1.316772
1221.685, 1.172241
1222.167, 3.6254998E-02
1222.649, 0.6939700
1223.131, 0.5330200
1223.614, 6.1646000E-02
1224.096, 0.8689580
1224.578, 1.581787
1225.060, 1.683472
1225.542, 1.726440
1226.024, 2.682983
1226.506, 3.825745
1226.988, 3.784973
1227.470, 2.870850
1227.953, 2.610657
1228.435, 3.521851
1228.917, 3.717712
1229.399, 1.618774
1229.881, 4.9011000E-02
1230.363, 2.5818000E-02
1230.845, 0.2442020
1231.327, 0.5255740
1231.810, 1.194763
1232.292, 0.1962890
1232.774, 2.886414
1233.256, 3.725037
1233.738, 2.152832
1234.220, 1.079956
1234.702, 0.4682620
1235.184, 0.5849000
1235.667, 1.674683
1236.149, 2.843506
1236.631, 3.751099
1237.113, 3.891968
1237.595, 2.390747
1238.077, 0.1303100
1238.559, 4.4495001E-02
1239.041, 1.604614
1239.523, 2.064697
1240.005, 1.500916
1240.488, 0.9114990
1240.970, 0.5278930
1241.452, 1.8066000E-02
1241.934, 0.7974240
1242.416, 0.7753300
1242.898, 2.490601
1243.380, 5.530945
1243.862, 3.959595
1244.344, 1.042480
1244.827, 0.1746220
1245.309, 0.8754270
1245.791, 2.111694
1246.273, 3.514099
1246.755, 4.549377
1247.237, 5.240967
1247.719, 4.960632
1248.201, 2.158813
1248.684, 0.3607180
1249.166, 1.868408
1249.648, 3.154358
1250.130, 1.621338
1250.612, 0.5501710
1251.094, 0.2160030
1251.576, 2.124573
1252.058, 3.119995
1252.541, 2.502686
1253.023, 2.673645
1253.505, 3.873596
1253.987, 3.667969
1254.469, 1.306091
1254.951, 0.2205200
1255.433, 0.5452880
1255.915, 2.139587
1256.397, 2.985352
1256.880, 3.203125
1257.362, 2.660522
1257.844, 1.836792
1258.326, 1.833923
1258.808, 2.257690
1259.290, 3.300842
1259.772, 4.415710
1260.254, 4.695374
1260.737, 3.721313
1261.219, 2.924866
1261.701, 3.353455
1262.183, 3.558411
1262.665, 2.424866
1263.147, 1.546997
1263.629, 2.458862
1264.111, 3.864075
1264.594, 5.097839
1265.076, 5.714172
1265.558, 5.757446
1266.040, 5.114441
1266.522, 4.833801
1267.004, 4.776978
1267.486, 5.643555
1267.968, 8.088989
1268.450, 9.131531
1268.932, 8.104126
1269.415, 6.149597
1269.897, 4.899048
1270.379, 3.930115
1270.861, 3.132629
1271.343, 2.501282
1271.825, 2.042908
1272.307, 1.800842
1272.789, 2.035522
1273.271, 2.522827
1273.754, 2.304871
1274.236, 1.058044
1274.718, 0.3111570
1275.200, 1.843445
1275.682, 3.223938
1276.164, 2.585571
1276.646, 1.803528
1277.128, 2.411011
1277.611, 3.507996
1278.093, 4.071533
1278.575, 4.164612
1279.057, 4.228699
1279.539, 4.416443
1280.021, 3.843750
1280.503, 1.948364
1280.985, 0.5715330
1281.468, 0.1530150
1281.950, 0.1452640
1282.432, 1.787720
1282.914, 3.297913
1283.396, 3.292114
1283.878, 1.606812
1284.360, 1.618286
1284.842, 1.689819
1285.324, 0.0000000E+00
##END=



