##NAMES=Schafarzikite
##RRUFFID=R120039
##IDEAL CHEMISTRY=Fe^2+^Sb^3+^_2_O_4_
##LOCALITY=Pernek, Slovakia
##OWNER=RRUFF
##SOURCE=Bob Jenkins
##DESCRIPTION=Dark red elongated prismatic crystals with good cleavage, associated with white prismatic valentinite crystals.
##STATUS=The identification of this mineral has been confirmed only by single crystal X-ray diffraction.
##URL=rruff.info/R120039
192.7009, 0.0000000E+00
193.1830, 0.1326870
193.6652, 0.5921310
194.1473, 1.023558
194.6294, 0.7826350
195.1115, 0.1221030
195.5936, 0.1206210
196.0757, 0.1933460
196.5579, 0.7659090
197.0400, 1.020090
197.5221, 0.9299010
198.0042, 0.7908780
198.4863, 0.7362880
198.9684, 0.7646220
199.4506, 0.9245620
199.9327, 1.273558
200.4148, 1.682074
200.8969, 1.846727
201.3790, 1.739174
201.8611, 1.555208
202.3433, 1.351450
202.8254, 1.109171
203.3075, 1.097582
203.7896, 1.430971
204.2717, 1.921978
204.7538, 2.019505
205.2360, 1.605274
205.7181, 1.233036
206.2002, 1.286860
206.6823, 1.849102
207.1644, 2.271671
207.6465, 2.436821
208.1287, 2.464663
208.6108, 2.762722
209.0929, 3.429094
209.5750, 4.094868
210.0571, 4.528210
210.5392, 4.700714
211.0214, 4.770000
211.5035, 4.667099
211.9856, 4.496353
212.4677, 4.643730
212.9498, 5.195469
213.4319, 5.873812
213.9140, 6.576010
214.3962, 7.389650
214.8783, 7.904627
215.3604, 8.002811
215.8425, 7.788277
216.3246, 7.659245
216.8067, 7.614599
217.2889, 7.653011
217.7710, 7.817665
218.2531, 8.220434
218.7352, 8.405666
219.2173, 8.276882
219.6994, 7.900318
220.1816, 7.579817
220.6637, 7.275835
221.1458, 7.091040
221.6279, 7.153915
222.1100, 7.675240
222.5921, 7.861633
223.0743, 7.505157
223.5564, 6.759766
224.0385, 6.373953
224.5206, 6.588814
225.0027, 6.797295
225.4848, 6.584812
225.9670, 5.701599
226.4491, 5.015963
226.9312, 4.653156
227.4133, 4.543617
227.8954, 4.317726
228.3775, 3.878901
228.8597, 3.471607
229.3418, 3.264380
229.8239, 3.362778
230.3060, 3.420494
230.7881, 3.435072
231.2702, 3.391541
231.7524, 3.189255
232.2345, 2.679861
232.7166, 2.223461
233.1987, 2.075539
233.6808, 2.479042
234.1629, 2.636333
234.6451, 2.370874
235.1272, 1.811651
235.6093, 1.547335
236.0914, 1.775692
236.5735, 2.027761
237.0556, 2.017921
237.5378, 1.549826
238.0199, 1.254829
238.5020, 1.221819
238.9841, 1.388088
239.4662, 1.502205
239.9483, 1.548067
240.4305, 1.564913
240.9126, 1.585155
241.3947, 1.667587
241.8768, 1.610077
242.3589, 1.290743
242.8410, 0.8322540
243.3232, 0.7154670
243.8053, 1.259716
244.2874, 1.706032
244.7695, 1.603958
245.2516, 0.5232370
245.7337, 0.1333140
246.2159, 0.1868920
246.6980, 0.1925330
247.1801, 0.4756110
247.6622, 0.6692450
248.1443, 0.7597830
248.6264, 0.7064740
249.1086, 0.3659650
249.5907, 0.2333220
250.0728, 0.3939130
250.5549, 0.7266980
251.0370, 0.9884510
251.5191, 1.192745
252.0013, 1.304552
252.4834, 1.295420
252.9655, 1.106302
253.4476, 0.9413450
253.9297, 0.7801190
254.4118, 0.6605970
254.8940, 0.6914140
255.3761, 0.9538150
255.8582, 1.223183
256.3403, 1.400381
256.8224, 1.450989
257.3046, 1.522907
257.7867, 1.631500
258.2688, 1.749992
258.7509, 1.829275
259.2330, 1.871223
259.7151, 1.868219
260.1973, 1.813572
260.6794, 1.703655
261.1615, 1.544922
261.6436, 1.268822
262.1257, 1.004953
262.6078, 1.000589
263.0900, 1.354826
263.5721, 1.734783
264.0542, 2.032721
264.5363, 2.246586
265.0184, 2.424198
265.5005, 2.571415
265.9827, 2.668793
266.4648, 2.644829
266.9469, 2.415216
267.4290, 2.316502
267.9111, 2.511663
268.3932, 3.029390
268.8754, 3.321678
269.3575, 3.300291
269.8396, 3.188036
270.3217, 3.275074
270.8038, 3.604355
271.2859, 3.959946
271.7681, 4.274076
272.2502, 4.548258
272.7323, 4.905651
273.2144, 5.383108
273.6965, 5.872898
274.1786, 6.268892
274.6608, 6.574474
275.1429, 6.745884
275.6250, 6.693775
276.1071, 6.477043
276.5892, 6.631016
277.0714, 7.254847
277.5535, 7.981440
278.0356, 8.485901
278.5177, 8.760834
278.9998, 8.881620
279.4819, 8.760817
279.9641, 8.497616
280.4462, 8.577148
280.9283, 9.057217
281.4104, 9.637793
281.8925, 10.10865
282.3746, 10.47362
282.8568, 10.74175
283.3389, 10.87141
283.8210, 10.94064
284.3031, 11.18566
284.7852, 11.63873
285.2673, 12.14761
285.7495, 12.60785
286.2316, 13.01809
286.7137, 13.41356
287.1958, 13.78856
287.6779, 14.20498
288.1600, 14.86847
288.6422, 15.78488
289.1243, 16.59938
289.6064, 16.95191
290.0885, 16.95554
290.5706, 17.22704
291.0527, 17.89073
291.5349, 18.67257
292.0170, 19.16528
292.4991, 19.38492
292.9812, 19.47229
293.4633, 19.44675
293.9454, 19.34341
294.4276, 19.30932
294.9097, 19.38210
295.3918, 19.38802
295.8739, 19.06563
296.3560, 18.46473
296.8381, 17.80640
297.3203, 17.20128
297.8024, 16.63412
298.2845, 16.09591
298.7666, 15.59342
299.2487, 15.02632
299.7308, 14.20694
300.2130, 13.21889
300.6951, 12.31558
301.1772, 11.60230
301.6593, 11.03040
302.1414, 10.58472
302.6235, 10.27568
303.1057, 9.905176
303.5878, 9.215656
304.0699, 8.376358
304.5520, 7.705656
305.0341, 7.408899
305.5162, 7.227667
305.9984, 6.893509
306.4805, 6.425486
306.9626, 5.927000
307.4447, 5.467743
307.9268, 5.024427
308.4089, 4.562590
308.8911, 4.024912
309.3732, 3.546757
309.8553, 3.322805
310.3374, 3.286200
310.8195, 3.195200
311.3016, 2.793386
311.7838, 2.351711
312.2659, 2.162867
312.7480, 2.342304
313.2301, 2.491968
313.7122, 2.290102
314.1943, 1.911057
314.6765, 1.657793
315.1586, 1.875093
315.6407, 2.109661
316.1228, 2.021530
316.6049, 1.482298
317.0870, 1.041025
317.5692, 1.011566
318.0513, 1.202648
318.5334, 1.358171
319.0155, 1.438921
319.4976, 1.442472
319.9797, 1.366938
320.4619, 1.213051
320.9440, 0.9876860
321.4261, 0.5274870
321.9082, 8.7380998E-02
322.3903, 9.0663999E-02
322.8724, 0.3498420
323.3546, 0.7496220
323.8367, 0.9472480
324.3188, 0.9440730
324.8009, 0.8601110
325.2830, 0.5529230
325.7651, 0.2583240
326.2473, 0.1307130
326.7294, 0.4413280
327.2115, 0.6411300
327.6936, 0.6373460
328.1757, 0.4674970
328.6578, 0.3174880
329.1400, 0.2014920
329.6221, 9.6848004E-02
330.1042, 1.0113000E-02
330.5863, 0.1605280
331.0684, 0.2434880
331.5505, 0.2194820
332.0327, 0.1354050
332.5148, 0.1033900
332.9969, 0.2230800
333.4790, 0.2594010
333.9611, 8.3765000E-02
334.4432, 0.4223270
334.9254, 0.6424830
335.4075, 0.4407480
335.8896, 6.4699002E-02
336.3717, 0.1428850
336.8538, 0.1224480
337.3359, 7.3059000E-02
337.8180, 4.7251001E-02
338.3001, 4.4190999E-02
338.7823, 3.7140001E-03
339.2644, 9.2212997E-02
339.7465, 0.1908930
340.2286, 0.2551480
340.7107, 0.2935870
341.1928, 0.2344970
341.6750, 1.7859001E-02
342.1571, 0.2910710
342.6392, 0.4220280
343.1213, 0.3618660
343.6034, 0.2013470
344.0855, 6.2853001E-02
344.5677, 0.4192940
345.0498, 0.6052930
345.5319, 0.5548380
346.0140, 0.3752840
346.4961, 0.2616390
346.9782, 0.2121090
347.4604, 0.1711270
347.9425, 7.2058000E-02
348.4246, 4.9274001E-02
348.9067, 2.5250999E-02
349.3888, 0.1787780
349.8709, 0.3993280
350.3531, 0.4139460
350.8352, 0.2689570
351.3173, 0.1369930
351.7994, 0.1084630
352.2815, 0.1326830
352.7636, 9.2211001E-02
353.2458, 1.2976000E-02
353.7279, 4.4233002E-02
354.2100, 0.2217520
354.6921, 0.6259730
355.1742, 0.8857650
355.6563, 0.8351480
356.1385, 0.6916790
356.6206, 0.6666300
357.1027, 0.7357560
357.5848, 0.7798210
358.0669, 0.7405830
358.5490, 0.6364500
359.0312, 0.4564080
359.5133, 0.1186580
359.9954, 0.1151010
360.4775, 2.2879001E-02
360.9596, 0.2834320
361.4417, 0.5639760
361.9239, 0.8039840
362.4060, 0.9317040
362.8881, 0.8528880
363.3702, 0.5025250
363.8523, 0.2491320
364.3344, 0.3323230
364.8166, 0.5337810
365.2987, 0.6048050
365.7808, 0.2326320
366.2629, 2.2100000E-02
366.7450, 0.1032940
367.2271, 0.6070210
367.7093, 0.8689750
368.1914, 0.6955300
368.6735, 0.3348940
369.1556, 5.9299000E-02
369.6377, 0.8239380
370.1198, 1.173399
370.6020, 0.8498190
371.0841, 5.7576999E-02
371.5662, 0.4699040
372.0483, 0.6636100
372.5304, 0.6691950
373.0125, 0.5037250
373.4947, 4.5843001E-02
373.9768, 0.2282660
374.4589, 0.2814710
374.9410, 0.1842920
375.4231, 1.2997000E-02
375.9052, 0.3059940
376.3874, 0.4903950
376.8695, 0.3927750
377.3516, 2.3409000E-02
377.8337, 0.1043570
378.3158, 7.0041999E-02
378.7979, 0.3122480
379.2801, 0.3809950
379.7622, 0.2687550
380.2443, 0.1621360
380.7264, 0.1078570
381.2085, 8.3157003E-02
381.6906, 1.7096000E-02
382.1728, 9.2212997E-02
382.6549, 0.1557040
383.1370, 9.1587000E-02
383.6191, 7.3458001E-02
384.1012, 0.2486650
384.5833, 0.4397300
385.0655, 0.5916920
385.5476, 0.5890920
386.0297, 0.4727570
386.5118, 0.3922900
386.9939, 0.4431250
387.4760, 0.5628410
387.9582, 0.6910270
388.4403, 0.8215920
388.9224, 0.8699910
389.4045, 0.6289310
389.8866, 0.3085250
390.3687, 0.2092300
390.8509, 0.6140170
391.3330, 1.059683
391.8151, 1.201078
392.2972, 1.100943
392.7793, 1.024294
393.2614, 1.164471
393.7436, 1.341190
394.2257, 1.409313
394.7078, 1.318514
395.1899, 1.228651
395.6720, 1.173721
396.1541, 1.155287
396.6363, 1.180651
397.1184, 1.389299
397.6005, 1.512369
398.0826, 1.371649
398.5647, 0.8998220
399.0468, 0.6874450
399.5290, 1.031567
400.0111, 1.501133
400.4932, 1.773243
400.9753, 1.693876
401.4574, 1.656227
401.9395, 1.710712
402.4217, 1.827423
402.9038, 1.938694
403.3859, 2.101244
403.8680, 2.175360
404.3501, 2.056807
404.8322, 1.646820
405.3144, 1.400791
405.7965, 1.354628
406.2786, 1.422302
406.7607, 1.510405
407.2428, 1.641365
407.7249, 1.697702
408.2071, 1.585506
408.6892, 1.354864
409.1713, 1.395685
409.6534, 1.759979
410.1355, 2.093727
410.6176, 2.005348
411.0998, 1.562984
411.5819, 1.177822
412.0640, 0.9169010
412.5461, 0.7903900
413.0282, 0.8973370
413.5103, 1.200356
413.9925, 1.479755
414.4746, 1.605448
414.9567, 1.628977
415.4388, 1.617367
415.9209, 1.572666
416.4030, 1.523022
416.8852, 1.496809
417.3673, 1.478092
417.8494, 1.433956
418.3315, 1.402264
418.8136, 1.342108
419.2957, 1.164335
419.7779, 0.8971820
420.2600, 0.7125820
420.7421, 0.7213460
421.2242, 0.8249660
421.7063, 0.9662130
422.1884, 1.205040
422.6706, 1.352846
423.1527, 1.217714
423.6348, 0.9777470
424.1169, 0.9582460
424.5990, 1.571365
425.0811, 2.090170
425.5633, 2.239756
426.0454, 1.949034
426.5275, 1.782244
427.0096, 1.732672
427.4917, 1.753231
427.9738, 1.892290
428.4560, 2.356556
428.9381, 2.650442
429.4202, 2.583473
429.9023, 2.273359
430.3844, 2.167677
430.8665, 2.315493
431.3487, 2.527014
431.8308, 2.646017
432.3129, 2.667191
432.7950, 3.072098
433.2771, 4.004967
433.7592, 4.957319
434.2414, 5.185068
434.7235, 4.746918
435.2056, 4.332680
435.6877, 4.116575
436.1698, 4.106050
436.6519, 4.334408
437.1341, 4.788923
437.6162, 5.268002
438.0983, 5.679405
438.5804, 6.006235
439.0625, 6.160347
439.5446, 6.045952
440.0268, 6.023682
440.5089, 6.567984
440.9910, 7.453827
441.4731, 8.199480
441.9552, 8.516413
442.4373, 8.670694
442.9195, 8.767445
443.4016, 8.818403
443.8837, 8.985836
444.3658, 9.398293
444.8479, 9.920738
445.3300, 10.44389
445.8122, 10.96091
446.2943, 11.46313
446.7764, 12.00412
447.2585, 12.53380
447.7406, 12.92300
448.2227, 12.92423
448.7049, 13.02407
449.1870, 13.41086
449.6691, 14.15637
450.1512, 14.73565
450.6333, 15.03483
451.1154, 15.27733
451.5976, 15.68195
452.0797, 16.28144
452.5618, 16.92659
453.0439, 17.61351
453.5260, 18.31990
454.0081, 19.07006
454.4903, 19.90101
454.9724, 20.54871
455.4545, 20.75675
455.9366, 20.60260
456.4187, 20.66320
456.9008, 20.97308
457.3830, 21.41119
457.8651, 21.88156
458.3472, 22.36685
458.8293, 22.79818
459.3114, 23.16514
459.7935, 23.45768
460.2757, 23.60916
460.7578, 23.65292
461.2399, 23.76229
461.7220, 24.20654
462.2041, 24.67867
462.6862, 24.86448
463.1684, 24.67952
463.6505, 24.39152
464.1326, 24.09625
464.6147, 23.79415
465.0968, 23.47983
465.5789, 23.21945
466.0611, 22.88900
466.5432, 22.41949
467.0253, 21.82508
467.5074, 21.24648
467.9895, 20.64791
468.4716, 20.11136
468.9538, 19.69963
469.4359, 19.55842
469.9180, 19.22025
470.4001, 18.55859
470.8822, 17.78247
471.3643, 17.24319
471.8465, 17.07989
472.3286, 16.72883
472.8107, 15.93938
473.2928, 14.83836
473.7749, 14.17403
474.2570, 14.02838
474.7392, 13.90766
475.2213, 13.38455
475.7034, 12.52807
476.1855, 11.81310
476.6676, 11.29962
477.1497, 10.90000
477.6319, 10.53523
478.1140, 10.19750
478.5961, 9.867006
479.0782, 9.541508
479.5603, 9.219303
480.0424, 8.929945
480.5246, 8.645641
481.0067, 8.275774
481.4888, 7.631916
481.9709, 6.957876
482.4530, 6.495226
482.9352, 6.376989
483.4173, 6.244520
483.8994, 5.917612
484.3815, 5.498220
484.8636, 5.145084
485.3457, 4.948576
485.8279, 4.770386
486.3100, 4.590117
486.7921, 4.406019
487.2742, 4.186460
487.7563, 3.874632
488.2384, 3.595306
488.7206, 3.431025
489.2027, 3.459198
489.6848, 3.317001
490.1669, 2.913660
490.6490, 2.442490
491.1311, 2.244162
491.6133, 2.376753
492.0954, 2.413481
492.5775, 2.153461
493.0596, 1.695477
493.5417, 1.506868
494.0238, 1.594244
494.5060, 1.651665
494.9881, 1.321199
495.4702, 0.7938000
495.9523, 0.5790750
496.4344, 0.7892700
496.9165, 1.091862
497.3987, 1.186983
497.8808, 1.137554
498.3629, 1.060024
498.8450, 1.007915
499.3271, 0.9403920
499.8092, 0.8117330
500.2914, 0.6344760
500.7735, 0.4894910
501.2556, 0.4107700
501.7377, 0.3681280
502.2198, 0.3394390
502.7019, 0.3040280
503.1841, 0.3298660
503.6662, 0.5301380
504.1483, 0.7522260
504.6304, 0.8143010
505.1125, 0.6228490
505.5946, 0.4201560
506.0768, 0.2196100
506.5589, 3.2299001E-02
507.0410, 0.1035290
507.5231, 0.2162590
508.0052, 0.1945300
508.4873, 0.1177690
508.9695, 0.7216450
509.4516, 1.022699
509.9337, 0.9770510
510.4158, 0.7800370
510.8979, 0.6160980
511.3800, 0.4820460
511.8622, 0.3750270
512.3443, 0.3096310
512.8264, 0.2490290
513.3085, 0.1132550
513.7906, 6.7032002E-02
514.2728, 0.1900120
514.7549, 0.2122800
515.2370, 0.1550580
515.7191, 1.6635999E-02
516.2012, 0.3206650
516.6833, 0.5416850
517.1655, 0.5115240
517.6476, 0.3766140
518.1297, 0.2663540
518.6118, 0.1864090
519.0939, 0.1640000
519.5760, 0.2670460
520.0582, 0.4295100
520.5403, 0.4884760
521.0224, 0.3013880
521.5045, 0.2293320
521.9866, 0.4248960
522.4688, 0.8809870
522.9509, 1.059843
523.4330, 0.8436660
523.9151, 0.6399940
524.3972, 0.8468700
524.8793, 1.472925
525.3615, 1.783747
525.8436, 1.662998
526.3257, 1.382395
526.8078, 1.324562
527.2899, 1.456911
527.7720, 1.579195
528.2542, 1.621975
528.7363, 1.603111
529.2184, 1.564468
529.7005, 1.518761
530.1826, 1.431618
530.6647, 1.126724
531.1469, 0.8173960
531.6290, 0.7623350
532.1111, 1.092131
532.5932, 1.306263
533.0753, 1.042803
533.5574, 0.5897390
534.0396, 0.2805810
534.5217, 0.2650240
535.0038, 0.2797070
535.4859, 0.3260770
535.9680, 0.3782270
536.4501, 0.3374710
536.9323, 9.5297001E-02
537.4144, 5.0825000E-02
537.8965, 6.7515999E-02
538.3786, 0.4896830
538.8607, 0.6454120
539.3428, 0.4462280
539.8250, 0.1690810
540.3071, 8.0491997E-02
540.7892, 0.1661320
541.2713, 0.2833420
541.7534, 0.4352050
542.2355, 0.5495150
542.7177, 0.5027660
543.1998, 0.3447570
543.6819, 0.1850890
544.1640, 8.6248003E-02
544.6461, 2.5249999E-03
545.1282, 0.1491790
545.6104, 0.3448030
546.0925, 0.4410610
546.5746, 0.3015900
547.0567, 8.1266001E-02
547.5388, 0.1498300
548.0209, 0.4267650
548.5031, 0.5778750
548.9852, 0.3915410
549.4673, 0.1340200
549.9494, 9.4384998E-02
550.4315, 0.4336700
550.9136, 0.7544570
551.3958, 1.075483
551.8779, 1.337553
552.3600, 1.303200
552.8421, 0.8592820
553.3242, 0.5175380
553.8063, 0.5516170
554.2885, 0.8997170
554.7706, 1.065273
555.2527, 1.038303
555.7348, 0.9358350
556.2169, 0.8219640
556.6990, 0.7133270
557.1812, 0.6479870
557.6633, 0.6309450
558.1454, 0.6628060
558.6275, 0.8110850
559.1096, 0.9988960
559.5917, 1.093727
560.0739, 0.9643380
560.5560, 0.8014620
561.0381, 0.6875780
561.5202, 0.6180500
562.0023, 0.5638960
562.4844, 0.5007000
562.9666, 0.4657330
563.4487, 0.4998720
563.9308, 0.6376760
564.4129, 0.6652220
564.8950, 0.5160180
565.3771, 0.3253650
565.8593, 0.1902070
566.3414, 9.8429002E-02
566.8235, 0.1455460
567.3056, 0.3931500
567.7877, 0.7047920
568.2698, 0.8324300
568.7520, 0.7843040
569.2341, 0.6750240
569.7162, 0.5201450
570.1983, 0.3505310
570.6804, 0.2041070
571.1625, 8.5625000E-02
571.6447, 2.0523001E-02
572.1268, 8.7709002E-02
572.6089, 0.1802750
573.0910, 0.1731010
573.5731, 3.6324002E-02
574.0552, 6.2838003E-02
574.5374, 1.9985000E-02
575.0195, 8.2905002E-02
575.5016, 0.1691110
575.9837, 0.2469770
576.4658, 0.2781180
576.9479, 0.2520070
577.4301, 0.1787400
577.9122, 6.7074001E-02
578.3943, 0.1352770
578.8764, 0.2721020
579.3585, 0.2810710
579.8406, 0.1844840
580.3228, 0.1519700
580.8049, 0.1975570
581.2870, 0.2171380
581.7691, 8.9413002E-02
582.2512, 0.1314600
582.7333, 0.1860160
583.2155, 4.0720001E-02
583.6975, 7.7455997E-02
584.1796, 0.1533320
584.6617, 0.5315150
585.1439, 0.7208230
585.6260, 0.5904620
586.1081, 0.3225710
586.5902, 0.1312870
587.0723, 0.6287190
587.5544, 0.8893450
588.0366, 0.5291540
588.5187, 0.2352390
589.0008, 0.3506890
589.4829, 0.8406700
589.9650, 0.9543840
590.4471, 0.4370670
590.9293, 0.1274280
591.4114, 0.4592060
591.8935, 0.5283010
592.3756, 0.5823080
592.8577, 0.6221310
593.3398, 0.6455540
593.8220, 0.6986850
594.3041, 0.7578280
594.7862, 0.5893460
595.2683, 6.4067997E-02
595.7504, 0.4714320
596.2325, 0.5375390
596.7147, 0.2743890
597.1968, 3.7101999E-02
597.6789, 1.9537000E-02
598.1610, 8.7510003E-03
598.6431, 0.1505200
599.1252, 0.3469370
599.6074, 0.3334600
600.0895, 0.1971610
600.5716, 0.7762180
601.0537, 1.213428
601.5358, 1.497953
602.0179, 1.557890
602.5001, 1.264736
602.9822, 0.8683590
603.4643, 0.5574420
603.9464, 0.3714810
604.4285, 0.1301960
604.9106, 0.2266040
605.3928, 0.5434800
605.8749, 0.5657350
606.3570, 0.3141800
606.8391, 1.8140000E-03
607.3212, 0.3829000
607.8033, 0.7069870
608.2855, 0.7189940
608.7676, 0.4905760
609.2497, 0.3137530
609.7318, 0.3950840
610.2139, 0.5585400
610.6960, 0.6603220
611.1782, 0.6948930
611.6603, 0.7690660
612.1424, 0.9984950
612.6245, 1.224012
613.1066, 1.344183
613.5887, 1.309399
614.0709, 1.262701
614.5530, 1.152205
615.0351, 1.077522
615.5172, 1.176994
615.9993, 1.517992
616.4814, 1.704700
616.9636, 1.604364
617.4457, 1.436300
617.9278, 1.728994
618.4099, 2.426796
618.8920, 2.952042
619.3741, 2.939199
619.8563, 2.714573
620.3384, 2.795874
620.8205, 3.117851
621.3026, 3.354183
621.7847, 3.194550
622.2668, 2.965014
622.7490, 2.883318
623.2311, 2.968817
623.7132, 3.193693
624.1953, 3.735695
624.6774, 4.294918
625.1595, 4.653057
625.6417, 4.639418
626.1238, 4.756172
626.6059, 5.087965
627.0880, 5.456038
627.5701, 5.570799
628.0522, 5.390654
628.5344, 5.362019
629.0165, 5.607021
629.4986, 6.008032
629.9807, 6.357912
630.4628, 6.668266
630.9449, 6.985214
631.4271, 7.322067
631.9092, 7.679216
632.3913, 8.099525
632.8734, 8.570124
633.3555, 8.976948
633.8376, 9.196438
634.3198, 9.387604
634.8019, 9.670563
635.2840, 10.09234
635.7661, 10.40565
636.2482, 10.41862
636.7303, 10.44677
637.2125, 10.71192
637.6946, 11.27576
638.1767, 11.94406
638.6588, 12.73400
639.1409, 13.57138
639.6230, 14.37131
640.1052, 15.13834
640.5873, 15.78569
641.0694, 16.23748
641.5515, 16.62818
642.0336, 17.13055
642.5157, 17.73476
642.9979, 18.45586
643.4800, 19.36924
643.9621, 20.33897
644.4442, 21.26225
644.9263, 22.12470
645.4084, 22.94362
645.8906, 23.69745
646.3727, 24.48738
646.8548, 25.30340
647.3369, 26.08949
647.8190, 27.12436
648.3011, 28.57246
648.7833, 30.10730
649.2654, 31.38955
649.7475, 32.39908
650.2296, 33.63029
650.7117, 35.13644
651.1938, 36.77621
651.6760, 38.41003
652.1581, 40.02763
652.6402, 41.51851
653.1223, 42.77097
653.6044, 44.03999
654.0865, 45.73672
654.5687, 47.69030
655.0508, 49.53424
655.5329, 50.95007
656.0150, 52.42067
656.4971, 54.16367
656.9792, 56.12170
657.4614, 58.03008
657.9435, 59.93574
658.4256, 61.72253
658.9077, 63.32336
659.3898, 64.74796
659.8719, 66.25249
660.3541, 67.85541
660.8362, 69.44394
661.3183, 71.01897
661.8004, 72.52448
662.2825, 73.79585
662.7646, 74.81073
663.2468, 75.71116
663.7289, 76.61951
664.2110, 77.52973
664.6931, 78.42221
665.1752, 79.31232
665.6573, 80.11277
666.1395, 80.83627
666.6216, 81.43952
667.1037, 81.86889
667.5858, 82.04668
668.0679, 82.14316
668.5500, 82.26099
669.0322, 82.26271
669.5143, 81.81959
669.9964, 80.87221
670.4785, 79.76573
670.9606, 78.61404
671.4427, 77.36105
671.9249, 75.77998
672.4070, 73.91090
672.8891, 72.12666
673.3712, 70.82577
673.8533, 69.63541
674.3354, 68.11363
674.8176, 66.27360
675.2997, 64.43110
675.7818, 62.78527
676.2639, 61.17827
676.7460, 59.53206
677.2281, 57.90266
677.7103, 56.07075
678.1924, 53.70697
678.6745, 51.47070
679.1566, 49.95067
679.6387, 49.40520
680.1208, 48.24387
680.6030, 46.22826
681.0851, 43.96490
681.5672, 42.12121
682.0493, 40.64804
682.5314, 39.27704
683.0135, 37.99281
683.4957, 36.70700
683.9778, 35.28803
684.4599, 33.81071
684.9420, 32.47001
685.4241, 31.38529
685.9063, 30.36761
686.3884, 29.32497
686.8705, 28.28579
687.3526, 27.33679
687.8347, 26.46856
688.3168, 25.69592
688.7990, 25.08068
689.2811, 24.58426
689.7632, 23.92124
690.2453, 23.07879
690.7274, 22.19137
691.2095, 21.29546
691.6917, 20.42627
692.1738, 19.67069
692.6559, 19.03913
693.1380, 18.49148
693.6201, 18.16995
694.1022, 17.81411
694.5844, 17.05830
695.0665, 15.77427
695.5486, 14.75893
696.0307, 14.50053
696.5128, 14.48304
696.9949, 14.30515
697.4771, 13.88316
697.9592, 13.42311
698.4413, 12.89210
698.9234, 12.38271
699.4055, 12.02303
699.8876, 11.81676
700.3698, 11.59497
700.8519, 11.36351
701.3340, 11.07283
701.8161, 10.60841
702.2982, 10.02914
702.7803, 9.469303
703.2625, 8.903015
703.7446, 8.460951
704.2267, 8.322224
704.7088, 8.347897
705.1909, 8.261707
705.6730, 7.877621
706.1552, 7.558596
706.6373, 7.443428
707.1194, 7.468594
707.6015, 7.311970
708.0836, 6.891020
708.5657, 6.560450
709.0479, 6.507042
709.5300, 6.620302
710.0121, 6.537767
710.4942, 6.263134
710.9763, 5.897469
711.4584, 5.432619
711.9406, 4.952879
712.4227, 4.549568
712.9048, 4.227428
713.3869, 4.011686
713.8690, 3.990290
714.3511, 4.024912
714.8333, 4.038658
715.3154, 4.042419
715.7975, 3.957256
716.2796, 3.715136
716.7617, 3.480160
717.2438, 3.392599
717.7260, 3.459705
718.2081, 3.393196
718.6902, 3.162210
719.1723, 2.921288
719.6544, 2.929779
720.1365, 3.080950
720.6187, 3.057405
721.1008, 2.697454
721.5829, 2.297060
722.0650, 2.019447
722.5471, 1.871553
723.0292, 1.884138
723.5114, 2.360363
723.9935, 2.572239
724.4756, 2.215759
724.9577, 1.617298
725.4398, 1.312403
725.9219, 1.397619
726.4041, 1.509556
726.8862, 1.578701
727.3683, 1.598513
727.8504, 1.489511
728.3325, 1.285513
728.8146, 1.229654
729.2968, 1.617706
729.7789, 2.050629
730.2610, 2.027250
730.7431, 1.656057
731.2252, 1.297050
731.7073, 1.073666
732.1895, 0.9257160
732.6716, 0.8451480
733.1537, 0.8284470
733.6358, 0.8269560
734.1179, 0.8774810
734.6000, 0.8773120
735.0822, 0.7364220
735.5643, 0.4755690
736.0464, 0.4893890
736.5285, 0.7941490
737.0106, 1.053137
737.4927, 0.9522510
737.9749, 0.6744800
738.4570, 0.5417250
738.9391, 0.5678900
739.4212, 0.5890060
739.9033, 0.4495050
740.3854, 0.3108410
740.8676, 0.3099040
741.3497, 0.5160710
741.8318, 0.6394840
742.3139, 0.6401440
742.7960, 0.5816460
743.2781, 0.4787290
743.7603, 0.3076920
744.2424, 0.3121530
744.7245, 0.5473020
745.2066, 0.7344880
745.6887, 0.4514870
746.1708, 0.1024340
746.6530, 0.3715650
747.1351, 0.2177140
747.6172, 8.0319997E-03
748.0993, 1.2840000E-02
748.5814, 0.1097240
749.0635, 0.1591890
749.5457, 6.7377001E-02
750.0278, 3.0861000E-02
750.5099, 0.1512910
750.9920, 0.2887860
751.4741, 0.2590220
751.9562, 4.8219999E-03
752.4384, 0.1767250
752.9205, 0.2478520
753.4026, 0.2239630
753.8847, 4.2815998E-02
754.3668, 0.2317680
754.8489, 0.3409180
755.3311, 0.1640340
755.8132, 0.1249920
756.2953, 0.5514640
756.7774, 0.9510080
757.2595, 1.027086
757.7416, 0.2798460
758.2238, 0.3205360
758.7059, 0.4722940
759.1880, 0.3565270
759.6701, 0.3448330
760.1522, 0.4727400
760.6343, 0.6010360
761.1165, 0.7347890
761.5986, 0.8079130
762.0807, 0.5692330
762.5628, 8.1757002E-02
763.0449, 0.2840770
763.5270, 0.2835790
764.0092, 0.1493590
764.4913, 7.5785004E-02
764.9734, 4.6370000E-02
765.4555, 8.2170004E-03
765.9376, 0.2061160
766.4197, 0.2742000
766.9019, 5.7516001E-02
767.3840, 0.6610240
767.8661, 0.9280850
768.3482, 0.7757660
768.8303, 0.5209920
769.3124, 0.2393590
769.7946, 3.1126000E-02
770.2767, 0.1479490
770.7588, 0.1223110
771.2409, 5.8341999E-02
771.7230, 1.0935000E-02
772.2051, 6.7084998E-02
772.6873, 9.7159997E-02
773.1694, 9.9339999E-02
773.6515, 6.5704003E-02
774.1336, 0.1368200
774.6157, 0.2468930
775.0978, 7.9184003E-02
775.5800, 0.3488080
776.0621, 0.5312560
776.5442, 0.4103530
777.0263, 0.2043650
777.5084, 7.4196003E-02
777.9905, 0.3504390
778.4727, 8.1572004E-02
778.9548, 0.6903400
779.4369, 1.213673
779.9190, 0.6096780
780.4011, 0.2805140
780.8832, 0.5998970
781.3654, 0.2921240
781.8475, 1.6016001E-02
782.3296, 0.1613520
782.8117, 0.2216970
783.2938, 0.1992740
783.7759, 7.0261002E-02
784.2581, 0.1777820
784.7402, 0.6088850
785.2223, 1.003519
785.7044, 1.081665
786.1865, 0.9156270
786.6686, 0.7468800
787.1508, 0.5846920
787.6329, 0.5357190
788.1150, 0.8624320
788.5971, 1.224405
789.0792, 1.224154
789.5613, 0.7665120
790.0435, 0.4701160
790.5256, 0.7047250
791.0077, 0.9392800
791.4898, 0.8387550
791.9719, 0.3081650
792.4540, 0.1646160
792.9362, 0.4850710
793.4183, 0.8844380
793.9004, 1.013706
794.3825, 0.9695090
794.8646, 1.004845
795.3467, 1.137960
795.8289, 1.354223
796.3110, 1.859386
796.7931, 2.298065
797.2752, 2.310595
797.7573, 1.734428
798.2394, 1.270472
798.7216, 1.010162
799.2037, 0.8668230
799.6858, 0.8233220
800.1679, 0.9058880
800.6500, 0.8344970
801.1321, 0.5693300
801.6143, 0.3905870
802.0964, 0.6919900
802.5785, 1.220423
803.0606, 1.472801
803.5427, 1.378473
804.0248, 1.220251
804.5070, 0.9976690
804.9891, 0.8972400
805.4712, 1.123877
805.9533, 1.930225
806.4354, 2.244701
806.9175, 1.797152
807.3997, 1.249338
807.8818, 1.140373
808.3639, 1.453417
808.8460, 1.478031
809.3281, 1.175800
809.8102, 0.8688680
810.2924, 0.8011210
810.7745, 0.9096220
811.2566, 1.159451
811.7387, 1.565226
812.2208, 1.879639
812.7029, 2.000814
813.1851, 2.015387
813.6672, 1.935514
814.1493, 1.690140
814.6314, 1.667406
815.1135, 1.938501
815.5956, 2.255674
816.0778, 2.454731
816.5599, 2.528679
817.0420, 2.322445
817.5241, 1.812708
818.0062, 1.427067
818.4883, 1.692108
818.9705, 2.126774
819.4526, 2.246220
819.9347, 1.965752
820.4168, 1.730560
820.8989, 1.551561
821.3810, 1.470848
821.8632, 1.542944
822.3453, 1.792500
822.8274, 1.953859
823.3095, 2.019386
823.7916, 2.013924
824.2737, 1.922802
824.7559, 1.823189
825.2380, 1.833357
825.7201, 1.956680
826.2022, 2.067789
826.6843, 2.004919
827.1664, 1.970732
827.6486, 2.149920
828.1307, 2.617777
828.6128, 2.838432
829.0949, 2.689140
829.5770, 2.509962
830.0591, 2.487772
830.5413, 2.606916
831.0234, 2.755646
831.5055, 2.930042
831.9876, 2.946470
832.4697, 2.452963
832.9518, 1.903725
833.4340, 1.876427
833.9161, 2.346853
834.3982, 2.658123
834.8803, 2.426397
835.3624, 2.121857
835.8445, 1.934544
836.3267, 1.893717
836.8088, 1.942978
837.2909, 2.083647
837.7730, 2.231209
838.2551, 2.323826
838.7372, 2.367151
839.2194, 2.402140
839.7015, 2.423985
840.1836, 2.392569
840.6657, 2.161762
841.1478, 1.977634
841.6299, 2.017057
842.1121, 2.271896
842.5942, 2.542383
843.0763, 2.945490
843.5584, 3.109341
844.0405, 2.814781
844.5226, 2.226845
845.0048, 2.038700
845.4869, 2.225370
845.9690, 2.403145
846.4511, 2.352753
846.9332, 2.218403
847.4153, 2.149376
847.8975, 2.124464
848.3796, 2.083372
848.8617, 1.980392
849.3438, 1.887236
849.8259, 1.823668
850.3080, 1.779594
850.7902, 1.734556
851.2723, 1.668892
851.7544, 1.682098
852.2365, 1.818083
852.7186, 2.023943
853.2007, 2.230558
853.6829, 2.431921
854.1650, 2.612324
854.6471, 2.758524
855.1292, 2.893042
855.6113, 3.065718
856.0934, 3.219959
856.5756, 3.254553
857.0577, 3.140606
857.5398, 2.940174
858.0219, 2.571129
858.5040, 2.228937
858.9861, 2.397636
859.4683, 2.949486
859.9504, 3.149578
860.4325, 2.729351
860.9146, 2.219963
861.3967, 2.056503
861.8788, 2.113537
862.3610, 2.258007
862.8431, 2.487247
863.3252, 2.673918
863.8073, 2.895050
864.2894, 2.998299
864.7715, 2.726149
865.2537, 2.041946
865.7358, 1.811226
866.2179, 2.153702
866.7000, 2.557953
867.1821, 2.436499
867.6642, 2.076235
868.1464, 1.906952
868.6285, 2.019093
869.1106, 2.127489
869.5927, 2.135235
870.0748, 2.090885
870.5569, 2.011395
871.0391, 1.878267
871.5212, 1.838516
872.0033, 1.913294
872.4854, 1.996264
872.9675, 1.987469
873.4496, 1.929955
873.9318, 1.916229
874.4139, 1.950386
874.8960, 2.039278
875.3781, 2.353455
875.8602, 2.579649
876.3423, 2.449068
876.8245, 1.954792
877.3066, 1.643700
877.7887, 1.561905
878.2708, 1.565317
878.7529, 1.632450
879.2350, 1.749512
879.7172, 1.750336
880.1993, 1.641396
880.6814, 1.582428
881.1635, 1.825663
881.6456, 2.015511
882.1277, 1.743042
882.6099, 1.191849
883.0920, 0.9177720
883.5741, 1.330761
884.0562, 1.594316
884.5383, 1.536127
885.0204, 1.289000
885.5026, 1.115732
885.9847, 1.014732
886.4668, 0.9780690
886.9489, 1.017738
887.4310, 1.089556
887.9131, 1.172512
888.3953, 1.245422
888.8774, 1.276690
889.3595, 1.264582
889.8416, 1.200258
890.3237, 1.046520
890.8058, 0.8756500
891.2880, 0.7518140
891.7701, 0.6770670
892.2522, 0.6225380
892.7343, 0.5826950
893.2164, 0.5781710
893.6985, 0.6617660
894.1807, 0.7811010
894.6628, 0.8598590
895.1449, 0.8819810
895.6270, 0.8922160
896.1091, 0.9329200
896.5912, 0.9422780
897.0734, 0.8722270
897.5555, 0.7131810
898.0376, 0.6131590
898.5197, 0.5856480
899.0018, 0.5419850
899.4839, 0.3557910
899.9661, 0.1387270
900.4482, 0.1019520
900.9303, 0.2351320
901.4124, 0.4441830
901.8945, 0.8465520
902.3766, 1.154644
902.8588, 1.194006
903.3409, 1.014145
903.8230, 0.8164290
904.3051, 0.5800610
904.7872, 0.4044550
905.2693, 0.3232880
905.7515, 0.3172420
906.2336, 0.3800980
906.7157, 0.4859410
907.1978, 0.5596330
907.6799, 0.5523830
908.1620, 0.5287080
908.6442, 0.5419410
909.1263, 0.5487670
909.6084, 0.4704020
910.0905, 0.2571640
910.5726, 9.3298003E-02
911.0547, 4.5600001E-04
911.5369, 5.7011001E-02
912.0190, 0.1188070
912.5011, 0.1794150
912.9832, 0.2195570
913.4653, 0.2346380
913.9474, 0.2379020
914.4296, 0.2701550
914.9117, 0.2712630
915.3938, 0.1801490
915.8759, 3.4694999E-02
916.3580, 0.2141970
916.8401, 0.3464640
917.3223, 0.4721490
917.8044, 0.7043550
918.2865, 0.9531690
918.7686, 0.7638090
919.2507, 0.1927320
919.7328, 0.2275280
920.2150, 3.1378001E-02
920.6971, 0.3018820
921.1792, 0.5189290
921.6613, 0.6068970
922.1434, 0.5993940
922.6255, 0.4344520
923.1077, 0.3016170
923.5898, 0.2577630
924.0719, 0.2849370
924.5540, 0.3753700
925.0361, 0.5061400
925.5182, 0.5830520
926.0004, 0.5641730
926.4825, 0.4945280
926.9646, 0.3448660
927.4467, 0.1792530
927.9288, 0.1009730
928.4109, 0.1343040
928.8931, 0.2226890
929.3752, 0.3928110
929.8573, 0.5653920
930.3394, 0.6021720
930.8215, 0.5437550
931.3036, 0.6641850
931.7858, 1.035192
932.2679, 1.270622
932.7500, 0.9502380
933.2321, 0.5024010
933.7142, 0.2519690
934.1964, 0.2570710
934.6785, 0.2696590
935.1606, 0.3294930
935.6427, 0.3070230
936.1248, 5.2448001E-02
936.6069, 0.3138280
937.0891, 0.3384390
937.5712, 7.3614001E-02
938.0533, 0.2244820
938.5354, 0.5050590
939.0175, 0.6889810
939.4996, 0.6811430
939.9818, 0.5386610
940.4639, 0.4280650
940.9460, 0.3673340
941.4281, 0.3004060
941.9102, 0.2028510
942.3923, 0.1261150
942.8745, 0.1999690
943.3566, 0.3639350
943.8387, 0.4285740
944.3208, 0.3202140
944.8029, 0.2047070
945.2850, 0.1146970
945.7672, 0.1034360
946.2493, 0.2682510
946.7314, 0.7233310
947.2135, 0.8297140
947.6956, 0.4853330
948.1777, 0.1409830
948.6599, 0.2209650
949.1420, 0.5462650
949.6241, 0.6602590
950.1062, 0.5808370
950.5883, 0.5520390
951.0704, 0.8258860
951.5526, 1.065155
952.0347, 1.064987
952.5168, 0.8828710
952.9989, 0.7192290
953.4810, 0.5706310
953.9631, 0.4565540
954.4453, 0.3830990
954.9274, 0.3459890
955.4095, 0.3454950
955.8916, 0.3750970
956.3737, 0.4231150
956.8558, 0.5037300
957.3380, 0.5697240
957.8201, 0.6039820
958.3022, 0.6140060
958.7843, 0.6114630
959.2664, 0.5999770
959.7485, 0.5130320
960.2307, 0.3283490
960.7128, 0.2206830
961.1949, 0.4294270
961.6770, 0.7698520
962.1591, 1.011469
962.6412, 1.136032
963.1234, 1.125526
963.6055, 0.7889450
964.0876, 0.5251990
964.5697, 0.5181060
965.0518, 0.6889870
965.5339, 0.6498870
966.0161, 0.4004830
966.4982, 0.2416110
966.9803, 0.3276330
967.4624, 0.4898720
967.9445, 0.5493310
968.4266, 0.5485940
968.9088, 0.5592160
969.3909, 0.5365470
969.8730, 0.6412810
970.3551, 1.037166
970.8372, 1.366301
971.3193, 1.134423
971.8015, 0.4302600
972.2836, 0.1109070
972.7657, 0.2537920
973.2478, 0.5042390
973.7299, 0.7182050
974.2120, 0.8194960
974.6942, 0.6725960
975.1763, 0.2701040
975.6584, 9.5716000E-02
976.1405, 0.2890990
976.6226, 0.4433980
977.1047, 0.3907430
977.5869, 0.1943380
978.0690, 9.0126999E-02
978.5511, 6.1347999E-02
979.0332, 4.6776999E-02
979.5153, 8.9594997E-02
979.9974, 5.1360000E-02
980.4796, 0.5817390
980.9617, 1.367323
981.4438, 1.676121
981.9259, 1.351191
982.4080, 0.9857940
982.8901, 0.5784570
983.3723, 0.2368330
983.8544, 6.7617998E-02
984.3365, 4.1737001E-02
984.8186, 0.1712440
985.3007, 0.4462440
985.7828, 0.5918150
986.2650, 0.4014180
986.7471, 0.1409480
987.2292, 0.1379970
987.7113, 0.3905950
988.1934, 0.3047700
988.6755, 0.1378170
989.1577, 0.4858740
989.6398, 0.5532440
990.1219, 0.4639260
990.6040, 0.2410350
991.0861, 2.1029999E-03
991.5682, 7.2154000E-02
992.0504, 0.2678050
992.5325, 0.5080470
993.0146, 0.5804200
993.4967, 0.5838570
993.9788, 0.6136470
994.4609, 0.6428570
994.9431, 0.6173200
995.4252, 0.5512680
995.9073, 0.4643410
996.3894, 0.3323040
996.8715, 0.2059980
997.3536, 0.1067360
997.8358, 4.4583000E-02
998.3179, 7.5479001E-02
998.8000, 0.2613300
999.2821, 0.3749580
999.7642, 0.3354780
1000.246, 0.2081140
1000.728, 7.2223999E-02
1001.211, 3.7944000E-02
1001.693, 2.2902999E-02
1002.175, 0.1893060
1002.657, 0.4358270
1003.139, 0.6618370
1003.621, 0.8805070
1004.103, 1.128792
1004.585, 1.447438
1005.068, 1.533365
1005.550, 1.372929
1006.032, 1.112298
1006.514, 0.7293390
1006.996, 0.4029870
1007.478, 0.4230860
1007.960, 0.7319720
1008.442, 0.9582060
1008.924, 0.8916210
1009.407, 0.8824480
1009.889, 1.060528
1010.371, 1.278606
1010.853, 1.154545
1011.335, 0.7554650
1011.817, 0.5706610
1012.299, 0.7710590
1012.781, 0.9444220
1013.263, 0.7050440
1013.746, 0.3373720
1014.228, 9.5692001E-02
1014.710, 8.2299998E-03
1015.192, 0.1001290
1015.674, 0.4992870
1016.156, 0.8538920
1016.638, 0.9374740
1017.120, 0.8485380
1017.603, 0.7724350
1018.085, 0.7073960
1018.567, 0.6530190
1019.049, 0.5632700
1019.531, 0.5451170
1020.013, 0.6778930
1020.495, 0.8823160
1020.977, 0.9808110
1021.459, 0.9871200
1021.942, 1.032951
1022.424, 1.158235
1022.906, 1.234175
1023.388, 1.006266
1023.870, 0.7330990
1024.352, 0.6999460
1024.834, 0.9579900
1025.316, 1.148252
1025.799, 1.249966
1026.281, 1.275567
1026.763, 1.224258
1027.245, 1.105186
1027.727, 0.8766440
1028.209, 0.5918770
1028.691, 0.4243010
1029.173, 0.4479410
1029.656, 0.5952170
1030.138, 1.027548
1030.620, 1.443296
1031.102, 1.493378
1031.584, 1.083113
1032.066, 0.8225400
1032.548, 0.7250250
1033.030, 0.7531500
1033.512, 1.024599
1033.995, 1.307907
1034.477, 1.250232
1034.959, 0.9056020
1035.441, 0.6931800
1035.923, 0.7469840
1036.405, 0.8981710
1036.887, 1.180838
1037.369, 1.460032
1037.851, 1.423861
1038.334, 1.164478
1038.816, 1.062246
1039.298, 1.261740
1039.780, 1.352595
1040.262, 0.8631810
1040.744, 0.3332640
1041.226, 0.2520660
1041.708, 0.6591710
1042.191, 0.7660300
1042.673, 0.5394760
1043.155, 0.3186250
1043.637, 0.2533780
1044.119, 0.3257220
1044.601, 0.6296420
1045.083, 1.033163
1045.565, 1.231421
1046.047, 1.015512
1046.530, 0.8163210
1047.012, 0.6213800
1047.494, 0.4845920
1047.976, 0.5133390
1048.458, 0.6623110
1048.940, 0.6579300
1049.422, 0.4792700
1049.904, 0.4397600
1050.386, 0.9815910
1050.869, 1.482741
1051.351, 1.496611
1051.833, 1.137657
1052.315, 0.8547120
1052.797, 0.6516260
1053.279, 0.4858910
1053.761, 0.3327150
1054.243, 0.2385860
1054.726, 0.2664570
1055.208, 0.3876050
1055.690, 0.6084200
1056.172, 1.022635
1056.654, 1.150277
1057.136, 0.8438430
1057.618, 0.4970980
1058.100, 0.3360960
1058.583, 0.3250540
1059.065, 0.3545850
1059.547, 0.4323740
1060.029, 0.5726240
1060.511, 0.8805720
1060.993, 1.133187
1061.475, 1.250913
1061.957, 1.247330
1062.439, 1.108274
1062.922, 0.8076850
1063.404, 0.5962340
1063.886, 0.4946140
1064.368, 0.4830050
1064.850, 0.6183660
1065.332, 0.7819450
1065.814, 0.8516090
1066.296, 0.8240800
1066.778, 0.7908460
1067.261, 0.7839090
1067.743, 0.7041480
1068.225, 0.4828620
1068.707, 0.2572740
1069.189, 0.2971800
1069.671, 0.5331020
1070.153, 0.8346840
1070.635, 1.216386
1071.118, 1.476145
1071.600, 1.533894
1072.082, 1.420341
1072.564, 1.056055
1073.046, 0.4921560
1073.528, 0.4003990
1074.010, 0.7489200
1074.492, 1.069590
1074.974, 1.077786
1075.457, 1.021895
1075.939, 1.182278
1076.421, 1.316606
1076.903, 1.048502
1077.385, 8.0222003E-02
1077.867, 0.2967650
1078.349, 9.6752003E-02
1078.831, 0.5610240
1079.313, 0.3190070
1079.796, 0.1949180
1080.278, 0.3285760
1080.760, 8.9438997E-02
1081.242, 0.2236970
1081.724, 0.6573720
1082.206, 0.9253450
1082.688, 0.9049220
1083.170, 0.7649350
1083.652, 0.8959100
1084.135, 1.184480
1084.617, 1.110480
1085.099, 0.5076570
1085.581, 7.7606000E-02
1086.063, 0.3975840
1086.545, 0.8764610
1087.027, 1.143212
1087.509, 1.216363
1087.992, 1.376648
1088.474, 1.627032
1088.956, 1.705575
1089.438, 1.460095
1089.920, 1.078762
1090.402, 0.5235370
1090.884, 4.1930001E-02
1091.366, 3.0709000E-02
1091.849, 0.8525380
1092.331, 1.247125
1092.813, 1.108538
1093.295, 0.9011110
1093.777, 1.052883
1094.259, 1.325033
1094.741, 1.178332
1095.223, 0.7400450
1095.705, 0.4730540
1096.188, 0.8230090
1096.670, 0.9705430
1097.152, 0.6937030
1097.634, 0.2874370
1098.116, 0.1348680
1098.598, 0.1874200
1099.080, 0.2273550
1099.562, 0.2342210
1100.044, 0.2378240
1100.527, 0.2418170
1101.009, 0.2621540
1101.491, 0.2860850
1101.973, 0.3362620
1102.455, 0.5451860
1102.937, 0.9176130
1103.419, 1.085647
1103.901, 0.9263990
1104.384, 0.6657600
1104.866, 0.4717860
1105.348, 0.3212750
1105.830, 0.1555490
1106.312, 5.2807000E-02
1106.794, 2.5148001E-02
1107.276, 0.4759080
1107.758, 0.8682820
1108.240, 0.9764500
1108.723, 0.9540800
1109.205, 1.077163
1109.687, 1.251980
1110.169, 1.293736
1110.651, 1.033061
1111.133, 0.8683830
1111.615, 0.9114170
1112.097, 0.9003120
1112.579, 0.4878880
1113.062, 0.1302480
1113.544, 0.1407050
1114.026, 0.3291740
1114.508, 0.6381250
1114.990, 0.2560620
1115.472, 6.4643003E-02
1115.954, 5.0928999E-02
1116.436, 0.1166020
1116.919, 0.2299550
1117.401, 0.2928400
1117.883, 0.3359940
1118.365, 0.3615510
1118.847, 0.3434160
1119.329, 0.1999420
1119.811, 6.4692996E-02
1120.293, 2.4355000E-02
1120.776, 7.6806001E-02
1121.258, 0.1709090
1121.740, 0.3183940
1122.222, 0.4726280
1122.704, 0.6468520
1123.186, 0.7214490
1123.668, 0.4091440
1124.150, 3.9581999E-02
1124.632, 3.6009999E-03
1125.115, 0.3868310
1125.597, 0.6257400
1126.079, 0.6756740
1126.561, 0.7111180
1127.043, 0.8121780
1127.525, 0.9114040
1128.007, 0.8921870
1128.489, 0.7944860
1128.971, 0.6772020
1129.454, 0.5220150
1129.936, 0.4450040
1130.418, 0.4788630
1130.900, 0.5461180
1131.382, 0.6679730
1131.864, 0.7615110
1132.346, 0.4174870
1132.828, 0.1935960
1133.311, 0.5105060
1133.793, 8.0112003E-02
1134.275, 0.4236270
1134.757, 0.9985250
1135.239, 1.408369
1135.721, 1.302691
1136.203, 0.7919510
1136.685, 0.5448060
1137.167, 0.5540620
1137.650, 0.5298920
1138.132, 0.1634950
1138.614, 9.5205002E-02
1139.096, 4.3669999E-02
1139.578, 0.3696800
1140.060, 0.5765350
1140.542, 0.6650370
1141.024, 0.6890620
1141.506, 0.6506430
1141.989, 0.6180950
1142.471, 0.7190470
1142.953, 0.7825760
1143.435, 0.5673200
1143.917, 0.1816750
1144.399, 0.1882430
1144.881, 0.6672770
1145.363, 0.9865960
1145.846, 0.9879090
1146.328, 0.8612790
1146.810, 0.7361760
1147.292, 0.6428540
1147.774, 0.6214380
1148.256, 0.6834480
1148.738, 0.7542130
1149.220, 0.8570250
1149.703, 0.8783690
1150.185, 0.7575580
1150.667, 0.5747400
1151.149, 0.3875280
1151.631, 0.2417210
1152.113, 0.2156630
1152.595, 0.3533120
1153.077, 0.5422330
1153.559, 0.8461540
1154.042, 1.021800
1154.524, 0.8568530
1155.006, 0.5499370
1155.488, 0.6013000
1155.970, 0.8653110
1156.452, 0.9852900
1156.934, 0.7360230
1157.416, 0.5317310
1157.898, 0.4097240
1158.381, 0.3644210
1158.863, 0.4294200
1159.345, 0.5663890
1159.827, 0.6228610
1160.309, 0.6099940
1160.791, 0.5715890
1161.273, 0.4924460
1161.755, 0.4352870
1162.238, 0.3889490
1162.720, 0.3976960
1163.202, 0.5655550
1163.684, 0.8476080
1164.166, 0.9409830
1164.648, 0.8538310
1165.130, 0.7230410
1165.612, 0.5788700
1166.094, 0.4627500
1166.577, 0.4175800
1167.059, 0.3941690
1167.541, 0.2756560
1168.023, 8.1343003E-02
1168.505, 0.1057400
1168.987, 0.3800880
1169.469, 0.6621150
1169.951, 0.7334240
1170.433, 0.8124170
1170.916, 1.175211
1171.398, 1.615337
1171.880, 1.499507
1172.362, 0.8218860
1172.844, 0.5088110
1173.326, 0.7772780
1173.808, 1.041468
1174.290, 0.6500460
1174.773, 0.1928860
1175.255, 0.1915150
1175.737, 0.5599530
1176.219, 0.8937400
1176.701, 1.204419
1177.183, 1.148161
1177.665, 0.5110700
1178.147, 8.6228997E-02
1178.630, 4.7056001E-02
1179.112, 0.4426390
1179.594, 0.6542360
1180.076, 0.6556770
1180.558, 0.6959730
1181.040, 0.7821550
1181.522, 0.7926740
1182.004, 0.6512300
1182.486, 0.4921140
1182.969, 0.4304310
1183.451, 0.4480620
1183.933, 0.5528460
1184.415, 0.7727940
1184.897, 0.8617230
1185.379, 0.7968150
1185.861, 0.7525490
1186.343, 0.8541760
1186.825, 0.9726930
1187.308, 0.9772840
1187.790, 0.8864690
1188.272, 0.7060200
1188.754, 0.3440360
1189.236, 0.2229210
1189.718, 0.3992820
1190.200, 0.5289080
1190.682, 0.2745180
1191.165, 8.8522002E-02
1191.647, 0.1341300
1192.129, 1.1171000E-02
1192.611, 0.1198820
1193.093, 0.1208920
1193.575, 0.1633370
1194.057, 0.2617890
1194.539, 0.3505530
1195.021, 0.3231480
1195.504, 0.2943120
1195.986, 0.5253870
1196.468, 0.8781780
1196.950, 0.9587800
1197.432, 0.4921050
1197.914, 0.2159740
1198.396, 0.2066490
1198.878, 0.2741340
1199.360, 0.2413430
1199.843, 0.1713550
1200.325, 0.1423360
1200.807, 0.1570940
1201.289, 0.2111050
1201.771, 0.2605570
1202.253, 0.4773540
1202.735, 0.9588240
1203.217, 1.357778
1203.700, 1.135329
1204.182, 0.6766710
1204.664, 0.5429250
1205.146, 0.7268420
1205.628, 0.9209210
1206.110, 1.158344
1206.592, 1.195095
1207.074, 0.9376340
1207.557, 0.6223720
1208.039, 0.5969150
1208.521, 0.6771140
1209.003, 0.5466520
1209.485, 0.1999880
1209.967, 3.1205000E-02
1210.449, 0.1519700
1210.931, 0.2723150
1211.413, 0.3071430
1211.896, 0.3918380
1212.378, 0.8893280
1212.860, 1.463696
1213.342, 1.539847
1213.824, 1.057667
1214.306, 0.7103900
1214.788, 0.5594830
1215.270, 0.5875470
1215.752, 0.8512410
1216.235, 1.131212
1216.717, 1.104459
1217.199, 0.8947620
1217.681, 0.6436830
1218.163, 0.3607190
1218.645, 0.2216530
1219.127, 0.2726000
1219.609, 0.3441920
1220.092, 0.3873550
1220.574, 0.4175210
1221.056, 0.4348750
1221.538, 0.4643770
1222.020, 0.5630260
1222.502, 0.7567160
1222.984, 0.8462010
1223.466, 0.8103320
1223.948, 0.7050020
1224.431, 0.5079870
1224.913, 0.3383130
1225.395, 0.4233190
1225.877, 0.6193700
1226.359, 0.7548330
1226.841, 0.8149080
1227.323, 0.6420170
1227.805, 0.1608230
1228.287, 0.2071280
1228.770, 0.2873370
1229.252, 0.1661560
1229.734, 0.1863430
1230.216, 0.5891420
1230.698, 0.7414630
1231.180, 0.5470020
1231.662, 0.4704510
1232.144, 0.5406800
1232.627, 0.5427990
1233.109, 0.2815480
1233.591, 7.4303001E-02
1234.073, 0.5180590
1234.555, 1.138227
1235.037, 1.219819
1235.519, 0.5725380
1236.001, 0.2529590
1236.484, 0.3191910
1236.966, 0.3736470
1237.448, 0.1684990
1237.930, 5.7332002E-02
1238.412, 0.1230480
1238.894, 3.0172000E-02
1239.376, 0.2866510
1239.858, 0.8937290
1240.340, 1.111849
1240.823, 0.9193600
1241.305, 0.7455750
1241.787, 0.8619410
1242.269, 1.024752
1242.751, 1.054029
1243.233, 0.9900310
1243.715, 0.8640370
1244.197, 0.6615200
1244.679, 0.6250130
1245.162, 0.7496140
1245.644, 0.7998980
1246.126, 0.5501710
1246.608, 0.3180610
1247.090, 0.3976710
1247.572, 0.5393370
1248.054, 0.5010010
1248.536, 0.2563970
1249.019, 0.1079000
1249.501, 5.4646000E-02
1249.983, 0.1024760
1250.465, 0.3510470
1250.947, 0.5782410
1251.429, 0.7013150
1251.911, 0.7213120
1252.393, 0.5873770
1252.875, 0.3183050
1253.358, 0.3124870
1253.840, 0.5276400
1254.322, 0.6842850
1254.804, 0.5585220
1255.286, 0.4498160
1255.768, 0.4614840
1256.250, 0.5306180
1256.732, 0.6555430
1257.214, 0.8058430
1257.697, 0.6790670
1258.179, 0.3493290
1258.661, 0.1650570
1259.143, 0.4319610
1259.625, 0.6454180
1260.107, 0.6775910
1260.589, 0.6842730
1261.071, 0.8067690
1261.554, 1.007174
1262.036, 1.262501
1262.518, 1.492401
1263.000, 1.441145
1263.482, 0.6099240
1263.964, 0.1247510
1264.446, 0.1449290
1264.928, 0.3574910
1265.411, 0.5660130
1265.893, 0.7234760
1266.375, 0.7828460
1266.857, 0.8436450
1267.339, 0.8950590
1267.821, 1.001042
1268.303, 0.9846690
1268.785, 0.8227330
1269.267, 0.6098990
1269.750, 0.2816140
1270.232, 4.4863001E-02
1270.714, 0.3497100
1271.196, 0.9029500
1271.678, 1.019300
1272.160, 0.3646360
1272.642, 7.9337999E-02
1273.124, 0.2203930
1273.606, 0.4798360
1274.089, 0.7226070
1274.571, 0.9000680
1275.053, 0.9623730
1275.535, 0.9247590
1276.017, 0.8158240
1276.499, 0.6208080
1276.981, 0.4092070
1277.463, 0.1841560
1277.946, 0.1006430
1278.428, 0.4069930
1278.910, 0.7267870
1279.392, 0.8213250
1279.874, 0.7992120
1280.356, 0.7646440
1280.838, 0.7203310
1281.320, 0.8391240
1281.802, 1.091602
1282.285, 1.187983
1282.767, 0.8002580
1283.249, 0.4501130
1283.731, 0.3700040
1284.213, 0.3508650
1284.695, 0.1630790
1285.177, 0.1235140
1285.659, 0.1010680
1286.141, 0.1499760
1286.624, 0.2902470
1287.106, 1.6721001E-02
1287.588, 0.1468110
1288.070, 2.8743999E-02
1288.552, 0.2580560
1289.034, 0.3070510
1289.516, 0.2627950
1289.998, 0.3009810
1290.481, 0.4123810
1290.963, 0.5724310
1291.445, 0.8944390
1291.927, 1.026964
1292.409, 0.9184690
1292.891, 0.8190170
1293.373, 0.9658870
1293.855, 1.176882
1294.338, 1.173481
1294.820, 1.058816
1295.302, 0.9116410
1295.784, 0.5867570
1296.266, 0.4876090
1296.748, 0.5250140
1297.230, 0.5761400
1297.712, 0.5553910
1298.194, 0.5292840
1298.677, 0.6178570
1299.159, 0.6882940
1299.641, 0.5259390
1300.123, 0.1138020
1300.605, 0.1301480
1301.087, 0.5199900
1301.569, 0.7521960
1302.051, 0.4209020
1302.533, 0.1020980
1303.016, 0.0000000E+00
##END=



