##NAMES=Schiavinatoite
##RRUFFID=R090010
##IDEAL CHEMISTRY=NbBO_4_
##LOCALITY=Antsongombato, south of Betafo, south of Mahaiz, Madagascar
##OWNER=RRUFF
##SOURCE=William W. Pinch
##DESCRIPTION=Dark brown vitreous dipyramidal crystal on white microcline matrix associated with pink tourmaline
##STATUS=The identification of this mineral has been confirmed only by single crystal X-ray diffraction.
##URL=rruff.info/R090010
112.6213, 0.0000000E+00
113.1034, 1.008393
113.5856, 1.763358
114.0677, 1.333385
114.5498, 0.7335090
115.0319, 0.9390740
115.5140, 0.9643920
115.9961, 0.5626490
116.4783, 0.1301380
116.9604, 0.1581290
117.4425, 0.2186810
117.9246, 0.2673340
118.4067, 0.2503170
118.8888, 8.1042998E-02
119.3710, 0.3885650
119.8531, 0.4479030
120.3352, 0.2137990
120.8173, 6.5117002E-02
121.2994, 0.3841970
121.7815, 0.6549110
122.2637, 0.7135120
122.7458, 0.5042610
123.2279, 5.6061000E-02
123.7100, 0.6065560
124.1921, 1.486286
124.6742, 2.548603
125.1564, 3.831577
125.6385, 5.288532
126.1206, 6.786427
126.6027, 8.015232
127.0848, 9.245834
127.5669, 11.03780
128.0491, 13.66297
128.5312, 16.47579
129.0133, 18.50061
129.4954, 19.77972
129.9775, 20.98248
130.4596, 22.82561
130.9418, 25.03231
131.4239, 26.57600
131.9060, 27.08701
132.3881, 26.99413
132.8702, 27.18782
133.3523, 27.67468
133.8345, 28.41194
134.3166, 29.53995
134.7987, 31.06944
135.2808, 32.21900
135.7629, 32.67439
136.2450, 32.65456
136.7272, 33.23331
137.2093, 34.50844
137.6914, 36.10147
138.1735, 37.69545
138.6556, 39.29887
139.1377, 40.78358
139.6199, 42.18401
140.1020, 43.47964
140.5841, 44.37718
141.0662, 44.66866
141.5483, 44.81044
142.0304, 45.35163
142.5126, 46.31787
142.9947, 47.54057
143.4768, 48.51024
143.9589, 48.89275
144.4410, 49.49040
144.9231, 50.42981
145.4053, 51.50698
145.8874, 52.44699
146.3695, 53.18094
146.8516, 53.88263
147.3337, 54.66636
147.8158, 55.92703
148.2980, 56.35487
148.7801, 55.61102
149.2622, 54.12834
149.7443, 52.76146
150.2264, 51.06970
150.7085, 49.86719
151.1907, 49.50461
151.6728, 50.94275
152.1549, 51.60513
152.6370, 51.02612
153.1191, 49.63046
153.6012, 48.45445
154.0834, 47.48986
154.5655, 46.81380
155.0476, 46.48959
155.5297, 47.08224
156.0118, 47.25177
156.4939, 46.49597
156.9761, 45.10618
157.4582, 44.05476
157.9403, 43.62505
158.4224, 43.54300
158.9045, 43.65563
159.3866, 43.97388
159.8688, 44.42021
160.3509, 44.84076
160.8330, 45.31380
161.3151, 46.21033
161.7972, 48.30426
162.2793, 50.53890
162.7615, 52.10484
163.2436, 52.16318
163.7257, 52.10262
164.2078, 52.46008
164.6899, 53.20421
165.1720, 54.12994
165.6541, 55.03557
166.1363, 56.10696
166.6184, 57.52737
167.1005, 59.65961
167.5826, 61.91501
168.0647, 64.10669
168.5468, 66.21280
169.0290, 67.94669
169.5111, 68.57983
169.9932, 68.86383
170.4753, 69.53313
170.9574, 71.79172
171.4395, 74.47192
171.9217, 76.50420
172.4038, 77.88770
172.8859, 79.46588
173.3680, 81.99609
173.8501, 85.13513
174.3322, 88.33992
174.8144, 91.69949
175.2965, 94.89474
175.7786, 97.25401
176.2607, 98.77341
176.7428, 100.2595
177.2249, 102.5979
177.7071, 105.4592
178.1892, 108.1116
178.6713, 109.8788
179.1534, 111.3216
179.6355, 113.4411
180.1176, 116.3374
180.5998, 119.4632
181.0819, 122.4991
181.5640, 125.3531
182.0461, 127.8468
182.5282, 129.4774
183.0103, 130.6943
183.4925, 132.5031
183.9746, 134.9488
184.4567, 137.8660
184.9388, 141.3175
185.4209, 145.2221
185.9030, 148.8409
186.3852, 151.5727
186.8673, 153.7111
187.3494, 156.5929
187.8315, 160.4731
188.3136, 164.3637
188.7957, 167.0315
189.2779, 168.5046
189.7600, 169.4799
190.2421, 170.0947
190.7242, 170.4201
191.2063, 170.9727
191.6884, 171.8750
192.1706, 172.7340
192.6527, 173.0487
193.1348, 172.8099
193.6169, 172.0238
194.0990, 170.3381
194.5811, 167.8486
195.0633, 166.0960
195.5454, 165.3147
196.0275, 164.9487
196.5096, 163.8931
196.9917, 162.0702
197.4738, 160.4052
197.9560, 159.5246
198.4381, 159.4351
198.9202, 158.9503
199.4023, 157.9004
199.8844, 156.6560
200.3665, 156.1248
200.8487, 156.4734
201.3308, 156.5951
201.8129, 155.7302
202.2950, 153.7656
202.7771, 152.3318
203.2592, 151.6883
203.7414, 151.3984
204.2235, 150.5799
204.7056, 149.2591
205.1877, 147.3004
205.6698, 144.4722
206.1519, 140.6129
206.6341, 136.8487
207.1162, 133.3139
207.5983, 129.8655
208.0804, 126.1651
208.5625, 122.1850
209.0446, 118.1551
209.5268, 114.1044
210.0089, 109.9346
210.4910, 106.1106
210.9731, 102.7405
211.4552, 99.63184
211.9373, 96.34929
212.4195, 92.76718
212.9016, 89.43965
213.3837, 86.70067
213.8658, 84.71669
214.3479, 82.68466
214.8300, 80.52812
215.3121, 78.33597
215.7943, 76.27556
216.2764, 74.25725
216.7585, 72.58144
217.2406, 71.44559
217.7227, 71.07187
218.2048, 70.50603
218.6870, 69.58606
219.1691, 68.54295
219.6512, 67.91724
220.1333, 67.82082
220.6154, 67.93207
221.0975, 68.15117
221.5797, 68.54298
222.0618, 68.81383
222.5439, 68.80307
223.0260, 68.75169
223.5081, 69.31960
223.9902, 71.02373
224.4724, 72.44800
224.9545, 72.78990
225.4366, 71.28746
225.9187, 71.00510
226.4008, 72.44792
226.8829, 74.87808
227.3651, 76.70737
227.8472, 77.63000
228.3293, 78.49765
228.8114, 79.66666
229.2935, 81.28618
229.7757, 82.75359
230.2578, 84.17947
230.7399, 85.37793
231.2220, 85.96236
231.7041, 85.67462
232.1862, 85.15973
232.6684, 84.58714
233.1505, 83.85555
233.6326, 83.43886
234.1147, 83.69357
234.5968, 84.06915
235.0789, 83.52515
235.5611, 81.67404
236.0432, 79.53882
236.5253, 77.35641
237.0074, 75.07620
237.4895, 73.07990
237.9716, 71.52086
238.4538, 70.15453
238.9359, 68.61206
239.4180, 66.90851
239.9001, 64.97896
240.3822, 62.78352
240.8643, 60.32413
241.3465, 57.67203
241.8286, 54.70686
242.3107, 51.63246
242.7928, 48.72574
243.2749, 45.97983
243.7570, 43.41541
244.2392, 41.10924
244.7213, 39.13541
245.2034, 36.89642
245.6855, 34.23886
246.1676, 31.42949
246.6497, 28.78134
247.1319, 26.26468
247.6140, 23.98991
248.0961, 22.07875
248.5782, 20.59576
249.0603, 18.80280
249.5424, 16.45906
250.0246, 14.08109
250.5067, 12.18437
250.9888, 10.93359
251.4709, 9.712143
251.9530, 8.360794
252.4351, 6.862274
252.9173, 5.799820
253.3994, 5.355942
253.8815, 5.108932
254.3636, 4.667984
254.8457, 4.026810
255.3278, 3.147842
255.8100, 1.830505
256.2921, 0.1017610
256.7742, 1.060410
257.2563, 1.427719
257.7384, 1.476425
258.2205, 1.611252
258.7026, 1.913895
259.1848, 2.119415
259.6669, 2.113449
260.1490, 1.943237
260.6311, 2.024719
261.1132, 2.462311
261.5953, 2.954422
262.0775, 3.289413
262.5596, 3.457596
263.0417, 3.489532
263.5238, 3.320755
264.0059, 3.018860
264.4880, 2.922546
264.9702, 3.096207
265.4523, 3.358490
265.9344, 3.666550
266.4165, 4.143066
266.8986, 4.224731
267.3807, 3.805054
267.8629, 2.984573
268.3450, 2.003647
268.8271, 0.6910400
269.3092, 0.3888550
269.7913, 0.8506620
270.2734, 0.5264430
270.7556, 0.3811800
271.2377, 0.3920590
271.7198, 0.6663970
272.2019, 1.552155
272.6840, 3.224716
273.1661, 4.921585
273.6483, 5.540054
274.1304, 7.441833
274.6125, 8.945480
275.0946, 10.07250
275.5767, 9.687714
276.0588, 11.26093
276.5410, 12.05298
277.0231, 12.81523
277.5052, 14.67072
277.9873, 14.51825
278.4694, 16.36116
278.9515, 17.41101
279.4337, 18.82767
279.9158, 19.45847
280.3979, 20.33510
280.8800, 22.00284
281.3621, 22.79736
281.8442, 23.53302
282.3264, 24.76636
282.8085, 26.62636
283.2906, 28.55380
283.7727, 29.92648
284.2548, 30.74519
284.7369, 31.28854
285.2191, 31.57339
285.7012, 31.65489
286.1833, 31.79507
286.6654, 32.02214
287.1475, 32.12587
287.6296, 31.96979
288.1118, 31.54361
288.5939, 30.72697
289.0760, 29.42291
289.5581, 27.75970
290.0402, 25.94029
290.5223, 23.94878
291.0045, 21.99428
291.4866, 20.15730
291.9687, 18.45596
292.4508, 16.96701
292.9329, 15.67033
293.4150, 14.64284
293.8972, 14.18262
294.3793, 14.22888
294.8614, 14.04831
295.3435, 12.93297
295.8256, 11.20914
296.3077, 9.765625
296.7899, 8.726654
297.2720, 7.995728
297.7541, 7.706924
298.2362, 7.722031
298.7183, 7.423340
299.2004, 5.959915
299.6826, 4.051865
300.1647, 3.145447
300.6468, 3.469498
301.1289, 4.079254
301.6110, 3.976578
302.0931, 3.378860
302.5753, 2.851074
303.0574, 2.835922
303.5395, 2.976044
304.0216, 2.786469
304.5037, 2.250000
304.9858, 1.639175
305.4680, 1.219360
305.9501, 0.8702550
306.4322, 0.3746340
306.9143, 0.7345890
307.3964, 1.719803
307.8785, 1.714371
308.3607, 0.8185270
308.8428, 1.8494001E-02
309.3249, 0.1716770
309.8070, 6.4681999E-02
310.2891, 0.3543400
310.7712, 0.7129360
311.2534, 0.9900360
311.7355, 1.167465
312.2176, 1.209137
312.6997, 0.9595490
313.1818, 0.1168980
313.6639, 1.273621
314.1461, 1.868057
314.6282, 1.475037
315.1103, 1.005341
315.5924, 0.9098820
316.0745, 1.096207
316.5566, 1.346344
317.0388, 1.455643
317.5209, 1.715439
318.0030, 2.338593
318.4851, 3.408722
318.9672, 4.472763
319.4493, 5.357101
319.9315, 6.167953
320.4136, 7.055588
320.8957, 8.367767
321.3778, 9.468185
321.8599, 10.03737
322.3420, 10.01071
322.8242, 10.08627
323.3063, 10.64294
323.7884, 11.24825
324.2705, 11.51938
324.7526, 10.60938
325.2347, 10.24699
325.7169, 11.16457
326.1990, 13.22830
326.6811, 14.70862
327.1632, 14.88313
327.6453, 14.79964
328.1274, 15.04865
328.6096, 15.87411
329.0917, 16.72536
329.5738, 17.50340
330.0559, 18.31340
330.5380, 19.44460
331.0201, 20.91032
331.5023, 22.61917
331.9844, 24.61906
332.4665, 27.18709
332.9486, 29.35350
333.4307, 30.60153
333.9128, 31.68605
334.3950, 33.96136
334.8771, 37.98169
335.3592, 42.23653
335.8413, 46.37796
336.3234, 50.49129
336.8055, 54.17351
337.2877, 58.00259
337.7698, 60.45941
338.2519, 59.79988
338.7340, 55.62363
339.2161, 49.89583
339.6982, 42.46371
340.1803, 33.72540
340.6624, 26.65619
341.1446, 21.26462
341.6267, 17.39948
342.1088, 15.02350
342.5909, 14.16319
343.0730, 13.57796
343.5551, 13.20351
344.0373, 12.93227
344.5194, 12.45033
345.0015, 11.71126
345.4836, 10.25574
345.9657, 10.76900
346.4478, 10.85451
346.9300, 10.55750
347.4121, 8.761185
347.8942, 8.956192
348.3763, 8.397003
348.8584, 7.818924
349.3405, 8.336472
349.8227, 6.860291
350.3048, 7.407578
350.7869, 7.190613
351.2690, 7.360184
351.7511, 6.755569
352.2332, 6.412933
352.7154, 6.883713
353.1975, 6.941986
353.6796, 6.325256
354.1617, 6.615234
354.6438, 5.300278
355.1259, 5.412033
355.6081, 6.148224
356.0902, 5.627197
356.5723, 5.879379
357.0544, 5.999451
357.5365, 5.417252
358.0186, 4.820892
358.5008, 4.660080
358.9829, 4.833481
359.4650, 5.125320
359.9471, 5.747772
360.4292, 6.232864
360.9113, 6.209595
361.3935, 5.580811
361.8756, 4.928497
362.3577, 4.338257
362.8398, 3.897888
363.3219, 3.715607
363.8040, 4.224243
364.2862, 4.595840
364.7683, 4.362869
365.2504, 3.570877
365.7325, 3.139740
366.2146, 3.724960
366.6967, 4.478531
367.1789, 4.844360
367.6610, 4.259232
368.1431, 3.846771
368.6252, 3.759140
369.1073, 3.909515
369.5894, 4.018661
370.0716, 4.257278
370.5537, 4.303925
371.0358, 3.963852
371.5179, 2.845917
372.0000, 2.516037
372.4821, 3.471741
372.9643, 4.829117
373.4464, 5.389740
373.9285, 4.842224
374.4106, 4.152435
374.8927, 3.421066
375.3748, 2.665344
375.8570, 2.439957
376.3391, 2.931335
376.8212, 3.533813
377.3033, 3.676834
377.7854, 3.263550
378.2675, 3.154526
378.7497, 3.599045
379.2318, 4.288742
379.7139, 4.392715
380.1960, 3.870804
380.6781, 3.244827
381.1602, 2.797043
381.6424, 2.507675
382.1245, 2.234863
382.6066, 1.959183
383.0887, 1.750488
383.5708, 1.737305
384.0529, 1.884079
384.5351, 2.013977
385.0172, 2.008865
385.4993, 1.964035
385.9814, 2.165894
386.4635, 2.591751
386.9456, 2.792419
387.4278, 2.043411
387.9099, 0.9037780
388.3920, 0.3229980
388.8741, 0.7922210
389.3562, 1.453537
389.8383, 1.501190
390.3205, 1.123932
390.8026, 0.8523860
391.2847, 1.153091
391.7668, 1.546799
392.2489, 1.667542
392.7310, 1.441757
393.2132, 1.085968
393.6953, 0.4607700
394.1774, 0.1542210
394.6595, 0.4217220
395.1416, 0.2334750
395.6237, 0.8054810
396.1059, 0.8798220
396.5880, 0.4801180
397.0701, 0.1266630
397.5522, 0.1419830
398.0343, 9.4299003E-02
398.5164, 0.2775270
398.9986, 1.542160
399.4807, 2.417633
399.9628, 2.710754
400.4449, 2.603821
400.9270, 2.523483
401.4091, 2.652008
401.8913, 2.571213
402.3734, 2.101379
402.8555, 1.160187
403.3376, 0.2606050
403.8197, 0.7111970
404.3018, 1.508896
404.7840, 1.772705
405.2661, 1.286057
405.7482, 1.039383
406.2303, 1.329056
406.7124, 1.975067
407.1945, 2.175125
407.6767, 1.844315
408.1588, 1.477859
408.6409, 1.452362
409.1230, 1.739151
409.6051, 1.869598
410.0872, 1.742172
410.5694, 1.642532
411.0515, 2.066101
411.5336, 2.944611
412.0157, 3.840805
412.4978, 4.626724
412.9799, 5.284241
413.4621, 5.718582
413.9442, 5.934311
414.4263, 6.142365
414.9084, 6.518631
415.3905, 6.995911
415.8727, 7.472458
416.3548, 7.903107
416.8369, 8.392166
417.3190, 9.070496
417.8011, 9.883453
418.2832, 10.68823
418.7654, 11.51758
419.2475, 12.21469
419.7296, 12.48500
420.2117, 12.16449
420.6938, 12.33121
421.1759, 13.90482
421.6581, 15.99908
422.1402, 17.67917
422.6223, 18.01196
423.1044, 18.60703
423.5865, 19.98926
424.0686, 22.07346
424.5508, 24.07138
425.0329, 26.04726
425.5150, 27.78873
425.9971, 29.11571
426.4792, 29.41534
426.9613, 30.57468
427.4435, 32.92581
427.9256, 35.95633
428.4077, 38.85368
428.8898, 41.51709
429.3719, 44.24866
429.8540, 47.17966
430.3362, 50.35205
430.8183, 53.52972
431.3004, 56.64807
431.7825, 59.88545
432.2646, 63.21681
432.7467, 66.61531
433.2289, 70.86931
433.7110, 76.29117
434.1931, 82.20726
434.6752, 87.24245
435.1573, 91.43666
435.6394, 95.51595
436.1216, 99.64258
436.6037, 104.0018
437.0858, 108.9961
437.5679, 114.6640
438.0500, 120.4798
438.5321, 126.1484
439.0142, 131.6297
439.4963, 136.8102
439.9785, 141.3841
440.4606, 146.0444
440.9427, 151.1799
441.4248, 156.8213
441.9069, 162.9659
442.3890, 170.4490
442.8712, 177.8377
443.3533, 183.9860
443.8354, 188.4608
444.3175, 193.3522
444.7996, 199.8564
445.2817, 206.8206
445.7639, 213.1058
446.2460, 218.3130
446.7281, 223.1280
447.2102, 227.6902
447.6923, 231.9458
448.1744, 235.5155
448.6566, 238.5505
449.1387, 240.7569
449.6208, 242.0938
450.1029, 242.8333
450.5850, 241.7626
451.0671, 238.3927
451.5493, 233.7097
452.0314, 229.2371
452.5135, 225.3375
452.9956, 220.3839
453.4777, 213.9359
453.9598, 206.1174
454.4420, 196.9838
454.9241, 186.4782
455.4062, 175.8787
455.8883, 166.3544
456.3704, 157.6281
456.8525, 148.5209
457.3347, 139.0109
457.8168, 129.4998
458.2989, 120.6611
458.7810, 112.3291
459.2631, 104.2731
459.7452, 96.03595
460.2274, 88.16190
460.7095, 81.33740
461.1916, 75.44019
461.6737, 70.23965
462.1558, 66.07834
462.6379, 62.16841
463.1201, 57.66035
463.6022, 51.89655
464.0843, 46.63834
464.5664, 42.69397
465.0485, 39.67567
465.5306, 36.97281
466.0128, 34.73122
466.4949, 32.50548
466.9770, 30.11092
467.4591, 27.52866
467.9412, 25.24292
468.4233, 23.52574
468.9055, 21.87584
469.3876, 19.93643
469.8697, 17.30209
470.3518, 15.28612
470.8339, 14.06628
471.3160, 13.35333
471.7982, 12.62148
472.2803, 11.85138
472.7624, 11.14629
473.2445, 10.58847
473.7266, 10.13069
474.2087, 9.454971
474.6909, 8.532440
475.1730, 7.634354
475.6551, 7.009537
476.1372, 6.610764
476.6193, 6.305664
477.1014, 6.141800
477.5836, 5.847656
478.0657, 4.845261
478.5478, 3.398712
479.0299, 2.280319
479.5120, 2.117966
479.9941, 2.261566
480.4763, 2.161148
480.9584, 1.818649
481.4405, 1.332474
481.9226, 0.5707550
482.4047, 0.2016600
482.8868, 0.7793430
483.3690, 1.116943
483.8511, 1.257935
484.3332, 0.9438630
484.8153, 0.4940800
485.2974, 0.4177700
485.7795, 1.551071
486.2617, 2.245865
486.7438, 1.766434
487.2259, 0.1505890
487.7080, 0.2301640
488.1901, 1.458755
488.6722, 3.289261
489.1544, 4.075089
489.6365, 3.536469
490.1186, 2.953125
490.6007, 2.210358
491.0828, 1.655441
491.5649, 2.119446
492.0471, 3.673050
492.5292, 4.602829
493.0113, 4.140137
493.4934, 2.773911
493.9755, 1.697784
494.4576, 0.9205630
494.9398, 0.3506320
495.4219, 6.4346001E-02
495.9040, 0.3117070
496.3861, 0.2616880
496.8682, 0.1634980
497.3503, 0.5056300
497.8325, 0.3334660
498.3146, 0.1614230
498.7967, 0.6922610
499.2788, 1.069870
499.7609, 1.527313
500.2430, 2.229141
500.7252, 3.125595
501.2073, 4.012421
501.6894, 4.806412
502.1715, 5.587006
502.6536, 6.424393
503.1357, 7.390121
503.6179, 8.207535
504.1000, 8.843353
504.5821, 9.348526
505.0642, 9.725189
505.5463, 9.753250
506.0284, 10.14197
506.5106, 11.06908
506.9927, 12.39096
507.4748, 13.65703
507.9569, 14.85461
508.4390, 16.04019
508.9211, 17.17519
509.4033, 18.28960
509.8854, 19.77229
510.3675, 21.68323
510.8496, 23.44763
511.3317, 24.26280
511.8138, 24.47865
512.2960, 25.01460
512.7781, 26.12326
513.2602, 27.55867
513.7423, 29.27443
514.2244, 31.13124
514.7065, 32.78856
515.1887, 33.98096
515.6708, 35.00713
516.1529, 35.96913
516.6350, 36.88779
517.1171, 37.96402
517.5992, 39.41019
518.0814, 40.93034
518.5635, 42.31493
519.0456, 43.31740
519.5277, 44.56813
520.0098, 46.51152
520.4919, 48.53619
520.9741, 49.62450
521.4562, 49.04224
521.9383, 48.98521
522.4204, 50.07024
522.9025, 52.10583
523.3846, 53.87112
523.8668, 55.28223
524.3489, 56.71684
524.8310, 58.30380
525.3131, 60.08623
525.7952, 62.31868
526.2773, 65.00320
526.7595, 68.25015
527.2416, 72.47974
527.7237, 77.33803
528.2058, 81.92905
528.6879, 85.54523
529.1700, 89.33484
529.6522, 94.55164
530.1343, 100.8507
530.6164, 107.3979
531.0985, 113.6887
531.5806, 120.1112
532.0627, 126.7377
532.5449, 133.5311
533.0270, 140.9418
533.5091, 148.8552
533.9912, 157.5295
534.4733, 167.0376
534.9554, 177.8709
535.4376, 189.0282
535.9197, 199.7936
536.4018, 211.1527
536.8839, 224.4840
537.3660, 240.1041
537.8481, 257.1063
538.3303, 275.3471
538.8124, 294.8681
539.2945, 315.9297
539.7766, 338.3747
540.2587, 363.6469
540.7408, 393.1588
541.2230, 426.5010
541.7051, 461.0761
542.1872, 496.6699
542.6693, 533.8675
543.1514, 573.8508
543.6335, 615.9235
544.1157, 660.0663
544.5978, 707.1023
545.0799, 755.0085
545.5620, 801.6661
546.0441, 847.5985
546.5262, 894.1986
547.0084, 941.8897
547.4905, 990.3744
547.9726, 1039.755
548.4547, 1089.634
548.9368, 1143.063
549.4189, 1198.489
549.9011, 1258.958
550.3832, 1326.099
550.8653, 1399.344
551.3474, 1481.288
551.8295, 1571.912
552.3116, 1670.004
552.7938, 1773.424
553.2759, 1882.093
553.7580, 1996.718
554.2401, 2118.328
554.7222, 2245.254
555.2043, 2375.847
555.6865, 2508.591
556.1686, 2638.995
556.6507, 2770.022
557.1328, 2894.071
557.6149, 3004.020
558.0970, 3099.525
558.5792, 3175.900
559.0613, 3236.048
559.5434, 3271.736
560.0255, 3273.687
560.5076, 3235.619
560.9897, 3171.202
561.4719, 3080.345
561.9540, 2966.381
562.4361, 2836.439
562.9182, 2681.637
563.4003, 2520.096
563.8824, 2349.576
564.3646, 2173.455
564.8467, 2004.667
565.3288, 1841.243
565.8109, 1688.525
566.2930, 1547.377
566.7751, 1418.470
567.2573, 1300.364
567.7394, 1192.039
568.2215, 1094.744
568.7036, 1009.460
569.1857, 935.6844
569.6678, 868.7505
570.1500, 809.0502
570.6321, 754.3728
571.1142, 703.3312
571.5963, 656.0623
572.0784, 613.0532
572.5605, 574.5316
573.0427, 539.9188
573.5248, 509.0467
574.0069, 481.8754
574.4890, 456.2214
574.9711, 432.0913
575.4532, 409.3865
575.9354, 388.4431
576.4175, 369.5512
576.8996, 351.2038
577.3817, 333.2122
577.8638, 316.3514
578.3459, 301.1859
578.8281, 288.2130
579.3102, 275.9027
579.7923, 264.2758
580.2744, 252.9431
580.7565, 241.2661
581.2386, 229.2918
581.7208, 217.9322
582.2029, 207.3848
582.6850, 197.6522
583.1671, 188.6422
583.6492, 180.2742
584.1313, 172.0995
584.6135, 163.4054
585.0956, 154.9372
585.5776, 147.4116
586.0598, 140.9202
586.5419, 134.9056
587.0240, 129.4894
587.5061, 124.1792
587.9882, 118.5563
588.4703, 111.9159
588.9525, 105.8539
589.4346, 100.3862
589.9167, 95.53137
590.3988, 91.43896
590.8809, 88.55348
591.3630, 85.34589
591.8452, 81.26050
592.3273, 76.63974
592.8094, 73.07516
593.2915, 70.66394
593.7736, 68.22466
594.2557, 64.71906
594.7379, 60.60107
595.2200, 57.10077
595.7021, 54.28583
596.1842, 51.89326
596.6663, 50.09219
597.1484, 48.44865
597.6306, 46.33141
598.1127, 43.46082
598.5948, 40.73207
599.0769, 38.68021
599.5590, 36.98088
600.0411, 35.21761
600.5233, 33.32877
601.0054, 31.37267
601.4875, 29.21170
601.9696, 26.99342
602.4517, 25.15668
602.9338, 23.79875
603.4160, 22.58139
603.8981, 21.41940
604.3802, 20.29329
604.8623, 19.04326
605.3444, 17.63768
605.8265, 16.25310
606.3087, 14.98734
606.7908, 13.84814
607.2729, 12.88345
607.7550, 12.11209
608.2371, 11.33173
608.7192, 10.21043
609.2014, 9.003616
609.6835, 8.059219
610.1656, 7.675064
610.6477, 7.277557
611.1298, 6.523605
611.6119, 5.602386
612.0941, 4.830521
612.5762, 4.418625
613.0583, 4.013092
613.5404, 3.597015
614.0225, 3.147369
614.5046, 2.432510
614.9868, 1.340454
615.4689, 0.2472080
615.9510, 0.8043520
616.4331, 1.783447
616.9152, 2.048080
617.3973, 1.531540
617.8795, 0.8896790
618.3616, 0.6387940
618.8437, 0.7121890
619.3258, 1.047409
619.8079, 1.712723
620.2900, 2.236023
620.7722, 2.029007
621.2543, 1.479843
621.7364, 1.130829
622.2185, 1.183319
622.7006, 1.417709
623.1827, 1.975143
623.6649, 2.659454
624.1470, 3.003189
624.6291, 2.620300
625.1112, 2.322479
625.5933, 2.390640
626.0754, 2.732697
626.5576, 2.573044
627.0397, 1.752701
627.5218, 0.9576570
628.0039, 0.6297760
628.4860, 0.7030180
628.9681, 0.5558780
629.4503, 0.1696620
629.9324, 0.1918330
630.4145, 0.2749940
630.8966, 0.1807100
631.3787, 9.0392999E-02
631.8608, 5.7831001E-02
632.3430, 3.9535999E-02
632.8251, 0.7011720
633.3072, 1.318619
633.7893, 1.158142
634.2714, 1.344482
634.7535, 3.059143
635.2357, 2.854675
635.7178, 1.488403
636.1999, 0.6500240
636.6820, 0.4036870
637.1641, 0.6111910
637.6462, 1.407181
638.1284, 2.628250
638.6105, 3.443909
639.0926, 3.854553
639.5747, 3.875839
640.0568, 3.195877
640.5389, 2.150558
641.0211, 1.842056
641.5032, 2.273087
641.9853, 2.809540
642.4674, 3.054947
642.9495, 3.095062
643.4316, 3.002884
643.9138, 2.775284
644.3959, 2.500916
644.8780, 2.154846
645.3601, 1.821320
645.8422, 1.595963
646.3243, 1.479492
646.8065, 1.508347
647.2886, 1.878571
647.7707, 2.287872
648.2528, 2.082840
648.7349, 1.042725
649.2170, 0.3669130
649.6992, 0.5209660
650.1813, 1.069397
650.6634, 0.6454010
651.1455, 0.6282500
651.6276, 1.528885
652.1097, 1.188934
652.5919, 0.2098540
653.0740, 0.7701110
653.5561, 1.709793
654.0382, 2.436935
654.5203, 2.770355
655.0024, 2.919189
655.4846, 2.990585
655.9667, 2.975204
656.4488, 2.982651
656.9309, 2.878693
657.4130, 2.913803
657.8951, 3.329865
658.3773, 4.397980
658.8594, 4.260468
659.3415, 5.498840
659.8236, 6.325607
660.3057, 6.766281
660.7878, 5.686646
661.2700, 6.550903
661.7521, 6.617554
662.2342, 6.641190
662.7163, 7.749207
663.1984, 6.842377
663.6805, 7.927032
664.1627, 8.215317
664.6448, 8.863815
665.1269, 8.709564
665.6090, 8.786591
666.0911, 9.648895
666.5732, 10.07901
667.0554, 9.826920
667.5375, 10.46957
668.0196, 9.486633
668.5017, 9.902695
668.9838, 10.91403
669.4659, 10.63873
669.9481, 11.23286
670.4302, 11.48581
670.9123, 11.20171
671.3944, 11.23018
671.8765, 11.08736
672.3586, 11.15414
672.8408, 11.25346
673.3229, 10.96051
673.8050, 10.02060
674.2871, 9.304520
674.7692, 9.889847
675.2513, 10.95322
675.7335, 11.53157
676.2156, 10.86191
676.6977, 10.30418
677.1798, 9.943863
677.6619, 9.763916
678.1440, 9.811172
678.6262, 10.30943
679.1083, 10.56639
679.5904, 10.28410
680.0725, 9.774323
680.5546, 9.958313
681.0367, 10.77844
681.5189, 11.43163
682.0010, 11.43085
682.4831, 11.20004
682.9652, 11.43385
683.4473, 11.98647
683.9294, 12.26385
684.4116, 11.68692
684.8937, 11.02283
685.3758, 10.74130
685.8579, 10.86391
686.3400, 10.94260
686.8221, 10.75888
687.3043, 10.70598
687.7864, 11.09761
688.2685, 12.13940
688.7506, 12.22499
689.2327, 11.02025
689.7148, 9.735672
690.1970, 9.722168
690.6791, 10.69743
691.1612, 10.97870
691.6433, 10.32309
692.1254, 9.601898
692.6075, 9.437790
693.0897, 9.671219
693.5718, 10.08565
694.0539, 10.77605
694.5360, 11.27441
695.0181, 11.24460
695.5002, 10.97220
695.9824, 10.86862
696.4645, 11.23589
696.9466, 11.43896
697.4287, 11.37325
697.9108, 11.10176
698.3929, 10.72864
698.8751, 10.19655
699.3572, 9.967285
699.8393, 10.23141
700.3214, 10.83778
700.8035, 11.53957
701.2856, 12.30984
701.7678, 12.97871
702.2499, 13.51170
702.7320, 13.85223
703.2141, 13.81189
703.6962, 13.45781
704.1783, 13.29539
704.6605, 13.72192
705.1426, 14.19395
705.6247, 14.44373
706.1068, 14.45354
706.5889, 14.37556
707.0710, 14.11012
707.5532, 13.95341
708.0353, 14.24855
708.5174, 14.95369
708.9995, 14.81621
709.4816, 13.76694
709.9637, 12.44818
710.4459, 11.44174
710.9280, 10.58380
711.4101, 9.552887
711.8922, 8.244675
712.3743, 6.924316
712.8564, 5.604935
713.3386, 4.460770
713.8207, 3.665344
714.3028, 3.727982
714.7849, 3.460770
715.2670, 2.406845
715.7491, 1.179001
716.2313, 0.6487880
716.7134, 1.022324
717.1955, 1.301544
717.6776, 1.265060
718.1597, 1.139694
718.6418, 1.460876
719.1240, 2.100784
719.6061, 2.487244
720.0882, 2.340775
720.5703, 1.949890
721.0524, 1.415970
721.5345, 0.8440250
722.0167, 0.5239560
722.4988, 1.016907
722.9809, 1.346054
723.4630, 0.9787900
723.9451, 9.7075999E-02
724.4272, 0.3966830
724.9094, 0.3997190
725.3915, 0.2240450
725.8736, 0.1153560
726.3557, 0.5620730
726.8378, 0.7601320
727.3199, 0.7101140
727.8021, 0.6033630
728.2842, 0.5754700
728.7663, 0.5567020
729.2484, 0.4514770
729.7305, 0.2620700
730.2126, 9.2320004E-03
730.6948, 0.8643340
731.1769, 1.467789
731.6590, 0.9329530
732.1411, 1.147461
732.6232, 2.125671
733.1053, 1.038010
733.5875, 0.2449490
734.0696, 0.5701450
734.5517, 0.2068180
735.0338, 0.6796260
735.5159, 0.8324890
735.9980, 0.8494570
736.4802, 0.8990480
736.9623, 0.9362340
737.4444, 0.8051300
737.9265, 0.4596560
738.4086, 0.1935880
738.8907, 0.3709110
739.3729, 0.6847380
739.8550, 0.7870790
740.3371, 0.4706880
740.8192, 0.2374880
741.3013, 0.1875150
741.7834, 0.2250520
742.2656, 0.2681120
742.7477, 0.2831120
743.2298, 0.4763950
743.7119, 0.9908290
744.1940, 1.458878
744.6761, 1.087692
745.1583, 8.0215000E-02
745.6404, 0.4914250
746.1225, 0.2293400
746.6046, 0.2814940
747.0867, 0.5972290
747.5688, 0.7548980
748.0510, 0.8020940
748.5331, 0.5596470
749.0152, 0.4316250
749.4973, 0.7711790
749.9794, 1.258514
750.4615, 1.154572
750.9437, 2.1973001E-02
751.4258, 0.5917820
751.9079, 0.1849820
752.3900, 0.7935030
752.8721, 1.219559
753.3542, 1.134750
753.8364, 1.040924
754.3185, 1.052841
754.8006, 1.257721
755.2827, 2.111710
755.7648, 3.283203
756.2469, 3.779510
756.7291, 2.304749
757.2112, 0.9701080
757.6933, 0.7282260
758.1754, 1.420288
758.6575, 1.959824
759.1396, 2.322998
759.6218, 2.565659
760.1039, 2.708206
760.5860, 2.745483
761.0681, 2.592285
761.5502, 2.259293
762.0323, 2.096390
762.5145, 2.565231
762.9966, 3.182266
763.4787, 3.281342
763.9608, 2.909088
764.4429, 2.413727
764.9250, 1.544983
765.4072, 0.9681550
765.8893, 1.168289
766.3714, 2.202209
766.8535, 3.001297
767.3356, 3.533676
767.8177, 3.881516
768.2999, 3.987640
768.7820, 3.894409
769.2641, 4.182159
769.7462, 4.857834
770.2283, 5.344254
770.7104, 5.135895
771.1926, 4.517944
771.6747, 3.658859
772.1568, 2.616119
772.6389, 2.129349
773.1210, 3.285553
773.6031, 4.519150
774.0853, 4.787933
774.5674, 3.850128
775.0495, 3.141418
775.5316, 2.646622
776.0137, 2.402267
776.4958, 2.559845
776.9780, 3.093658
777.4601, 3.234070
777.9422, 2.938339
778.4243, 2.778961
778.9064, 3.566910
779.3885, 4.629944
779.8707, 5.044037
780.3528, 4.676224
780.8349, 4.175278
781.3170, 3.502197
781.7991, 3.014664
782.2813, 3.056580
782.7633, 3.850281
783.2454, 4.413147
783.7275, 4.678589
784.2097, 4.809296
784.6918, 4.880768
785.1739, 4.900528
785.6560, 5.118301
786.1381, 5.589813
786.6202, 5.822525
787.1024, 4.922104
787.5845, 3.725800
788.0666, 3.426620
788.5487, 4.404694
789.0308, 5.154465
789.5129, 5.190521
789.9951, 4.865646
790.4772, 4.345993
790.9593, 3.355469
791.4414, 3.003128
791.9235, 3.544586
792.4056, 4.231735
792.8878, 4.170792
793.3699, 3.524902
793.8520, 3.261810
794.3341, 3.486679
794.8162, 3.868729
795.2983, 4.236526
795.7805, 4.557571
796.2626, 4.809753
796.7447, 5.011597
797.2268, 5.107468
797.7089, 4.794052
798.1910, 4.589417
798.6732, 4.952972
799.1553, 5.998840
799.6374, 6.949875
800.1195, 7.872849
800.6016, 8.411285
801.0837, 7.866180
801.5659, 6.640656
802.0480, 5.934372
802.5301, 5.927551
803.0122, 6.204453
803.4943, 6.651306
803.9764, 7.132996
804.4586, 7.469894
804.9407, 7.527588
805.4228, 7.750183
805.9049, 8.338211
806.3870, 8.909714
806.8691, 9.116135
807.3513, 8.857483
807.8334, 8.782150
808.3155, 8.951889
808.7976, 9.188782
809.2797, 9.252060
809.7618, 9.322495
810.2440, 9.687881
810.7261, 10.38777
811.2082, 11.10921
811.6903, 11.77887
812.1724, 12.36655
812.6545, 12.77386
813.1367, 12.60590
813.6188, 13.20966
814.1009, 14.82730
814.5830, 16.81107
815.0651, 18.63177
815.5472, 20.19795
816.0294, 21.60536
816.5115, 22.94270
816.9936, 24.39090
817.4757, 26.08115
817.9578, 27.96831
818.4399, 30.03053
818.9221, 32.26935
819.4042, 34.50168
819.8863, 36.40199
820.3684, 38.50031
820.8505, 41.19446
821.3326, 44.65187
821.8148, 48.01561
822.2969, 51.20370
822.7790, 54.49953
823.2611, 58.19940
823.7432, 62.18600
824.2253, 65.94922
824.7075, 69.41234
825.1896, 73.01349
825.6717, 77.24353
826.1538, 81.60919
826.6359, 85.77939
827.1180, 89.71964
827.6002, 93.18213
828.0823, 96.14673
828.5644, 98.62589
829.0465, 100.7916
829.5286, 102.6482
830.0107, 102.8105
830.4929, 101.2215
830.9750, 98.80092
831.4571, 96.10199
831.9392, 93.08495
832.4213, 89.82892
832.9034, 86.35179
833.3856, 82.14938
833.8677, 75.90485
834.3498, 69.84874
834.8319, 65.59346
835.3140, 63.25119
835.7961, 59.64098
836.2783, 54.25940
836.7604, 48.99017
837.2425, 44.94775
837.7246, 41.85202
838.2067, 38.48058
838.6888, 34.88034
839.1710, 31.77792
839.6531, 30.00604
840.1352, 28.64825
840.6173, 26.92630
841.0994, 24.85947
841.5815, 23.14003
842.0637, 22.50548
842.5458, 21.46605
843.0279, 19.40192
843.5100, 16.52794
843.9921, 14.16354
844.4742, 12.33762
844.9564, 10.69072
845.4385, 8.899490
845.9206, 7.293854
846.4027, 6.538132
846.8848, 6.424561
847.3669, 6.267838
847.8491, 5.819794
848.3312, 5.230621
848.8133, 4.513885
849.2954, 3.654327
849.7775, 2.622284
850.2596, 1.240112
850.7418, 0.4014280
851.2239, 0.4830630
851.7060, 1.021530
852.1881, 1.072723
852.6702, 0.7488400
853.1523, 0.4058230
853.6345, 0.1920620
854.1166, 4.5745999E-02
854.5987, 0.4048770
855.0808, 0.8592380
855.5629, 1.361649
856.0450, 2.592728
856.5272, 2.745178
857.0093, 1.103378
857.4914, 1.172302
857.9735, 2.138000
858.4556, 1.822922
858.9377, 0.9114380
859.4199, 0.6246340
859.9020, 2.131821
860.3841, 2.896515
860.8662, 3.140213
861.3483, 3.160416
861.8304, 2.827286
862.3126, 2.671509
862.7947, 3.069000
863.2768, 3.546982
863.7589, 3.750809
864.2410, 3.726959
864.7231, 3.018448
865.2053, 1.405396
865.6874, 7.3394999E-02
866.1695, 0.2330320
866.6516, 0.5314940
867.1337, 1.571442
867.6158, 2.865051
868.0980, 3.798553
868.5801, 3.734192
869.0622, 3.403107
869.5443, 3.435913
870.0264, 4.019440
870.5085, 4.030029
870.9907, 3.256805
871.4728, 2.469818
871.9549, 2.755280
872.4370, 3.546478
872.9191, 1.839935
873.4012, 2.241058
873.8834, 5.358826
874.3655, 4.074310
874.8476, 1.854065
875.3297, 1.251038
875.8118, 2.390350
876.2939, 3.559448
876.7761, 4.493256
877.2582, 5.578461
877.7403, 6.974182
878.2224, 8.638947
878.7045, 10.46786
879.1866, 12.43094
879.6688, 13.99493
880.1509, 14.28152
880.6330, 14.52258
881.1151, 16.21091
881.5972, 18.89142
882.0793, 21.21289
882.5615, 22.63873
883.0436, 23.85474
883.5257, 25.02066
884.0078, 26.07352
884.4899, 26.79022
884.9720, 27.14713
885.4542, 27.65192
885.9363, 28.42075
886.4184, 29.44366
886.9005, 31.07068
887.3826, 32.85861
887.8647, 34.01993
888.3469, 34.26001
888.8290, 33.94208
889.3111, 32.59537
889.7932, 31.08035
890.2753, 30.41525
890.7574, 31.00674
891.2396, 30.43851
891.7217, 28.37665
892.2038, 25.92233
892.6859, 24.18365
893.1680, 22.94769
893.6501, 21.87146
894.1323, 20.93121
894.6144, 19.81723
895.0965, 18.26266
895.5786, 16.56302
896.0607, 14.96716
896.5428, 13.53711
897.0250, 11.71121
897.5071, 9.425964
897.9892, 6.980896
898.4713, 4.082733
898.9534, 1.242126
899.4355, 0.2157590
899.9177, 0.7732240
900.3998, 1.316284
900.8819, 0.8986510
901.3640, 0.1769710
901.8461, 0.5738530
902.3282, 1.331024
902.8104, 2.051880
903.2925, 2.773193
903.7746, 3.374329
904.2567, 3.793182
904.7388, 4.105591
905.2209, 4.695892
905.7031, 5.397156
906.1852, 5.467224
906.6673, 4.096313
907.1494, 2.819275
907.6315, 3.026764
908.1136, 3.897858
908.5958, 4.047852
909.0779, 2.575378
909.5600, 1.714905
910.0421, 1.950684
910.5242, 2.299652
911.0063, 1.308136
911.4885, 0.7531740
911.9706, 2.489349
912.4527, 3.664429
912.9348, 4.612762
913.4169, 5.068665
913.8990, 5.711182
914.3812, 7.376007
914.8633, 10.56076
915.3454, 13.51566
915.8275, 15.77707
916.3096, 18.22272
916.7917, 21.65714
917.2739, 25.77359
917.7560, 28.58829
918.2381, 30.24429
918.7202, 32.06787
919.2023, 35.01572
919.6844, 38.40631
920.1666, 41.45651
920.6487, 44.35745
921.1308, 48.43457
921.6129, 55.19476
922.0950, 60.93695
922.5771, 64.34833
923.0593, 66.65796
923.5414, 70.81897
924.0235, 76.53796
924.5056, 82.46506
924.9877, 88.02539
925.4698, 93.77325
925.9520, 100.1891
926.4341, 107.1923
926.9162, 114.5442
927.3983, 121.9462
927.8804, 130.0606
928.3625, 139.0234
928.8447, 148.4657
929.3268, 158.1602
929.8089, 167.8997
930.2910, 176.6681
930.7731, 184.4749
931.2552, 193.4594
931.7374, 206.7579
932.2195, 220.9884
932.7016, 232.9531
933.1837, 241.9503
933.6658, 252.8450
934.1479, 266.7251
934.6301, 281.2616
935.1122, 295.5457
935.5943, 309.6950
936.0764, 323.9742
936.5585, 338.5627
937.0406, 353.8125
937.5228, 370.3465
938.0049, 387.4746
938.4870, 404.3964
938.9691, 421.5850
939.4512, 440.1570
939.9333, 461.1634
940.4155, 482.3366
940.8976, 503.4130
941.3797, 524.5222
941.8618, 544.7656
942.3439, 564.7903
942.8260, 587.4130
943.3082, 613.7872
943.7903, 641.0610
944.2724, 667.3384
944.7545, 693.2388
945.2366, 719.4617
945.7188, 745.8205
946.2009, 773.4675
946.6830, 802.5817
947.1651, 832.9092
947.6472, 864.0858
948.1293, 896.2054
948.6115, 931.0769
949.0936, 968.2665
949.5757, 1005.459
950.0578, 1040.542
950.5399, 1075.391
951.0220, 1110.263
951.5042, 1145.731
951.9863, 1183.752
952.4684, 1224.776
952.9505, 1267.296
953.4326, 1311.597
953.9147, 1356.330
954.3969, 1399.814
954.8790, 1442.431
955.3611, 1485.207
955.8432, 1527.615
956.3253, 1571.245
956.8074, 1618.134
957.2896, 1665.703
957.7717, 1712.313
958.2538, 1758.464
958.7359, 1801.346
959.2180, 1840.112
959.7001, 1877.330
960.1823, 1915.612
960.6644, 1953.720
961.1465, 1988.123
961.6286, 2019.052
962.1107, 2047.346
962.5928, 2075.016
963.0750, 2098.275
963.5571, 2115.203
964.0392, 2126.877
964.5213, 2137.271
965.0034, 2147.032
965.4855, 2149.890
965.9677, 2143.476
966.4498, 2130.547
966.9319, 2114.294
967.4140, 2094.573
967.8961, 2071.460
968.3782, 2044.602
968.8604, 2014.591
969.3425, 1981.098
969.8246, 1944.456
970.3067, 1903.769
970.7888, 1859.221
971.2709, 1813.899
971.7531, 1768.057
972.2352, 1721.180
972.7173, 1672.893
973.1994, 1623.214
973.6815, 1571.819
974.1636, 1519.225
974.6458, 1468.671
975.1279, 1421.884
975.6100, 1376.012
976.0921, 1330.396
976.5742, 1285.110
977.0563, 1240.484
977.5385, 1196.187
978.0206, 1152.336
978.5027, 1108.318
978.9848, 1066.013
979.4669, 1027.014
979.9490, 990.5783
980.4311, 955.8306
980.9132, 922.7906
981.3953, 890.6505
981.8774, 859.2951
982.3596, 829.4679
982.8417, 802.6596
983.3238, 778.0262
983.8059, 753.3244
984.2880, 728.4857
984.7701, 705.3423
985.2523, 685.2916
985.7344, 666.8491
986.2165, 649.1964
986.6986, 632.4143
987.1807, 617.5418
987.6628, 604.9647
988.1450, 592.6346
988.6271, 579.7432
989.1092, 567.4200
989.5913, 557.1427
990.0734, 548.6302
990.5555, 541.5485
991.0377, 536.8868
991.5198, 531.5110
992.0019, 523.9640
992.4840, 516.2638
992.9661, 510.0871
993.4482, 505.5022
993.9304, 500.1256
994.4125, 493.8318
994.8946, 487.5216
995.3767, 481.7551
995.8588, 476.1783
996.3409, 471.0604
996.8231, 466.0454
997.3052, 458.8219
997.7873, 448.3354
998.2694, 436.9971
998.7515, 425.2263
999.2336, 412.9626
999.7158, 400.3224
1000.198, 387.2864
1000.680, 374.0193
1001.162, 360.6725
1001.644, 347.1828
1002.126, 333.8732
1002.608, 320.3636
1003.091, 306.3476
1003.573, 291.2998
1004.055, 278.8109
1004.537, 269.2101
1005.019, 259.8034
1005.501, 247.8922
1005.983, 235.3326
1006.465, 225.0644
1006.948, 216.7406
1007.430, 208.5199
1007.912, 199.6838
1008.394, 190.9909
1008.876, 182.4496
1009.358, 174.2788
1009.840, 166.9304
1010.322, 160.3996
1010.804, 154.2368
1011.287, 148.3765
1011.769, 142.3630
1012.251, 135.0181
1012.733, 127.7436
1013.215, 122.3077
1013.697, 119.4068
1014.179, 115.0096
1014.661, 108.3092
1015.143, 101.6077
1015.626, 95.94308
1016.108, 91.23669
1016.590, 87.69026
1017.072, 84.97656
1017.554, 81.74866
1018.036, 76.74277
1018.518, 71.84497
1019.000, 67.83594
1019.483, 64.45059
1019.965, 61.42844
1020.447, 58.90128
1020.929, 55.87335
1021.411, 52.21457
1021.893, 48.35634
1022.375, 44.36374
1022.857, 40.61899
1023.339, 37.70546
1023.822, 35.63715
1024.304, 33.69263
1024.786, 31.88319
1025.268, 29.96030
1025.750, 27.90222
1026.232, 25.69199
1026.714, 22.99342
1027.196, 20.02466
1027.679, 17.98305
1028.161, 17.68250
1028.643, 17.45395
1029.125, 16.18005
1029.607, 14.39090
1030.089, 12.64905
1030.571, 11.01794
1031.053, 9.152374
1031.536, 6.882980
1032.018, 5.071533
1032.500, 4.699921
1032.982, 4.993164
1033.464, 4.705017
1033.946, 3.941269
1034.428, 3.230042
1034.910, 2.791428
1035.392, 2.427750
1035.875, 2.306351
1036.357, 2.053940
1036.839, 0.6468200
1037.321, 1.698181
1037.803, 2.631104
1038.285, 1.615234
1038.767, 0.4841460
1039.249, 0.7365110
1039.731, 1.480301
1040.214, 2.000717
1040.696, 2.215988
1041.178, 2.598480
1041.660, 3.203873
1042.142, 3.761536
1042.624, 4.239258
1043.106, 4.516251
1043.588, 4.331818
1044.071, 3.822876
1044.553, 3.299240
1045.035, 2.577621
1045.517, 2.326019
1045.999, 2.954315
1046.481, 3.780655
1046.963, 4.154480
1047.445, 4.106155
1047.927, 3.968033
1048.410, 3.764359
1048.892, 3.672684
1049.374, 3.901459
1049.856, 4.221222
1050.338, 4.558243
1050.820, 4.851685
1051.302, 4.802765
1051.784, 4.265305
1052.266, 3.922241
1052.749, 3.973297
1053.231, 4.086212
1053.713, 3.664597
1054.195, 3.033081
1054.677, 2.786606
1055.159, 3.104111
1055.641, 3.368820
1056.123, 3.530869
1056.606, 3.449829
1057.088, 2.926758
1057.570, 2.101563
1058.052, 1.960785
1058.534, 2.350708
1059.016, 2.241470
1059.498, 0.4746700
1059.980, 1.043900
1060.463, 0.7604060
1060.945, 0.3327330
1061.427, 0.8239590
1061.909, 0.5266720
1062.391, 0.1268920
1062.873, 0.3662410
1063.355, 0.9028470
1063.837, 1.608994
1064.319, 2.232742
1064.802, 2.196106
1065.284, 1.652435
1065.766, 1.611771
1066.248, 2.963654
1066.730, 3.987579
1067.212, 4.277939
1067.694, 4.191986
1068.176, 4.371002
1068.658, 4.763123
1069.141, 5.229645
1069.623, 5.775314
1070.105, 6.146088
1070.587, 5.719681
1071.069, 5.515640
1071.551, 6.465302
1072.033, 8.417480
1072.515, 9.084503
1072.998, 8.424042
1073.480, 7.776016
1073.962, 7.733551
1074.444, 7.971100
1074.926, 8.262863
1075.408, 8.560181
1075.890, 8.788147
1076.372, 8.693817
1076.854, 9.070801
1077.337, 10.07182
1077.819, 11.12878
1078.301, 11.83026
1078.783, 12.22443
1079.265, 12.34149
1079.747, 12.23010
1080.229, 12.11281
1080.711, 11.85791
1081.193, 11.90907
1081.676, 12.41212
1082.158, 13.21783
1082.640, 14.17854
1083.122, 15.25882
1083.604, 16.17570
1084.086, 16.90656
1084.568, 17.25806
1085.050, 16.72272
1085.532, 16.04849
1086.015, 15.74365
1086.497, 15.81588
1086.979, 16.22031
1087.461, 17.02147
1087.943, 17.74562
1088.425, 18.29085
1088.907, 18.58307
1089.389, 18.41678
1089.872, 17.97820
1090.354, 17.46663
1090.836, 16.67226
1091.318, 16.62699
1091.800, 17.57727
1092.282, 18.80573
1092.764, 20.12743
1093.246, 21.30605
1093.729, 21.34007
1094.211, 20.53117
1094.693, 20.04010
1095.175, 20.52203
1095.657, 21.10443
1096.139, 21.77802
1096.621, 22.34724
1097.103, 22.48648
1097.585, 22.20296
1098.068, 22.07316
1098.550, 22.13898
1099.032, 22.31876
1099.514, 22.77493
1099.996, 23.11079
1100.478, 22.99854
1100.960, 22.53550
1101.442, 22.09865
1101.924, 21.67115
1102.407, 21.50826
1102.889, 21.69164
1103.371, 21.97261
1103.853, 22.07948
1104.335, 22.06768
1104.817, 22.05351
1105.299, 22.07903
1105.781, 21.98767
1106.264, 21.77267
1106.746, 21.42139
1107.228, 20.82108
1107.710, 20.17030
1108.192, 19.87099
1108.674, 19.84778
1109.156, 19.95112
1109.638, 20.29564
1110.120, 20.41869
1110.603, 20.01239
1111.085, 19.54053
1111.567, 19.42097
1112.049, 19.55875
1112.531, 18.94697
1113.013, 17.70515
1113.495, 16.74111
1113.977, 16.93710
1114.459, 17.07475
1114.942, 16.27528
1115.424, 15.30785
1115.906, 15.23257
1116.388, 16.15057
1116.870, 16.45654
1117.352, 16.15543
1117.834, 15.68321
1118.316, 15.23977
1118.799, 14.67675
1119.281, 13.80270
1119.763, 12.80455
1120.245, 12.28288
1120.727, 12.36346
1121.209, 12.54885
1121.691, 12.77689
1122.173, 13.03620
1122.656, 13.56706
1123.138, 13.92104
1123.620, 13.24463
1124.102, 11.45657
1124.584, 10.73091
1125.066, 11.90051
1125.548, 12.74001
1126.030, 12.45468
1126.512, 11.63770
1126.995, 11.45307
1127.477, 11.66915
1127.959, 11.74271
1128.441, 11.49403
1128.923, 11.18215
1129.405, 10.87949
1129.887, 10.63368
1130.369, 10.44357
1130.851, 10.26728
1131.334, 9.907539
1131.816, 9.457062
1132.298, 9.300987
1132.780, 9.907852
1133.262, 10.35538
1133.744, 10.02383
1134.226, 9.457787
1134.708, 9.196259
1135.191, 9.282356
1135.673, 9.203117
1136.155, 8.954422
1136.637, 8.688988
1137.119, 8.394348
1137.601, 8.220779
1138.083, 8.450249
1138.565, 8.840157
1139.047, 8.884094
1139.530, 8.514137
1140.012, 8.194389
1140.494, 7.976730
1140.976, 7.743164
1141.458, 7.296364
1141.940, 6.847084
1142.422, 6.641731
1142.904, 6.644119
1143.386, 6.604256
1143.869, 6.458099
1144.351, 6.422890
1144.833, 6.569710
1145.315, 6.744629
1145.797, 6.721832
1146.279, 6.614906
1146.761, 6.613686
1147.243, 6.738678
1147.726, 6.713112
1148.208, 6.425858
1148.690, 6.180031
1149.172, 6.105232
1149.654, 6.086632
1150.136, 5.816887
1150.618, 5.438728
1151.100, 5.265366
1151.583, 5.421455
1152.065, 5.502777
1152.547, 5.299927
1153.029, 5.176445
1153.511, 5.347092
1153.993, 5.688950
1154.475, 5.782120
1154.957, 5.699387
1155.439, 5.702362
1155.922, 6.030579
1156.404, 6.145615
1156.886, 5.595528
1157.368, 5.009354
1157.850, 4.852516
1158.332, 5.053703
1158.814, 4.801369
1159.296, 4.189255
1159.778, 3.841331
1160.261, 4.537170
1160.743, 5.056427
1161.225, 4.609703
1161.707, 3.825043
1162.189, 3.302711
1162.671, 3.043663
1163.153, 3.054581
1163.635, 3.327789
1164.118, 3.675529
1164.600, 4.317055
1165.082, 4.632660
1165.564, 3.892868
1166.046, 2.677551
1166.528, 2.085724
1167.010, 2.176155
1167.492, 2.292915
1167.974, 2.375671
1168.457, 2.544060
1168.939, 3.085480
1169.421, 3.585243
1169.903, 3.700691
1170.385, 3.470688
1170.867, 3.148338
1171.349, 2.672607
1171.831, 2.463013
1172.313, 2.639343
1172.796, 2.856956
1173.278, 2.678627
1173.760, 2.411942
1174.242, 2.451561
1174.724, 2.795654
1175.206, 2.796288
1175.688, 2.351631
1176.170, 2.011543
1176.653, 1.927956
1177.135, 1.964653
1177.617, 2.020432
1178.099, 2.073341
1178.581, 2.110420
1179.063, 2.134239
1179.545, 2.046509
1180.027, 1.730896
1180.510, 1.630280
1180.992, 1.995819
1181.474, 2.521561
1181.956, 2.868294
1182.438, 3.018448
1182.920, 2.920311
1183.402, 2.492470
1183.884, 2.098778
1184.366, 1.673538
1184.849, 1.407936
1185.331, 1.457169
1185.813, 1.691086
1186.295, 2.004997
1186.777, 2.289268
1187.259, 2.291847
1187.741, 1.658508
1188.223, 1.396988
1188.705, 1.740265
1189.188, 2.046570
1189.670, 1.738167
1190.152, 1.211113
1190.634, 1.313873
1191.116, 1.884499
1191.598, 2.534775
1192.080, 3.547798
1192.562, 3.937012
1193.045, 3.403114
1193.527, 2.732918
1194.009, 2.735703
1194.491, 2.172607
1194.973, 2.563148
1195.455, 1.562141
1195.937, 0.8262020
1196.419, 0.6532590
1196.901, 0.8107990
1197.384, 1.394669
1197.866, 2.033020
1198.348, 2.412895
1198.830, 2.571396
1199.312, 2.548958
1199.794, 2.362900
1200.276, 2.102608
1200.758, 1.576889
1201.240, 1.349960
1201.723, 1.609932
1202.205, 1.996613
1202.687, 2.147530
1203.169, 2.056396
1203.651, 1.453316
1204.133, 0.4541700
1204.615, 7.8171000E-02
1205.097, 1.527710
1205.580, 2.496017
1206.062, 2.447098
1206.544, 1.915627
1207.026, 1.489113
1207.508, 1.233948
1207.990, 1.464165
1208.472, 2.174301
1208.954, 2.661880
1209.437, 2.621246
1209.919, 2.350922
1210.401, 1.737259
1210.883, 1.136696
1211.365, 1.338669
1211.847, 1.969360
1212.329, 2.003387
1212.811, 1.279510
1213.293, 0.8964770
1213.776, 1.654099
1214.258, 2.208267
1214.740, 2.152275
1215.222, 1.766846
1215.704, 1.488480
1216.186, 1.346191
1216.668, 1.496010
1217.150, 2.012840
1217.632, 2.196159
1218.115, 1.525932
1218.597, 1.016243
1219.079, 1.045456
1219.561, 1.337601
1220.043, 1.362747
1220.525, 1.217903
1221.007, 1.101479
1221.489, 1.056862
1221.972, 1.039261
1222.454, 1.089783
1222.936, 1.055183
1223.418, 0.7755200
1223.900, 0.4850080
1224.382, 0.8488240
1224.864, 1.570114
1225.346, 2.012901
1225.828, 1.985382
1226.311, 1.867081
1226.793, 1.781334
1227.275, 1.496017
1227.757, 0.7625050
1228.239, 7.2829999E-02
1228.721, 0.1589810
1229.203, 0.1730120
1229.685, 0.2208250
1230.167, 0.3625720
1230.650, 0.5973660
1231.132, 0.2807770
1231.614, 5.2483000E-02
1232.096, 0.1404720
1232.578, 7.3013000E-02
1233.060, 7.3273003E-02
1233.542, 0.2335510
1234.024, 0.2642360
1234.507, 7.1540996E-02
1234.989, 0.1366810
1235.471, 0.4220050
1235.953, 0.4920880
1236.435, 1.1032000E-02
1236.917, 0.6324160
1237.399, 0.5190890
1237.881, 9.3379999E-03
1238.364, 0.3965760
1238.846, 0.5109180
1239.328, 0.5132140
1239.810, 0.4033130
1240.292, 0.1649090
1240.774, 0.4128340
1241.256, 0.9276050
1241.738, 0.6207200
1242.220, 6.8213999E-02
1242.703, 0.3289870
1243.185, 0.1273880
1243.667, 0.5230640
1244.149, 0.8809430
1244.631, 1.007217
1245.113, 0.6269760
1245.595, 8.7348998E-02
1246.077, 0.3161010
1246.559, 0.6116180
1247.042, 0.7554400
1247.524, 0.7650300
1248.006, 0.6273570
1248.488, 0.3235700
1248.970, 2.0226000E-02
1249.452, 0.4866790
1249.934, 0.7791900
1250.416, 0.3677370
1250.899, 0.3102340
1251.381, 0.4718020
1251.863, 5.2017000E-02
1252.345, 0.1822130
1252.827, 9.1445997E-02
1253.309, 0.3721690
1253.791, 0.3795470
1254.273, 0.2796860
1254.755, 0.2193980
1255.238, 0.1560130
1255.720, 2.3132000E-02
1256.202, 0.1777110
1256.684, 0.2191390
1257.166, 0.1080780
1257.648, 0.1994630
1258.130, 1.240097
1258.612, 1.915230
1259.094, 1.189827
1259.577, 0.1680910
1260.059, 4.0787000E-02
1260.541, 0.7504430
1261.023, 1.576500
1261.505, 2.421516
1261.987, 2.808975
1262.469, 2.049431
1262.951, 1.308235
1263.434, 0.8875270
1263.916, 0.7266010
1264.398, 0.9331970
1264.880, 1.376129
1265.362, 1.418648
1265.844, 1.086769
1266.326, 0.6518860
1266.808, 4.5485999E-02
1267.291, 0.3537750
1267.773, 7.5229998E-03
1268.255, 0.5874940
1268.737, 1.167656
1269.219, 1.638466
1269.701, 1.642189
1270.183, 1.286385
1270.665, 1.024727
1271.147, 1.325615
1271.630, 1.461830
1272.112, 1.337311
1272.594, 1.086212
1273.076, 0.9680790
1273.558, 0.9684910
1274.040, 1.017258
1274.522, 1.125061
1275.004, 1.270058
1275.486, 1.313278
1275.969, 1.437431
1276.451, 1.688126
1276.933, 1.682556
1277.415, 0.9937360
1277.897, 0.2692950
1278.379, 0.3778530
1278.861, 0.9999160
1279.343, 1.207336
1279.825, 0.8480610
1280.308, 0.6470030
1280.790, 0.6954730
1281.272, 0.8111340
1281.754, 0.7346570
1282.236, 0.6997760
1282.718, 1.003258
1283.200, 1.411484
1283.682, 1.565109
1284.165, 1.455345
1284.647, 1.359940
1285.129, 1.268028
1285.611, 1.111069
1286.093, 1.136230
1286.575, 1.093071
1287.057, 0.6449810
1287.539, 0.2203220
1288.021, 0.4354250
1288.504, 1.118103
1288.986, 1.193726
1289.468, 0.7363280
1289.950, 0.3761900
1290.432, 0.4130780
1290.914, 0.6267320
1291.396, 1.146416
1291.878, 1.533760
1292.360, 1.201805
1292.843, 0.4671630
1293.325, 4.8981000E-02
1293.807, 7.6210000E-02
1294.289, 5.9303001E-02
1294.771, 2.8840001E-03
1295.253, 0.4029540
1295.735, 1.297218
1296.217, 2.006310
1296.700, 1.675026
1297.182, 0.9784160
1297.664, 0.8368990
1298.146, 1.111694
1298.628, 1.465431
1299.110, 1.868088
1299.592, 1.924103
1300.074, 1.531868
1300.557, 1.005432
1301.039, 0.4287570
1301.521, 1.8532000E-02
1302.003, 0.1287000
1302.485, 0.4372940
1302.967, 0.2828220
1303.449, 0.0000000E+00
##END=



