##NAMES=Schmiederite
##RRUFFID=R100089
##IDEAL CHEMISTRY=Cu_2_Pb_2_(Se^4+^O_3_)(Se^6+^O_4_)(OH)_4_
##LOCALITY=El Condor mine, Los Llantenes, Sierra de Cacheuta, La Rioja Province, Argentina
##OWNER=RRUFF
##SOURCE=William W. Pinch
##DESCRIPTION=Aggregates of blue bladed crystals
##STATUS=The identification of this mineral has been confirmed by single-crystal X-ray diffraction.
##URL=rruff.info/R100089
153.6495, 0.0000000E+00
154.1316, 1.619049
154.6137, 2.295807
155.0958, 0.6507720
155.5779, 0.3614500
156.0601, 0.3288730
156.5422, 0.2634120
157.0243, 0.9920040
157.5064, 1.826218
157.9885, 2.612473
158.4706, 3.043579
158.9528, 2.963257
159.4349, 3.611664
159.9170, 5.713272
160.3991, 8.563675
160.8812, 11.35243
161.3633, 13.58508
161.8455, 15.89505
162.3276, 18.59975
162.8097, 21.73344
163.2918, 24.96646
163.7739, 27.77750
164.2560, 30.31369
164.7382, 31.53503
165.2203, 33.60332
165.7024, 36.18265
166.1845, 38.73238
166.6666, 41.21788
167.1487, 43.59570
167.6309, 45.93912
168.1130, 48.19998
168.5951, 50.22446
169.0772, 51.95845
169.5593, 53.45172
170.0414, 54.75671
170.5236, 55.91628
171.0057, 56.82932
171.4878, 57.14458
171.9699, 57.09987
172.4520, 57.40790
172.9341, 58.85089
173.4163, 60.72766
173.8984, 62.22089
174.3805, 63.11870
174.8626, 63.65569
175.3447, 63.97089
175.8268, 64.09888
176.3090, 64.20828
176.7911, 64.22702
177.2732, 64.32452
177.7553, 64.81973
178.2374, 65.98557
178.7195, 67.35681
179.2017, 68.48001
179.6838, 69.35153
180.1659, 69.81573
180.6480, 69.83578
181.1301, 69.37338
181.6122, 68.23917
182.0944, 65.75027
182.5765, 63.01874
183.0586, 62.19504
183.5407, 63.26984
184.0228, 64.59225
184.5049, 64.75858
184.9871, 63.96097
185.4692, 62.85327
185.9513, 61.49728
186.4334, 60.01944
186.9155, 58.64075
187.3976, 57.36121
187.8798, 56.24231
188.3619, 55.43927
188.8440, 54.89658
189.3261, 54.31808
189.8082, 53.70337
190.2903, 52.97098
190.7725, 51.63559
191.2546, 49.55328
191.7367, 47.52878
192.2188, 46.73114
192.7009, 47.07117
193.1830, 47.03021
193.6652, 45.84552
194.1473, 43.72168
194.6294, 41.92914
195.1115, 40.42590
195.5936, 39.36447
196.0757, 39.26497
196.5579, 40.17497
197.0400, 40.66000
197.5221, 39.90205
198.0042, 38.01373
198.4863, 36.66638
198.9684, 35.93768
199.4506, 35.58879
199.9327, 35.26945
200.4148, 34.95436
200.8969, 34.86038
201.3790, 35.16115
201.8611, 35.87326
202.3433, 36.48071
202.8254, 37.05319
203.3075, 37.40338
203.7896, 37.01909
204.2717, 35.69444
204.7538, 34.64120
205.2360, 34.44862
205.7181, 35.21330
206.2002, 35.99442
206.6823, 36.86049
207.1644, 37.73431
207.6465, 38.26147
208.1287, 38.31718
208.6108, 38.68745
209.0929, 39.98856
209.5750, 42.55635
210.0571, 43.79945
210.5392, 43.26660
211.0214, 41.87004
211.5035, 41.31647
211.9856, 42.17227
212.4677, 43.41768
212.9498, 44.73853
213.4319, 46.24942
213.9140, 47.15475
214.3962, 47.16640
214.8783, 46.75543
215.3604, 47.05928
215.8425, 48.32675
216.3246, 49.72885
216.8067, 50.96410
217.2889, 52.08026
217.7710, 52.77487
218.2531, 52.86003
218.7352, 52.59900
219.2173, 52.69966
219.6994, 53.44565
220.1816, 53.96960
220.6637, 53.85249
221.1458, 52.85765
221.6279, 52.02794
222.1100, 51.49211
222.5921, 51.01979
223.0743, 50.02620
223.5564, 48.28230
224.0385, 46.64685
224.5206, 45.57228
225.0027, 45.21793
225.4848, 44.69347
225.9670, 44.24155
226.4491, 43.58252
226.9312, 41.72275
227.4133, 37.81451
227.8954, 34.08087
228.3775, 31.59978
228.8597, 30.53110
229.3418, 30.24669
229.8239, 31.13078
230.3060, 32.65213
230.7881, 33.41008
231.2702, 33.35379
231.7524, 32.63513
232.2345, 31.19530
232.7166, 28.28310
233.1987, 26.53854
233.6808, 26.30814
234.1629, 27.00708
234.6451, 27.22467
235.1272, 26.74539
235.6093, 26.08685
236.0914, 25.52461
236.5735, 25.22026
237.0556, 24.77449
237.5378, 23.95085
238.0199, 23.03516
238.5020, 22.83765
238.9841, 23.82100
239.4662, 24.90350
239.9483, 25.58195
240.4305, 25.64780
240.9126, 25.65913
241.3947, 25.71579
241.8768, 25.73524
242.3589, 25.40390
242.8410, 24.37445
243.3232, 23.42314
243.8053, 22.99191
244.2874, 23.57605
244.7695, 23.48248
245.2516, 22.34627
245.7337, 20.70769
246.2159, 19.80507
246.6980, 20.06479
247.1801, 20.39531
247.6622, 20.39925
248.1443, 20.03725
248.6264, 19.45485
249.1086, 18.60100
249.5907, 17.55351
250.0728, 16.44319
250.5549, 15.17281
251.0370, 13.99994
251.5191, 12.98763
252.0013, 12.09007
252.4834, 11.54071
252.9655, 11.45671
253.4476, 11.64711
253.9297, 11.76370
254.4118, 11.74409
254.8940, 11.75954
255.3761, 11.94327
255.8582, 12.45151
256.3403, 12.44698
256.8224, 11.67584
257.3046, 10.59013
257.7867, 10.02414
258.2688, 10.32654
258.7509, 10.40108
259.2330, 9.697464
259.7151, 7.923462
260.1973, 7.183105
260.6794, 7.885239
261.1615, 9.239655
261.6436, 10.12518
262.1257, 10.50940
262.6078, 10.50813
263.0900, 9.967194
263.5721, 8.755630
264.0542, 8.324371
264.5363, 8.988480
265.0184, 10.04451
265.5005, 10.63527
265.9827, 10.67468
266.4648, 10.44624
266.9469, 9.848770
267.4290, 8.857956
267.9111, 8.682831
268.3932, 9.717789
268.8754, 10.95399
269.3575, 11.11975
269.8396, 9.867416
270.3217, 8.845688
270.8038, 8.530960
271.2859, 8.880035
271.7681, 9.028442
272.2502, 8.928482
272.7323, 8.731018
273.2144, 8.591095
273.6965, 8.528061
274.1786, 8.414246
274.6608, 8.186279
275.1429, 7.876587
275.6250, 7.698730
276.1071, 7.638748
276.5892, 7.750229
277.0714, 8.326569
277.5535, 9.515167
278.0356, 9.785873
278.5177, 8.507050
278.9998, 6.184937
279.4819, 5.143387
279.9641, 5.698624
280.4462, 6.193237
280.9283, 4.956192
281.4104, 1.916977
281.8925, 0.2680360
282.3746, 1.026581
282.8568, 0.8030550
283.3389, 0.8058620
283.8210, 1.058990
284.3031, 1.364655
284.7852, 1.605667
285.2673, 1.786362
285.7495, 1.929871
286.2316, 2.055206
286.7137, 2.133362
287.1958, 2.028168
287.6779, 1.733658
288.1600, 1.549881
288.6422, 1.578217
289.1243, 1.847427
289.6064, 2.699753
290.0885, 4.368744
290.5706, 6.124329
291.0527, 6.737961
291.5349, 6.259094
292.0170, 5.429108
292.4991, 4.399307
292.9812, 3.300568
293.4633, 2.735443
293.9454, 2.790161
294.4276, 3.095276
294.9097, 3.178741
295.3918, 3.083359
295.8739, 3.044479
296.3560, 3.389359
296.8381, 3.854370
297.3203, 3.736664
297.8024, 2.983383
298.2845, 2.069489
298.7666, 1.598495
299.2487, 1.406677
299.7308, 0.9575810
300.2130, 0.1112980
300.6951, 1.520844
301.1772, 2.891449
301.6593, 4.217560
302.1414, 5.443665
302.6235, 6.227997
303.1057, 6.881622
303.5878, 8.016815
304.0699, 10.24661
304.5520, 12.76147
305.0341, 14.47781
305.5162, 15.49005
305.9984, 16.69080
306.4805, 18.61349
306.9626, 21.13608
307.4447, 24.05121
307.9268, 27.41550
308.4089, 31.06131
308.8911, 34.87076
309.3732, 38.84778
309.8553, 43.01743
310.3374, 47.44153
310.8195, 52.05045
311.3016, 56.67584
311.7838, 61.15247
312.2659, 65.90417
312.7480, 71.12915
313.2301, 76.77356
313.7122, 82.81421
314.1943, 89.39914
314.6765, 96.34943
315.1586, 103.5282
315.6407, 110.8285
316.1228, 118.5930
316.6049, 126.8810
317.0870, 135.7268
317.5692, 145.0303
318.0513, 154.9254
318.5334, 165.2702
319.0155, 175.8716
319.4976, 186.7499
319.9797, 198.2706
320.4619, 211.1678
320.9440, 224.6083
321.4261, 237.4745
321.9082, 249.0775
322.3903, 260.6372
322.8724, 272.7350
323.3546, 285.3940
323.8367, 297.3813
324.3188, 308.2615
324.8009, 318.5480
325.2830, 328.5032
325.7651, 337.6167
326.2473, 347.1797
326.7294, 358.0327
327.2115, 369.8675
327.6936, 380.2907
328.1757, 387.7101
328.6578, 394.6629
329.1400, 402.4178
329.6221, 410.9966
330.1042, 420.1951
330.5863, 430.5192
331.0684, 441.4980
331.5505, 451.5876
332.0327, 460.8878
332.5148, 469.2892
332.9969, 476.7963
333.4790, 483.2299
333.9611, 488.8648
334.4432, 494.3614
334.9254, 498.7113
335.4075, 500.2418
335.8896, 499.0768
336.3717, 494.7522
336.8538, 486.7742
337.3359, 474.8456
337.8180, 461.9455
338.3001, 447.8153
338.7823, 433.1084
339.2644, 418.9632
339.7465, 405.6566
340.2286, 391.3314
340.7107, 375.4603
341.1928, 358.1124
341.6750, 341.3108
342.1571, 324.7758
342.6392, 308.9638
343.1213, 294.0124
343.6034, 280.0360
344.0855, 266.7562
344.5677, 254.1266
345.0498, 242.3160
345.5319, 231.9935
346.0140, 223.1586
346.4961, 215.6216
346.9782, 209.7960
347.4604, 205.2662
347.9425, 200.3691
348.4246, 194.9052
348.9067, 189.1550
349.3888, 183.3533
349.8709, 177.5598
350.3531, 171.9696
350.8352, 166.5436
351.3173, 161.4053
351.7994, 156.7412
352.2815, 152.5638
352.7636, 148.8601
353.2458, 146.0416
353.7279, 143.6819
354.2100, 140.8309
354.6921, 136.5164
355.1742, 131.9898
355.6563, 128.5219
356.1385, 126.0852
356.6206, 124.1407
357.1027, 122.6591
357.5848, 121.3484
358.0669, 119.7983
358.5490, 117.4377
359.0312, 115.4884
359.5133, 114.8724
359.9954, 115.3016
360.4775, 115.9148
360.9596, 116.2722
361.4417, 116.6827
361.9239, 117.4856
362.4060, 119.0074
362.8881, 120.1001
363.3702, 120.1759
363.8523, 119.5815
364.3344, 118.8493
364.8166, 117.8252
365.2987, 116.9612
365.7808, 116.7396
366.2629, 117.3708
366.7450, 117.0091
367.2271, 114.3997
367.7093, 111.1585
368.1914, 108.7073
368.6735, 107.7658
369.1556, 106.9673
369.6377, 106.3280
370.1198, 105.7894
370.6020, 104.8010
371.0841, 103.1366
371.5662, 101.2287
372.0483, 99.34241
372.5304, 97.72375
373.0125, 95.66190
373.4947, 93.26691
373.9768, 90.39471
374.4589, 86.49438
374.9410, 80.90689
375.4231, 75.64014
375.9052, 71.66751
376.3874, 69.26776
376.8695, 65.78152
377.3516, 60.89624
377.8337, 55.40143
378.3158, 50.05051
378.7979, 44.80847
379.2801, 39.84021
379.7622, 35.07156
380.2443, 30.60687
380.7264, 26.88632
381.2085, 24.01379
381.6906, 21.24908
382.1728, 17.67075
382.6549, 13.48270
383.1370, 10.30322
383.6191, 8.646729
384.1012, 7.628632
384.5833, 5.593842
385.0655, 2.692230
385.5476, 7.6293997E-02
386.0297, 1.620483
386.5118, 2.601807
386.9939, 3.241272
387.4760, 3.560547
387.9582, 3.561249
388.4403, 2.946259
388.9224, 2.013733
389.4045, 1.388519
389.8866, 1.742188
390.3687, 2.215912
390.8509, 1.919586
391.3330, 0.9324650
391.8151, 0.1440120
392.2972, 0.7054750
392.7793, 1.444519
393.2614, 1.142822
393.7436, 1.468079
394.2257, 3.786346
394.7078, 3.884430
395.1899, 2.760773
395.6720, 3.036377
396.1541, 6.320770
396.6363, 10.57602
397.1184, 14.88937
397.6005, 19.10663
398.0826, 23.57639
398.5647, 28.52161
399.0468, 33.69257
399.5290, 38.78659
400.0111, 42.88962
400.4932, 47.89862
400.9753, 54.46347
401.4574, 62.60754
401.9395, 70.31564
402.4217, 77.89948
402.9038, 84.78748
403.3859, 90.53781
403.8680, 94.79840
404.3501, 98.89359
404.8322, 103.4687
405.3144, 107.6401
405.7965, 108.6786
406.2786, 105.9452
406.7607, 102.2452
407.2428, 98.65671
407.7249, 95.16699
408.2071, 91.76068
408.6892, 88.43381
409.1713, 85.14151
409.6534, 81.65976
410.1355, 78.03668
410.6176, 74.97623
411.0998, 72.92636
411.5819, 71.39230
412.0640, 69.13223
412.5461, 66.18707
413.0282, 63.08688
413.5103, 60.06009
413.9925, 57.23044
414.4746, 54.95981
414.9567, 53.50989
415.4388, 52.01022
415.9209, 48.93250
416.4030, 45.03430
416.8852, 42.11249
417.3673, 41.52509
417.8494, 42.03375
418.3315, 42.50699
418.8136, 42.86673
419.2957, 44.03513
419.7779, 46.66751
420.2600, 50.30350
420.7421, 54.43936
421.2242, 59.70529
421.7063, 64.68149
422.1884, 68.93619
422.6706, 72.56293
423.1527, 76.07596
423.6348, 79.91443
424.1169, 83.36697
424.5990, 86.20004
425.0811, 88.52197
425.5633, 89.87518
426.0454, 90.14526
426.5275, 89.51245
427.0096, 88.17059
427.4917, 86.04117
427.9738, 83.32306
428.4560, 79.98407
428.9381, 76.01169
429.4202, 71.78369
429.9023, 67.18790
430.3844, 62.63406
430.8665, 58.44626
431.3487, 54.63528
431.8308, 51.39493
432.3129, 48.89282
432.7950, 46.71921
433.2771, 43.90482
433.7592, 40.43167
434.2414, 37.34680
434.7235, 35.05353
435.2056, 33.50690
435.6877, 32.95752
436.1698, 33.51553
436.6519, 33.74826
437.1341, 31.69305
437.6162, 28.14316
438.0983, 25.18256
438.5804, 23.59235
439.0625, 22.54010
439.5446, 21.25867
440.0268, 19.76331
440.5089, 18.10092
440.9910, 16.12936
441.4731, 14.11160
441.9552, 12.07086
442.4373, 9.904327
442.9195, 8.495026
443.4016, 8.729187
443.8837, 9.821381
444.3658, 10.83655
444.8479, 10.88065
445.3300, 11.44376
445.8122, 13.07959
446.2943, 15.72501
446.7764, 18.73853
447.2585, 22.41135
447.7406, 26.10419
448.2227, 29.37115
448.7049, 30.92145
449.1870, 34.58560
449.6691, 41.58984
450.1512, 50.06790
450.6333, 56.79694
451.1154, 60.68948
451.5976, 65.32947
452.0797, 71.72839
452.5618, 79.78720
453.0439, 87.92752
453.5260, 96.11011
454.0081, 104.0413
454.4903, 111.2429
454.9724, 117.6767
455.4545, 124.5930
455.9366, 132.0367
456.4187, 140.1152
456.9008, 149.2886
457.3830, 159.4748
457.8651, 169.0659
458.3472, 177.2414
458.8293, 184.4810
459.3114, 191.7806
459.7935, 199.0941
460.2757, 206.3340
460.7578, 213.3382
461.2399, 220.1749
461.7220, 226.9117
462.2041, 233.6315
462.6862, 240.2653
463.1684, 247.0633
463.6505, 253.7870
464.1326, 259.7359
464.6147, 264.6947
465.0968, 268.7796
465.5789, 271.9870
466.0611, 274.3415
466.5432, 275.7269
467.0253, 275.9810
467.5074, 275.3034
467.9895, 273.8697
468.4716, 272.4454
468.9538, 269.2255
469.4359, 263.8344
469.9180, 256.6416
470.4001, 248.7430
470.8822, 240.4817
471.3643, 230.9992
471.8465, 219.6132
472.3286, 206.0799
472.8107, 193.3500
473.2928, 181.8454
473.7749, 170.5366
474.2570, 158.1944
474.7392, 144.8348
475.2213, 132.4827
475.7034, 121.7374
476.1855, 112.0475
476.6676, 102.0950
477.1497, 91.94669
477.6319, 82.73053
478.1140, 75.43796
478.5961, 69.30185
479.0782, 63.03452
479.5603, 56.52271
480.0424, 50.22565
480.5246, 44.08133
481.0067, 38.49826
481.4888, 34.08423
481.9709, 32.12866
482.4530, 30.08386
482.9352, 26.16953
483.4173, 21.00482
483.8994, 16.57983
484.3815, 13.96585
484.8636, 11.91772
485.3457, 9.847260
485.8279, 7.604980
486.3100, 5.693665
486.7921, 4.547668
487.2742, 3.568817
487.7563, 2.121948
488.2384, 0.5802920
488.7206, 2.546936
489.2027, 3.203888
489.6848, 2.900726
490.1669, 3.246552
490.6490, 4.564941
491.1311, 5.856873
491.6133, 6.577240
492.0954, 6.680573
492.5775, 6.465210
493.0596, 5.889984
493.5417, 5.286377
494.0238, 5.205902
494.5060, 5.350372
494.9881, 4.689026
495.4702, 2.930817
495.9523, 0.7336120
496.4344, 1.403259
496.9165, 3.570557
497.3987, 5.769836
497.8808, 7.917542
498.3629, 9.963196
498.8450, 11.80109
499.3271, 13.45767
499.8092, 15.63507
500.2914, 18.90335
500.7735, 22.57455
501.2556, 26.13123
501.7377, 29.27444
502.2198, 32.56680
502.7019, 35.94067
503.1841, 39.47809
503.6662, 43.51248
504.1483, 48.76337
504.6304, 53.91391
505.1125, 58.52509
505.5946, 62.55026
506.0768, 66.62558
506.5589, 70.65106
507.0410, 74.87112
507.5231, 79.59067
508.0052, 84.90433
508.4873, 89.82889
508.9695, 94.05734
509.4516, 98.08908
509.9337, 103.0864
510.4158, 108.9763
510.8979, 114.2885
511.3800, 117.9883
511.8622, 120.7960
512.3443, 124.3923
512.8264, 128.7367
513.3085, 133.3440
513.7906, 138.7543
514.2728, 143.8300
514.7549, 147.0206
515.2370, 147.8028
515.7191, 147.4584
516.2012, 146.1586
516.6833, 144.3777
517.1655, 142.8130
517.6476, 142.9125
518.1297, 142.0433
518.6118, 138.9764
519.0939, 133.8755
519.5760, 128.6918
520.0582, 123.8293
520.5403, 118.7938
521.0224, 113.4389
521.5045, 107.6431
521.9866, 101.8046
522.4688, 95.99823
522.9509, 90.04489
523.4330, 83.49393
523.9151, 76.18295
524.3972, 69.19733
524.8793, 62.68890
525.3615, 56.79642
525.8436, 51.99014
526.3257, 48.23004
526.8078, 44.70743
527.2899, 40.80469
527.7720, 36.78009
528.2542, 33.30823
528.7363, 30.43948
529.2184, 27.81230
529.7005, 24.93935
530.1826, 22.24844
530.6647, 20.39917
531.1469, 20.05721
531.6290, 19.79178
532.1111, 18.84148
532.5932, 17.40309
533.0753, 15.89246
533.5574, 14.04623
534.0396, 12.50757
534.5217, 11.58777
535.0038, 11.35002
535.4859, 10.96425
535.9680, 10.33534
536.4501, 9.635117
536.9323, 8.978088
537.4144, 8.418304
537.8965, 7.715088
538.3786, 6.862854
538.8607, 5.875519
539.3428, 4.685287
539.8250, 3.236069
540.3071, 2.164505
540.7892, 1.761230
541.2713, 1.779938
541.7534, 1.729523
542.2355, 1.611954
542.7177, 1.415817
543.1998, 1.103333
543.6819, 0.7075500
544.1640, 0.1824800
544.6461, 0.4955900
545.1282, 0.9051970
545.6104, 0.3521120
546.0925, 0.4569400
546.5746, 0.6840520
547.0567, 0.4720000
547.5388, 1.309250
548.0209, 0.9480290
548.5031, 6.0410000E-02
548.9852, 0.5812070
549.4673, 4.9042001E-02
549.9494, 0.5009770
550.4315, 0.6851040
550.9136, 0.4918210
551.3958, 0.9735570
551.8779, 2.806931
552.3600, 4.244324
552.8421, 3.769135
553.3242, 1.011902
553.8063, 0.4218140
554.2885, 6.6895001E-02
554.7706, 0.9124910
555.2527, 0.7241970
555.7348, 0.3978120
556.2169, 0.9137270
556.6990, 8.6209998E-03
557.1812, 1.266418
557.6633, 1.280426
558.1454, 0.3205260
558.6275, 0.5353240
559.1096, 0.2700650
559.5917, 7.7591002E-02
560.0739, 0.5544890
560.5560, 2.256775
561.0381, 3.608643
561.5202, 3.819733
562.0023, 3.580704
562.4844, 3.395889
562.9666, 3.419052
563.4487, 3.362015
563.9308, 3.010818
564.4129, 2.652451
564.8950, 2.788971
565.3771, 3.743500
565.8593, 4.459839
566.3414, 4.657578
566.8235, 4.440155
567.3056, 4.174850
567.7877, 3.820953
568.2698, 3.733704
568.7520, 4.336227
569.2341, 5.401962
569.7162, 5.977463
570.1983, 6.001801
570.6804, 6.043243
571.1625, 6.984390
571.6447, 8.210190
572.1268, 8.655441
572.6089, 7.759705
573.0910, 6.708939
573.5731, 6.115341
574.0552, 5.908356
574.5374, 5.945953
575.0195, 6.517059
575.5016, 7.002075
575.9837, 7.072678
576.4658, 6.781540
576.9479, 6.817078
577.4301, 7.374084
577.9122, 8.047653
578.3943, 8.651047
578.8764, 9.133865
579.3585, 9.946579
579.8406, 11.35342
580.3228, 12.50629
580.8049, 12.25720
581.2870, 10.69795
581.7691, 9.438675
582.2512, 8.682495
582.7333, 8.532761
583.2155, 9.504135
583.6975, 11.26442
584.1796, 12.81392
584.6617, 13.42453
585.1439, 13.79211
585.6260, 14.85054
586.1081, 16.35402
586.5902, 17.06516
587.0723, 15.44897
587.5544, 13.62566
588.0366, 12.77122
588.5187, 13.15321
589.0008, 13.92627
589.4829, 15.52930
589.9650, 17.12695
590.4471, 18.03607
590.9293, 17.78009
591.4114, 17.97900
591.8935, 18.88181
592.3756, 20.13098
592.8577, 21.11389
593.3398, 21.81674
593.8220, 22.38501
594.3041, 22.86816
594.7862, 23.24330
595.2683, 23.36127
595.7504, 23.26636
596.2325, 23.28465
596.7147, 23.67465
597.1968, 24.26059
597.6789, 24.74312
598.1610, 25.08835
598.6431, 25.74380
599.1252, 27.50368
599.6074, 29.36807
600.0895, 30.48128
600.5716, 30.13884
601.0537, 29.99142
601.5358, 30.25899
602.0179, 30.84563
602.5001, 31.67445
602.9822, 32.95311
603.4643, 34.17201
603.9464, 35.34685
604.4285, 36.34326
604.9106, 36.62726
605.3928, 36.11423
605.8749, 35.83253
606.3570, 36.41524
606.8391, 37.59332
607.3212, 38.58487
607.8033, 39.38254
608.2855, 40.06366
608.7676, 40.57375
609.2497, 41.01183
609.7318, 41.52235
610.2139, 42.24464
610.6960, 42.82433
611.1782, 42.86034
611.6603, 42.79012
612.1424, 43.08127
612.6245, 44.73364
613.1066, 45.66508
613.5887, 45.28513
614.0709, 44.09445
614.5530, 43.12863
615.0351, 42.65138
615.5172, 41.76878
615.9993, 40.02390
616.4814, 37.70296
616.9636, 36.53769
617.4457, 36.62387
617.9278, 36.77788
618.4099, 36.26103
618.8920, 35.22948
619.3741, 33.92572
619.8563, 32.33043
620.3384, 31.11015
620.8205, 31.42830
621.3026, 32.16911
621.7847, 31.85893
622.2668, 29.77675
622.7490, 27.76820
623.2311, 26.62170
623.7132, 26.02875
624.1953, 25.58218
624.6774, 25.55862
625.1595, 25.21179
625.6417, 24.34039
626.1238, 23.12421
626.6059, 22.05440
627.0880, 21.14188
627.5701, 20.32468
628.0522, 19.61420
628.5344, 19.01099
629.0165, 18.37747
629.4986, 17.64377
629.9807, 16.95981
630.4628, 16.39932
630.9449, 16.05009
631.4271, 16.07024
631.9092, 16.42833
632.3913, 16.64244
632.8734, 16.23100
633.3555, 15.61320
633.8376, 15.23042
634.3198, 15.29862
634.8019, 15.50905
635.2840, 15.74083
635.7661, 15.98613
636.2482, 16.29218
636.7303, 16.81065
637.2125, 17.12125
637.6946, 17.00214
638.1767, 16.76915
638.6588, 17.33525
639.1409, 18.68442
639.6230, 20.08821
640.1052, 21.41068
640.5873, 22.67352
641.0694, 23.71722
641.5515, 24.49867
642.0336, 25.10478
642.5157, 25.28613
642.9979, 25.52312
643.4800, 26.47513
643.9621, 28.26889
644.4442, 30.13708
644.9263, 31.95117
645.4084, 33.44414
645.8906, 34.33763
646.3727, 34.14729
646.8548, 34.13829
647.3369, 34.20459
647.8190, 34.64798
648.3011, 36.00145
648.7833, 38.79874
649.2654, 40.69051
649.7475, 41.06104
650.2296, 40.63759
650.7117, 40.98651
651.1938, 42.05048
651.6760, 43.16518
652.1581, 44.28894
652.6402, 45.12825
653.1223, 44.99031
653.6044, 44.12518
654.0865, 43.43787
654.5687, 43.72693
655.0508, 44.18257
655.5329, 44.29706
656.0150, 44.02412
656.4971, 43.61319
656.9792, 43.08600
657.4614, 42.45387
657.9435, 41.66602
658.4256, 40.55202
658.9077, 39.94766
659.3898, 40.11075
659.8719, 40.32483
660.3541, 39.68466
660.8362, 38.22826
661.3183, 37.24075
661.8004, 37.00909
662.2825, 37.00014
662.7646, 36.54364
663.2468, 35.76265
663.7289, 34.97166
664.2110, 34.46738
664.6931, 33.76265
665.1752, 32.28290
665.6573, 30.35193
666.1395, 28.70665
666.6216, 27.68030
667.1037, 26.86234
667.5858, 26.09552
668.0679, 25.40512
668.5500, 25.10593
669.0322, 25.52138
669.5143, 25.68066
669.9964, 25.05928
670.4785, 23.71342
670.9606, 22.59338
671.4427, 21.71474
671.9249, 20.85420
672.4070, 19.65735
672.8891, 18.37022
673.3712, 17.67599
673.8533, 17.69907
674.3354, 17.57118
674.8176, 16.11221
675.2997, 14.43977
675.7818, 13.85875
676.2639, 15.65454
676.7460, 16.66513
677.2281, 15.53661
677.7103, 13.50677
678.1924, 12.08266
678.6745, 11.59877
679.1566, 11.00867
679.6387, 10.13280
680.1208, 9.120453
680.6030, 8.209793
681.0851, 7.414627
681.5672, 6.951935
682.0493, 7.079086
682.5314, 7.387253
683.0135, 7.119751
683.4957, 6.395233
683.9778, 5.683640
684.4599, 5.459549
684.9420, 5.157227
685.4241, 4.052902
685.9063, 2.254333
686.3884, 1.289307
686.8705, 2.874268
687.3526, 4.175446
687.8347, 3.709793
688.3168, 1.074020
688.7990, 0.3620910
689.2811, 0.2676540
689.7632, 0.2806850
690.2453, 0.6062160
690.7274, 0.7038730
691.2095, 0.2307740
691.6917, 0.9088590
692.1738, 1.995911
692.6559, 2.194641
693.1380, 1.846069
693.6201, 1.488434
694.1022, 1.205627
694.5844, 1.100464
695.0665, 1.576248
695.5486, 2.102570
696.0307, 2.007050
696.5128, 0.2237550
696.9949, 0.8772280
697.4771, 0.6177670
697.9592, 0.3061520
698.4413, 0.4152070
698.9234, 0.5820620
699.4055, 1.378754
699.8876, 1.668427
700.3698, 1.513947
700.8519, 0.8411250
701.3340, 0.2749940
701.8161, 1.198349
702.2982, 1.632355
702.7803, 1.639023
703.2625, 1.049942
703.7446, 2.1942001E-02
704.2267, 0.9076230
704.7088, 1.362122
705.1909, 1.531738
705.6730, 1.347809
706.1552, 0.7682800
706.6373, 0.5182500
707.1194, 0.5682980
707.6015, 0.9995120
708.0836, 2.043945
708.5657, 3.756195
709.0479, 4.766754
709.5300, 5.036072
710.0121, 4.804626
710.4942, 3.563293
710.9763, 2.079071
711.4584, 2.559875
711.9406, 5.558258
712.4227, 8.286377
712.9048, 8.328705
713.3869, 7.235687
713.8690, 6.649963
714.3511, 7.365234
714.8333, 7.833771
715.3154, 7.447388
715.7975, 6.852753
716.2796, 6.754791
716.7617, 7.322845
717.2438, 7.921906
717.7260, 8.496429
718.2081, 9.042267
718.6902, 9.669342
719.1723, 10.32211
719.6544, 10.42148
720.1365, 9.551666
720.6187, 8.418762
721.1008, 7.555939
721.5829, 7.080139
722.0650, 7.260559
722.5471, 9.288513
723.0292, 10.90753
723.5114, 10.71100
723.9935, 9.152863
724.4756, 8.308746
724.9577, 8.768494
725.4398, 9.131653
725.9219, 8.949799
726.4041, 8.329773
726.8862, 7.798828
727.3683, 7.337585
727.8504, 7.235535
728.3325, 8.075409
728.8146, 9.271454
729.2968, 9.445984
729.7789, 8.686096
730.2610, 7.823212
730.7431, 7.320587
731.2252, 6.960541
731.7073, 6.656708
732.1895, 6.418518
732.6716, 5.946289
733.1537, 4.731506
733.6358, 3.679413
734.1179, 3.323944
734.6000, 3.851196
735.0822, 3.932770
735.5643, 3.475250
736.0464, 2.894409
736.5285, 2.652466
737.0106, 2.613800
737.4927, 2.159119
737.9749, 1.175446
738.4570, 0.2933040
738.9391, 2.7649000E-02
739.4212, 0.1956480
739.9033, 0.6947630
740.3854, 1.832336
740.8676, 2.488281
741.3497, 1.842163
741.8318, 0.8401180
742.3139, 0.5083920
742.7960, 1.259308
743.2781, 1.581879
743.7603, 1.233063
744.2424, 0.6263430
744.7245, 0.5160220
745.2066, 0.7932430
745.6887, 0.6076970
746.1708, 0.4810790
746.6530, 1.667297
747.1351, 1.811249
747.6172, 1.350189
748.0993, 1.101288
748.5814, 1.432861
749.0635, 1.980621
749.5457, 2.850647
750.0278, 3.865662
750.5099, 4.597229
750.9920, 4.950256
751.4741, 5.028564
751.9562, 4.622375
752.4384, 4.138153
752.9205, 4.952789
753.4026, 7.020935
753.8847, 8.547852
754.3668, 8.637421
754.8489, 7.887451
755.3311, 6.809540
755.8132, 5.622742
756.2953, 4.850525
756.7774, 4.950653
757.2595, 5.210236
757.7416, 5.575500
758.2238, 5.924103
758.7059, 5.539917
759.1880, 4.094025
759.6701, 2.503571
760.1522, 0.8925780
760.6343, 0.7045290
761.1165, 1.947479
761.5986, 2.818237
762.0807, 4.087036
762.5628, 6.221375
763.0449, 8.963440
763.5270, 12.17374
764.0092, 15.67377
764.4913, 18.74179
764.9734, 19.94037
765.4555, 21.47723
765.9376, 24.79831
766.4197, 30.01465
766.9019, 35.28378
767.3840, 40.38046
767.8661, 45.64130
768.3482, 51.15710
768.8303, 56.95300
769.3124, 63.10925
769.7946, 69.57153
770.2767, 76.42169
770.7588, 83.59018
771.2409, 91.22644
771.7230, 99.45432
772.2051, 108.3069
772.6873, 118.2214
773.1694, 129.7750
773.6515, 142.2224
774.1336, 155.3638
774.6157, 169.3205
775.0978, 182.8909
775.5800, 195.1195
776.0621, 208.1685
776.5442, 223.4824
777.0263, 241.2244
777.5084, 258.7809
777.9905, 276.1058
778.4727, 294.3800
778.9548, 314.9152
779.4369, 336.9849
779.9190, 359.5835
780.4011, 382.4314
780.8832, 405.4488
781.3654, 428.3227
781.8475, 451.2130
782.3296, 474.2699
782.8117, 497.3332
783.2938, 520.4741
783.7759, 543.9276
784.2581, 567.2326
784.7402, 590.0003
785.2223, 612.1528
785.7044, 633.9108
786.1865, 655.3051
786.6686, 674.3934
787.1508, 688.8654
787.6329, 699.8462
788.1150, 709.6265
788.5971, 718.8840
789.0792, 724.7624
789.5613, 726.2260
790.0435, 723.6798
790.5256, 717.1726
791.0077, 706.3024
791.4898, 693.1537
791.9719, 678.3246
792.4540, 660.2874
792.9362, 637.0964
793.4183, 608.9623
793.9004, 581.9025
794.3825, 556.2964
794.8646, 530.6064
795.3467, 501.8561
795.8289, 472.2614
796.3110, 445.0617
796.7931, 420.5217
797.2752, 397.8958
797.7573, 376.4177
798.2394, 356.8659
798.7216, 339.7617
799.2037, 325.2367
799.6858, 312.3079
800.1679, 300.8552
800.6500, 291.2439
801.1321, 283.4897
801.6143, 277.6798
802.0964, 274.3789
802.5785, 273.7940
803.0606, 274.2783
803.5427, 273.9386
804.0248, 274.1031
804.5070, 276.2539
804.9891, 280.9030
805.4712, 286.9267
805.9533, 294.4608
806.4354, 303.0882
806.9175, 312.5131
807.3997, 322.6049
807.8818, 334.0507
808.3639, 346.7747
808.8460, 360.8786
809.3281, 376.2918
809.8102, 393.1671
810.2924, 411.7461
810.7745, 431.9763
811.2566, 454.3082
811.7387, 479.0350
812.2208, 505.8759
812.7029, 534.5970
813.1851, 565.5325
813.6672, 597.4440
814.1493, 630.1288
814.6314, 663.8852
815.1135, 698.5908
815.5956, 734.5232
816.0778, 771.2330
816.5599, 808.8662
817.0420, 847.5162
817.5241, 887.8004
818.0062, 928.8038
818.4883, 969.6650
818.9705, 1010.313
819.4526, 1051.558
819.9347, 1096.421
820.4168, 1140.075
820.8989, 1178.927
821.3810, 1212.289
821.8632, 1243.028
822.3453, 1272.219
822.8274, 1296.580
823.3095, 1313.541
823.7916, 1323.265
824.2737, 1325.472
824.7559, 1320.212
825.2380, 1306.796
825.7201, 1283.980
826.2022, 1253.227
826.6843, 1215.243
827.1664, 1169.674
827.6486, 1121.663
828.1307, 1069.314
828.6128, 1017.203
829.0949, 966.3989
829.5770, 917.1411
830.0591, 871.6865
830.5413, 830.2780
831.0234, 792.5958
831.5055, 758.4591
831.9876, 727.9749
832.4697, 701.3605
832.9518, 678.7031
833.4340, 658.0702
833.9161, 638.1931
834.3982, 620.2850
834.8803, 605.8474
835.3624, 595.3057
835.8445, 583.5774
836.3267, 569.8875
836.8088, 556.5068
837.2909, 544.6333
837.7730, 534.1119
838.2551, 524.0460
838.7372, 514.4480
839.2194, 505.4090
839.7015, 497.1031
840.1836, 489.3316
840.6657, 482.1757
841.1478, 475.4598
841.6299, 468.5039
842.1121, 461.0673
842.5942, 453.1941
843.0763, 444.9432
843.5584, 436.3445
844.0405, 427.2272
844.5226, 417.5682
845.0048, 407.0164
845.4869, 395.0820
845.9690, 382.3267
846.4511, 369.8879
846.9332, 357.8416
847.4153, 346.4271
847.8975, 335.9034
848.3796, 325.6847
848.8617, 315.5487
849.3438, 305.5732
849.8259, 296.0322
850.3080, 286.8412
850.7902, 278.1215
851.2723, 270.0641
851.7544, 262.4653
852.2365, 255.0941
852.7186, 247.8958
853.2007, 240.4545
853.6829, 232.4761
854.1650, 224.5845
854.6471, 217.2692
855.1292, 210.3628
855.6113, 203.5559
856.0934, 196.7588
856.5756, 190.1898
857.0577, 183.8507
857.5398, 177.7685
858.0219, 171.8087
858.5040, 165.9499
858.9861, 160.0331
859.4683, 153.9352
859.9504, 147.9333
860.4325, 142.6224
860.9146, 137.6196
861.3967, 132.3597
861.8788, 126.6126
862.3610, 120.8728
862.8431, 115.1797
863.3252, 109.7380
863.8073, 104.8255
864.2894, 100.5974
864.7715, 96.21463
865.2537, 91.52216
865.7358, 87.14157
866.2179, 84.01468
866.7000, 81.72272
867.1821, 78.73929
867.6642, 74.74905
868.1464, 71.04059
868.6285, 68.71878
869.1106, 66.87088
869.5927, 64.76559
870.0748, 62.22708
870.5569, 59.60541
871.0391, 56.83322
871.5212, 54.10269
872.0033, 51.62851
872.4854, 49.42542
872.9675, 47.21033
873.4496, 44.91031
873.9318, 42.60556
874.4139, 39.83197
874.8960, 37.36719
875.3781, 36.14609
875.8602, 36.10986
876.3423, 36.17792
876.8245, 36.63040
877.3066, 36.16379
877.7887, 34.00516
878.2708, 30.83823
878.7529, 29.74185
879.2350, 30.70474
879.7172, 30.74728
880.1993, 27.94791
880.6814, 24.36716
881.1635, 22.89529
881.6456, 22.76364
882.1277, 22.17114
882.6099, 19.86023
883.0920, 17.70740
883.5741, 16.31027
884.0562, 15.34854
884.5383, 14.27637
885.0204, 13.09515
885.5026, 11.77637
885.9847, 10.26852
886.4668, 8.752136
886.9489, 7.384064
887.4310, 6.201019
887.9131, 5.377960
888.3953, 5.166229
888.8774, 4.717133
889.3595, 3.618378
889.8416, 2.121643
890.3237, 0.3641970
890.8058, 2.066528
891.2880, 3.324188
891.7701, 3.096039
892.2522, 2.634644
892.7343, 3.232483
893.2164, 4.480072
893.6985, 5.282043
894.1807, 5.543976
894.6628, 5.640427
895.1449, 5.705566
895.6270, 5.757187
896.1091, 5.796555
896.5912, 5.816986
897.0734, 5.923920
897.5555, 6.125916
898.0376, 6.401794
898.5197, 6.884399
899.0018, 7.385559
899.4839, 6.965912
899.9661, 5.802200
900.4482, 4.926651
900.9303, 5.356277
901.4124, 5.839996
901.8945, 5.586426
902.3766, 4.716660
902.8588, 3.628876
903.3409, 1.925125
903.8230, 0.9040990
904.3051, 1.079285
904.7872, 1.717209
905.2693, 1.202805
905.7515, 0.2535710
906.2336, 1.317474
906.7157, 1.478699
907.1978, 1.548676
907.6799, 2.217087
908.1620, 3.199173
908.6442, 4.162323
909.1263, 5.100998
909.6084, 5.863220
910.0905, 6.256912
910.5726, 6.743820
911.0547, 8.006851
911.5369, 9.916214
912.0190, 10.68626
912.5011, 10.17049
912.9832, 9.879059
913.4653, 11.58311
913.9474, 13.74728
914.4296, 14.90186
914.9117, 14.87463
915.3938, 14.66293
915.8759, 14.16533
916.3580, 13.86462
916.8401, 14.01794
917.3223, 14.52791
917.8044, 14.95935
918.2865, 15.29221
918.7686, 15.22412
919.2507, 14.43742
919.7328, 13.30888
920.2150, 12.08803
920.6971, 10.82724
921.1792, 9.615479
921.6613, 8.258743
922.1434, 7.323700
922.6255, 7.275421
923.1077, 7.322464
923.5898, 5.665695
924.0719, 2.469788
924.5540, 0.4697720
925.0361, 0.3696440
925.5182, 0.9072420
926.0004, 0.8632510
926.4825, 0.6810150
926.9646, 0.9097750
927.4467, 1.773804
927.9288, 2.756790
928.4109, 4.379013
928.8931, 5.383896
929.3752, 4.568954
929.8573, 1.989960
930.3394, 0.2760310
930.8215, 0.5563810
931.3036, 0.7587740
931.7858, 0.1191100
932.2679, 1.089386
932.7500, 0.7483830
933.2321, 0.6380160
933.7142, 0.8595730
934.1964, 1.975967
934.6785, 4.132233
935.1606, 4.436920
935.6427, 3.571091
936.1248, 3.496552
936.6069, 4.159332
937.0891, 5.022781
937.5712, 5.943619
938.0533, 6.953522
938.5354, 7.985306
939.0175, 9.124527
939.4996, 10.55984
939.9818, 13.23872
940.4639, 14.82079
940.9460, 14.63483
941.4281, 14.13660
941.9102, 14.89442
942.3923, 16.77269
942.8745, 18.44008
943.3566, 19.81422
943.8387, 21.19035
944.3208, 22.98758
944.8029, 24.77171
945.2850, 26.06169
945.7672, 26.79997
946.2493, 27.95261
946.7314, 29.50290
947.2135, 31.39842
947.6956, 33.78940
948.1777, 36.59093
948.6599, 39.55272
949.1420, 42.55707
949.6241, 44.87003
950.1062, 45.13062
950.5883, 45.72418
951.0704, 48.64377
951.5526, 52.99454
952.0347, 57.00616
952.5168, 59.96736
952.9989, 63.86082
953.4810, 69.17238
953.9631, 74.78091
954.4453, 79.18019
954.9274, 82.71570
955.4095, 86.44418
955.8916, 90.40442
956.3737, 94.78003
956.8558, 99.33493
957.3380, 104.7606
957.8201, 112.1287
958.3022, 121.6006
958.7843, 129.1453
959.2664, 134.0260
959.7485, 139.4450
960.2307, 147.2054
960.7128, 156.4608
961.1949, 165.7035
961.6770, 174.7304
962.1591, 182.7091
962.6412, 189.1392
963.1234, 194.7266
963.6055, 200.2716
964.0876, 204.9824
964.5697, 207.7896
965.0518, 208.6822
965.5339, 207.5681
966.0161, 204.3575
966.4982, 199.3464
966.9803, 192.3592
967.4624, 183.9896
967.9445, 175.4376
968.4266, 166.8596
968.9088, 157.5076
969.3909, 145.7129
969.8730, 134.3002
970.3551, 124.7072
970.8372, 116.9643
971.3193, 108.7795
971.8015, 100.1907
972.2836, 91.85593
972.7657, 84.16864
973.2478, 77.04163
973.7299, 70.29346
974.2120, 63.96873
974.6942, 58.10455
975.1763, 52.52919
975.6584, 47.76132
976.1405, 43.99503
976.6226, 40.83113
977.1047, 37.68182
977.5869, 34.55243
978.0690, 31.78973
978.5511, 29.47868
979.0332, 27.42599
979.5153, 25.42139
979.9974, 23.60826
980.4796, 22.19374
980.9617, 21.26648
981.4438, 20.14549
981.9259, 18.58662
982.4080, 17.07326
982.8901, 15.93388
983.3723, 15.10951
983.8544, 14.19716
984.3365, 13.26918
984.8186, 12.68015
985.3007, 13.12387
985.7828, 13.42032
986.2650, 12.89087
986.7471, 11.86809
987.2292, 10.87581
987.7113, 9.713058
988.1934, 9.080795
988.6755, 9.211349
989.1577, 9.422119
989.6398, 9.101303
990.1219, 8.333450
990.6040, 6.939941
991.0861, 4.833420
991.5682, 3.233994
992.0504, 3.359085
992.5325, 3.588989
993.0146, 3.043289
993.4967, 1.900391
993.9788, 1.517029
994.4609, 1.918594
994.9431, 1.934097
995.4252, 0.6882020
995.9073, 0.5589600
996.3894, 0.1047820
996.8715, 1.187836
997.3536, 1.911926
997.8358, 1.032593
998.3179, 0.5812530
998.8000, 0.7800750
999.2821, 1.111725
999.7642, 0.9340060
1000.246, 1.265839
1000.728, 0.6387330
1001.211, 1.628754
1001.693, 2.442612
1002.175, 2.653748
1002.657, 2.309662
1003.139, 0.8412630
1003.621, 1.378647
1004.103, 1.695358
1004.585, 0.5326840
1005.068, 2.222946
1005.550, 2.453384
1006.032, 1.898758
1006.514, 1.387512
1006.996, 0.9744870
1007.478, 0.7824860
1007.960, 0.9537350
1008.442, 1.082504
1008.924, 1.104111
1009.407, 0.9830630
1009.889, 0.6340640
1010.371, 4.4539999E-02
1010.853, 0.2978210
1011.335, 0.3945010
1011.817, 0.5617070
1012.299, 1.344147
1012.781, 2.021072
1013.263, 1.677933
1013.746, 0.6398620
1014.228, 0.1151890
1014.710, 0.8347320
1015.192, 0.9789890
1015.674, 4.7821000E-02
1016.156, 1.168747
1016.638, 1.420990
1017.120, 0.9717860
1017.603, 0.6370850
1018.085, 0.5650020
1018.567, 0.4924930
1019.049, 7.7133000E-02
1019.531, 0.3982090
1020.013, 0.3364720
1020.495, 2.044586
1020.977, 2.240265
1021.459, 0.6954040
1021.942, 0.3326260
1022.424, 0.5655980
1022.906, 2.138580
1023.388, 2.994522
1023.870, 3.179214
1024.352, 2.780350
1024.834, 0.6299130
1025.316, 0.2913060
1025.799, 0.8652650
1026.281, 2.459076
1026.763, 2.634079
1027.245, 1.659637
1027.727, 1.351440
1028.209, 1.792847
1028.691, 2.403946
1029.173, 2.869034
1029.656, 3.296204
1030.138, 3.986069
1030.620, 3.696640
1031.102, 4.493668
1031.584, 2.930099
1032.066, 1.594284
1032.548, 0.7466430
1033.030, 0.5637660
1033.512, 1.796356
1033.995, 3.724564
1034.477, 5.129883
1034.959, 5.725708
1035.441, 5.830490
1035.923, 5.001816
1036.405, 4.294678
1036.887, 4.367218
1037.369, 5.107147
1037.851, 5.562515
1038.334, 5.732651
1038.816, 5.659485
1039.298, 4.840561
1039.780, 4.318787
1040.262, 5.136169
1040.744, 6.663086
1041.226, 7.656265
1041.708, 8.056976
1042.191, 7.919373
1042.673, 7.131393
1043.155, 6.252274
1043.637, 5.599136
1044.119, 5.356827
1044.601, 6.072464
1045.083, 7.730072
1045.565, 9.122253
1046.047, 9.912766
1046.530, 10.19144
1047.012, 9.685364
1047.494, 8.874908
1047.976, 9.397858
1048.458, 11.03465
1048.940, 11.92073
1049.422, 11.39484
1049.904, 10.51512
1050.386, 9.664612
1050.869, 9.098175
1051.351, 9.105057
1051.833, 9.707611
1052.315, 10.88606
1052.797, 12.86743
1053.279, 14.35257
1053.761, 14.32832
1054.243, 13.54506
1054.726, 12.97217
1055.208, 12.63614
1055.690, 12.62605
1056.172, 13.51309
1056.654, 13.97224
1057.136, 13.61372
1057.618, 13.05843
1058.100, 13.10410
1058.583, 13.63608
1059.065, 13.97659
1059.547, 14.07098
1060.029, 14.04578
1060.511, 13.72153
1060.993, 13.54845
1061.475, 13.96730
1061.957, 14.80507
1062.439, 15.22487
1062.922, 15.10471
1063.404, 14.82605
1063.886, 14.42339
1064.368, 14.07947
1064.850, 14.09323
1065.332, 14.26965
1065.814, 14.35216
1066.296, 14.24986
1066.778, 14.13126
1067.261, 13.89052
1067.743, 13.86513
1068.225, 14.36777
1068.707, 15.14537
1069.189, 15.19576
1069.671, 14.74864
1070.153, 14.62192
1070.635, 15.50394
1071.118, 16.38907
1071.600, 16.92300
1072.082, 17.19688
1072.564, 17.23804
1073.046, 17.04327
1073.528, 16.88100
1074.010, 16.74287
1074.492, 16.64288
1074.974, 16.51208
1075.457, 16.49107
1075.939, 16.91885
1076.421, 17.59296
1076.903, 17.64961
1077.385, 16.73264
1077.867, 16.05492
1078.349, 15.78944
1078.831, 15.87871
1079.313, 16.58205
1079.796, 17.46629
1080.278, 17.67174
1080.760, 17.00589
1081.242, 16.57903
1081.724, 17.11342
1082.206, 17.48006
1082.688, 17.20796
1083.170, 16.55714
1083.652, 16.33707
1084.135, 16.47975
1084.617, 16.72121
1085.099, 17.08928
1085.581, 17.24614
1086.063, 16.55598
1086.545, 15.88596
1087.027, 16.17171
1087.509, 17.59927
1087.992, 17.99788
1088.474, 17.31049
1088.956, 16.51672
1089.438, 16.23822
1089.920, 16.12981
1090.402, 15.73549
1090.884, 15.24208
1091.366, 15.06104
1091.849, 15.39755
1092.331, 15.78380
1092.813, 16.27159
1093.295, 16.58353
1093.777, 16.36227
1094.259, 15.79039
1094.741, 15.14833
1095.223, 14.48412
1095.705, 13.98721
1096.188, 13.85687
1096.670, 13.75958
1097.152, 13.53137
1097.634, 13.37244
1098.116, 13.78113
1098.598, 14.63033
1099.080, 15.19910
1099.562, 15.36984
1100.044, 15.32802
1100.527, 15.34833
1101.009, 15.04468
1101.491, 13.93571
1101.973, 12.22647
1102.455, 11.11220
1102.937, 10.58513
1103.419, 10.71979
1103.901, 11.87103
1104.384, 12.85136
1104.866, 11.98856
1105.348, 10.46980
1105.830, 9.789917
1106.312, 10.48010
1106.794, 10.50346
1107.276, 9.630020
1107.758, 8.906570
1108.240, 9.185333
1108.723, 9.774307
1109.205, 9.409454
1109.687, 8.379913
1110.169, 7.351059
1110.651, 5.911163
1111.133, 5.587448
1111.615, 7.068085
1112.097, 8.568604
1112.579, 7.975189
1113.062, 6.045837
1113.544, 5.940155
1114.026, 7.410263
1114.508, 8.267868
1114.990, 6.698517
1115.472, 5.133530
1115.954, 4.524307
1116.436, 4.379745
1116.919, 4.014526
1117.401, 3.435913
1117.883, 2.732101
1118.365, 1.911392
1118.847, 1.463455
1119.329, 2.292953
1119.811, 3.088486
1120.293, 2.696854
1120.776, 1.476181
1121.258, 0.9767300
1121.740, 1.304932
1122.222, 1.220123
1122.704, 0.2503200
1123.186, 0.4708860
1123.668, 0.8250270
1124.150, 2.654221
1124.632, 3.338776
1125.115, 2.537506
1125.597, 1.784302
1126.079, 1.076065
1126.561, 0.5154720
1127.043, 0.1561740
1127.525, 5.6655999E-02
1128.007, 0.1905520
1128.489, 0.2450560
1128.971, 0.2626340
1129.454, 0.3602750
1129.936, 0.1006620
1130.418, 0.8425140
1130.900, 1.599792
1131.382, 1.565125
1131.864, 1.000671
1132.346, 0.4770360
1132.828, 8.6212002E-02
1133.311, 0.1020660
1133.793, 1.252060
1134.275, 1.956863
1134.757, 1.619308
1135.239, 1.050156
1135.721, 1.054153
1136.203, 0.5337980
1136.685, 1.034576
1137.167, 0.2365720
1137.650, 1.348969
1138.132, 1.807587
1138.614, 1.836746
1139.096, 1.360703
1139.578, 0.6082610
1140.060, 0.1088870
1140.542, 0.7993320
1141.024, 1.966248
1141.506, 3.656815
1141.989, 4.584732
1142.471, 2.796783
1142.953, 0.8379670
1143.435, 0.8378910
1143.917, 2.191849
1144.399, 2.452209
1144.881, 1.462418
1145.363, 0.7728730
1145.846, 0.6865840
1146.328, 0.7639010
1146.810, 0.4538880
1147.292, 0.2047420
1147.774, 0.6073460
1148.256, 1.657486
1148.738, 2.108688
1149.220, 1.804672
1149.703, 1.500549
1150.185, 1.396667
1150.667, 1.383270
1151.149, 1.358841
1151.631, 1.308502
1152.113, 1.114853
1152.595, 0.6800840
1153.077, 0.9248960
1153.559, 2.383499
1154.042, 3.165665
1154.524, 2.238419
1155.006, 0.6149440
1155.488, 0.1093140
1155.970, 0.4026490
1156.452, 0.9499820
1156.934, 1.775681
1157.416, 2.161804
1157.898, 1.913422
1158.381, 1.527496
1158.863, 1.116409
1159.345, 0.8606260
1159.827, 1.580872
1160.309, 2.881134
1160.791, 3.656021
1161.273, 3.211182
1161.755, 2.723206
1162.238, 2.326080
1162.720, 2.119827
1163.202, 2.364685
1163.684, 2.888062
1164.166, 2.663971
1164.648, 1.839691
1165.130, 1.068405
1165.612, 0.3462220
1166.094, 0.1652530
1166.577, 1.298950
1167.059, 2.428238
1167.541, 1.880005
1168.023, 5.2048001E-02
1168.505, 0.4018100
1168.987, 0.7406310
1169.469, 1.846176
1169.951, 2.067963
1170.433, 1.999146
1170.916, 1.731384
1171.398, 1.435181
1171.880, 1.352753
1172.362, 1.471725
1172.844, 1.532944
1173.326, 1.519226
1173.808, 1.430511
1174.290, 1.302399
1174.773, 1.068436
1175.255, 0.5506900
1175.737, 4.6539001E-02
1176.219, 0.3476410
1176.701, 0.3560180
1177.183, 2.3132000E-02
1177.665, 0.6862180
1178.147, 1.248383
1178.630, 1.088348
1179.112, 0.7824710
1179.594, 0.8011170
1180.076, 1.008377
1180.558, 0.8228450
1181.040, 0.1902470
1181.522, 0.1345670
1182.004, 0.9328920
1182.486, 1.653275
1182.969, 1.231430
1183.451, 0.5768590
1183.933, 0.5241550
1184.415, 0.9702760
1184.897, 0.9866940
1185.379, 0.5234530
1185.861, 0.1557620
1186.343, 1.8707000E-02
1186.825, 8.5220002E-02
1187.308, 0.5019990
1187.790, 0.9933320
1188.272, 1.320709
1188.754, 1.463150
1189.236, 1.251953
1189.718, 0.6219480
1190.200, 0.3601680
1190.682, 0.8720090
1191.165, 1.407425
1191.647, 1.078033
1192.129, 0.4104160
1192.611, 6.6269003E-02
1193.093, 0.3098910
1193.575, 0.4702000
1194.057, 0.5572970
1194.539, 0.4092410
1195.021, 0.1228640
1195.504, 0.6857760
1195.986, 1.037979
1196.468, 1.177139
1196.950, 1.023926
1197.432, 0.5044250
1197.914, 0.2189940
1198.396, 0.1380920
1198.878, 0.3980100
1199.360, 1.392380
1199.843, 2.245789
1200.325, 1.529190
1200.807, 0.1938480
1201.289, 0.3588100
1201.771, 0.2319340
1202.253, 0.7268980
1202.735, 1.143524
1203.217, 1.247223
1203.700, 0.6935730
1204.182, 2.0737000E-02
1204.664, 0.1996610
1205.146, 0.1008760
1205.628, 0.1212160
1206.110, 0.4990840
1206.592, 0.7736820
1207.074, 0.9285280
1207.557, 1.074936
1208.039, 1.259140
1208.521, 1.493591
1209.003, 1.932495
1209.485, 2.388367
1209.967, 2.496262
1210.449, 2.175720
1210.931, 1.614044
1211.413, 0.7324680
1211.896, 9.0088002E-02
1212.378, 0.3659520
1212.860, 0.8175510
1213.342, 0.4783330
1213.824, 0.2330780
1214.306, 0.4210510
1214.788, 9.8876998E-02
1215.270, 0.6778410
1215.752, 1.307266
1216.235, 1.949493
1216.717, 2.942535
1217.199, 3.622849
1217.681, 2.865555
1218.163, 1.392883
1218.645, 0.9013820
1219.127, 1.769196
1219.609, 2.320480
1220.092, 2.459839
1220.574, 2.562637
1221.056, 3.130890
1221.538, 3.623688
1222.020, 3.294037
1222.502, 2.541382
1222.984, 2.348679
1223.466, 2.925217
1223.948, 3.089798
1224.431, 2.739120
1224.913, 2.437851
1225.395, 2.741287
1225.877, 3.178131
1226.359, 3.322403
1226.841, 3.355011
1227.323, 3.666946
1227.805, 4.365524
1228.287, 4.556702
1228.770, 4.159332
1229.252, 3.639633
1229.734, 3.340759
1230.216, 3.078720
1230.698, 2.584549
1231.180, 2.088531
1231.662, 2.199860
1232.144, 3.047806
1232.627, 3.179565
1233.109, 2.481171
1233.591, 2.000961
1234.073, 3.109085
1234.555, 4.117783
1235.037, 3.560074
1235.519, 2.284225
1236.001, 1.892715
1236.484, 2.389450
1236.966, 3.010330
1237.448, 3.681458
1237.930, 3.961761
1238.412, 3.148926
1238.894, 2.282623
1239.376, 2.081039
1239.858, 2.168091
1240.340, 1.817459
1240.823, 1.099121
1241.305, 0.7189790
1241.787, 0.7501370
1242.269, 1.167542
1242.751, 2.393097
1243.233, 3.483978
1243.715, 4.076584
1244.197, 4.254257
1244.679, 3.994492
1245.162, 3.423370
1245.644, 3.184372
1246.126, 3.348862
1246.608, 3.561066
1247.090, 3.829315
1247.572, 3.884705
1248.054, 3.615265
1248.536, 3.013748
1249.019, 1.929810
1249.501, 0.7415310
1249.983, 0.2967680
1250.465, 0.5914150
1250.947, 0.8764190
1251.429, 0.5948330
1251.911, 0.8049320
1252.393, 1.884491
1252.875, 3.133514
1253.358, 3.313736
1253.840, 2.759201
1254.322, 2.125595
1254.804, 1.640228
1255.286, 1.732254
1255.768, 2.990204
1256.250, 4.011566
1256.732, 4.649124
1257.214, 4.807220
1257.697, 4.110107
1258.179, 2.992599
1258.661, 1.804565
1259.143, 0.6705470
1259.625, 0.2747340
1260.107, 0.8703000
1260.589, 1.229919
1261.071, 1.102081
1261.554, 1.010132
1262.036, 1.792343
1262.518, 2.677307
1263.000, 2.642227
1263.482, 1.850159
1263.964, 1.332916
1264.446, 1.117416
1264.928, 1.350388
1265.411, 2.118988
1265.893, 2.765823
1266.375, 2.586304
1266.857, 2.131454
1267.339, 1.695251
1267.821, 1.408218
1268.303, 1.618027
1268.785, 2.386032
1269.267, 2.835358
1269.750, 2.862091
1270.232, 2.711197
1270.714, 2.404816
1271.196, 2.138763
1271.678, 2.006180
1272.160, 2.010681
1272.642, 2.172775
1273.124, 2.553192
1273.606, 3.395981
1274.089, 4.637695
1274.571, 5.038681
1275.053, 2.544205
1275.535, 0.7360080
1276.017, 1.277542
1276.499, 2.720322
1276.981, 3.310699
1277.463, 3.204300
1277.946, 2.427872
1278.428, 1.136139
1278.910, 0.2885440
1279.392, 0.7585300
1279.874, 1.097687
1280.356, 0.9655150
1280.838, 0.7700650
1281.320, 0.9491420
1281.802, 1.364243
1282.285, 1.943344
1282.767, 2.577194
1283.249, 2.929977
1283.731, 2.683029
1284.213, 2.619034
1284.695, 2.910339
1285.177, 3.036652
1285.659, 2.301743
1286.141, 1.307480
1286.624, 0.5762020
1287.106, 0.2496190
1287.588, 0.8564610
1288.070, 3.010986
1288.552, 3.270782
1289.034, 1.290283
1289.516, 0.5478210
1289.998, 4.3961000E-02
1290.481, 1.112122
1290.963, 0.8577880
1291.445, 1.557373
1291.927, 2.032623
1292.409, 2.038177
1292.891, 2.737183
1293.373, 2.526382
1293.855, 2.180557
1294.338, 2.129684
1294.820, 2.092438
1295.302, 1.792953
1295.784, 1.573227
1296.266, 1.595184
1296.748, 1.235428
1297.230, 1.115814
1297.712, 0.8637850
1298.194, 0.8214870
1298.677, 1.322769
1299.159, 1.716019
1299.641, 2.022125
1300.123, 2.012009
1300.605, 1.146835
1301.087, 1.4618000E-02
1301.569, 0.2801510
1302.051, 1.370316
1302.533, 1.278244
1303.016, 0.0000000E+00
##END=



