##NAMES=Schneiderhohnite
##RRUFFID=R061004
##IDEAL CHEMISTRY=Fe^2+^Fe^3+^_3_As^3+^_5_O_13_
##LOCALITY=Urucum mine, Galileia, Minas Gerias, Brazil
##OWNER=RRUFF
##SOURCE=William W. Pinch
##DESCRIPTION=Black prismatic crystals in parallel aggregates associated with arseniosiderite, arsenolite, scorodite and karibibite on lollingite
##STATUS=The identification of this mineral is not yet confirmed.
##URL=rruff.info/R061004
128.7548, 0.0000000E+00
129.2369, 0.3425290
129.7190, 0.4047240
130.2011, 4.545837
130.6832, 23.45837
131.1654, 58.45978
131.6475, 89.16779
132.1296, 87.42786
132.6117, 56.51562
133.0938, 33.23615
133.5759, 35.60950
134.0581, 59.24969
134.5402, 70.29291
135.0223, 65.49719
135.5044, 55.77960
135.9865, 57.23145
136.4686, 70.34558
136.9508, 90.33435
137.4329, 113.8911
137.9150, 140.0168
138.3971, 179.7675
138.8792, 242.7351
139.3613, 312.7155
139.8434, 348.1442
140.3256, 345.9630
140.8077, 323.7188
141.2898, 299.2640
141.7719, 272.2589
142.2540, 245.9706
142.7361, 222.3688
143.2183, 200.4626
143.7004, 173.7700
144.1825, 136.7676
144.6646, 104.2620
145.1467, 82.90515
145.6288, 73.35663
146.1110, 69.09912
146.5931, 70.96967
147.0752, 79.52618
147.5573, 84.04126
148.0394, 81.25317
148.5215, 76.40875
149.0037, 74.54059
149.4858, 89.30841
149.9679, 92.83380
150.4500, 73.93298
150.9321, 20.08478
151.4142, 13.27527
151.8964, 11.12817
152.3785, 8.353943
152.8606, 19.81036
153.3427, 14.46802
153.8248, 7.528320
154.3069, 2.658020
154.7890, 2.966431
155.2712, 8.7769002E-02
155.7533, 22.98462
156.2354, 55.69275
156.7175, 76.27289
157.1996, 73.92212
157.6817, 63.09912
158.1639, 50.66821
158.6460, 36.21826
159.1281, 22.35309
159.6102, 7.471069
160.0923, 7.052795
160.5744, 15.87634
161.0566, 15.15393
161.5387, 9.135132
162.0208, 0.9174800
162.5029, 5.905334
162.9850, 17.25055
163.4671, 43.42957
163.9493, 81.39038
164.4314, 105.3030
164.9135, 89.98523
165.3956, 58.93256
165.8777, 36.30750
166.3598, 41.55005
166.8420, 49.68054
167.3241, 41.68903
167.8062, 16.86041
168.2883, 2.442078
168.7704, 2.214966
169.2525, 20.43951
169.7346, 36.66345
170.2168, 42.90045
170.6989, 44.84198
171.1810, 47.30859
171.6631, 50.81049
172.1452, 53.51556
172.6273, 53.55774
173.1095, 51.69629
173.5916, 49.61823
174.0737, 46.57776
174.5558, 44.37695
175.0379, 47.82843
175.5201, 53.02222
176.0022, 59.82666
176.4843, 73.53381
176.9664, 92.88617
177.4485, 113.8886
177.9306, 135.7894
178.4128, 157.3744
178.8949, 176.1032
179.3770, 190.0540
179.8591, 204.1510
180.3412, 227.0654
180.8233, 257.7190
181.3055, 286.7422
181.7876, 304.8580
182.2697, 316.1580
182.7518, 332.5872
183.2339, 358.1372
183.7160, 388.0652
184.1982, 415.8539
184.6803, 441.3889
185.1624, 460.7675
185.6445, 473.1680
186.1266, 477.5086
186.6087, 467.0833
187.0908, 432.1522
187.5730, 386.4722
188.0551, 369.6594
188.5372, 383.7576
189.0193, 403.8320
189.5014, 402.5066
189.9835, 382.5217
190.4657, 370.3643
190.9478, 376.8341
191.4299, 397.2688
191.9120, 413.7985
192.3941, 426.4817
192.8762, 435.0618
193.3584, 438.5119
193.8405, 436.8912
194.3226, 433.1160
194.8047, 427.0966
195.2868, 419.3221
195.7689, 414.2676
196.2511, 412.3876
196.7332, 411.9205
197.2153, 413.0012
197.6974, 416.4399
198.1795, 411.9692
198.6616, 394.4789
199.1438, 363.7859
199.6259, 328.1133
200.1080, 284.7220
200.5901, 240.8281
201.0722, 210.6766
201.5543, 196.1776
202.0364, 183.3374
202.5186, 163.6624
203.0007, 135.5527
203.4828, 118.1837
203.9649, 113.6197
204.4470, 117.8339
204.9291, 124.2581
205.4113, 134.2853
205.8934, 141.3328
206.3755, 141.8851
206.8576, 135.2664
207.3397, 124.9653
207.8218, 108.0856
208.3040, 89.66180
208.7861, 84.71442
209.2682, 97.83142
209.7503, 111.1291
210.2324, 113.5129
210.7145, 101.1337
211.1967, 92.61829
211.6788, 90.59454
212.1609, 92.78778
212.6430, 90.36139
213.1251, 80.16583
213.6072, 72.52472
214.0894, 77.54523
214.5715, 104.7878
215.0536, 111.7476
215.5357, 86.41302
216.0178, 38.02155
216.4999, 10.04431
216.9820, 10.39807
217.4642, 18.07458
217.9463, 18.62433
218.4284, 8.015442
218.9105, 1.977417
219.3926, 5.968140
219.8747, 17.03503
220.3569, 13.13373
220.8390, 18.45331
221.3211, 47.17084
221.8032, 47.37793
222.2853, 1.371216
222.7674, 29.64954
223.2496, 31.56189
223.7317, 8.134399
224.2138, 0.1831050
224.6959, 13.82910
225.1780, 33.72998
225.6601, 46.05176
226.1423, 44.06689
226.6244, 49.38971
227.1065, 68.71478
227.5886, 101.2476
228.0707, 121.6675
228.5528, 121.8209
229.0350, 119.0092
229.5171, 129.0804
229.9992, 159.8929
230.4813, 188.1335
230.9634, 209.4796
231.4455, 224.0942
231.9276, 237.6353
232.4098, 245.9807
232.8919, 257.5003
233.3740, 282.5894
233.8561, 337.1178
234.3382, 374.0584
234.8203, 376.7660
235.3025, 343.3049
235.7846, 336.5728
236.2667, 371.2765
236.7488, 418.7059
237.2309, 450.4713
237.7130, 462.5844
238.1952, 465.6182
238.6773, 458.8793
239.1594, 441.5410
239.6415, 429.4370
240.1236, 426.3344
240.6057, 424.9731
241.0879, 417.5779
241.5700, 401.8140
242.0521, 384.4149
242.5342, 366.5101
243.0163, 348.0870
243.4984, 328.8349
243.9806, 306.9435
244.4627, 285.7786
244.9448, 269.3092
245.4269, 260.0346
245.9090, 250.7552
246.3911, 239.0102
246.8732, 224.2170
247.3554, 214.4446
247.8375, 213.2145
248.3196, 213.8643
248.8017, 208.3769
249.2838, 192.4388
249.7659, 178.5923
250.2481, 169.4922
250.7302, 165.3364
251.2123, 163.9648
251.6944, 169.4537
252.1765, 174.1071
252.6586, 167.6300
253.1408, 141.2386
253.6229, 121.9020
254.1050, 118.6804
254.5871, 133.1692
255.0692, 135.3152
255.5513, 116.6376
256.0334, 94.24109
256.5156, 88.48816
256.9977, 110.2057
257.4798, 128.8956
257.9619, 134.5166
258.4440, 124.7155
258.9261, 118.4709
259.4083, 116.9266
259.8904, 119.6559
260.3725, 125.5043
260.8546, 134.8439
261.3367, 140.2111
261.8188, 139.3859
262.3010, 132.3026
262.7831, 128.8793
263.2652, 129.2282
263.7473, 133.0599
264.2294, 141.1744
264.7115, 155.9998
265.1937, 167.8635
265.6758, 172.7919
266.1579, 170.9954
266.6400, 177.1380
267.1221, 194.8052
267.6042, 212.5198
268.0864, 215.8652
268.5685, 200.6318
269.0506, 187.4423
269.5327, 178.8966
270.0148, 174.6721
270.4969, 180.2243
270.9791, 199.1670
271.4612, 221.1174
271.9433, 235.4775
272.4254, 241.6788
272.9075, 243.3879
273.3896, 238.0076
273.8718, 227.4797
274.3539, 230.2648
274.8360, 250.2598
275.3181, 274.0948
275.8002, 289.7026
276.2823, 296.5882
276.7645, 298.5469
277.2466, 295.9570
277.7287, 289.0492
278.2108, 275.4674
278.6929, 250.3210
279.1750, 231.2341
279.6572, 242.2513
280.1393, 287.6501
280.6214, 325.2596
281.1035, 346.5177
281.5856, 353.8263
282.0677, 354.8133
282.5499, 348.4736
283.0320, 340.9881
283.5141, 336.0724
283.9962, 333.7676
284.4783, 337.9716
284.9604, 351.3910
285.4425, 370.7274
285.9247, 386.5245
286.4068, 398.7365
286.8889, 407.6566
287.3710, 413.4385
287.8531, 416.0927
288.3352, 415.0505
288.8174, 408.7847
289.2995, 400.3032
289.7816, 396.9501
290.2637, 398.8282
290.7458, 401.2497
291.2279, 404.7695
291.7101, 407.2134
292.1922, 395.9803
292.6743, 364.2604
293.1564, 326.0565
293.6385, 306.8696
294.1206, 305.8141
294.6028, 308.8830
295.0849, 312.1310
295.5670, 312.6808
296.0491, 299.8956
296.5312, 268.7891
297.0133, 232.3735
297.4955, 207.6500
297.9776, 194.0966
298.4597, 186.0187
298.9418, 187.7116
299.4239, 191.5021
299.9060, 179.5947
300.3882, 146.2907
300.8703, 109.2120
301.3524, 87.98651
301.8345, 80.20544
302.3166, 77.62970
302.7987, 80.23853
303.2809, 83.70551
303.7630, 81.72174
304.2451, 73.21283
304.7272, 61.57684
305.2093, 47.56537
305.6914, 32.58502
306.1736, 20.66315
306.6557, 13.78979
307.1378, 10.62488
307.6199, 11.01434
308.1020, 15.41785
308.5841, 18.90265
309.0663, 17.21240
309.5484, 12.19635
310.0305, 7.045166
310.5126, 1.824463
310.9947, 2.175903
311.4768, 3.753845
311.9590, 2.832581
312.4411, 0.7056880
312.9232, 6.188538
313.4053, 12.64594
313.8874, 12.16797
314.3695, 11.42218
314.8517, 30.87457
315.3337, 25.43671
315.8159, 3.790771
316.2980, 24.16620
316.7801, 11.11450
317.2622, 12.58478
317.7443, 25.85034
318.2264, 10.88916
318.7086, 4.236755
319.1907, 9.799744
319.6728, 6.801636
320.1549, 3.037415
320.6370, 0.2002560
321.1191, 2.223755
321.6013, 4.593750
322.0834, 7.141663
322.5655, 9.449158
323.0476, 13.88971
323.5297, 18.79443
324.0118, 17.33777
324.4940, 3.139221
324.9761, 21.82465
325.4582, 27.91205
325.9403, 6.851563
326.4224, 7.353882
326.9045, 10.19318
327.3867, 4.522217
327.8688, 1.925781
328.3509, 12.97638
328.8330, 21.21613
329.3151, 23.17462
329.7972, 12.16180
330.2794, 9.157593
330.7615, 18.46851
331.2436, 34.44531
331.7257, 46.87024
332.2078, 53.07538
332.6899, 59.76923
333.1721, 71.37427
333.6542, 92.04004
334.1363, 95.98444
334.6184, 72.48737
335.1005, 41.83643
335.5826, 31.36993
336.0648, 50.87054
336.5469, 69.27814
337.0290, 77.06604
337.5111, 74.02026
337.9932, 80.61426
338.4753, 102.4435
338.9575, 124.8005
339.4396, 130.6279
339.9217, 115.7657
340.4038, 107.0754
340.8859, 112.2083
341.3680, 127.5607
341.8502, 136.5484
342.3323, 138.6194
342.8144, 136.1889
343.2965, 127.8798
343.7786, 113.9317
344.2607, 108.6234
344.7429, 116.8052
345.2250, 131.8836
345.7071, 137.1182
346.1892, 132.4101
346.6713, 129.7597
347.1534, 143.1343
347.6355, 166.5854
348.1176, 173.4470
348.5998, 156.8290
349.0819, 133.3700
349.5640, 129.8013
350.0461, 142.3781
350.5282, 151.0670
351.0103, 138.9153
351.4925, 117.2736
351.9746, 107.7989
352.4567, 113.5093
352.9388, 120.9976
353.4209, 113.8043
353.9030, 98.34656
354.3852, 88.86639
354.8673, 98.10535
355.3494, 112.5686
355.8315, 118.4567
356.3136, 115.5914
356.7957, 111.2155
357.2779, 107.7117
357.7600, 106.4006
358.2421, 109.0058
358.7242, 119.8497
359.2063, 131.4331
359.6884, 140.0720
360.1706, 145.8906
360.6527, 149.6559
361.1348, 148.9860
361.6169, 147.9232
362.0990, 149.9901
362.5811, 160.6561
363.0633, 167.7170
363.5454, 163.0113
364.0275, 151.1411
364.5096, 145.2388
364.9917, 153.0414
365.4738, 164.2037
365.9560, 174.0569
366.4381, 181.0505
366.9202, 188.7267
367.4023, 201.7562
367.8844, 214.8820
368.3665, 219.5483
368.8487, 202.4459
369.3308, 189.6627
369.8129, 190.6454
370.2950, 210.1146
370.7771, 217.4346
371.2592, 201.1020
371.7414, 180.4745
372.2235, 175.5602
372.7056, 199.9177
373.1877, 215.8278
373.6698, 215.0802
374.1519, 198.0524
374.6341, 184.4380
375.1162, 172.6766
375.5983, 164.8635
376.0804, 166.1852
376.5625, 179.1581
377.0446, 186.4619
377.5267, 183.2037
378.0089, 174.6523
378.4910, 178.3507
378.9731, 196.5371
379.4552, 211.5912
379.9373, 211.6010
380.4194, 197.7051
380.9016, 182.1231
381.3837, 163.3916
381.8658, 149.1513
382.3479, 160.9717
382.8300, 193.2577
383.3121, 209.2306
383.7943, 177.4223
384.2764, 118.4534
384.7585, 81.38824
385.2406, 67.94586
385.7227, 65.55237
386.2048, 66.51587
386.6870, 69.32690
387.1691, 71.31757
387.6512, 72.74707
388.1333, 71.55743
388.6154, 64.25745
389.0975, 51.64044
389.5797, 38.87585
390.0618, 26.86731
390.5439, 17.58154
391.0260, 14.45618
391.5081, 23.13306
391.9902, 28.73450
392.4724, 18.74408
392.9545, 0.7510990
393.4366, 15.31647
393.9187, 17.71692
394.4008, 14.58447
394.8829, 8.745300
395.3651, 2.5269000E-02
395.8472, 9.253662
396.3293, 20.21991
396.8114, 30.67584
397.2935, 37.91260
397.7756, 40.75500
398.2578, 41.05713
398.7399, 36.13672
399.2220, 25.18903
399.7041, 24.27631
400.1862, 46.90393
400.6683, 69.46448
401.1505, 74.71497
401.6326, 46.20312
402.1147, 29.19885
402.5968, 32.31342
403.0789, 48.97119
403.5610, 54.21649
404.0432, 41.00238
404.5253, 30.38971
405.0074, 35.81525
405.4895, 63.00861
405.9716, 75.41766
406.4537, 69.02771
406.9359, 53.92377
407.4180, 43.33124
407.9001, 36.90979
408.3822, 39.59918
408.8643, 57.95557
409.3464, 87.58447
409.8285, 108.1330
410.3106, 118.6426
410.7928, 123.2361
411.2749, 123.2691
411.7570, 120.2479
412.2391, 119.4987
412.7212, 123.0067
413.2033, 129.6708
413.6855, 138.3929
414.1676, 147.9716
414.6497, 156.9126
415.1318, 163.1892
415.6139, 168.8010
416.0960, 175.4607
416.5782, 183.6166
417.0603, 190.3315
417.5424, 191.9667
418.0245, 190.6495
418.5066, 190.8702
418.9887, 191.4981
419.4709, 197.5035
419.9530, 213.1692
420.4351, 237.9354
420.9172, 257.6289
421.3993, 276.4264
421.8814, 284.7504
422.3636, 274.2404
422.8457, 213.4283
423.3278, 167.2155
423.8099, 152.2633
424.2920, 162.8563
424.7741, 172.7369
425.2563, 180.2070
425.7384, 187.3793
426.2205, 195.4410
426.7026, 207.8235
427.1847, 211.6835
427.6668, 202.9012
428.1490, 188.3391
428.6311, 178.0460
429.1132, 172.1596
429.5953, 170.3927
430.0774, 173.6568
430.5595, 181.5349
431.0417, 185.8985
431.5238, 186.3246
432.0059, 184.3549
432.4880, 178.2213
432.9701, 168.2724
433.4522, 168.4450
433.9344, 183.5288
434.4165, 206.6650
434.8986, 227.4598
435.3807, 245.6100
435.8628, 257.6362
436.3449, 260.1357
436.8271, 255.2857
437.3092, 244.4085
437.7913, 226.2935
438.2734, 213.0664
438.7555, 219.4767
439.2376, 238.5448
439.7197, 257.3378
440.2018, 274.8627
440.6840, 286.8649
441.1661, 286.4799
441.6482, 275.4581
442.1303, 267.1786
442.6124, 267.4974
443.0945, 273.5973
443.5767, 284.9893
444.0588, 312.4919
444.5409, 326.2730
445.0230, 306.4401
445.5051, 268.0773
445.9872, 242.6974
446.4694, 245.9996
446.9515, 252.7184
447.4336, 254.6780
447.9157, 249.8712
448.3978, 251.1642
448.8799, 263.1335
449.3621, 277.4497
449.8442, 286.3665
450.3263, 287.9811
450.8084, 288.6824
451.2905, 289.0618
451.7726, 289.0496
452.2548, 285.0240
452.7369, 275.8528
453.2190, 267.5719
453.7011, 264.0710
454.1832, 265.0933
454.6653, 261.7931
455.1475, 252.5283
455.6296, 243.0430
456.1117, 245.0461
456.5938, 255.6009
457.0759, 257.4392
457.5580, 238.8542
458.0402, 210.5656
458.5223, 190.6480
459.0044, 178.3879
459.4865, 167.4371
459.9686, 153.8649
460.4507, 138.4850
460.9329, 121.6594
461.4150, 102.8163
461.8971, 84.82758
462.3792, 67.80188
462.8613, 53.01660
463.3434, 42.60962
463.8256, 44.31665
464.3077, 44.90558
464.7898, 36.43439
465.2719, 17.17273
465.7540, 1.181641
466.2361, 9.244446
466.7183, 15.09015
467.2004, 16.94098
467.6825, 11.24310
468.1646, 6.063293
468.6467, 0.4052730
469.1288, 4.486450
469.6110, 3.411133
470.0930, 8.832275
470.5752, 17.80432
471.0573, 15.07947
471.5394, 2.276367
472.0215, 8.072693
472.5036, 0.9428100
472.9857, 14.81915
473.4679, 21.65955
473.9500, 21.39539
474.4321, 18.99438
474.9142, 13.04211
475.3963, 7.919617
475.8784, 19.41406
476.3606, 45.97754
476.8427, 65.53558
477.3248, 58.34412
477.8069, 34.85217
478.2890, 11.23083
478.7711, 11.77533
479.2533, 28.82874
479.7354, 31.78680
480.2175, 26.09869
480.6996, 21.02478
481.1817, 23.60736
481.6638, 25.12482
482.1460, 18.07123
482.6281, 3.720520
483.1102, 6.128418
483.5923, 6.591003
484.0744, 1.834351
484.5565, 6.591431
485.0387, 26.46088
485.5208, 36.04449
486.0029, 22.01910
486.4850, 0.3455810
486.9671, 6.937134
487.4492, 11.17645
487.9314, 31.80646
488.4135, 52.22278
488.8956, 72.09662
489.3777, 80.68842
489.8598, 74.49902
490.3419, 65.29138
490.8241, 62.86548
491.3062, 67.74982
491.7883, 67.41174
492.2704, 57.20795
492.7525, 47.78284
493.2346, 61.64600
493.7168, 95.78510
494.1989, 128.0088
494.6810, 145.9586
495.1631, 155.5356
495.6452, 167.7520
496.1273, 182.4220
496.6095, 196.4114
497.0916, 205.9664
497.5737, 213.5587
498.0558, 221.6505
498.5379, 228.3007
499.0201, 240.1416
499.5022, 265.4639
499.9843, 298.4878
500.4664, 326.8954
500.9485, 345.1794
501.4306, 359.1271
501.9127, 370.5943
502.3948, 379.7341
502.8770, 385.7877
503.3591, 381.0750
503.8412, 378.5350
504.3233, 388.0747
504.8054, 420.7192
505.2875, 444.3767
505.7697, 457.0728
506.2518, 459.8879
506.7339, 450.7618
507.2160, 423.8146
507.6981, 408.9424
508.1802, 427.0112
508.6624, 471.4319
509.1445, 484.8215
509.6266, 464.2454
510.1087, 435.4340
510.5908, 423.4056
511.0729, 423.1470
511.5551, 419.0045
512.0372, 407.9103
512.5193, 391.4143
513.0014, 367.2975
513.4835, 338.8850
513.9656, 315.1295
514.4478, 307.2126
514.9299, 300.6929
515.4120, 283.2275
515.8941, 254.1724
516.3762, 227.3018
516.8583, 212.2944
517.3405, 199.5717
517.8226, 181.6302
518.3047, 142.5382
518.7868, 117.5074
519.2689, 121.9060
519.7510, 141.1465
520.2332, 145.5658
520.7153, 126.1146
521.1974, 106.0224
521.6795, 90.87939
522.1616, 80.69141
522.6437, 75.43713
523.1259, 76.06964
523.6080, 79.13043
524.0901, 83.12384
524.5722, 88.15649
525.0543, 87.29236
525.5364, 78.69244
526.0186, 68.05804
526.5007, 64.20526
526.9828, 65.96899
527.4649, 68.61420
527.9470, 70.38684
528.4291, 70.87903
528.9113, 68.44586
529.3934, 64.41614
529.8755, 63.94708
530.3576, 70.99048
530.8397, 82.33984
531.3218, 96.82898
531.8040, 116.4471
532.2861, 134.9117
532.7682, 149.8014
533.2503, 162.3098
533.7324, 172.9796
534.2145, 176.2271
534.6967, 182.8648
535.1788, 200.2863
535.6609, 227.5149
536.1430, 244.6236
536.6251, 243.3113
537.1072, 242.7222
537.5894, 254.6395
538.0715, 280.7121
538.5536, 306.3777
539.0357, 330.5218
539.5178, 355.8101
539.9999, 389.4481
540.4821, 429.5228
540.9642, 461.1718
541.4463, 474.5277
541.9284, 483.8193
542.4105, 517.5690
542.8926, 570.4929
543.3748, 617.7512
543.8569, 643.6631
544.3390, 655.6985
544.8211, 657.1143
545.3032, 646.8881
545.7853, 643.1133
546.2675, 658.5807
546.7495, 683.3273
547.2316, 707.5399
547.7137, 730.0541
548.1959, 750.6291
548.6780, 769.9455
549.1601, 787.5297
549.6422, 802.9726
550.1243, 822.6990
550.6064, 830.5103
551.0886, 816.6967
551.5707, 780.2700
552.0528, 758.9213
552.5349, 756.0934
553.0170, 759.3099
553.4991, 761.4596
553.9813, 762.0006
554.4634, 751.0001
554.9455, 725.2438
555.4276, 692.4670
555.9097, 661.8761
556.3918, 633.7335
556.8740, 608.3890
557.3561, 590.0687
557.8382, 571.9813
558.3203, 547.0601
558.8024, 515.8228
559.2845, 482.9005
559.7667, 444.8810
560.2488, 409.7056
560.7309, 381.6169
561.2130, 359.7870
561.6951, 349.2629
562.1772, 366.7416
562.6594, 389.1069
563.1415, 388.5219
563.6236, 341.5114
564.1057, 309.3395
564.5878, 304.5422
565.0699, 319.1793
565.5521, 324.9809
566.0342, 320.5859
566.5163, 311.9904
566.9984, 294.0070
567.4805, 270.7539
567.9626, 286.5159
568.4448, 345.7042
568.9269, 399.4893
569.4090, 388.4035
569.8911, 339.2667
570.3732, 314.4448
570.8553, 334.9028
571.3375, 363.8826
571.8196, 369.5164
572.3017, 359.8927
572.7838, 350.0778
573.2659, 345.7766
573.7480, 342.8829
574.2302, 337.4049
574.7123, 330.0414
575.1944, 330.1475
575.6765, 354.1718
576.1586, 373.3779
576.6407, 372.3259
577.1229, 340.3382
577.6050, 322.3798
578.0871, 326.3984
578.5692, 334.3647
579.0513, 321.9935
579.5334, 286.2654
580.0156, 258.0583
580.4977, 244.5501
580.9798, 240.0432
581.4619, 234.3774
581.9440, 228.0977
582.4261, 222.3795
582.9083, 217.0992
583.3904, 212.2546
583.8725, 208.7980
584.3546, 206.5941
584.8367, 202.9158
585.3188, 197.9906
585.8010, 190.3120
586.2831, 177.3436
586.7652, 152.9172
587.2473, 134.4938
587.7294, 130.9172
588.2115, 133.9895
588.6937, 131.8140
589.1758, 119.4695
589.6579, 110.6548
590.1400, 108.1005
590.6221, 110.5276
591.1042, 114.4171
591.5864, 120.3132
592.0685, 124.4717
592.5506, 124.9524
593.0327, 122.5685
593.5148, 120.6122
593.9969, 119.2631
594.4791, 118.3197
594.9612, 118.1901
595.4433, 118.3422
595.9254, 116.6070
596.4075, 110.3919
596.8896, 106.8773
597.3718, 114.3046
597.8539, 128.9777
598.3360, 144.3597
598.8181, 160.5891
599.3002, 173.9295
599.7823, 182.4440
600.2645, 187.0043
600.7466, 191.8389
601.2287, 192.2278
601.7108, 196.0170
602.1929, 207.9820
602.6750, 230.3199
603.1572, 249.9305
603.6393, 266.8837
604.1214, 281.2122
604.6035, 292.0000
605.0856, 299.5614
605.5677, 311.2976
606.0499, 330.5224
606.5320, 348.4227
607.0141, 348.5026
607.4962, 336.5840
607.9783, 329.3447
608.4604, 338.8199
608.9425, 352.3033
609.4246, 357.7249
609.9067, 357.4237
610.3889, 361.2417
610.8710, 377.0657
611.3531, 395.0085
611.8352, 410.2443
612.3173, 422.2441
612.7994, 432.6875
613.2816, 442.5768
613.7637, 450.3558
614.2458, 455.0853
614.7279, 457.0885
615.2100, 454.5350
615.6921, 446.1292
616.1743, 435.0287
616.6564, 428.1537
617.1385, 425.0516
617.6206, 416.6061
618.1027, 395.3896
618.5848, 371.1652
619.0670, 363.7679
619.5491, 369.2156
620.0312, 369.4532
620.5133, 349.7239
620.9954, 323.1892
621.4775, 298.7555
621.9597, 276.9603
622.4418, 260.8079
622.9239, 259.7548
623.4060, 258.9743
623.8881, 247.4814
624.3702, 214.3528
624.8524, 187.9608
625.3345, 169.6085
625.8166, 156.9600
626.2987, 149.0300
626.7808, 148.1605
627.2629, 139.2902
627.7451, 116.0517
628.2272, 86.15222
628.7093, 68.56262
629.1914, 62.39374
629.6735, 58.47632
630.1556, 50.54425
630.6378, 42.73401
631.1199, 44.09991
631.6020, 53.51746
632.0841, 57.00317
632.5662, 36.64221
633.0483, 13.28333
633.5305, 4.672913
634.0126, 19.93683
634.4947, 30.37213
634.9768, 26.42664
635.4589, 17.51489
635.9410, 12.82043
636.4232, 14.53076
636.9053, 16.07965
637.3874, 18.14624
637.8695, 18.56152
638.3516, 11.41327
638.8337, 3.840149
639.3159, 18.16760
639.7980, 30.12994
640.2801, 38.04547
640.7622, 35.47839
641.2443, 23.80017
641.7264, 12.59943
642.2086, 6.210571
642.6907, 4.318848
643.1728, 8.909058
643.6549, 20.61182
644.1370, 28.77386
644.6191, 28.22272
645.1013, 22.99200
645.5834, 15.68811
646.0655, 0.5754390
646.5476, 5.976135
647.0297, 1.038696
647.5118, 12.90631
647.9940, 18.27094
648.4761, 16.35571
648.9582, 11.04315
649.4403, 1.074158
649.9224, 9.496338
650.4045, 10.69226
650.8867, 3.526001
651.3688, 3.918457
651.8509, 7.606384
652.3330, 9.305786
652.8151, 12.17358
653.2972, 15.59589
653.7794, 15.62177
654.2615, 4.840576
654.7436, 6.250244
655.2257, 9.712219
655.7078, 2.610535
656.1899, 1.863708
656.6721, 1.985596
657.1542, 6.214294
657.6363, 3.946960
658.1184, 10.20605
658.6005, 13.36096
659.0826, 0.4165040
659.5648, 17.56091
660.0469, 22.13696
660.5290, 14.39471
661.0111, 10.35358
661.4932, 15.56097
661.9753, 25.07153
662.4575, 33.81903
662.9396, 41.23944
663.4217, 45.56366
663.9038, 36.46356
664.3859, 31.94611
664.8680, 50.05450
665.3502, 88.08057
665.8323, 114.6133
666.3144, 107.2516
666.7965, 99.74945
667.2786, 110.4488
667.7607, 145.7043
668.2429, 162.4932
668.7250, 153.0904
669.2071, 138.9583
669.6892, 137.4382
670.1713, 148.2762
670.6534, 168.1565
671.1355, 199.0297
671.6176, 229.7112
672.0997, 245.4337
672.5818, 250.1400
673.0640, 251.5536
673.5461, 244.6223
674.0282, 246.5811
674.5103, 279.3889
674.9924, 328.8717
675.4745, 365.1561
675.9567, 366.6704
676.4388, 367.0309
676.9209, 376.1212
677.4030, 392.4937
677.8851, 407.3562
678.3672, 418.3848
678.8494, 432.8347
679.3315, 457.5409
679.8136, 490.5771
680.2957, 508.1749
680.7778, 509.0969
681.2599, 506.1912
681.7421, 509.5320
682.2242, 516.5421
682.7063, 522.6284
683.1884, 527.3740
683.6705, 530.9263
684.1526, 539.8045
684.6348, 544.9404
685.1169, 536.2563
685.5990, 499.0325
686.0811, 466.4415
686.5632, 442.4597
687.0453, 426.0007
687.5275, 417.1256
688.0096, 420.5455
688.4917, 421.5502
688.9738, 420.4610
689.4559, 412.9012
689.9380, 377.9159
690.4202, 317.8500
690.9023, 273.2156
691.3844, 278.0616
691.8665, 301.6606
692.3486, 294.2252
692.8307, 260.4402
693.3129, 230.4692
693.7950, 224.3803
694.2771, 225.5883
694.7592, 223.8774
695.2413, 219.2651
695.7234, 209.4979
696.2056, 183.6159
696.6877, 160.3350
697.1698, 150.5325
697.6519, 158.7883
698.1340, 164.4073
698.6161, 168.1616
699.0983, 170.3181
699.5804, 170.9330
700.0625, 169.4704
700.5446, 163.0077
701.0267, 148.8577
701.5089, 135.1713
701.9910, 130.6368
702.4731, 133.8405
702.9552, 141.8329
703.4373, 161.5126
703.9194, 177.3820
704.4016, 177.8934
704.8837, 168.9886
705.3658, 167.5201
705.8479, 183.8168
706.3300, 195.6577
706.8121, 196.6965
707.2943, 190.0623
707.7764, 189.1813
708.2585, 194.0266
708.7406, 200.5612
709.2227, 210.3647
709.7048, 219.7383
710.1870, 212.8956
710.6691, 191.3605
711.1512, 176.9346
711.6333, 189.0664
712.1154, 212.7870
712.5975, 235.5594
713.0797, 255.8753
713.5618, 271.7511
714.0439, 284.1006
714.5260, 290.9866
715.0081, 290.3845
715.4902, 279.0443
715.9724, 266.1328
716.4545, 250.5133
716.9366, 238.2316
717.4187, 238.8579
717.9008, 250.4064
718.3829, 250.9929
718.8651, 234.2065
719.3472, 213.9213
719.8293, 207.9097
720.3114, 210.0936
720.7935, 208.1920
721.2756, 190.8974
721.7578, 176.6666
722.2399, 183.0848
722.7220, 198.8243
723.2041, 196.7652
723.6862, 151.8473
724.1683, 116.6241
724.6505, 102.8914
725.1326, 106.2429
725.6147, 109.9156
726.0968, 114.1500
726.5789, 117.1567
727.0610, 119.6273
727.5432, 119.7573
728.0253, 109.7137
728.5074, 91.01764
728.9895, 75.20392
729.4716, 71.31122
729.9537, 72.87506
730.4359, 76.25909
730.9180, 81.28516
731.4001, 81.91760
731.8822, 71.39484
732.3643, 60.14935
732.8464, 54.72620
733.3285, 57.64777
733.8106, 55.24481
734.2927, 44.96558
734.7748, 34.89496
735.2570, 35.35669
735.7391, 44.07727
736.2212, 42.21942
736.7033, 25.78131
737.1854, 9.854919
737.6675, 14.69238
738.1497, 28.65021
738.6318, 33.93707
739.1139, 21.56262
739.5960, 8.338074
740.0781, 5.355042
740.5602, 14.00031
741.0424, 7.829224
741.5245, 32.82941
742.0066, 53.06476
742.4887, 39.62762
742.9708, 8.556030
743.4529, 9.573364
743.9351, 14.69550
744.4172, 11.20013
744.8993, 4.510864
745.3814, 21.76782
745.8635, 19.62329
746.3456, 4.097412
746.8278, 6.571594
747.3099, 0.2709960
747.7920, 11.19061
748.2741, 22.89001
748.7562, 33.70471
749.2383, 34.54486
749.7205, 17.64142
750.2026, 13.65613
750.6847, 30.17334
751.1668, 32.70148
751.6489, 20.68616
752.1310, 1.855469
752.6132, 11.95587
753.0953, 23.23462
753.5774, 5.780884
754.0595, 28.40955
754.5416, 38.19482
755.0237, 42.30530
755.5059, 53.62012
755.9880, 62.27496
756.4701, 56.02417
756.9522, 28.82617
757.4343, 16.48010
757.9164, 34.48914
758.3986, 60.77942
758.8807, 85.26764
759.3628, 110.1117
759.8449, 121.1124
760.3270, 115.6951
760.8091, 104.7429
761.2913, 94.34332
761.7734, 87.40637
762.2555, 95.52393
762.7376, 123.0078
763.2197, 151.1888
763.7018, 163.2061
764.1840, 167.9667
764.6661, 175.9653
765.1482, 191.8970
765.6303, 207.3843
766.1124, 219.2051
766.5945, 230.9330
767.0767, 247.0898
767.5588, 269.5015
768.0409, 290.3185
768.5230, 310.1144
769.0051, 324.7054
769.4872, 320.2404
769.9694, 303.0977
770.4515, 300.2352
770.9336, 323.9479
771.4157, 358.6307
771.8978, 398.8101
772.3799, 438.9763
772.8621, 468.0558
773.3442, 476.7773
773.8263, 481.0602
774.3084, 476.0667
774.7905, 470.7950
775.2726, 490.9050
775.7548, 545.4587
776.2369, 593.9029
776.7190, 624.4796
777.2011, 640.9032
777.6832, 644.6509
778.1653, 639.2933
778.6475, 643.2584
779.1296, 670.1886
779.6117, 707.1713
780.0938, 748.6760
780.5759, 791.6293
781.0580, 827.0724
781.5402, 841.5403
782.0223, 859.3618
782.5044, 891.4398
782.9865, 934.9100
783.4686, 966.7885
783.9507, 982.9707
784.4329, 1003.401
784.9150, 1041.732
785.3971, 1091.624
785.8792, 1132.927
786.3613, 1166.065
786.8434, 1192.873
787.3256, 1203.056
787.8077, 1215.646
788.2898, 1252.432
788.7719, 1313.434
789.2540, 1362.964
789.7361, 1380.926
790.2183, 1395.767
790.7004, 1419.089
791.1825, 1451.765
791.6646, 1484.162
792.1467, 1516.626
792.6288, 1544.980
793.1110, 1567.945
793.5930, 1584.746
794.0751, 1591.477
794.5573, 1588.095
795.0394, 1584.941
795.5215, 1589.362
796.0036, 1597.134
796.4857, 1609.119
796.9678, 1630.122
797.4500, 1628.791
797.9321, 1585.381
798.4142, 1536.808
798.8963, 1509.393
799.3784, 1507.493
799.8605, 1485.673
800.3427, 1441.370
800.8248, 1392.285
801.3069, 1355.276
801.7890, 1324.984
802.2711, 1283.909
802.7532, 1229.714
803.2354, 1178.982
803.7175, 1144.720
804.1996, 1115.207
804.6817, 1080.664
805.1638, 1039.090
805.6459, 993.4628
806.1281, 939.5316
806.6102, 888.3746
807.0923, 851.9216
807.5744, 829.0924
808.0565, 802.7476
808.5386, 770.3321
809.0208, 738.1207
809.5029, 717.8931
809.9850, 701.2023
810.4671, 669.7541
810.9492, 614.5244
811.4313, 566.7502
811.9135, 543.1625
812.3956, 529.5477
812.8777, 512.3917
813.3598, 487.5029
813.8419, 469.6830
814.3240, 463.9540
814.8062, 456.9258
815.2883, 427.0813
815.7704, 380.3313
816.2525, 348.9459
816.7346, 338.9583
817.2167, 338.0410
817.6989, 342.3978
818.1810, 345.3401
818.6631, 338.4282
819.1452, 315.5624
819.6273, 291.9143
820.1094, 262.9121
820.5916, 239.9612
821.0737, 237.1696
821.5558, 262.0758
822.0379, 273.3368
822.5200, 265.9365
823.0021, 249.3179
823.4843, 230.2335
823.9664, 211.5177
824.4485, 202.3766
824.9306, 208.9218
825.4127, 210.8674
825.8948, 185.1946
826.3770, 152.0223
826.8591, 132.9495
827.3412, 147.2009
827.8233, 152.8765
828.3054, 145.8370
828.7875, 134.5129
829.2697, 129.7318
829.7518, 131.4318
830.2339, 127.6396
830.7160, 115.0482
831.1981, 104.7907
831.6802, 115.6368
832.1624, 135.1653
832.6445, 143.2382
833.1266, 130.3787
833.6087, 116.7987
834.0908, 112.8003
834.5729, 110.1558
835.0551, 99.16449
835.5372, 73.43829
836.0193, 57.81696
836.5014, 55.37976
836.9835, 58.82825
837.4656, 60.37897
837.9478, 60.33087
838.4299, 59.89618
838.9120, 59.49817
839.3941, 57.56879
839.8762, 51.57526
840.3583, 43.98920
840.8405, 37.33014
841.3226, 31.03918
841.8047, 27.96326
842.2868, 27.58563
842.7689, 30.95312
843.2510, 42.80066
843.7332, 64.38214
844.2153, 68.70441
844.6974, 51.01904
845.1795, 28.95667
845.6616, 22.01416
846.1437, 23.56561
846.6259, 23.67920
847.1080, 20.48578
847.5901, 15.46326
848.0722, 5.434814
848.5543, 3.636414
849.0364, 6.944885
849.5186, 4.422791
850.0007, 5.064392
850.4828, 24.64264
850.9649, 43.00214
851.4470, 49.26697
851.9291, 45.15222
852.4113, 34.19226
852.8934, 15.94495
853.3755, 2.494019
853.8576, 9.484070
854.3397, 21.43640
854.8218, 24.08105
855.3040, 12.24506
855.7860, 0.4777220
856.2681, 15.40997
856.7502, 24.06445
857.2324, 11.61530
857.7145, 22.36749
858.1966, 29.45105
858.6787, 6.428467
859.1608, 14.36804
859.6429, 3.001465
860.1251, 34.45215
860.6072, 49.24298
861.0893, 43.48914
861.5714, 34.49341
862.0535, 27.37854
862.5356, 19.78851
863.0178, 9.816101
863.4999, 2.840454
863.9820, 13.86920
864.4641, 23.98413
864.9462, 28.77277
865.4283, 20.22284
865.9105, 4.831909
866.3926, 0.9471440
866.8747, 2.901245
867.3568, 7.244629
867.8389, 6.141174
868.3210, 3.440002
868.8032, 1.564392
869.2853, 0.6863400
869.7674, 2.146545
870.2495, 9.579224
870.7316, 13.97504
871.2137, 9.148376
871.6959, 2.868774
872.1780, 3.897095
872.6601, 4.976135
873.1422, 13.27600
873.6243, 14.04419
874.1064, 12.14594
874.5886, 8.107971
875.0707, 3.946594
875.5528, 9.365173
876.0349, 44.54791
876.5170, 67.17963
876.9991, 62.91998
877.4813, 39.14630
877.9634, 23.43732
878.4455, 15.86218
878.9276, 10.33459
879.4097, 3.748413
879.8918, 1.343933
880.3740, 1.265381
880.8561, 3.132690
881.3382, 10.65106
881.8203, 20.95844
882.3024, 29.43134
882.7845, 36.51880
883.2667, 41.64734
883.7488, 42.57184
884.2309, 38.27966
884.7130, 35.86292
885.1951, 37.94910
885.6772, 40.42639
886.1594, 33.16412
886.6415, 21.56152
887.1236, 18.72040
887.6057, 35.93506
888.0878, 50.59845
888.5699, 51.79004
889.0521, 44.61438
889.5342, 35.07953
890.0163, 18.42804
890.4984, 13.17596
890.9805, 22.94464
891.4626, 38.55402
891.9448, 52.43298
892.4269, 62.43750
892.9090, 59.53345
893.3911, 39.26816
893.8732, 20.81497
894.3553, 19.01273
894.8375, 24.61301
895.3196, 29.26218
895.8017, 31.38086
896.2838, 34.35614
896.7659, 39.67175
897.2480, 43.08902
897.7302, 39.27618
898.2123, 29.97363
898.6944, 26.19183
899.1765, 28.45175
899.6586, 31.72394
900.1407, 32.27435
900.6229, 31.96704
901.1050, 32.44354
901.5871, 33.91891
902.0692, 35.12988
902.5513, 33.40967
903.0334, 35.36343
903.5156, 47.05124
903.9977, 65.75354
904.4798, 67.08926
904.9619, 51.80197
905.4440, 38.37180
905.9261, 42.10144
906.4083, 49.38495
906.8904, 43.38501
907.3725, 28.47696
907.8546, 23.27817
908.3367, 46.35397
908.8188, 62.89883
909.3010, 61.84262
909.7831, 49.53809
910.2652, 46.25998
910.7473, 51.97052
911.2294, 52.26123
911.7115, 38.16748
912.1937, 23.42169
912.6758, 27.81516
913.1579, 43.49902
913.6400, 55.69370
914.1221, 61.02429
914.6042, 58.58853
915.0864, 44.86057
915.5685, 28.28278
916.0506, 17.66721
916.5327, 12.87552
917.0148, 16.67761
917.4969, 33.64346
917.9790, 51.52362
918.4611, 57.77850
918.9432, 56.44373
919.4254, 53.31726
919.9075, 49.59253
920.3896, 43.99481
920.8717, 31.66794
921.3538, 20.63058
921.8359, 17.99796
922.3181, 26.03192
922.8002, 23.64282
923.2823, 10.16489
923.7644, 1.531128
924.2465, 1.939575
924.7286, 4.885193
925.2108, 16.22104
925.6929, 31.69946
926.1750, 44.71600
926.6571, 60.52298
927.1392, 64.21933
927.6213, 40.72589
928.1035, 2.414764
928.5856, 9.992371
929.0677, 22.44739
929.5498, 52.30243
930.0319, 61.67035
930.5140, 58.78387
930.9962, 52.29218
931.4783, 43.16534
931.9604, 34.89777
932.4425, 25.46347
932.9246, 20.74573
933.4067, 26.39789
933.8889, 37.06534
934.3710, 43.33344
934.8531, 45.80164
935.3352, 43.29517
935.8173, 33.95908
936.2994, 24.94806
936.7816, 31.74719
937.2637, 43.54794
937.7458, 39.13605
938.2279, 5.120270
938.7100, 19.41904
939.1921, 14.36697
939.6743, 0.2611390
940.1564, 9.438843
940.6385, 11.42728
941.1206, 18.57028
941.6027, 31.75989
942.0848, 44.53336
942.5670, 50.87717
943.0491, 53.59183
943.5312, 57.60422
944.0133, 62.93143
944.4954, 64.48254
944.9775, 56.97079
945.4597, 48.69687
945.9418, 41.36551
946.4239, 35.82828
946.9060, 41.91809
947.3881, 60.90240
947.8702, 68.65100
948.3524, 45.03403
948.8345, 14.99002
949.3166, 15.78442
949.7987, 36.30780
950.2808, 50.53455
950.7629, 43.29474
951.2451, 35.88199
951.7272, 33.36545
952.2093, 32.25772
952.6914, 25.90628
953.1735, 13.89407
953.6556, 7.330811
954.1378, 8.242279
954.6199, 14.12634
955.1020, 29.35266
955.5841, 44.66345
956.0662, 46.38666
956.5483, 27.01553
957.0305, 13.52072
957.5126, 14.17896
957.9947, 19.35352
958.4768, 24.04022
958.9589, 28.25781
959.4410, 31.17499
959.9232, 32.80621
960.4053, 34.85724
960.8874, 43.68552
961.3695, 49.66339
961.8516, 37.79456
962.3337, 12.03973
962.8159, 1.210052
963.2980, 10.99866
963.7801, 24.42264
964.2622, 35.55069
964.7443, 42.73947
965.2264, 35.47632
965.7086, 17.49503
966.1907, 16.15829
966.6728, 49.92215
967.1549, 80.42255
967.6370, 74.70029
968.1191, 51.88907
968.6013, 38.14130
969.0834, 47.27783
969.5655, 47.02246
970.0476, 32.59216
970.5297, 17.71045
971.0118, 18.07932
971.4940, 29.50925
971.9761, 35.14288
972.4582, 33.64896
972.9403, 34.27728
973.4224, 51.01495
973.9045, 65.33694
974.3867, 58.93643
974.8688, 31.94470
975.3509, 26.93423
975.8330, 51.08475
976.3151, 72.42413
976.7972, 76.80151
977.2794, 69.48492
977.7615, 58.28925
978.2436, 44.87936
978.7257, 34.26541
979.2078, 31.02139
979.6899, 28.23370
980.1720, 19.62247
980.6541, 11.81561
981.1362, 16.85733
981.6183, 38.36664
982.1005, 48.38351
982.5826, 42.23972
983.0647, 32.29956
983.5468, 34.34436
984.0289, 41.05338
984.5110, 39.64069
984.9932, 26.47357
985.4753, 19.10376
985.9574, 31.68115
986.4395, 41.31345
986.9216, 36.30115
987.4037, 17.53177
987.8859, 10.62228
988.3680, 15.42123
988.8501, 22.85516
989.3322, 33.62469
989.8143, 39.65421
990.2964, 23.43338
990.7786, 3.972748
991.2607, 11.15115
991.7428, 30.14526
992.2249, 58.05017
992.7070, 63.54187
993.1891, 54.00006
993.6713, 34.03915
994.1534, 8.214203
994.6355, 9.9701002E-02
995.1176, 16.65152
995.5997, 35.95673
996.0818, 45.27866
996.5640, 45.98581
997.0461, 39.20758
997.5282, 22.76096
998.0103, 18.50662
998.4924, 29.81882
998.9745, 41.68344
999.4567, 43.75476
999.9388, 39.68759
1000.421, 35.62540
1000.903, 32.47906
1001.385, 34.26788
1001.867, 56.03455
1002.349, 68.14227
1002.831, 51.30484
1003.314, 20.59760
1003.796, 4.803375
1004.278, 4.711670
1004.760, 8.958954
1005.242, 16.24033
1005.724, 23.94910
1006.206, 29.29156
1006.688, 33.24048
1007.171, 37.76566
1007.653, 44.58694
1008.135, 46.72870
1008.617, 40.59073
1009.099, 34.12766
1009.581, 33.38055
1010.063, 36.92612
1010.545, 31.43936
1011.027, 18.28003
1011.510, 9.224518
1011.992, 19.60294
1012.474, 28.91733
1012.956, 17.88782
1013.438, 5.276428
1013.920, 13.24106
1014.402, 0.8771060
1014.884, 14.10349
1015.367, 29.66742
1015.849, 45.01324
1016.331, 64.09430
1016.813, 81.00754
1017.295, 80.59595
1017.777, 56.11395
1018.259, 34.20023
1018.741, 24.89120
1019.223, 21.04913
1019.706, 19.00574
1020.188, 18.93781
1020.670, 20.15802
1021.152, 22.97302
1021.634, 26.81937
1022.116, 38.53632
1022.598, 45.37357
1023.080, 23.19183
1023.563, 15.01465
1024.045, 31.34943
1024.527, 1.397430
1025.009, 24.68875
1025.491, 41.59155
1025.973, 51.36465
1026.455, 55.74384
1026.937, 55.34387
1027.419, 51.27612
1027.901, 43.10120
1028.384, 36.89743
1028.866, 36.91226
1029.348, 40.08707
1029.830, 45.51065
1030.312, 53.02057
1030.794, 55.80396
1031.276, 53.08521
1031.758, 51.16922
1032.241, 55.35660
1032.723, 60.30170
1033.205, 55.55844
1033.687, 45.55466
1034.169, 40.52020
1034.651, 49.49081
1035.133, 55.99478
1035.615, 57.08517
1036.098, 55.90836
1036.580, 57.75375
1037.062, 61.44672
1037.544, 56.88483
1038.026, 42.58957
1038.508, 30.19016
1038.990, 27.94565
1039.472, 31.03357
1039.954, 39.08691
1040.437, 51.12088
1040.919, 52.03363
1041.401, 38.24374
1041.883, 27.46762
1042.365, 26.32971
1042.847, 31.63293
1043.329, 39.25549
1043.811, 48.26816
1044.293, 57.04224
1044.776, 69.59186
1045.258, 73.83112
1045.740, 63.89523
1046.222, 49.12640
1046.704, 34.70935
1047.186, 21.14365
1047.668, 21.01627
1048.150, 34.25262
1048.633, 46.33051
1049.115, 47.29639
1049.597, 43.41565
1050.079, 34.14133
1050.561, 21.79422
1051.043, 18.66058
1051.525, 28.52139
1052.007, 35.40900
1052.490, 34.71982
1052.972, 31.33362
1053.454, 31.97620
1053.936, 35.39459
1054.418, 39.83240
1054.900, 45.90805
1055.382, 49.13770
1055.864, 44.80701
1056.346, 41.19611
1056.828, 45.39093
1057.311, 55.79034
1057.793, 51.34351
1058.275, 33.49274
1058.757, 17.80325
1059.239, 9.519958
1059.721, 7.834930
1060.203, 18.39017
1060.685, 35.85443
1061.168, 47.84906
1061.650, 53.67410
1062.132, 56.75372
1062.614, 58.22418
1063.096, 58.36188
1063.578, 57.25330
1064.060, 55.10718
1064.542, 52.09134
1065.025, 48.21268
1065.507, 43.96835
1065.989, 33.95758
1066.471, 31.53235
1066.953, 45.91559
1067.435, 69.20728
1067.917, 70.45099
1068.399, 53.60791
1068.881, 40.57373
1069.364, 41.73590
1069.846, 44.17334
1070.328, 36.87750
1070.810, 28.31628
1071.292, 28.33917
1071.774, 39.26477
1072.256, 51.28418
1072.738, 64.72107
1073.220, 70.25748
1073.703, 54.68152
1074.185, 30.66556
1074.667, 11.70895
1075.149, 1.641205
1075.631, 8.793152
1076.113, 8.335724
1076.595, 3.289948
1077.077, 6.789001
1077.559, 19.94693
1078.042, 34.29242
1078.524, 48.94305
1079.006, 63.00912
1079.488, 77.33401
1079.970, 82.73694
1080.452, 66.39487
1080.934, 46.73492
1081.416, 31.78894
1081.899, 21.84912
1082.381, 31.19086
1082.863, 57.94916
1083.345, 71.39636
1083.827, 47.52374
1084.309, 18.95935
1084.791, 16.26428
1085.273, 28.39127
1085.755, 37.53403
1086.238, 40.20010
1086.720, 42.91669
1087.202, 46.32324
1087.684, 47.94730
1088.166, 43.34366
1088.648, 36.41617
1089.130, 35.15054
1089.612, 39.02240
1090.094, 42.60672
1090.577, 47.04596
1091.059, 44.63766
1091.541, 29.70895
1092.023, 10.79291
1092.505, 4.199463
1092.987, 7.434875
1093.469, 20.14185
1093.951, 45.14886
1094.434, 61.10803
1094.916, 44.28351
1095.398, 20.73920
1095.880, 10.88318
1096.362, 14.20847
1096.844, 13.27612
1097.326, 7.855255
1097.808, 1.783569
1098.291, 4.874512
1098.773, 9.020233
1099.255, 6.807861
1099.737, 0.2493900
1100.219, 10.10565
1100.701, 27.06503
1101.183, 38.00287
1101.665, 42.22620
1102.147, 42.56580
1102.630, 38.32193
1103.112, 33.14496
1103.594, 37.60803
1104.076, 49.55255
1104.558, 55.62701
1105.040, 43.43985
1105.522, 33.42819
1106.004, 30.58972
1106.486, 32.28775
1106.969, 34.14685
1107.451, 36.43576
1107.933, 42.67365
1108.415, 54.34418
1108.897, 59.77676
1109.379, 40.01013
1109.861, 21.38174
1110.343, 24.34863
1110.826, 45.39761
1111.308, 59.68777
1111.790, 67.18295
1112.272, 66.23572
1112.754, 53.22052
1113.236, 37.46530
1113.718, 28.22122
1114.200, 22.30087
1114.682, 15.35919
1115.165, 5.735168
1115.647, 2.870239
1116.129, 12.25983
1116.611, 14.03009
1117.093, 8.370453
1117.575, 36.60269
1118.057, 31.45642
1118.539, 3.594696
1119.021, 11.91940
1119.504, 10.81012
1119.986, 26.06851
1120.468, 24.95071
1120.950, 20.83765
1121.432, 33.69260
1121.914, 55.60168
1122.396, 55.77600
1122.878, 32.11172
1123.361, 13.20386
1123.843, 16.47614
1124.325, 25.69208
1124.807, 36.84415
1125.289, 47.02203
1125.771, 45.67767
1126.253, 34.19315
1126.735, 28.80814
1127.218, 35.28479
1127.700, 41.65802
1128.182, 39.53580
1128.664, 32.29959
1129.146, 19.11237
1129.628, 6.3446000E-02
1130.110, 1.932251
1130.592, 27.41824
1131.074, 46.08835
1131.557, 38.74866
1132.039, 23.46765
1132.521, 18.75552
1133.003, 20.87088
1133.485, 24.26358
1133.967, 33.28741
1134.449, 31.78116
1134.931, 15.43240
1135.413, 2.946198
1135.896, 17.45142
1136.378, 41.65070
1136.860, 44.41736
1137.342, 30.23779
1137.824, 19.91022
1138.306, 22.29361
1138.788, 25.93628
1139.270, 29.48877
1139.752, 33.65121
1140.235, 41.22174
1140.717, 50.27542
1141.199, 53.36414
1141.681, 50.30362
1142.163, 45.69150
1142.645, 41.05719
1143.127, 35.73938
1143.609, 28.97552
1144.092, 21.89294
1144.574, 16.96988
1145.056, 14.59622
1145.538, 17.81580
1146.020, 30.25751
1146.502, 36.77411
1146.984, 14.73612
1147.466, 4.505585
1147.948, 6.677307
1148.431, 44.44684
1148.913, 45.29517
1149.395, 10.72138
1149.877, 13.88239
1150.359, 1.580048
1150.841, 17.74109
1151.323, 24.10275
1151.805, 22.04095
1152.287, 16.30838
1152.770, 3.954559
1153.252, 4.457855
1153.734, 19.13828
1154.216, 34.49182
1154.698, 44.55591
1155.180, 47.25751
1155.662, 33.30072
1156.144, 10.32501
1156.627, 0.8168030
1157.109, 10.89032
1157.591, 23.15143
1158.073, 36.56396
1158.555, 48.49683
1159.037, 59.15710
1159.519, 65.22986
1160.001, 58.66815
1160.484, 40.98810
1160.966, 29.06815
1161.448, 28.32410
1161.930, 28.46201
1162.412, 27.83481
1162.894, 26.32739
1163.376, 23.47372
1163.858, 19.69913
1164.340, 14.74100
1164.823, 8.059845
1165.305, 7.523834
1165.787, 18.04083
1166.269, 27.99683
1166.751, 35.78149
1167.233, 40.81372
1167.715, 40.00333
1168.197, 35.16010
1168.679, 31.63196
1169.162, 31.60379
1169.644, 30.93707
1170.126, 28.25220
1170.608, 24.29211
1171.090, 17.44543
1171.572, 9.711823
1172.054, 13.44907
1172.536, 26.43680
1173.019, 38.11295
1173.501, 45.04233
1173.983, 47.22214
1174.465, 44.69757
1174.947, 39.21783
1175.429, 27.97458
1175.911, 11.48596
1176.393, 6.596588
1176.875, 11.61630
1177.358, 14.34903
1177.840, 2.715546
1178.322, 15.68613
1178.804, 6.025421
1179.286, 12.63956
1179.768, 19.49835
1180.250, 14.32224
1180.732, 12.34521
1181.214, 14.81927
1181.697, 19.96472
1182.179, 31.96167
1182.661, 41.01663
1183.143, 38.59528
1183.625, 27.94696
1184.107, 16.95175
1184.589, 5.250000
1185.071, 0.5078740
1185.554, 1.128784
1186.036, 6.317627
1186.518, 15.34601
1187.000, 23.45969
1187.482, 24.98465
1187.964, 21.06949
1188.446, 21.16501
1188.928, 26.08710
1189.411, 25.70883
1189.893, 14.12503
1190.375, 6.228180
1190.857, 26.72195
1191.339, 53.45825
1191.821, 60.87735
1192.303, 45.68668
1192.785, 34.22205
1193.267, 26.02408
1193.750, 25.77597
1194.232, 40.37335
1194.714, 55.02524
1195.196, 50.42462
1195.678, 36.31473
1196.160, 26.25839
1196.642, 23.70929
1197.124, 15.40591
1197.606, 1.349121
1198.089, 8.497620
1198.571, 13.90952
1199.053, 42.53412
1199.535, 47.30508
1200.017, 37.29312
1200.499, 29.75977
1200.981, 30.29919
1201.463, 23.48624
1201.945, 5.761261
1202.428, 2.724487
1202.910, 25.76462
1203.392, 63.86752
1203.874, 76.46628
1204.356, 69.28345
1204.838, 60.23822
1205.320, 48.83151
1205.802, 44.01877
1206.285, 47.58093
1206.767, 51.22946
1207.249, 40.14844
1207.731, 27.71951
1208.213, 44.13742
1208.695, 81.38754
1209.177, 89.90604
1209.659, 48.88577
1210.141, 21.10962
1210.624, 16.86600
1211.106, 24.39713
1211.588, 35.94070
1212.070, 47.32986
1212.552, 53.08075
1213.034, 52.74487
1213.516, 49.21863
1213.998, 41.81677
1214.480, 34.27322
1214.963, 26.49393
1215.445, 21.37872
1215.927, 24.91034
1216.409, 32.54172
1216.891, 38.61194
1217.373, 42.35397
1217.855, 42.55951
1218.337, 38.70398
1218.820, 32.33594
1219.302, 21.40973
1219.784, 13.71060
1220.266, 29.74228
1220.748, 52.63132
1221.230, 56.30411
1221.712, 30.96640
1222.194, 8.655334
1222.677, 13.02097
1223.159, 17.86908
1223.641, 7.907043
1224.123, 42.57153
1224.605, 54.40906
1225.087, 52.18073
1225.569, 49.02948
1226.051, 48.20740
1226.533, 42.86362
1227.016, 30.64371
1227.498, 21.93683
1227.980, 22.67114
1228.462, 29.18604
1228.944, 41.40967
1229.426, 53.91348
1229.908, 56.72150
1230.390, 42.79285
1230.872, 31.99524
1231.355, 24.91336
1231.837, 18.84744
1232.319, 9.000092
1232.801, 1.846832
1233.283, 9.885925
1233.765, 26.24603
1234.247, 36.63318
1234.729, 35.31113
1235.212, 38.21802
1235.694, 46.66068
1236.176, 51.98682
1236.658, 43.66919
1237.140, 33.08051
1237.622, 35.32489
1238.104, 44.85034
1238.586, 46.74628
1239.068, 38.04453
1239.551, 28.79224
1240.033, 19.11731
1240.515, 11.79779
1240.997, 6.492737
1241.479, 6.239105
1241.961, 18.11206
1242.443, 37.26944
1242.925, 49.92523
1243.407, 55.09387
1243.890, 55.43536
1244.372, 50.67703
1244.854, 45.87848
1245.336, 45.59915
1245.818, 47.20389
1246.300, 49.35327
1246.782, 51.42575
1247.264, 52.30655
1247.747, 52.15802
1248.229, 47.31314
1248.711, 38.04791
1249.193, 28.82391
1249.675, 20.16531
1250.157, 16.18573
1250.639, 24.23886
1251.121, 39.41861
1251.604, 48.38498
1252.086, 51.00308
1252.568, 51.10907
1253.050, 49.08673
1253.532, 47.58560
1254.014, 50.52292
1254.496, 52.96030
1254.978, 51.80469
1255.460, 47.45480
1255.943, 38.39212
1256.425, 25.43448
1256.907, 21.81021
1257.389, 31.28061
1257.871, 38.21762
1258.353, 27.52701
1258.835, 15.92035
1259.317, 11.38232
1259.799, 13.49695
1260.281, 23.70078
1260.764, 39.82086
1261.246, 47.31775
1261.728, 38.89932
1262.210, 33.56711
1262.692, 51.66052
1263.174, 61.94235
1263.656, 45.37473
1264.138, 15.69818
1264.621, 13.41763
1265.103, 31.24850
1265.585, 47.78592
1266.067, 59.42291
1266.549, 61.10013
1267.031, 38.06628
1267.513, 22.65588
1267.995, 29.99237
1268.478, 50.15561
1268.960, 63.74695
1269.442, 70.59140
1269.924, 68.84869
1270.406, 55.27850
1270.888, 45.21338
1271.370, 42.31088
1271.852, 39.63651
1272.334, 34.20566
1272.817, 27.11371
1273.299, 16.78458
1273.781, 7.481720
1274.263, 8.351074
1274.745, 26.86279
1275.227, 32.01666
1275.709, 17.79553
1276.191, 9.565308
1276.673, 24.87741
1277.156, 43.15698
1277.638, 30.09241
1278.120, 3.842407
1278.602, 8.369446
1279.084, 3.5828002E-02
1279.566, 4.018280
1280.048, 2.723297
1280.530, 6.381775
1281.013, 24.30762
1281.495, 42.16177
1281.977, 43.04269
1282.459, 37.43457
1282.941, 40.12955
1283.423, 52.90579
1283.905, 46.89536
1284.387, 22.47565
1284.870, 5.520569
1285.352, 9.761719
1285.834, 23.27881
1286.316, 49.95886
1286.798, 73.01312
1287.280, 74.58551
1287.762, 56.43558
1288.244, 44.17062
1288.726, 43.34772
1289.208, 46.40695
1289.691, 56.82446
1290.173, 61.45227
1290.655, 46.25293
1291.137, 32.78024
1291.619, 40.25055
1292.101, 61.93439
1292.583, 50.56790
1293.065, 16.96982
1293.548, 2.722656
1294.030, 14.54437
1294.512, 30.25690
1294.994, 40.09521
1295.476, 45.07523
1295.958, 28.10593
1296.440, 18.46942
1296.922, 7.966858
1297.405, 0.0000000E+00
##END=



