##NAMES=Schoepite
##RRUFFID=R080082
##IDEAL CHEMISTRY=(UO_2_)_8_O_2_(OH)_12_&#183;12H_2_O
##LOCALITY=Musonoi Mine, Kolwezi, Western area, Katanga Copper Zone, Katanga (Shaba), Congo (Za√Øre)
##OWNER=RRUFF
##SOURCE=Michael Scott
##DESCRIPTION=Aggregates of bright yellow micro crystals
##STATUS=The identification of this mineral is not yet confirmed.
##URL=rruff.info/R080082
149.8953, 0.0000000E+00
150.3774, 4.1533999E-02
150.8595, 7.4432001E-02
151.3417, 1.0986000E-02
151.8238, 1.7242000E-02
152.3059, 0.2655940
152.7880, 0.9056700
153.2701, 1.842224
153.7522, 2.979248
154.2344, 4.686829
154.7165, 6.128998
155.1986, 7.148224
155.6807, 7.897980
156.1628, 8.544525
156.6449, 9.158508
157.1271, 9.764801
157.6092, 10.46982
158.0913, 11.66705
158.5734, 12.52917
159.0555, 12.64938
159.5376, 12.21307
160.0198, 11.67661
160.5019, 11.20468
160.9840, 10.88129
161.4661, 10.93375
161.9482, 11.79160
162.4303, 12.56366
162.9125, 12.40457
163.3946, 11.37369
163.8767, 10.72906
164.3588, 11.63641
164.8409, 13.35413
165.3230, 14.55060
165.8052, 14.64169
166.2873, 14.36536
166.7694, 14.79327
167.2515, 16.12985
167.7336, 17.44974
168.2157, 18.34814
168.6979, 18.95850
169.1800, 19.38632
169.6621, 19.62016
170.1442, 19.74207
170.6263, 19.94257
171.1084, 20.08710
171.5906, 20.58426
172.0727, 21.78957
172.5548, 23.32329
173.0369, 24.64403
173.5190, 25.38544
174.0011, 25.63593
174.4833, 26.14813
174.9654, 27.19366
175.4475, 28.22089
175.9296, 29.00504
176.4117, 29.74120
176.8938, 30.82780
177.3760, 32.63492
177.8581, 35.34065
178.3402, 37.88899
178.8223, 39.66489
179.3044, 41.32422
179.7865, 43.14484
180.2687, 45.30428
180.7508, 47.11372
181.2329, 48.22105
181.7150, 48.62856
182.1971, 49.00479
182.6792, 49.73454
183.1614, 50.47507
183.6435, 51.04214
184.1256, 51.40744
184.6077, 51.54163
185.0898, 51.45581
185.5719, 51.13486
186.0541, 50.67427
186.5362, 50.07657
187.0183, 49.41641
187.5004, 48.78944
187.9825, 48.21179
188.4646, 47.51807
188.9468, 46.47871
189.4289, 45.19656
189.9110, 43.93776
190.3931, 42.92319
190.8752, 41.91992
191.3573, 40.49371
191.8395, 38.49379
192.3216, 36.40427
192.8037, 34.54829
193.2858, 32.88914
193.7679, 31.36806
194.2500, 30.16119
194.7322, 29.10080
195.2143, 27.54073
195.6964, 25.09521
196.1785, 22.74310
196.6606, 21.09758
197.1427, 19.92947
197.6249, 18.75511
198.1070, 17.20016
198.5891, 15.31955
199.0712, 13.67847
199.5533, 12.43027
200.0354, 11.27533
200.5176, 10.15550
200.9997, 9.045547
201.4818, 7.910416
201.9639, 6.714844
202.4460, 5.454956
202.9281, 4.273758
203.4103, 3.180023
203.8924, 2.175903
204.3745, 1.330399
204.8566, 0.5868530
205.3387, 0.1638340
205.8208, 1.032578
206.3030, 2.052078
206.7851, 2.921173
207.2672, 3.783081
207.7493, 4.201294
208.2314, 4.090225
208.7135, 3.571991
209.1957, 3.045029
209.6778, 2.898697
210.1599, 3.228287
210.6420, 3.166122
211.1241, 2.481140
211.6062, 1.692993
212.0884, 1.089676
212.5705, 0.6587980
213.0526, 0.1763610
213.5347, 0.6019900
214.0168, 1.729797
214.4989, 2.490707
214.9811, 2.634277
215.4632, 2.641647
215.9453, 2.783478
216.4274, 3.086899
216.9095, 3.493500
217.3916, 3.949371
217.8737, 4.471100
218.3559, 5.120728
218.8380, 6.123383
219.3201, 7.115341
219.8022, 7.651855
220.2843, 7.701874
220.7664, 7.894882
221.2486, 8.950439
221.7307, 10.62485
222.2128, 11.82796
222.6949, 12.03137
223.1770, 11.88487
223.6591, 12.10747
224.1413, 12.74945
224.6234, 13.53310
225.1055, 14.25484
225.5876, 14.97632
226.0697, 15.82684
226.5518, 16.76286
227.0340, 17.88620
227.5161, 19.46945
227.9982, 21.68440
228.4803, 23.74419
228.9624, 24.84328
229.4445, 25.58237
229.9267, 26.81175
230.4088, 29.07822
230.8909, 31.78050
231.3730, 33.67178
231.8551, 34.38699
232.3372, 35.21104
232.8194, 36.75233
233.3015, 38.67915
233.7836, 40.62428
234.2657, 42.41722
234.7478, 44.17311
235.2299, 46.22783
235.7121, 48.92493
236.1942, 51.21216
236.6763, 52.61897
237.1584, 53.59315
237.6405, 54.60512
238.1227, 55.86290
238.6048, 57.25322
239.0869, 58.45142
239.5690, 59.22574
240.0511, 60.23993
240.5332, 61.90685
241.0154, 63.70964
241.4975, 65.03290
241.9796, 65.60570
242.4617, 65.80960
242.9438, 66.63541
243.4259, 68.74106
243.9081, 70.44498
244.3902, 71.55182
244.8723, 72.22351
245.3544, 72.54767
245.8365, 72.56863
246.3186, 72.39584
246.8008, 72.29243
247.2829, 72.55128
247.7650, 72.41991
248.2471, 71.60101
248.7292, 70.54295
249.2113, 69.68619
249.6935, 69.17339
250.1756, 68.78902
250.6577, 68.11624
251.1398, 67.09512
251.6219, 65.81650
252.1040, 64.11293
252.5862, 62.26408
253.0683, 60.46054
253.5504, 58.78004
254.0325, 57.26205
254.5146, 55.99303
254.9967, 55.23134
255.4789, 54.25531
255.9610, 52.96309
256.4431, 51.51990
256.9252, 49.99402
257.4073, 48.41937
257.8894, 46.93265
258.3716, 45.69716
258.8537, 44.73163
259.3358, 44.09875
259.8179, 44.25534
260.3000, 44.46930
260.7821, 44.02078
261.2643, 42.80444
261.7464, 41.34386
262.2285, 40.18689
262.7106, 39.39787
263.1927, 38.63260
263.6748, 37.85139
264.1570, 37.08525
264.6391, 36.44791
265.1212, 35.93414
265.6033, 35.34138
266.0854, 34.42946
266.5675, 33.21312
267.0497, 32.33270
267.5318, 31.94200
268.0139, 31.72650
268.4960, 31.70424
268.9781, 31.86629
269.4602, 31.62956
269.9424, 30.35690
270.4245, 28.18300
270.9066, 26.44807
271.3887, 25.45450
271.8708, 24.71545
272.3529, 23.89827
272.8351, 22.98553
273.3172, 22.02672
273.7993, 21.03551
274.2814, 20.02631
274.7635, 19.04448
275.2456, 18.20813
275.7278, 17.27591
276.2099, 15.93465
276.6920, 14.25697
277.1741, 12.82561
277.6562, 12.01608
278.1383, 11.57198
278.6205, 10.93276
279.1026, 10.03416
279.5847, 9.089325
280.0668, 8.182831
280.5489, 7.317307
281.0310, 6.552460
281.5132, 5.892548
281.9953, 5.382141
282.4774, 5.102997
282.9595, 5.105621
283.4416, 5.038284
283.9237, 4.556778
284.4059, 3.791199
284.8880, 3.331558
285.3701, 3.500229
285.8522, 3.770386
286.3343, 3.468140
286.8164, 2.628204
287.2986, 2.024231
287.7807, 2.185883
288.2628, 2.922882
288.7449, 3.655304
289.2270, 4.394897
289.7091, 4.948074
290.1913, 5.088486
290.6734, 4.910278
291.1555, 4.737823
291.6376, 4.638016
292.1197, 4.657288
292.6018, 4.917862
293.0840, 5.453461
293.5661, 6.172821
294.0482, 7.271896
294.5303, 8.488815
295.0124, 9.314468
295.4945, 9.391876
295.9767, 9.040421
296.4588, 8.790421
296.9409, 8.636017
297.4230, 8.606522
297.9051, 8.734344
298.3872, 8.990570
298.8694, 9.413147
299.3515, 10.13936
299.8336, 10.81746
300.3157, 10.85361
300.7978, 10.10860
301.2799, 9.576218
301.7621, 9.861679
302.2442, 10.42165
302.7263, 10.83745
303.2084, 11.05067
303.6905, 11.04483
304.1726, 10.70271
304.6548, 10.01328
305.1369, 9.480408
305.6190, 9.251022
306.1011, 9.217102
306.5832, 9.355804
307.0653, 9.645981
307.5475, 9.898651
308.0296, 9.828354
308.5117, 9.456329
308.9938, 9.407425
309.4759, 10.06546
309.9580, 10.78409
310.4402, 11.10637
310.9223, 11.06870
311.4044, 10.91307
311.8865, 10.76880
312.3686, 10.68895
312.8507, 10.79791
313.3329, 11.20659
313.8150, 11.61319
314.2971, 11.93570
314.7792, 12.13753
315.2613, 12.10934
315.7434, 11.60173
316.2256, 10.95035
316.7077, 11.01511
317.1898, 12.12604
317.6719, 13.08769
318.1540, 12.99167
318.6361, 12.57199
319.1183, 12.78242
319.6004, 14.10439
320.0825, 15.62022
320.5646, 15.93582
321.0467, 14.83000
321.5288, 13.93480
322.0110, 13.77391
322.4931, 14.04701
322.9752, 14.69414
323.4573, 15.71745
323.9394, 16.66048
324.4215, 17.00731
324.9037, 16.77063
325.3858, 16.67369
325.8679, 17.05379
326.3500, 17.38045
326.8321, 17.18315
327.3142, 16.53943
327.7964, 15.96483
328.2785, 15.82503
328.7606, 16.05180
329.2427, 16.33044
329.7248, 16.70079
330.2069, 17.02567
330.6891, 17.11922
331.1712, 17.11145
331.6533, 17.30418
332.1354, 18.04689
332.6175, 18.96736
333.0996, 19.23447
333.5818, 18.66078
334.0639, 18.03900
334.5460, 17.70476
335.0281, 17.56702
335.5102, 17.57938
335.9923, 17.78157
336.4745, 18.01006
336.9566, 18.10649
337.4387, 18.06999
337.9208, 17.84738
338.4029, 17.19051
338.8850, 16.50664
339.3671, 16.24820
339.8492, 16.47693
340.3314, 16.73878
340.8135, 16.74060
341.2956, 16.49536
341.7777, 16.04137
342.2598, 15.22772
342.7419, 14.43446
343.2241, 14.11113
343.7062, 14.14685
344.1883, 13.97285
344.6704, 13.08766
345.1525, 11.83755
345.6346, 11.04240
346.1168, 10.87987
346.5989, 10.75095
347.0810, 10.02083
347.5631, 9.040253
348.0452, 8.464676
348.5273, 8.743637
349.0095, 9.241257
349.4916, 9.244568
349.9737, 8.747025
350.4558, 8.099304
350.9379, 7.410782
351.4200, 6.692963
351.9022, 5.916092
352.3843, 4.977432
352.8664, 4.267334
353.3485, 4.299057
353.8306, 4.845367
354.3127, 4.962357
354.7949, 4.263748
355.2770, 3.253265
355.7591, 2.533264
356.2412, 2.089706
356.7233, 1.751755
357.2054, 1.497620
357.6876, 1.298279
358.1697, 1.105942
358.6518, 0.9119420
359.1339, 0.7424320
359.6160, 0.6503140
360.0981, 0.6118320
360.5803, 0.5041050
361.0624, 0.3200680
361.5445, 5.5984002E-02
362.0266, 0.3112950
362.5087, 0.7728420
362.9908, 1.273254
363.4730, 1.820145
363.9551, 2.357834
364.4372, 2.752411
364.9193, 3.063889
365.4014, 3.157379
365.8835, 2.785950
366.3657, 2.175385
366.8478, 1.840622
367.3299, 2.000809
367.8120, 2.289261
368.2941, 2.059158
368.7762, 1.144638
369.2584, 0.4852910
369.7405, 0.3442990
370.2226, 0.4373470
370.7047, 0.5279390
371.1868, 0.5762630
371.6689, 0.5962830
372.1511, 0.6040040
372.6332, 0.5976260
373.1153, 0.5329130
373.5974, 0.3174130
374.0795, 0.1374360
374.5616, 0.2047120
375.0438, 0.3873140
375.5259, 0.3224030
376.0080, 0.2140350
376.4901, 1.073746
376.9722, 1.732086
377.4543, 1.803787
377.9365, 2.167801
378.4186, 3.147476
378.9007, 4.353699
379.3828, 5.335892
379.8649, 5.975021
380.3470, 6.495636
380.8292, 7.226288
381.3113, 8.317612
381.7934, 9.163773
382.2755, 9.421982
382.7576, 9.764633
383.2397, 10.59406
383.7219, 11.86952
384.2040, 13.34355
384.6861, 14.85291
385.1682, 16.38271
385.6503, 17.62769
386.1324, 18.46416
386.6146, 19.12715
387.0967, 19.37943
387.5788, 19.56454
388.0609, 20.15366
388.5430, 21.34315
389.0251, 22.85962
389.5073, 24.17419
389.9894, 25.25294
390.4715, 26.18251
390.9536, 26.77568
391.4357, 27.38847
391.9178, 28.22935
392.4000, 29.32468
392.8821, 30.61562
393.3642, 32.16579
393.8463, 34.00011
394.3284, 35.27338
394.8105, 35.52989
395.2927, 35.72751
395.7748, 36.08212
396.2569, 36.62025
396.7390, 37.41180
397.2211, 38.56375
397.7032, 39.83447
398.1854, 40.60936
398.6675, 40.68370
399.1496, 40.89487
399.6317, 41.73598
400.1138, 42.65009
400.5959, 43.23195
401.0781, 43.41116
401.5602, 43.34039
402.0423, 42.89922
402.5244, 42.17239
403.0065, 42.22841
403.4886, 43.80225
403.9708, 45.27937
404.4529, 45.50047
404.9350, 44.74799
405.4171, 43.77954
405.8992, 42.87126
406.3813, 41.95766
406.8635, 40.87209
407.3456, 39.58139
407.8277, 38.41432
408.3098, 37.60464
408.7919, 36.97787
409.2740, 36.23906
409.7562, 35.34738
410.2383, 34.40326
410.7204, 33.38760
411.2025, 32.35733
411.6846, 31.48587
412.1667, 30.83897
412.6489, 30.28769
413.1310, 29.73102
413.6131, 29.17197
414.0952, 28.42644
414.5773, 27.29906
415.0594, 26.08055
415.5416, 25.05453
416.0237, 24.21806
416.5058, 23.39531
416.9879, 22.47365
417.4700, 21.47302
417.9521, 20.49284
418.4343, 19.59749
418.9164, 18.63284
419.3985, 17.45074
419.8806, 16.18686
420.3627, 15.06316
420.8448, 14.14569
421.3270, 13.32692
421.8091, 12.45160
422.2912, 11.50134
422.7733, 10.60199
423.2554, 9.753769
423.7375, 9.005478
424.2197, 8.472412
424.7018, 8.066605
425.1839, 7.542358
425.6660, 6.720596
426.1481, 5.691162
426.6302, 4.868622
427.1124, 4.457657
427.5945, 3.940109
428.0766, 2.965088
428.5587, 1.987869
429.0408, 1.589447
429.5229, 1.903900
430.0051, 2.384232
430.4872, 2.140640
430.9693, 0.8716280
431.4514, 0.1742550
431.9335, 0.7864380
432.4156, 1.351044
432.8978, 1.283691
433.3799, 0.7308200
433.8620, 0.1273650
434.3441, 0.3516690
434.8262, 0.6775670
435.3083, 0.6853640
435.7905, 0.2707820
436.2726, 0.1738590
436.7547, 0.5251010
437.2368, 0.8350070
437.7189, 1.135422
438.2010, 1.429947
438.6832, 1.743057
439.1653, 2.092972
439.6474, 2.477814
440.1295, 2.930176
440.6116, 3.554688
441.0938, 4.048325
441.5759, 3.903580
442.0580, 3.369522
442.5401, 3.255997
443.0222, 4.107742
443.5043, 5.259277
443.9865, 6.188339
444.4686, 6.870605
444.9507, 7.094055
445.4328, 6.571976
445.9149, 5.717102
446.3970, 5.499115
446.8792, 6.057968
447.3613, 6.697998
447.8434, 7.437775
448.3255, 8.062149
448.8076, 8.177948
449.2897, 7.754776
449.7719, 7.345566
450.2540, 7.536469
450.7361, 8.377151
451.2182, 8.677948
451.7003, 7.795929
452.1824, 7.161560
452.6646, 7.398468
453.1467, 8.211029
453.6288, 9.174469
454.1109, 10.10559
454.5930, 10.85741
455.0751, 11.10928
455.5573, 10.51770
456.0394, 10.08136
456.5215, 9.657974
457.0036, 9.478851
457.4857, 9.838730
457.9678, 10.59895
458.4500, 11.32777
458.9321, 11.72641
459.4142, 11.80328
459.8963, 11.55627
460.3784, 10.62660
460.8605, 10.02574
461.3427, 10.21571
461.8248, 10.70892
462.3069, 11.06369
462.7890, 11.16949
463.2711, 11.12694
463.7532, 11.07024
464.2354, 10.98537
464.7175, 10.63187
465.1996, 9.791718
465.6817, 8.985245
466.1638, 8.631531
466.6459, 8.592789
467.1281, 8.530975
467.6102, 8.272964
468.0923, 8.000122
468.5744, 8.003357
469.0565, 8.238159
469.5386, 8.231964
470.0208, 7.699127
470.5029, 6.955780
470.9850, 6.582718
471.4671, 6.618759
471.9492, 6.669662
472.4313, 6.783493
472.9135, 6.777283
473.3956, 6.379868
473.8777, 5.605881
474.3598, 4.761841
474.8419, 4.059921
475.3240, 3.499634
475.8062, 3.091187
476.2883, 3.004745
476.7704, 2.840561
477.2525, 2.376328
477.7346, 1.856247
478.2167, 1.609970
478.6989, 1.709442
479.1810, 1.928833
479.6631, 1.971069
480.1452, 1.786575
480.6273, 1.680252
481.1094, 1.827408
481.5916, 1.870697
482.0737, 1.580444
482.5558, 1.123489
483.0379, 0.7781830
483.5200, 0.6729130
484.0021, 0.7588200
484.4843, 1.020996
484.9664, 1.556839
485.4485, 1.810593
485.9306, 1.402756
486.4127, 0.9049680
486.8948, 0.7081450
487.3770, 0.7832640
487.8591, 0.8689120
488.3412, 0.7944950
488.8233, 0.6397250
489.3054, 0.5302580
489.7875, 0.4606780
490.2697, 0.5374450
490.7518, 0.9572450
491.2339, 1.477600
491.7160, 1.587036
492.1981, 1.105240
492.6802, 0.7310330
493.1624, 0.9013520
493.6445, 1.320084
494.1266, 1.502335
494.6087, 1.369415
495.0908, 1.217422
495.5729, 1.309967
496.0551, 1.645691
496.5372, 1.957718
497.0193, 2.418137
497.5014, 2.663116
497.9835, 2.348236
498.4656, 1.831955
498.9478, 1.623093
499.4299, 1.883957
499.9120, 2.392212
500.3941, 2.832626
500.8762, 3.179245
501.3583, 3.566620
501.8405, 3.997101
502.3226, 4.465347
502.8047, 5.022598
503.2868, 5.608047
503.7689, 6.128448
504.2510, 6.550598
504.7331, 6.842484
505.2152, 6.852188
505.6974, 6.486710
506.1795, 6.424133
506.6616, 5.626953
507.1437, 7.030853
507.6258, 7.948914
508.1079, 8.407242
508.5901, 7.025406
509.0722, 8.022293
509.5543, 8.067520
510.0364, 8.074707
510.5185, 9.409576
511.0006, 8.300903
511.4828, 9.616928
511.9649, 9.966507
512.4470, 10.75993
512.9291, 10.59563
513.4113, 10.72856
513.8934, 11.82162
514.3755, 12.38448
514.8576, 12.44800
515.3397, 12.62929
515.8218, 12.66101
516.3040, 12.73573
516.7861, 12.85623
517.2682, 13.04712
517.7503, 13.25940
518.2324, 13.60950
518.7145, 14.08981
519.1967, 14.72507
519.6788, 15.67574
520.1609, 16.88643
520.6430, 17.96321
521.1251, 18.47020
521.6072, 18.42569
522.0894, 18.43121
522.5715, 18.46710
523.0536, 18.58952
523.5357, 18.78700
524.0178, 19.08142
524.4999, 19.49869
524.9821, 20.04599
525.4642, 20.71284
525.9463, 21.45422
526.4284, 22.29674
526.9105, 23.48521
527.3926, 25.22038
527.8748, 26.78181
528.3569, 27.43742
528.8390, 27.44141
529.3211, 27.68465
529.8032, 28.34082
530.2853, 29.16318
530.7675, 30.08070
531.2496, 31.03076
531.7317, 31.97404
532.2138, 32.91301
532.6959, 33.80150
533.1780, 34.51086
533.6602, 34.95667
534.1423, 35.44591
534.6244, 36.06323
535.1065, 36.64810
535.5886, 37.09329
536.0707, 37.46576
536.5529, 37.88268
537.0350, 38.40488
537.5171, 39.00911
537.9992, 39.63049
538.4813, 40.23918
538.9634, 40.87323
539.4456, 41.81888
539.9277, 42.50922
540.4098, 42.46100
540.8919, 41.99590
541.3740, 41.77841
541.8561, 42.14021
542.3383, 42.70352
542.8204, 42.96655
543.3025, 42.95129
543.7846, 43.11772
544.2667, 43.73398
544.7488, 44.29420
545.2310, 44.11131
545.7131, 43.29288
546.1952, 42.65134
546.6773, 42.49239
547.1594, 42.35667
547.6415, 41.76018
548.1237, 40.88100
548.6058, 40.43230
549.0879, 40.74998
549.5700, 41.20399
550.0521, 40.67241
550.5342, 38.63593
551.0164, 37.19911
551.4985, 36.64275
551.9806, 36.32764
552.4627, 36.17154
552.9448, 35.99402
553.4269, 35.48944
553.9091, 34.49318
554.3912, 33.29970
554.8733, 32.41412
555.3554, 31.87059
555.8375, 31.49326
556.3196, 31.50407
556.8018, 31.31912
557.2839, 30.44823
557.7660, 29.11285
558.2481, 27.94627
558.7302, 27.31641
559.2123, 26.80423
559.6945, 25.94141
560.1766, 24.77077
560.6587, 23.59924
561.1408, 22.48616
561.6229, 21.55069
562.1050, 21.00578
562.5872, 20.94728
563.0693, 20.55934
563.5514, 19.78358
564.0335, 18.73189
564.5156, 17.13397
564.9977, 15.38487
565.4799, 14.20651
565.9620, 13.87543
566.4441, 13.93260
566.9262, 13.62965
567.4083, 12.81599
567.8904, 12.26048
568.3726, 12.40309
568.8547, 12.35219
569.3368, 11.66945
569.8189, 10.62154
570.3010, 9.594757
570.7831, 8.670013
571.2653, 8.054962
571.7474, 8.304382
572.2295, 9.244469
572.7116, 9.347694
573.1937, 8.131348
573.6758, 6.662041
574.1580, 5.800468
574.6401, 5.421059
575.1222, 5.032204
575.6043, 4.525246
576.0864, 4.070023
576.5685, 3.874695
577.0507, 3.758461
577.5328, 3.343109
578.0149, 2.554405
578.4970, 1.759247
578.9791, 1.355690
579.4612, 1.358200
579.9434, 1.395515
580.4255, 1.518906
580.9076, 1.618576
581.3897, 1.766228
581.8718, 1.834290
582.3539, 1.610771
582.8361, 1.077980
583.3182, 0.5442430
583.8003, 0.3125080
584.2824, 0.3535770
584.7645, 0.4925540
585.2466, 0.8003920
585.7288, 0.9993970
586.2108, 0.9011310
586.6929, 0.6296310
587.1750, 0.3279950
587.6572, 3.6369000E-02
588.1393, 0.2470090
588.6214, 4.6486001E-02
589.1035, 0.4235310
589.5856, 0.1893230
590.0677, 0.6414180
590.5499, 1.349167
591.0320, 1.457741
591.5141, 1.119728
591.9962, 0.8914340
592.4783, 0.8669820
592.9604, 0.8207400
593.4426, 0.6579590
593.9247, 0.5434650
594.4068, 0.6846850
594.8889, 0.9919130
595.3710, 1.156616
595.8531, 0.9435040
596.3353, 0.5303800
596.8174, 0.3527370
597.2995, 0.4522710
597.7816, 0.5402370
598.2637, 0.5779650
598.7458, 0.5802000
599.2280, 0.6059110
599.7101, 0.6225890
600.1922, 0.5026700
600.6743, 7.6637000E-02
601.1564, 0.4018710
601.6385, 0.8179170
602.1207, 1.121834
602.6028, 1.068214
603.0849, 0.5659560
603.5670, 9.3474999E-02
604.0491, 0.5686650
604.5313, 0.8912350
605.0134, 0.8224790
605.4955, 5.3116001E-02
605.9776, 0.7945330
606.4597, 1.031273
606.9418, 0.9940640
607.4240, 0.9781720
607.9061, 1.071571
608.3882, 1.160233
608.8703, 1.073959
609.3524, 0.8337780
609.8345, 0.7305760
610.3167, 0.8090590
610.7988, 0.9291530
611.2809, 1.106079
611.7630, 1.245193
612.2451, 1.144951
612.7272, 0.6933290
613.2094, 0.4593280
613.6915, 0.8959730
614.1736, 1.585526
614.6557, 2.067635
615.1378, 2.292236
615.6199, 2.220421
616.1021, 1.768890
616.5842, 1.166229
617.0663, 1.089867
617.5484, 2.083511
618.0305, 2.674660
618.5126, 2.581268
618.9948, 2.386032
619.4769, 2.407852
619.9590, 2.598068
620.4411, 2.794998
620.9232, 2.938316
621.4053, 2.974937
621.8875, 2.731461
622.3696, 2.216743
622.8517, 1.933067
623.3338, 2.021950
623.8159, 2.246170
624.2980, 2.470886
624.7802, 2.680893
625.2623, 2.817101
625.7444, 2.833900
626.2265, 2.826576
626.7086, 2.802803
627.1907, 2.797195
627.6729, 2.838333
628.1550, 2.940468
628.6371, 3.181175
629.1192, 3.677452
629.6013, 4.358284
630.0834, 4.599289
630.5656, 4.064194
631.0477, 3.634804
631.5298, 3.407722
632.0119, 3.347305
632.4940, 3.501549
632.9761, 3.816589
633.4583, 4.082016
633.9404, 4.149422
634.4225, 4.119499
634.9046, 4.126137
635.3867, 4.167900
635.8688, 4.283470
636.3510, 4.507240
636.8331, 4.766792
637.3152, 5.019997
637.7973, 5.273659
638.2794, 5.287041
638.7615, 4.815475
639.2437, 4.377472
639.7258, 4.126373
640.2079, 4.061501
640.6900, 4.240997
641.1721, 4.643372
641.6542, 5.045982
642.1364, 5.196030
642.6185, 5.115730
643.1006, 5.079575
643.5827, 5.049080
644.0648, 5.151176
644.5469, 5.614426
645.0291, 6.118637
645.5112, 6.388222
645.9933, 6.393867
646.4754, 6.218109
646.9575, 5.665863
647.4396, 5.086266
647.9218, 4.831818
648.4039, 4.864746
648.8860, 5.063065
649.3681, 5.416512
649.8502, 5.716110
650.3323, 5.597710
650.8145, 4.896698
651.2966, 4.553581
651.7787, 4.855942
652.2608, 5.146492
652.7429, 5.245476
653.2250, 5.210976
653.7072, 5.138641
654.1893, 5.059883
654.6714, 4.939224
655.1535, 3.693420
655.6356, 4.531708
656.1177, 4.975693
656.5999, 5.054169
657.0820, 3.674744
657.5641, 4.188217
658.0462, 3.929405
658.5283, 3.659630
659.0104, 4.473785
659.4926, 3.347450
659.9747, 4.165833
660.4568, 4.209335
660.9389, 4.591164
661.4210, 4.171577
661.9031, 3.958702
662.3853, 4.493568
662.8674, 4.606377
663.3495, 4.096214
663.8316, 4.489815
664.3137, 3.744797
664.7958, 4.267906
665.2780, 4.722023
665.7601, 4.617432
666.2422, 4.326813
666.7243, 4.314049
667.2064, 4.611687
667.6885, 4.891983
668.1707, 4.949051
668.6528, 4.967506
669.1349, 5.200165
669.6170, 5.582039
670.0991, 5.674164
670.5812, 5.219635
671.0634, 4.586006
671.5455, 4.342522
672.0276, 4.685783
672.5097, 4.791534
672.9918, 4.511856
673.4739, 4.145889
673.9561, 3.601234
674.4382, 3.084106
674.9203, 2.924629
675.4024, 3.232468
675.8845, 3.635818
676.3666, 3.831047
676.8488, 3.901093
677.3309, 4.062561
677.8130, 4.324440
678.2951, 4.497643
678.7772, 4.481262
679.2593, 4.342636
679.7415, 4.179230
680.2236, 3.919403
680.7057, 3.865387
681.1878, 4.320213
681.6699, 4.699181
682.1520, 4.610558
682.6342, 4.274261
683.1163, 4.086960
683.5984, 4.164772
684.0805, 4.274223
684.5626, 4.112061
685.0447, 3.742607
685.5269, 3.561699
686.0090, 3.619118
686.4911, 3.632446
686.9732, 3.416153
687.4553, 3.159660
687.9374, 3.233047
688.4196, 3.703392
688.9017, 3.928207
689.3838, 3.573708
689.8659, 3.232414
690.3480, 3.327606
690.8301, 3.637337
691.3123, 3.687996
691.7944, 3.358612
692.2765, 3.089867
692.7586, 3.546173
693.2407, 4.640144
693.7228, 4.892815
694.2050, 3.923927
694.6871, 3.171677
695.1692, 3.310226
695.6513, 3.759773
696.1334, 3.895874
696.6155, 3.703712
697.0977, 3.529564
697.5798, 3.475433
698.0619, 3.498665
698.5440, 3.634796
699.0261, 3.818016
699.5082, 3.904366
699.9904, 3.851547
700.4725, 3.721413
700.9546, 3.579140
701.4367, 3.416389
701.9188, 3.148468
702.4009, 2.570076
702.8831, 2.330330
703.3652, 2.992645
703.8473, 3.766060
704.3294, 4.045692
704.8115, 3.855515
705.2936, 3.603386
705.7758, 3.410889
706.2579, 3.281021
706.7400, 3.238663
707.2221, 3.254272
707.7042, 3.252235
708.1863, 3.212799
708.6685, 3.186668
709.1506, 3.238464
709.6327, 3.362038
710.1148, 3.482704
710.5969, 3.716064
711.0790, 3.726227
711.5612, 3.221992
712.0433, 2.708244
712.5254, 2.640137
713.0075, 2.844116
713.4896, 2.722054
713.9717, 1.788147
714.4539, 0.9145660
714.9360, 1.038383
715.4181, 1.780251
715.9002, 2.293533
716.3823, 2.437698
716.8644, 2.351082
717.3466, 2.087532
717.8287, 1.714798
718.3108, 1.430458
718.7929, 1.262108
719.2750, 1.135612
719.7571, 0.9637680
720.2393, 0.9198150
720.7214, 1.242035
721.2035, 1.714630
721.6856, 1.921600
722.1677, 1.687454
722.6498, 1.349922
723.1320, 1.183929
723.6141, 1.110497
724.0962, 0.4941860
724.5783, 1.362389
725.0604, 1.842285
725.5425, 1.954414
726.0247, 0.5941160
726.5068, 1.134514
726.9889, 0.9128040
727.4710, 0.6595380
727.9531, 1.466614
728.4352, 0.3190610
728.9174, 1.108856
729.3995, 1.124146
729.8816, 1.494118
730.3637, 0.5894010
730.8458, 0.5694500
731.3279, 0.6247180
731.8101, 0.6917500
732.2922, 0.6220630
732.7743, 0.4485550
733.2564, 0.4076540
733.7385, 0.5981140
734.2206, 0.8562240
734.7028, 0.9776080
735.1849, 0.9551770
735.6670, 0.9079900
736.1491, 0.8205490
736.6312, 0.7242510
737.1133, 0.6823650
737.5955, 0.5907060
738.0776, 0.2644040
738.5597, 0.2327420
739.0418, 0.5387730
739.5239, 0.3598860
740.0060, 4.2343002E-02
740.4882, 9.0100002E-03
740.9703, 0.1684800
741.4524, 0.2366870
741.9345, 0.1551510
742.4166, 2.3064001E-02
742.8987, 8.7608002E-02
743.3809, 0.1703720
743.8630, 0.1825330
744.3451, 3.0159000E-02
744.8272, 2.2659000E-02
745.3093, 0.2482990
745.7914, 0.4116820
746.2736, 0.1033780
746.7557, 0.4587860
747.2378, 0.8085020
747.7199, 0.7664180
748.2020, 0.6282120
748.6841, 0.6453250
749.1663, 0.7060620
749.6484, 0.5509640
750.1305, 0.2086030
750.6126, 2.2026001E-02
751.0947, 0.1841050
751.5768, 0.4981770
752.0590, 0.5940480
752.5411, 0.4012910
753.0232, 0.3427430
753.5053, 0.6110920
753.9874, 0.7506940
754.4695, 0.4703750
754.9517, 9.4452001E-02
755.4338, 4.0399999E-04
755.9159, 0.2175520
756.3980, 0.4235840
756.8801, 0.4521710
757.3622, 0.4138410
757.8444, 0.4368290
758.3265, 0.4747700
758.8086, 0.3610230
759.2907, 7.0739999E-02
759.7728, 0.1559370
760.2549, 6.9656000E-02
760.7371, 0.2767940
761.2192, 0.5771330
761.7013, 0.8927540
762.1834, 1.002235
762.6655, 0.6997910
763.1476, 0.3498610
763.6298, 0.1787260
764.1119, 0.1536710
764.5940, 0.1903000
765.0761, 0.3452450
765.5582, 0.4076390
766.0403, 0.1676330
766.5225, 0.1466980
767.0046, 0.2899930
767.4867, 0.2598500
767.9688, 0.1277470
768.4509, 7.5286999E-02
768.9330, 0.2406230
769.4152, 0.1556240
769.8973, 0.1901250
770.3794, 0.4847180
770.8615, 0.7356190
771.3436, 0.8906330
771.8257, 0.8267520
772.3079, 0.7042850
772.7900, 0.8265080
773.2721, 1.224808
773.7542, 1.574699
774.2363, 1.704201
774.7184, 1.905212
775.2006, 2.493126
775.6827, 3.153664
776.1648, 3.434067
776.6469, 3.293015
777.1290, 3.022522
777.6111, 2.768112
778.0933, 2.651863
778.5754, 3.058540
779.0575, 3.963478
779.5396, 4.701118
780.0217, 5.128914
780.5038, 5.425964
780.9860, 5.707214
781.4681, 5.981010
781.9502, 6.263725
782.4323, 6.523567
782.9144, 6.934059
783.3965, 7.506706
783.8787, 8.203194
784.3608, 9.245590
784.8429, 10.36064
785.3250, 11.09499
785.8071, 11.32567
786.2892, 11.33328
786.7714, 11.36054
787.2535, 11.40704
787.7356, 11.47573
788.2177, 11.57582
788.6998, 11.86628
789.1819, 12.40970
789.6641, 13.11410
790.1462, 13.88726
790.6283, 14.72483
791.1104, 15.43827
791.5925, 15.79353
792.0746, 16.43829
792.5568, 17.88586
793.0389, 19.29718
793.5210, 19.93252
794.0031, 20.01474
794.4852, 20.35937
794.9673, 21.26451
795.4495, 22.37319
795.9316, 23.55390
796.4137, 24.71824
796.8958, 25.79409
797.3779, 26.80648
797.8600, 27.77939
798.3422, 28.69907
798.8243, 29.62399
799.3064, 30.71577
799.7885, 31.99820
800.2706, 33.08567
800.7527, 33.86236
801.2349, 34.76839
801.7170, 35.99483
802.1991, 37.40768
802.6812, 38.94095
803.1633, 40.61153
803.6454, 41.97954
804.1276, 42.75528
804.6097, 43.48869
805.0918, 44.40486
805.5739, 45.40559
806.0560, 46.27656
806.5381, 47.07755
807.0203, 48.20137
807.5024, 49.98830
807.9845, 51.91162
808.4666, 53.11658
808.9487, 53.78371
809.4308, 54.66084
809.9130, 55.85406
810.3951, 57.21586
810.8772, 58.67418
811.3593, 60.15831
811.8414, 61.56912
812.3235, 62.90158
812.8057, 64.31226
813.2878, 65.72638
813.7699, 67.28136
814.2520, 69.20903
814.7341, 71.17630
815.2162, 72.76419
815.6984, 73.98212
816.1805, 75.34152
816.6626, 77.23125
817.1447, 79.17602
817.6268, 80.69369
818.1089, 82.07081
818.5911, 83.78384
819.0732, 85.86066
819.5553, 87.99268
820.0374, 89.99427
820.5195, 91.98737
821.0016, 94.19283
821.4838, 96.60541
821.9659, 99.03696
822.4480, 101.3598
822.9301, 104.0827
823.4122, 107.5539
823.8943, 111.5113
824.3765, 115.5531
824.8586, 119.7046
825.3407, 123.8112
825.8228, 127.6973
826.3049, 131.7203
826.7870, 136.1005
827.2692, 140.6375
827.7513, 145.0150
828.2334, 149.2838
828.7155, 153.8732
829.1976, 159.2278
829.6797, 164.6404
830.1619, 169.1953
830.6440, 173.2094
831.1261, 177.2823
831.6082, 181.5413
832.0903, 186.1786
832.5724, 191.3430
833.0546, 196.8669
833.5367, 202.3653
834.0188, 207.7759
834.5009, 213.7089
834.9830, 220.4562
835.4651, 227.1476
835.9473, 233.4702
836.4294, 239.5354
836.9115, 245.6346
837.3936, 251.7195
837.8757, 257.2693
838.3578, 262.3402
838.8400, 266.7235
839.3221, 270.6019
839.8042, 273.5976
840.2863, 275.6032
840.7684, 276.3843
841.2505, 275.4995
841.7327, 272.7449
842.2148, 268.1363
842.6969, 261.2191
843.1790, 252.5442
843.6611, 243.3631
844.1432, 233.8039
844.6254, 224.2177
845.1075, 214.6612
845.5896, 205.5833
846.0717, 197.4515
846.5538, 190.3024
847.0359, 184.3298
847.5181, 179.5926
848.0002, 175.9927
848.4823, 173.3254
848.9644, 171.9987
849.4465, 172.7049
849.9286, 174.9590
850.4108, 177.3105
850.8929, 179.5259
851.3750, 181.7689
851.8571, 184.8268
852.3392, 187.3182
852.8214, 188.0021
853.3035, 187.2551
853.7856, 186.0941
854.2677, 184.7911
854.7498, 182.5775
855.2319, 178.7943
855.7141, 173.5752
856.1962, 166.9542
856.6783, 159.0511
857.1604, 150.4942
857.6425, 141.5081
858.1246, 131.6641
858.6068, 120.4495
859.0889, 108.3680
859.5710, 97.23512
860.0531, 87.15085
860.5352, 77.73930
861.0173, 68.86716
861.4995, 60.88342
861.9816, 53.85296
862.4637, 47.73509
862.9458, 42.59067
863.4279, 38.46970
863.9100, 34.69971
864.3922, 30.97963
864.8743, 27.71861
865.3564, 25.39196
865.8385, 23.49236
866.3206, 21.28798
866.8027, 18.85068
867.2849, 16.93015
867.7670, 16.01609
868.2491, 15.55943
868.7312, 14.89235
869.2133, 14.11924
869.6954, 13.54830
870.1776, 13.19050
870.6597, 12.88608
871.1418, 12.55354
871.6239, 12.28040
872.1060, 12.21793
872.5881, 12.36115
873.0703, 12.29797
873.5524, 11.84284
874.0345, 11.67466
874.5166, 12.22068
874.9987, 12.79541
875.4808, 12.81338
875.9630, 12.44006
876.4451, 12.06963
876.9272, 11.55442
877.4093, 11.35944
877.8914, 11.86249
878.3735, 12.43867
878.8557, 12.49641
879.3378, 12.47346
879.8199, 13.26116
880.3020, 14.93743
880.7841, 16.31201
881.2662, 16.23791
881.7484, 15.76622
882.2305, 15.97141
882.7126, 16.84776
883.1947, 18.44535
883.6768, 20.74708
884.1589, 23.64180
884.6411, 27.15474
885.1232, 30.76010
885.6053, 33.75247
886.0874, 36.19705
886.5695, 35.68423
887.0516, 31.66821
887.5338, 26.58389
888.0159, 20.81456
888.4980, 15.27299
888.9801, 11.02583
889.4622, 8.063972
889.9443, 5.863304
890.4265, 4.790146
890.9086, 3.960625
891.3907, 3.486717
891.8728, 3.066521
892.3549, 2.356682
892.8370, 1.600044
893.3192, 1.342499
893.8013, 1.747948
894.2834, 2.113319
894.7655, 2.153809
895.2476, 2.015167
895.7297, 1.795837
896.2119, 1.492165
896.6940, 0.9582670
897.1761, 0.2625660
897.6582, 0.1403580
898.1403, 0.1190030
898.6224, 0.6675420
899.1046, 0.9182360
899.5867, 0.9249110
900.0688, 0.9190900
900.5509, 0.9220810
901.0330, 0.8906330
901.5151, 0.8031080
901.9973, 0.6810910
902.4794, 0.5473940
902.9615, 0.3990860
903.4436, 0.3373720
903.9257, 0.4064640
904.4078, 0.4596250
904.8900, 0.4829030
905.3721, 0.4589690
905.8542, 0.3827360
906.3363, 0.2506480
906.8184, 3.3585001E-02
907.3005, 0.3816530
907.7827, 0.5983580
908.2648, 0.3823090
908.7469, 0.1616520
909.2290, 0.1472550
909.7111, 0.2471690
910.1932, 0.3703310
910.6754, 0.4803240
911.1575, 0.5020290
911.6396, 0.2935710
912.1217, 0.1398620
912.6038, 0.3803940
913.0859, 0.7577060
913.5681, 0.9023740
914.0502, 0.8288040
914.5323, 0.7492070
915.0144, 0.7547070
915.4965, 0.7325130
915.9786, 0.4839020
916.4607, 0.1101070
916.9428, 3.0463999E-02
917.4249, 5.1483002E-02
917.9070, 0.2844850
918.3892, 0.6726000
918.8713, 0.9922180
919.3534, 1.060219
919.8355, 0.9256740
920.3176, 0.7158280
920.7997, 0.3704380
921.2819, 0.1669310
921.7640, 0.1790920
922.2461, 0.2244490
922.7282, 0.2729640
923.2103, 0.2710720
923.6924, 0.1239470
924.1746, 0.1557620
924.6567, 0.3873830
925.1388, 0.6607210
925.6209, 0.7520450
926.1030, 0.5023040
926.5851, 0.1659390
927.0673, 0.1472470
927.5494, 0.3988490
928.0315, 0.5436400
928.5136, 0.5667270
928.9957, 0.5327990
929.4778, 0.4806750
929.9600, 0.3792880
930.4421, 0.1562880
930.9242, 0.1104280
931.4063, 0.3492510
931.8884, 0.5156250
932.3705, 0.4821620
932.8527, 0.1467740
933.3348, 0.2229540
933.8169, 0.2709730
934.2990, 7.4897997E-02
934.7811, 0.2407530
935.2632, 0.6230700
935.7454, 0.7537230
936.2275, 0.5267640
936.7096, 0.2065960
937.1917, 3.3477999E-02
937.6738, 3.0900000E-03
938.1559, 0.1359180
938.6381, 0.4633100
939.1202, 0.7093280
939.6023, 0.8742520
940.0844, 0.8193590
940.5665, 0.2844700
941.0486, 0.2448960
941.5308, 0.1270140
942.0129, 1.550209
942.4950, 2.217056
942.9771, 1.508652
943.4592, 0.9774930
943.9413, 0.9501720
944.4235, 1.048752
944.9056, 1.077141
945.3877, 1.048706
945.8698, 0.9778750
946.3519, 0.8183900
946.8340, 0.8401640
947.3162, 1.433189
947.7983, 1.856079
948.2804, 1.588821
948.7625, 1.029144
949.2446, 0.5593030
949.7267, 0.2587280
950.2089, 0.1117860
950.6910, 8.3733000E-02
951.1731, 0.3024290
951.6552, 1.221512
952.1373, 2.187210
952.6194, 2.180946
953.1016, 1.557671
953.5837, 1.347580
954.0658, 1.797356
954.5479, 2.305244
955.0300, 2.406921
955.5121, 2.214752
955.9943, 1.814354
956.4764, 1.300400
956.9585, 1.085922
957.4406, 1.198578
957.9227, 1.418816
958.4048, 1.655998
958.8870, 1.808456
959.3691, 1.698959
959.8512, 1.383247
960.3333, 1.359856
960.8154, 1.688553
961.2975, 1.840309
961.7797, 1.655502
962.2618, 1.508804
962.7439, 1.666954
963.2260, 1.996284
963.7081, 2.221153
964.1902, 2.340034
964.6724, 2.366791
965.1545, 2.295525
965.6366, 2.113861
966.1187, 1.651062
966.6008, 1.269150
967.0829, 1.289284
967.5651, 1.598648
968.0472, 1.877945
968.5293, 2.174316
969.0114, 2.271149
969.4935, 1.967209
969.9756, 1.678825
970.4578, 1.521667
970.9399, 1.487694
971.4220, 1.668282
971.9041, 2.004753
972.3862, 2.185684
972.8683, 2.029022
973.3505, 1.856621
973.8326, 1.906197
974.3147, 1.972900
974.7968, 1.749992
975.2789, 1.425240
975.7610, 1.387024
976.2432, 1.674614
976.7253, 1.986717
977.2074, 2.243416
977.6895, 2.289154
978.1716, 1.663475
978.6537, 0.8556820
979.1359, 0.8072810
979.6180, 1.362030
980.1001, 1.666580
980.5822, 1.419403
981.0643, 1.068336
981.5464, 1.092010
982.0286, 1.320831
982.5107, 1.298134
982.9928, 1.090286
983.4749, 1.027222
983.9570, 1.151672
984.4391, 1.361977
984.9213, 1.600662
985.4034, 1.803551
985.8855, 1.868546
986.3676, 1.820862
986.8497, 1.812279
987.3318, 1.850479
987.8140, 1.870804
988.2961, 1.887596
988.7782, 1.774025
989.2603, 1.367409
989.7424, 0.8951190
990.2245, 0.8728640
990.7067, 1.376350
991.1888, 1.565392
991.6709, 1.269066
992.1530, 1.177605
992.6351, 1.594704
993.1172, 2.048363
993.5994, 2.143570
994.0815, 1.990417
994.5636, 1.947769
995.0457, 2.104469
995.5278, 2.136055
996.0099, 1.835777
996.4921, 1.708824
996.9742, 2.002243
997.4563, 2.400604
997.9384, 2.719658
998.4205, 2.903809
998.9026, 2.794708
999.3848, 2.227486
999.8669, 1.947884
1000.349, 2.361084
1000.831, 2.724022
1001.313, 2.605888
1001.795, 2.302109
1002.277, 2.138771
1002.760, 2.121147
1003.242, 2.087212
1003.724, 1.971512
1004.206, 1.869888
1004.688, 1.843781
1005.170, 1.847473
1005.652, 1.878639
1006.134, 1.881149
1006.617, 1.730057
1007.099, 1.440483
1007.581, 1.217461
1008.063, 1.193169
1008.545, 1.209488
1009.027, 1.158188
1009.509, 1.095169
1009.991, 0.9495090
1010.473, 0.8323820
1010.956, 1.075546
1011.438, 1.680397
1011.920, 2.144981
1012.402, 2.098038
1012.884, 1.826180
1013.366, 1.594559
1013.848, 1.430496
1014.330, 1.418991
1014.813, 1.522644
1015.295, 1.626213
1015.777, 1.686974
1016.259, 1.686325
1016.741, 1.604576
1017.223, 1.458969
1017.705, 1.207176
1018.187, 0.9255520
1018.669, 0.9382550
1019.152, 1.222946
1019.634, 1.453064
1020.116, 1.504494
1020.598, 1.406242
1021.080, 1.159218
1021.562, 0.8302460
1022.044, 0.6071550
1022.526, 0.4802250
1023.008, 0.3916320
1023.491, 0.3346860
1023.973, 0.3841930
1024.455, 0.5776600
1024.937, 0.8112870
1025.419, 0.9565280
1025.901, 1.044136
1026.383, 1.277130
1026.865, 1.679749
1027.348, 1.765083
1027.830, 1.426285
1028.312, 1.143013
1028.794, 1.157310
1029.276, 1.233864
1029.758, 1.041557
1030.240, 0.6442110
1030.722, 0.6109850
1031.204, 1.071472
1031.687, 1.292686
1032.169, 1.134041
1032.651, 0.9464870
1033.133, 0.9085460
1033.615, 0.8898320
1034.097, 0.6914440
1034.579, 0.3414310
1035.061, 0.2310640
1035.544, 0.4846270
1036.026, 0.5511930
1036.508, 0.2021870
1036.990, 3.9841000E-02
1037.472, 0.4901200
1037.954, 1.122475
1038.436, 1.360657
1038.918, 1.217720
1039.401, 1.152016
1039.883, 1.107689
1040.365, 1.263451
1040.847, 2.068092
1041.329, 2.482353
1041.811, 1.571045
1042.293, 0.3459010
1042.775, 0.2261660
1043.257, 1.176643
1043.740, 1.767242
1044.222, 1.767532
1044.704, 1.779366
1045.186, 1.973251
1045.668, 1.982498
1046.150, 1.386513
1046.632, 0.7073520
1047.114, 0.5701290
1047.596, 0.9555970
1048.079, 1.139732
1048.561, 0.8412930
1049.043, 0.6759490
1049.525, 0.7928920
1050.007, 0.9646760
1050.489, 1.136032
1050.971, 1.268967
1051.453, 1.354774
1051.936, 1.377724
1052.418, 1.226456
1052.900, 0.6047440
1053.382, 0.2883530
1053.864, 0.7520980
1054.346, 1.181175
1054.828, 1.077049
1055.310, 0.7536540
1055.792, 0.5853650
1056.275, 0.5821230
1056.757, 0.5676960
1057.239, 0.4161220
1057.721, 0.4325260
1058.203, 0.9141540
1058.685, 1.341316
1059.167, 1.397133
1059.649, 1.260620
1060.131, 1.073639
1060.614, 0.8998790
1061.096, 0.9189910
1061.578, 1.307083
1062.060, 1.545647
1062.542, 1.270012
1063.024, 1.010933
1063.506, 1.219818
1063.988, 1.503204
1064.471, 1.303299
1064.953, 0.7347560
1065.435, 0.4100190
1065.917, 0.5469890
1066.399, 0.7373280
1066.881, 0.9796750
1067.363, 1.045219
1067.845, 0.5815200
1068.328, 3.4759998E-02
1068.810, 8.5364997E-02
1069.292, 0.1540830
1069.774, 0.4251560
1070.256, 0.6805880
1070.738, 0.7495800
1071.220, 0.3638380
1071.702, 5.8699999E-04
1072.184, 6.4781003E-02
1072.667, 3.5599001E-02
1073.149, 0.1935580
1073.631, 0.3829650
1074.113, 0.6035540
1074.595, 0.8638080
1075.077, 1.051399
1075.559, 1.184517
1076.041, 1.144341
1076.523, 0.6163100
1077.006, 9.1805004E-02
1077.488, 0.1854250
1077.970, 0.6370930
1078.452, 0.7028500
1078.934, 0.2019120
1079.416, 5.7358000E-02
1079.898, 0.6372600
1080.380, 1.212585
1080.862, 0.9128190
1081.345, 0.4256520
1081.827, 0.4221730
1082.309, 0.6884000
1082.791, 0.6602250
1083.273, 0.2662430
1083.755, 0.1283490
1084.237, 0.8648450
1084.719, 1.409943
1085.202, 1.034294
1085.684, 0.4986420
1086.166, 0.4400410
1086.648, 0.6288070
1087.130, 0.6161800
1087.612, 0.3714980
1088.094, 0.2637180
1088.576, 0.5486220
1089.058, 0.7588880
1089.541, 0.6058120
1090.023, 0.3991780
1090.505, 0.4110340
1090.987, 0.4684910
1091.469, 0.2572780
1091.951, 0.1655430
1092.433, 0.4025880
1092.915, 0.3221210
1093.397, 7.1083002E-02
1093.880, 0.5772930
1094.362, 1.047813
1094.844, 0.8021770
1095.326, 0.3507310
1095.808, 0.2504500
1096.290, 0.4648820
1096.772, 0.7068020
1097.254, 0.9416200
1097.737, 0.9922490
1098.219, 0.3360140
1098.701, 6.3560002E-02
1099.183, 1.273109
1099.665, 2.552071
1100.147, 2.533699
1100.629, 1.609200
1101.111, 0.7276080
1101.594, 1.2421000E-02
1102.076, 0.2424930
1102.558, 0.6381380
1103.040, 1.164848
1103.522, 0.3332820
1104.004, 0.4952240
1104.486, 0.1249920
1104.968, 0.7877660
1105.450, 1.070892
1105.932, 0.6273500
1106.415, 0.3203960
1106.897, 0.2732620
1107.379, 0.4510120
1107.861, 1.099396
1108.343, 1.626137
1108.825, 1.739601
1109.307, 1.598366
1109.789, 1.326630
1110.272, 0.9692990
1110.754, 0.7361070
1111.236, 0.7031630
1111.718, 0.6856840
1112.200, 0.4676280
1112.682, 0.5157930
1113.164, 1.241386
1113.646, 2.090866
1114.129, 2.533043
1114.611, 2.690926
1115.093, 2.977951
1115.575, 3.394379
1116.057, 3.972198
1116.539, 5.085670
1117.021, 5.790718
1117.503, 5.717262
1117.985, 5.409004
1118.468, 5.262787
1118.950, 5.087189
1119.432, 4.453812
1119.914, 3.301865
1120.396, 2.430161
1120.878, 1.900726
1121.360, 1.523834
1121.842, 1.323196
1122.324, 1.199333
1122.807, 1.155731
1123.289, 1.094238
1123.771, 0.8677520
1124.253, 0.5039060
1124.735, 0.2306210
1125.217, 5.2581999E-02
1125.699, 5.8777001E-02
1126.181, 0.1103900
1126.664, 7.9581998E-02
1127.146, 5.4474000E-02
1127.628, 0.2593460
1128.110, 0.5297780
1128.592, 0.8152010
1129.074, 0.9740370
1129.556, 1.004852
1130.038, 0.8386610
1130.521, 0.4100340
1131.003, 0.3328700
1131.485, 0.8084260
1131.967, 1.235374
1132.449, 1.222588
1132.931, 0.9601820
1133.413, 0.7448270
1133.895, 0.5680010
1134.377, 0.3455660
1134.859, 7.9719998E-02
1135.342, 7.6095998E-02
1135.824, 0.1017150
1136.306, 4.0130001E-03
1136.788, 0.2456820
1137.270, 0.4504010
1137.752, 0.4211880
1138.234, 0.2685320
1138.716, 0.2912450
1139.199, 0.4366680
1139.681, 0.4834750
1140.163, 0.4246900
1140.645, 0.2685090
1141.127, 4.0732998E-02
1141.609, 6.1028000E-02
1142.091, 0.1116560
1142.573, 0.4019700
1143.056, 0.6883470
1143.538, 0.8811190
1144.020, 0.6335370
1144.502, 0.1840970
1144.984, 0.2104720
1145.466, 0.6923830
1145.948, 1.070694
1146.430, 1.107468
1146.912, 1.008507
1147.395, 0.8479540
1147.877, 0.7677230
1148.359, 0.9067230
1148.841, 1.242805
1149.323, 2.038376
1149.805, 2.907799
1150.287, 2.909012
1150.769, 1.975533
1151.251, 1.104095
1151.734, 0.8270340
1152.216, 0.6683880
1152.698, 0.2782140
1153.180, 7.9513997E-02
1153.662, 0.2315290
1154.144, 0.1822280
1154.626, 0.2062910
1155.108, 0.7635730
1155.591, 0.9146580
1156.073, 0.4087680
1156.555, 0.1382220
1157.037, 0.6411510
1157.519, 1.146576
1158.001, 1.435242
1158.483, 1.514931
1158.965, 1.317047
1159.448, 0.9591750
1159.930, 0.5671540
1160.412, 0.1825870
1160.894, 1.6364999E-02
1161.376, 0.3269810
1161.858, 0.4589390
1162.340, 0.2621610
1162.822, 0.1066020
1163.304, 0.2172280
1163.786, 0.3312800
1164.269, 0.1294520
1164.751, 0.2501910
1165.233, 0.2991640
1165.715, 2.2376999E-02
1166.197, 0.3237040
1166.679, 0.6878850
1167.161, 0.9114840
1167.643, 0.9337500
1168.126, 0.8480300
1168.608, 0.6618880
1169.090, 0.4996530
1169.572, 0.5229990
1170.054, 0.7465250
1170.536, 1.448189
1171.018, 2.686588
1171.500, 2.964787
1171.983, 2.124943
1172.465, 1.257427
1172.947, 0.7271310
1173.429, 0.5381320
1173.911, 0.7468760
1174.393, 1.093636
1174.875, 1.111046
1175.357, 0.9065090
1175.839, 0.9162750
1176.322, 1.089355
1176.804, 1.207676
1177.286, 1.221893
1177.768, 1.072910
1178.250, 0.7418900
1178.732, 0.4767300
1179.214, 0.5283550
1179.696, 0.7545050
1180.178, 1.108814
1180.661, 1.413586
1181.143, 1.264572
1181.625, 0.8742410
1182.107, 0.8178830
1182.589, 1.126518
1183.071, 1.240936
1183.553, 0.8056600
1184.035, 0.4867710
1184.518, 0.8997730
1185.000, 1.368519
1185.482, 1.381187
1185.964, 1.218964
1186.446, 1.177261
1186.928, 1.227623
1187.410, 1.253845
1187.892, 1.237537
1188.375, 1.111019
1188.857, 0.6652150
1189.339, 0.3992730
1189.821, 0.4407690
1190.303, 0.6525310
1190.785, 1.150459
1191.267, 1.642483
1191.749, 1.855991
1192.231, 1.802822
1192.714, 1.498695
1193.196, 0.7997130
1193.678, 0.3920140
1194.160, 0.3439670
1194.642, 0.4490470
1195.124, 0.7366030
1195.606, 0.9657520
1196.088, 0.9866980
1196.570, 0.9034000
1197.053, 0.8482060
1197.535, 0.8234100
1198.017, 0.8390120
1198.499, 0.8950880
1198.981, 1.049286
1199.463, 1.289768
1199.945, 1.362301
1200.427, 1.189140
1200.910, 0.8539160
1201.392, 0.3850900
1201.874, 3.6362000E-02
1202.356, 0.2997860
1202.838, 0.8668210
1203.320, 1.116707
1203.802, 1.120857
1204.284, 0.9756850
1204.766, 0.7617610
1205.249, 0.6738590
1205.731, 0.7552870
1206.213, 0.8172680
1206.695, 0.7331280
1207.177, 0.6169170
1207.659, 0.3323210
1208.141, 0.2859610
1208.623, 1.244148
1209.105, 2.359928
1209.588, 2.364136
1210.070, 1.577038
1210.552, 1.386162
1211.034, 2.180103
1211.516, 2.469753
1211.998, 1.148972
1212.480, 0.4484410
1212.962, 1.642448
1213.445, 2.675797
1213.927, 2.180893
1214.409, 1.203117
1214.891, 0.8618010
1215.373, 1.014820
1215.855, 1.027630
1216.337, 0.8588260
1216.819, 0.7274060
1217.302, 0.6330830
1217.784, 0.5784190
1218.266, 0.5633350
1218.748, 0.5798230
1219.230, 0.6235660
1219.712, 0.7336200
1220.194, 0.9985390
1220.676, 1.291862
1221.158, 1.150349
1221.641, 0.6535490
1222.123, 9.1193996E-02
1222.605, 0.4440160
1223.087, 0.4738120
1223.569, 7.7969000E-02
1224.051, 0.8136140
1224.533, 1.541187
1225.015, 1.968567
1225.497, 1.558613
1225.980, 0.9289700
1226.462, 0.8070340
1226.944, 0.9122160
1227.426, 0.8525310
1227.908, 0.7279780
1228.390, 0.8850560
1228.872, 1.310249
1229.354, 1.540848
1229.837, 1.407764
1230.319, 1.101334
1230.801, 0.3053440
1231.283, 0.1530300
1231.765, 0.4221380
1232.247, 1.131836
1232.729, 1.219017
1233.211, 0.9837800
1233.693, 1.042923
1234.176, 1.378399
1234.658, 1.414288
1235.140, 0.9606250
1235.622, 0.8209650
1236.104, 1.155281
1236.586, 1.325470
1237.068, 1.106762
1237.550, 0.8726040
1238.032, 0.9001500
1238.515, 1.038177
1238.997, 1.055260
1239.479, 0.9562340
1239.961, 0.6386530
1240.443, 0.2106740
1240.925, 0.2559390
1241.407, 0.7087860
1241.889, 1.023357
1242.372, 1.049767
1242.854, 0.9757650
1243.336, 0.9213790
1243.818, 0.8612480
1244.300, 0.7314300
1244.782, 0.6286430
1245.264, 0.7032050
1245.746, 0.8140980
1246.229, 0.7322010
1246.711, 0.5771980
1247.193, 0.6874470
1247.675, 1.067818
1248.157, 1.172897
1248.639, 0.6290050
1249.121, 0.2885780
1249.603, 0.4467470
1250.085, 0.6260990
1250.568, 0.6784740
1251.050, 0.7009430
1251.532, 0.7407650
1252.014, 0.8119580
1252.496, 0.9689940
1252.978, 1.183174
1253.460, 1.001526
1253.942, 0.6187630
1254.424, 0.4959680
1254.907, 0.6750680
1255.389, 0.8172380
1255.871, 0.8300400
1256.353, 0.8994900
1256.835, 1.154972
1257.317, 1.371788
1257.799, 1.166142
1258.281, 0.8304140
1258.764, 0.7641750
1259.246, 0.8445360
1259.728, 0.9019390
1260.210, 0.8955920
1260.692, 0.7179790
1261.174, 0.4202650
1261.656, 0.3305360
1262.138, 0.6329150
1262.620, 0.8451460
1263.103, 0.5905570
1263.585, 0.4033660
1264.067, 0.6601370
1264.549, 0.9198720
1265.031, 0.7309230
1265.513, 0.4497910
1265.995, 0.7186280
1266.477, 1.364998
1266.959, 1.445431
1267.442, 0.7454800
1267.924, 0.3790740
1268.406, 0.4353980
1268.888, 0.3894620
1269.370, 0.1141240
1269.852, 6.6680998E-02
1270.334, 1.7783999E-02
1270.816, 0.1603810
1271.299, 0.1067160
1271.781, 5.4141998E-02
1272.263, 0.5808980
1272.745, 1.343437
1273.227, 1.417408
1273.709, 1.042515
1274.191, 0.8514980
1274.673, 0.9016380
1275.156, 1.017563
1275.638, 1.125202
1276.120, 1.042164
1276.602, 0.4455640
1277.084, 3.1830002E-02
1277.566, 0.1080630
1278.048, 0.4352190
1278.530, 0.9272120
1279.012, 1.317711
1279.495, 1.298035
1279.977, 1.000633
1280.459, 0.6979560
1280.941, 0.4954450
1281.423, 0.2915990
1281.905, 4.2989999E-03
1282.387, 1.0030000E-03
1282.869, 0.1765370
1283.351, 0.0000000E+00
##END=



