##NAMES=Segelerite
##RRUFFID=R080127
##IDEAL CHEMISTRY=CaMgFe^3+^(PO_4_)_2_(OH)&#183;4H_2_O
##LOCALITY=Tip Top mine, Custer County, South Dakota, USA
##OWNER=RRUFF
##SOURCE=Thomas A. Loomis
##DESCRIPTION=Light yellow radiating acicular crystals, on a matrix of rockbridgeite and associated with leucophosphite (R080126)
##STATUS=The identification of this mineral has been confirmed by single-crystal X-ray diffraction.
##URL=rruff.info/R080127
150.2075, 0.0000000E+00
150.6896, 0.4191890
151.1718, 2.566162
151.6539, 12.11719
152.1360, 21.88647
152.6181, 30.04602
153.1002, 37.25989
153.5823, 47.02295
154.0645, 60.65466
154.5466, 75.15479
155.0287, 89.10376
155.5108, 102.2981
155.9929, 116.5486
156.4750, 132.3613
156.9572, 149.1536
157.4393, 165.7541
157.9214, 182.9991
158.4035, 199.0250
158.8856, 212.7595
159.3677, 223.5796
159.8499, 232.9988
160.3320, 243.3083
160.8141, 255.1260
161.2962, 267.6039
161.7783, 280.8934
162.2604, 292.7736
162.7426, 300.4402
163.2247, 304.2915
163.7068, 302.6294
164.1889, 288.9631
164.6710, 268.4421
165.1531, 246.0946
165.6353, 222.5162
166.1174, 198.6047
166.5995, 175.2108
167.0816, 151.9174
167.5637, 129.7403
168.0458, 109.2429
168.5280, 90.57733
169.0101, 73.25085
169.4922, 56.58435
169.9743, 41.26935
170.4564, 28.38428
170.9385, 19.39777
171.4207, 12.38947
171.9028, 5.698547
172.3849, 0.7304690
172.8670, 6.336670
173.3491, 10.86224
173.8312, 14.28619
174.3134, 16.56439
174.7955, 17.01904
175.2776, 16.60309
175.7597, 16.89838
176.2418, 18.18475
176.7239, 18.29401
177.2061, 14.27411
177.6882, 7.263367
178.1703, 0.4883420
178.6524, 3.395630
179.1345, 6.416565
179.6166, 11.92218
180.0988, 20.29425
180.5809, 30.43475
181.0630, 41.96051
181.5451, 54.57324
182.0272, 66.52960
182.5093, 76.34259
182.9915, 85.00800
183.4736, 95.02673
183.9557, 106.9963
184.4378, 119.1014
184.9199, 129.4707
185.4020, 137.9575
185.8842, 145.0977
186.3663, 151.5617
186.8484, 156.9514
187.3305, 159.3936
187.8126, 158.5983
188.2947, 155.3737
188.7769, 150.3223
189.2590, 143.5273
189.7411, 136.7277
190.2232, 131.0074
190.7053, 126.1854
191.1874, 121.1429
191.6696, 115.9139
192.1517, 110.1370
192.6338, 103.0760
193.1159, 94.73718
193.5980, 85.58496
194.0801, 75.05597
194.5623, 63.40204
195.0444, 53.83807
195.5265, 46.94531
196.0086, 41.93787
196.4907, 37.20508
196.9728, 32.68677
197.4550, 28.87830
197.9371, 26.03094
198.4192, 24.13971
198.9013, 23.16083
199.3834, 22.99127
199.8655, 23.80927
200.3477, 26.39990
200.8298, 31.06006
201.3119, 36.14001
201.7940, 40.30469
202.2761, 43.31610
202.7582, 48.15515
203.2404, 55.24390
203.7225, 64.20709
204.2046, 74.07581
204.6867, 84.86511
205.1688, 96.58588
205.6509, 109.0681
206.1331, 122.3307
206.6152, 136.7316
207.0973, 152.5748
207.5794, 169.4401
208.0615, 186.3250
208.5436, 202.5354
209.0258, 219.1995
209.5079, 236.9940
209.9900, 256.0942
210.4721, 275.2052
210.9542, 294.6048
211.4363, 313.7933
211.9185, 331.2458
212.4006, 347.1418
212.8827, 361.0015
213.3648, 372.6860
213.8469, 383.0875
214.3290, 388.6472
214.8112, 389.0298
215.2933, 384.3798
215.7754, 374.6691
216.2575, 358.4230
216.7396, 339.8269
217.2217, 321.0206
217.7038, 301.4948
218.1860, 283.4005
218.6681, 266.8589
219.1502, 251.9267
219.6323, 239.1100
220.1144, 228.6305
220.5965, 220.0739
221.0787, 213.2689
221.5608, 208.0988
222.0429, 205.1474
222.5250, 204.7151
223.0071, 206.5471
223.4892, 209.7299
223.9714, 214.5760
224.4535, 220.3535
224.9356, 226.7251
225.4177, 233.4889
225.8998, 241.2894
226.3819, 250.2184
226.8641, 260.2313
227.3462, 270.8169
227.8283, 281.7889
228.3104, 293.4421
228.7925, 306.0773
229.2746, 321.2113
229.7568, 334.0640
230.2389, 343.9486
230.7210, 351.5214
231.2031, 358.5129
231.6852, 364.7092
232.1673, 370.8467
232.6495, 377.0261
233.1316, 382.1061
233.6137, 389.9995
234.0958, 401.4401
234.5779, 415.5032
235.0600, 429.4482
235.5422, 443.2263
236.0243, 457.6677
236.5064, 472.8363
236.9885, 488.8536
237.4706, 505.1835
237.9527, 522.2273
238.4349, 539.2435
238.9170, 554.4347
239.3991, 568.4863
239.8812, 579.6919
240.3633, 587.1938
240.8454, 590.1636
241.3276, 591.4265
241.8097, 590.7606
242.2918, 588.4519
242.7739, 585.1163
243.2560, 580.9235
243.7381, 575.4323
244.2203, 567.9402
244.7024, 556.6298
245.1845, 548.4471
245.6666, 543.6635
246.1487, 541.8970
246.6308, 542.4635
247.1130, 545.9012
247.5951, 550.8262
248.0772, 556.9321
248.5593, 564.6572
249.0414, 572.2644
249.5235, 580.8408
250.0057, 588.5807
250.4878, 592.7557
250.9699, 593.3297
251.4520, 590.3549
251.9341, 583.9071
252.4162, 573.9966
252.8984, 560.4044
253.3805, 542.7465
253.8626, 521.5088
254.3447, 497.7379
254.8268, 470.1478
255.3089, 441.9175
255.7911, 413.9238
256.2732, 385.9020
256.7553, 359.2025
257.2374, 333.7909
257.7195, 309.6482
258.2017, 286.3640
258.6838, 262.6104
259.1659, 242.3344
259.6480, 226.7627
260.1301, 216.1691
260.6122, 206.3213
261.0944, 196.6384
261.5765, 188.3959
262.0586, 182.9709
262.5407, 180.7787
263.0228, 180.3289
263.5049, 181.5754
263.9871, 184.4812
264.4692, 187.6880
264.9513, 190.7020
265.4334, 194.8448
265.9155, 201.6252
266.3976, 211.4983
266.8798, 222.1742
267.3619, 233.5221
267.8440, 245.4366
268.3261, 256.0216
268.8082, 264.6061
269.2903, 273.2285
269.7725, 284.0591
270.2546, 297.9020
270.7367, 309.4725
271.2188, 317.4199
271.7009, 322.5388
272.1830, 328.5227
272.6652, 335.9669
273.1473, 342.6447
273.6294, 346.5459
274.1115, 347.0287
274.5936, 348.5144
275.0757, 351.4730
275.5579, 355.6943
276.0400, 360.9760
276.5221, 367.7517
277.0042, 373.7565
277.4863, 377.1985
277.9684, 377.8855
278.4506, 379.2147
278.9327, 381.3669
279.4148, 384.3331
279.8969, 388.8159
280.3790, 395.2526
280.8611, 400.2081
281.3433, 401.2021
281.8254, 398.2747
282.3075, 396.6698
282.7896, 397.1252
283.2717, 397.6591
283.7538, 394.7310
284.2360, 388.2283
284.7181, 381.3164
285.2002, 374.9718
285.6823, 369.2583
286.1644, 365.0416
286.6465, 362.6619
287.1287, 360.6976
287.6108, 356.6467
288.0929, 350.6932
288.5750, 346.4476
289.0571, 345.8093
289.5392, 347.9502
290.0214, 349.4304
290.5035, 350.0947
290.9856, 351.3339
291.4677, 354.7665
291.9498, 360.1887
292.4319, 366.1851
292.9141, 372.3630
293.3962, 378.9221
293.8783, 386.4913
294.3604, 395.0612
294.8425, 403.7841
295.3246, 412.3286
295.8068, 420.6136
296.2889, 428.2056
296.7710, 435.1605
297.2531, 441.4123
297.7352, 447.2268
298.2173, 452.4357
298.6995, 455.7781
299.1816, 455.5236
299.6637, 452.7185
300.1458, 449.8074
300.6279, 447.6110
301.1100, 444.5443
301.5922, 437.8879
302.0743, 428.3133
302.5564, 418.6849
303.0385, 410.5044
303.5206, 403.3313
304.0027, 396.2729
304.4849, 389.2119
304.9670, 382.6738
305.4491, 377.1315
305.9312, 372.5649
306.4133, 368.9460
306.8954, 366.2255
307.3776, 364.4348
307.8597, 363.9215
308.3418, 364.8397
308.8239, 366.2377
309.3060, 367.8452
309.7881, 369.2671
310.2703, 369.8365
310.7524, 369.8930
311.2345, 368.7283
311.7166, 366.0267
312.1987, 361.8438
312.6808, 356.0552
313.1630, 348.5022
313.6451, 339.3436
314.1272, 328.5586
314.6093, 316.6845
315.0914, 302.9971
315.5735, 286.7142
316.0557, 268.0656
316.5378, 248.7255
317.0199, 228.3085
317.5020, 208.3813
317.9841, 189.8266
318.4662, 173.6564
318.9484, 158.2146
319.4305, 143.1685
319.9126, 128.4797
320.3947, 114.0443
320.8768, 99.30762
321.3589, 85.21484
321.8411, 72.01385
322.3232, 59.48724
322.8053, 48.93903
323.2874, 41.56403
323.7695, 36.11212
324.2516, 30.62744
324.7338, 24.75616
325.2159, 18.84741
325.6980, 12.61737
326.1801, 5.551147
326.6622, 0.5347290
327.1443, 1.530640
327.6265, 1.851868
328.1086, 1.606934
328.5907, 0.8356320
329.0728, 1.994385
329.5549, 0.6927490
330.0370, 3.095642
330.5192, 5.396301
331.0013, 5.371643
331.4834, 4.640564
331.9655, 4.297241
332.4476, 4.547302
332.9297, 4.869873
333.4119, 5.673096
333.8940, 6.567810
334.3761, 5.597412
334.8582, 1.758057
335.3403, 2.348816
335.8224, 5.231750
336.3046, 6.105408
336.7867, 8.288391
337.2688, 12.72961
337.7509, 17.83447
338.2330, 20.15472
338.7151, 18.90619
339.1973, 17.30206
339.6794, 16.42645
340.1615, 16.31000
340.6436, 16.94965
341.1257, 18.67181
341.6078, 20.49579
342.0899, 21.01892
342.5721, 20.17322
343.0542, 19.34827
343.5363, 19.02582
344.0184, 19.07819
344.5005, 19.00201
344.9826, 18.85944
345.4648, 18.25653
345.9469, 16.67328
346.4290, 14.18066
346.9111, 11.65698
347.3932, 9.134460
347.8753, 6.770630
348.3575, 5.066101
348.8396, 3.973755
349.3217, 2.945557
349.8038, 1.605408
350.2859, 5.8959998E-02
350.7680, 1.535400
351.2502, 3.272034
351.7323, 4.656921
352.2144, 4.579163
352.6965, 3.574646
353.1786, 3.227478
353.6607, 4.781006
354.1429, 7.208069
354.6250, 9.321045
355.1071, 11.05579
355.5892, 12.54547
356.0713, 14.00452
356.5534, 15.24591
357.0356, 15.98950
357.5177, 15.52222
357.9998, 15.03162
358.4819, 15.75677
358.9640, 17.40967
359.4461, 18.32697
359.9283, 16.98621
360.4104, 14.89386
360.8925, 13.30511
361.3746, 12.66437
361.8567, 12.29834
362.3388, 12.21741
362.8210, 12.22437
363.3031, 11.88721
363.7852, 11.03290
364.2673, 9.841736
364.7494, 8.176270
365.2315, 5.665955
365.7137, 4.004639
366.1958, 4.809082
366.6779, 6.192322
367.1600, 5.951294
367.6421, 2.276672
368.1242, 1.429504
368.6064, 5.047607
369.0885, 8.644714
369.5706, 10.03723
370.0527, 7.386414
370.5348, 3.971619
371.0169, 1.923279
371.4991, 2.395874
371.9812, 2.284363
372.4633, 0.8164670
372.9454, 1.358643
373.4275, 1.759949
373.9096, 0.6306150
374.3918, 3.013062
374.8739, 3.979309
375.3560, 3.123535
375.8381, 2.724609
376.3202, 2.900452
376.8023, 3.388062
377.2845, 3.814148
377.7666, 4.170044
378.2487, 4.503723
378.7308, 4.876282
379.2129, 5.245300
379.6950, 5.259583
380.1772, 4.813599
380.6593, 4.500488
381.1414, 4.914673
381.6235, 5.999390
382.1056, 7.290039
382.5877, 8.854858
383.0699, 10.35132
383.5520, 10.88300
384.0341, 10.55487
384.5162, 10.42902
384.9983, 11.26666
385.4804, 12.77820
385.9626, 14.55676
386.4447, 16.72894
386.9268, 18.33136
387.4089, 17.58740
387.8910, 15.46625
388.3731, 14.24994
388.8553, 15.45349
389.3374, 17.77704
389.8195, 20.25494
390.3016, 22.80322
390.7837, 25.05182
391.2658, 26.79260
391.7480, 28.06488
392.2301, 28.91864
392.7122, 29.09570
393.1943, 29.30334
393.6764, 29.88715
394.1585, 30.77374
394.6407, 31.73395
395.1228, 32.34546
395.6049, 33.29578
396.0870, 35.04651
396.5691, 37.92590
397.0512, 40.69885
397.5334, 43.01147
398.0155, 45.13818
398.4976, 47.39624
398.9797, 49.76263
399.4618, 52.32379
399.9439, 55.22949
400.4261, 58.46655
400.9082, 61.32739
401.3903, 63.48694
401.8724, 65.55566
402.3545, 67.90851
402.8366, 70.53113
403.3188, 73.41333
403.8009, 76.58374
404.2830, 79.99908
404.7651, 83.60168
405.2472, 87.43365
405.7293, 91.24274
406.2115, 94.73151
406.6936, 97.83838
407.1757, 102.2424
407.6578, 108.4109
408.1399, 114.6354
408.6220, 118.4434
409.1042, 119.8929
409.5863, 122.5332
410.0684, 127.7946
410.5505, 134.5942
411.0326, 140.3770
411.5147, 145.1058
411.9969, 149.7911
412.4790, 155.5468
412.9611, 161.9058
413.4432, 167.4003
413.9253, 171.6609
414.4074, 176.0164
414.8896, 182.4246
415.3717, 190.1782
415.8538, 197.3933
416.3359, 202.5737
416.8180, 206.9536
417.3001, 211.4104
417.7823, 216.1953
418.2644, 221.5539
418.7465, 227.7952
419.2286, 234.6092
419.7107, 241.6757
420.1928, 249.2943
420.6750, 256.7083
421.1571, 263.6139
421.6392, 270.1831
422.1213, 276.6075
422.6034, 282.6398
423.0855, 288.8749
423.5677, 295.4719
424.0498, 302.1583
424.5319, 309.3701
425.0140, 318.2108
425.4961, 327.5509
425.9782, 336.0231
426.4604, 342.5742
426.9425, 349.6120
427.4246, 357.3922
427.9067, 365.8896
428.3888, 374.7791
428.8709, 384.7698
429.3531, 394.0558
429.8352, 401.2383
430.3173, 405.4646
430.7994, 411.0488
431.2815, 418.6572
431.7636, 427.1772
432.2458, 434.1536
432.7279, 439.3665
433.2100, 444.8819
433.6921, 451.6570
434.1742, 459.3479
434.6563, 466.3622
435.1385, 472.7582
435.6206, 479.1759
436.1027, 485.8008
436.5848, 492.8865
437.0669, 501.4128
437.5490, 512.1034
438.0312, 522.9407
438.5133, 531.1832
438.9954, 537.8027
439.4775, 545.4116
439.9596, 556.0666
440.4417, 567.8828
440.9239, 578.9511
441.4060, 589.1451
441.8881, 600.1689
442.3702, 613.5793
442.8523, 627.9340
443.3344, 641.9496
443.8166, 655.3320
444.2987, 668.2272
444.7808, 679.7886
445.2629, 690.7305
445.7450, 703.3165
446.2271, 720.5652
446.7093, 737.0156
447.1914, 750.0172
447.6735, 757.8391
448.1556, 767.6871
448.6377, 780.6049
449.1198, 794.7321
449.6020, 808.2081
450.0841, 820.1121
450.5662, 832.8185
451.0483, 847.2338
451.5304, 862.7526
452.0125, 876.1566
452.4947, 887.1421
452.9768, 897.3007
453.4589, 907.6658
453.9410, 918.3312
454.4231, 928.2450
454.9052, 937.6299
455.3874, 945.8655
455.8695, 952.2426
456.3516, 956.8450
456.8337, 960.1380
457.3158, 962.0367
457.7979, 962.9627
458.2801, 964.1794
458.7622, 965.4564
459.2443, 965.0612
459.7264, 960.9363
460.2085, 954.8372
460.6906, 949.3035
461.1728, 945.0123
461.6549, 939.7639
462.1370, 931.3546
462.6191, 921.3638
463.1012, 912.2447
463.5833, 905.8644
464.0655, 899.4229
464.5476, 891.8294
465.0297, 883.1263
465.5118, 873.6750
465.9939, 862.6348
466.4760, 851.8283
466.9582, 842.4490
467.4403, 835.9749
467.9224, 828.3275
468.4045, 818.4712
468.8866, 807.7252
469.3687, 797.9736
469.8509, 790.5585
470.3330, 782.0128
470.8151, 771.1082
471.2972, 758.1388
471.7793, 746.6368
472.2614, 736.9421
472.7436, 727.4332
473.2257, 717.3555
473.7078, 706.7230
474.1899, 694.8870
474.6720, 681.3013
475.1541, 667.0458
475.6363, 654.4861
476.1184, 643.3650
476.6005, 631.4560
477.0826, 617.5597
477.5647, 602.4920
478.0468, 587.3947
478.5290, 572.2408
479.0111, 556.7645
479.4932, 540.5656
479.9753, 524.0346
480.4574, 507.6414
480.9395, 491.5070
481.4217, 475.2505
481.9038, 459.0438
482.3859, 442.7405
482.8680, 426.3216
483.3501, 409.3961
483.8322, 392.7083
484.3144, 376.3721
484.7965, 360.5333
485.2786, 345.1420
485.7607, 329.9995
486.2428, 315.6494
486.7249, 302.4150
487.2071, 291.2513
487.6892, 279.4374
488.1713, 266.5290
488.6534, 253.3168
489.1355, 240.6759
489.6176, 228.5017
490.0998, 217.1085
490.5819, 206.5599
491.0640, 196.6846
491.5461, 186.7607
492.0282, 176.6722
492.5103, 167.0668
492.9925, 158.4767
493.4746, 150.7480
493.9567, 143.9236
494.4388, 138.0117
494.9209, 132.3469
495.4030, 125.8168
495.8852, 118.8608
496.3673, 112.4256
496.8494, 107.1885
497.3315, 102.3592
497.8136, 97.26489
498.2957, 91.90466
498.7779, 86.53320
499.2600, 81.03131
499.7421, 75.65820
500.2242, 70.51410
500.7063, 65.47522
501.1884, 61.06750
501.6706, 58.05292
502.1527, 55.52203
502.6348, 52.61475
503.1169, 48.35162
503.5990, 44.79620
504.0811, 42.69586
504.5633, 41.55365
505.0454, 39.35358
505.5275, 35.48279
506.0096, 31.69183
506.4917, 28.82819
506.9738, 26.98834
507.4560, 24.42023
507.9381, 20.90607
508.4202, 17.23871
508.9023, 14.07770
509.3844, 11.43103
509.8665, 9.585571
510.3487, 8.835083
510.8308, 8.468994
511.3129, 7.139648
511.7950, 5.069641
512.2772, 3.285706
512.7593, 2.269226
513.2414, 1.875183
513.7235, 2.246948
514.2056, 3.320313
514.6877, 3.958923
515.1699, 3.082336
515.6520, 1.614197
516.1341, 0.4133910
516.6162, 0.1965330
517.0983, 0.8198240
517.5804, 1.872253
518.0626, 3.040955
518.5447, 3.808533
519.0268, 3.360779
519.5089, 3.312500
519.9910, 4.338989
520.4731, 6.329895
520.9553, 7.411072
521.4374, 7.282654
521.9195, 6.669373
522.4016, 5.803833
522.8837, 4.518372
523.3658, 3.854980
523.8480, 3.857605
524.3301, 4.382813
524.8122, 5.542725
525.2943, 7.256958
525.7764, 8.357971
526.2585, 8.394104
526.7407, 7.782959
527.2228, 7.295593
527.7049, 6.872620
528.1870, 6.196777
528.6691, 4.941895
529.1512, 3.394897
529.6334, 1.575195
530.1155, 0.5579830
530.5976, 1.749268
531.0797, 4.5779999E-03
531.5618, 2.483765
532.0439, 3.405823
532.5261, 0.7974850
533.0082, 1.348022
533.4903, 1.592590
533.9724, 0.7268680
534.4545, 0.4514770
534.9366, 1.441040
535.4188, 2.440613
535.9009, 3.187866
536.3830, 3.693054
536.8651, 4.136230
537.3472, 4.478455
537.8293, 4.864685
538.3115, 5.143311
538.7936, 5.219727
539.2757, 6.886169
539.7578, 10.65894
540.2399, 14.79901
540.7220, 16.63684
541.2042, 16.58276
541.6863, 17.12421
542.1684, 19.15991
542.6505, 22.04761
543.1326, 25.13293
543.6147, 28.27637
544.0969, 31.06525
544.5790, 32.24695
545.0611, 33.58191
545.5432, 36.74292
546.0253, 41.93011
546.5074, 47.37744
546.9896, 52.70184
547.4717, 57.68549
547.9538, 62.14099
548.4359, 65.59845
548.9180, 69.08533
549.4001, 72.67938
549.8823, 76.43848
550.3644, 80.37286
550.8465, 84.58087
551.3286, 88.89117
551.8107, 93.39893
552.2928, 98.03131
552.7750, 102.0670
553.2571, 105.4867
553.7392, 108.5272
554.2213, 111.3030
554.7034, 113.8032
555.1855, 116.1308
555.6677, 118.2991
556.1498, 120.2028
556.6319, 121.5659
557.1140, 122.5815
557.5961, 123.6921
558.0782, 125.2704
558.5604, 126.5565
559.0425, 126.5693
559.5246, 125.8143
560.0067, 125.4202
560.4888, 126.3115
560.9709, 127.2491
561.4531, 127.5897
561.9352, 127.3143
562.4173, 127.2127
562.8994, 128.4468
563.3815, 129.0107
563.8636, 127.7534
564.3458, 123.8069
564.8279, 120.4037
565.3100, 117.5880
565.7921, 115.2208
566.2742, 113.3598
566.7563, 112.1060
567.2385, 110.3326
567.7206, 107.8262
568.2027, 104.6492
568.6848, 100.7197
569.1669, 96.12646
569.6490, 91.95074
570.1312, 89.03961
570.6133, 86.71112
571.0954, 84.17749
571.5775, 81.36896
572.0596, 78.14172
572.5417, 74.09814
573.0239, 69.72168
573.5060, 65.39117
573.9881, 60.90021
574.4702, 57.07928
574.9523, 54.27423
575.4344, 52.15515
575.9166, 50.36469
576.3987, 49.60565
576.8808, 48.25427
577.3629, 45.75934
577.8450, 42.47748
578.3271, 39.70819
578.8093, 37.60144
579.2914, 35.85132
579.7735, 34.29895
580.2556, 33.00696
580.7377, 32.49658
581.2198, 32.79474
581.7020, 32.98206
582.1841, 32.06360
582.6662, 30.42468
583.1483, 29.11761
583.6304, 28.41687
584.1125, 27.70770
584.5947, 26.13599
585.0768, 24.29291
585.5589, 23.06531
586.0410, 23.57843
586.5231, 23.94501
587.0052, 23.06323
587.4873, 21.45618
587.9694, 20.49213
588.4515, 21.11578
588.9337, 21.41644
589.4158, 20.54419
589.8979, 18.58923
590.3800, 17.56311
590.8621, 17.73633
591.3442, 18.06848
591.8264, 18.03577
592.3085, 17.63275
592.7906, 16.68085
593.2727, 15.01996
593.7548, 13.16986
594.2369, 11.50439
594.7191, 10.09235
595.2012, 9.382568
595.6833, 9.824219
596.1654, 10.28723
596.6475, 9.403320
597.1296, 7.581055
597.6118, 5.745972
598.0939, 4.280396
598.5760, 2.970703
599.0581, 1.606140
599.5402, 0.2649540
600.0223, 0.6627810
600.5045, 0.8375240
600.9866, 0.7601320
601.4687, 0.5592040
601.9508, 7.8552000E-02
602.4329, 0.1865230
602.9150, 1.187561
603.3972, 2.353516
603.8793, 3.086792
604.3614, 3.390320
604.8435, 3.353455
605.3256, 2.982117
605.8077, 2.313049
606.2899, 1.175293
606.7720, 0.2824710
607.2541, 1.346191
607.7362, 1.652161
608.2183, 1.528198
608.7004, 1.147034
609.1826, 0.6131590
609.6647, 0.3069460
610.1468, 0.5183720
610.6289, 0.9440920
611.1110, 1.520386
611.5931, 2.261719
612.0753, 2.717346
612.5574, 2.239258
613.0395, 1.910767
613.5216, 2.443298
614.0037, 4.519470
614.4858, 5.612976
614.9680, 5.233826
615.4501, 4.524048
615.9322, 5.023987
616.4143, 6.814026
616.8964, 8.058411
617.3785, 8.230652
617.8607, 8.016174
618.3428, 8.658447
618.8249, 9.983032
619.3070, 11.26740
619.7891, 12.33765
620.2712, 13.09723
620.7534, 13.26996
621.2355, 12.99017
621.7176, 12.84930
622.1997, 13.08038
622.6818, 13.59692
623.1639, 14.65308
623.6461, 16.50421
624.1282, 17.18695
624.6103, 15.14825
625.0924, 13.06525
625.5745, 12.69574
626.0566, 14.77026
626.5388, 16.51172
627.0209, 17.94501
627.5030, 18.84589
627.9851, 18.41223
628.4672, 16.75092
628.9493, 16.29852
629.4315, 18.08777
629.9136, 20.49438
630.3957, 20.78815
630.8778, 19.56500
631.3599, 18.60339
631.8420, 19.59271
632.3242, 20.51648
632.8063, 19.54004
633.2884, 17.00720
633.7705, 14.82599
634.2526, 13.85852
634.7347, 13.24567
635.2169, 12.58527
635.6990, 11.83716
636.1811, 11.19556
636.6632, 10.51630
637.1453, 10.11902
637.6274, 10.53827
638.1096, 12.09088
638.5917, 11.96155
639.0738, 9.589172
639.5559, 6.764343
640.0380, 5.777405
640.5201, 6.306824
641.0023, 7.083923
641.4844, 8.085083
641.9665, 8.611633
642.4486, 7.067749
642.9307, 4.527771
643.4128, 3.345520
643.8950, 6.593445
644.3771, 9.404053
644.8592, 8.921265
645.3413, 5.794373
645.8234, 3.653870
646.3055, 3.950500
646.7877, 4.459290
647.2698, 4.409363
647.7519, 3.759766
648.2340, 3.765259
648.7161, 4.523376
649.1982, 5.646057
649.6804, 7.176880
650.1625, 8.979370
650.6446, 9.532898
651.1267, 8.614319
651.6088, 7.592346
652.0909, 7.866089
652.5731, 9.033752
653.0552, 10.48431
653.5373, 12.27277
654.0194, 13.81158
654.5015, 14.49023
654.9836, 14.79083
655.4658, 15.42194
655.9479, 17.36383
656.4300, 18.74658
656.9121, 18.88196
657.3942, 18.21857
657.8763, 17.83252
658.3585, 17.51782
658.8406, 18.11829
659.3227, 20.42163
659.8048, 23.81793
660.2869, 25.18359
660.7690, 24.30066
661.2512, 23.47491
661.7333, 24.60767
662.2154, 26.76331
662.6975, 28.22809
663.1796, 28.95203
663.6617, 29.25415
664.1439, 28.87653
664.6260, 28.48450
665.1081, 28.69208
665.5902, 29.80878
666.0723, 30.85010
666.5544, 32.22784
667.0366, 33.06732
667.5187, 32.43097
668.0008, 28.72705
668.4829, 27.02484
668.9650, 28.17792
669.4471, 30.80292
669.9293, 33.03497
670.4114, 34.88361
670.8935, 35.78076
671.3756, 35.04974
671.8577, 36.48297
672.3398, 37.29950
672.8220, 37.53070
673.3041, 35.55231
673.7862, 36.36664
674.2683, 36.06091
674.7504, 35.63080
675.2325, 36.69385
675.7147, 34.82733
676.1968, 35.77759
676.6789, 35.54474
677.1610, 35.79370
677.6431, 34.87213
678.1252, 34.26312
678.6074, 34.75726
679.0895, 34.57208
679.5716, 33.34253
680.0537, 33.28290
680.5358, 32.53015
681.0179, 31.00183
681.5001, 29.55231
681.9822, 29.46075
682.4643, 29.98297
682.9464, 29.45776
683.4285, 27.40613
683.9106, 25.23981
684.3928, 23.80615
684.8749, 22.87915
685.3570, 22.14624
685.8391, 21.34991
686.3212, 20.90070
686.8033, 21.34247
687.2855, 21.98932
687.7676, 21.69617
688.2497, 20.01611
688.7318, 18.57635
689.2139, 17.79614
689.6960, 17.36414
690.1782, 17.01752
690.6603, 16.77386
691.1424, 16.83270
691.6245, 17.68542
692.1066, 18.58917
692.5887, 17.87994
693.0709, 15.98193
693.5530, 14.99512
694.0351, 17.25323
694.5172, 19.48132
694.9993, 18.96198
695.4814, 15.36786
695.9636, 12.90704
696.4457, 13.04474
696.9278, 13.76703
697.4099, 14.32111
697.8920, 14.66803
698.3741, 14.51221
698.8563, 13.79010
699.3384, 13.07275
699.8205, 12.97455
700.3026, 13.35034
700.7847, 13.56543
701.2668, 13.58301
701.7490, 13.23071
702.2311, 11.80792
702.7132, 10.10468
703.1953, 9.297363
703.6774, 10.14105
704.1595, 10.93866
704.6417, 11.18298
705.1238, 10.96301
705.6059, 10.35474
706.0880, 8.879578
706.5701, 7.841553
707.0522, 7.449097
707.5344, 7.491821
708.0165, 7.593018
708.4986, 7.759644
708.9807, 7.882935
709.4628, 7.988159
709.9449, 5.017395
710.4271, 6.828796
710.9092, 7.825928
711.3913, 8.037476
711.8734, 5.522949
712.3555, 6.232849
712.8376, 5.475159
713.3198, 4.535156
713.8019, 5.336365
714.2840, 2.561035
714.7661, 3.074158
715.2482, 2.094971
715.7303, 1.614258
716.2125, 0.3446660
716.6946, 2.014221
717.1767, 2.001831
717.6588, 2.139526
718.1409, 0.9260860
718.6230, 0.4042970
719.1052, 1.874939
719.5873, 2.988098
720.0694, 3.348450
720.5515, 3.155640
721.0336, 2.473755
721.5157, 1.222656
721.9979, 0.3186040
722.4800, 1.5259000E-02
722.9621, 0.3475950
723.4442, 1.506470
723.9263, 4.560669
724.4084, 5.978088
724.8906, 5.110413
725.3727, 3.392517
725.8548, 2.109741
726.3369, 1.237915
726.8190, 0.9754640
727.3011, 1.472351
727.7833, 2.156067
728.2654, 2.237366
728.7475, 1.912476
729.2296, 1.703674
729.7117, 1.930542
730.1938, 1.972046
730.6760, 1.035278
731.1581, 0.2578740
731.6402, 0.9672240
732.1223, 0.3584590
732.6044, 0.2362670
733.0865, 0.6918330
733.5687, 0.9945070
734.0508, 1.092285
734.5329, 0.9583740
735.0150, 0.7369380
735.4971, 0.3629150
735.9792, 2.4963001E-02
736.4614, 0.3558350
736.9435, 1.201904
737.4256, 1.759094
737.9077, 1.607178
738.3898, 0.9942630
738.8719, 0.3278810
739.3541, 2.012939
739.8362, 2.825317
740.3183, 1.316101
740.8004, 0.1213990
741.2825, 0.4498900
741.7646, 0.1892700
742.2468, 0.6751710
742.7289, 1.043701
743.2110, 1.182434
743.6931, 0.9989620
744.1752, 0.5300900
744.6573, 3.0029001E-02
745.1395, 0.6564940
745.6216, 1.252686
746.1037, 1.486145
746.5858, 0.7525020
747.0679, 2.961975
747.5500, 5.181641
748.0322, 5.977173
748.5143, 1.682617
748.9964, 3.479858
749.4785, 2.537720
749.9606, 1.281128
750.4427, 3.330933
750.9249, 1.312500
751.4070, 0.2585450
751.8891, 0.9456180
752.3712, 1.374268
752.8533, 0.5250240
753.3354, 1.538635
753.8176, 3.185608
754.2997, 1.963257
754.7818, 0.3318480
755.2639, 0.6555790
755.7460, 1.775024
756.2281, 4.064453
756.7103, 4.704590
757.1924, 4.519653
757.6745, 4.160950
758.1566, 3.481934
758.6387, 3.086426
759.1208, 2.984314
759.6030, 3.150696
760.0851, 3.532959
760.5672, 4.122559
761.0493, 5.139343
761.5314, 6.752014
762.0135, 8.183533
762.4957, 8.185364
762.9778, 7.378845
763.4599, 6.964417
763.9420, 7.382019
764.4241, 7.919434
764.9063, 8.186035
765.3884, 8.351135
765.8705, 8.634644
766.3526, 9.781067
766.8347, 9.924316
767.3168, 8.298340
767.7990, 6.240356
768.2811, 6.063293
768.7632, 7.909302
769.2453, 8.962524
769.7274, 8.425781
770.2095, 7.337219
770.6917, 7.081116
771.1738, 7.395935
771.6559, 7.707947
772.1380, 7.873596
772.6201, 7.903564
773.1022, 7.467529
773.5844, 6.949768
774.0665, 7.061584
774.5486, 8.812439
775.0307, 9.704529
775.5128, 9.052002
775.9949, 7.690491
776.4771, 7.388977
776.9592, 8.163818
777.4413, 8.475525
777.9234, 7.562988
778.4055, 6.448792
778.8876, 7.257141
779.3698, 9.165710
779.8519, 10.06030
780.3340, 7.534241
780.8161, 5.272827
781.2982, 5.504211
781.7803, 7.308228
782.2625, 8.079163
782.7446, 6.721497
783.2267, 5.868408
783.7088, 6.301086
784.1909, 7.428406
784.6730, 7.264160
785.1552, 5.823425
785.6373, 5.122742
786.1194, 6.311584
786.6015, 8.265747
787.0836, 9.616211
787.5657, 10.39093
788.0479, 10.63281
788.5300, 9.791443
789.0121, 8.951843
789.4942, 8.579407
789.9763, 8.679749
790.4584, 8.939758
790.9406, 9.666138
791.4227, 9.783264
791.9048, 8.671448
792.3869, 6.904968
792.8690, 6.463135
793.3511, 7.265076
793.8333, 8.101135
794.3154, 8.404968
794.7975, 8.493042
795.2796, 8.876343
795.7617, 9.382935
796.2438, 9.444458
796.7260, 8.154846
797.2081, 6.973511
797.6902, 6.916504
798.1723, 7.727173
798.6544, 7.703918
799.1365, 6.430603
799.6187, 5.142334
800.1008, 4.261475
800.5829, 3.678711
801.0650, 2.853149
801.5471, 1.968506
802.0292, 1.772522
802.5114, 3.333496
802.9935, 5.198975
803.4756, 6.160400
803.9577, 6.317261
804.4398, 5.927734
804.9219, 4.558655
805.4041, 3.549255
805.8862, 3.374817
806.3683, 3.841003
806.8504, 4.306030
807.3325, 4.762390
807.8146, 5.241333
808.2968, 5.868103
808.7789, 6.315735
809.2610, 6.487427
809.7431, 6.227844
810.2252, 5.682495
810.7073, 4.789490
811.1895, 3.954224
811.6716, 3.200378
812.1537, 2.606079
812.6358, 2.456360
813.1179, 3.227722
813.6000, 4.044617
814.0822, 4.660034
814.5643, 5.102417
815.0464, 5.352112
815.5285, 5.387146
816.0106, 5.169556
816.4927, 4.448914
816.9749, 3.776855
817.4570, 4.230957
817.9391, 5.415771
818.4212, 6.205627
818.9033, 5.243408
819.3854, 4.660706
819.8676, 5.783691
820.3497, 8.023499
820.8318, 9.304321
821.3139, 9.208069
821.7960, 9.051331
822.2781, 9.249878
822.7603, 9.506714
823.2424, 8.676147
823.7245, 6.947571
824.2066, 5.906677
824.6887, 7.010986
825.1708, 8.279724
825.6530, 7.215027
826.1351, 4.929565
826.6172, 3.907898
827.0993, 6.438782
827.5814, 8.372437
828.0635, 8.876038
828.5457, 8.336487
829.0278, 7.365845
829.5099, 5.844360
829.9920, 4.746277
830.4741, 4.285095
830.9562, 4.406372
831.4384, 5.411682
831.9205, 6.932373
832.4026, 8.041687
832.8847, 8.403870
833.3668, 8.261108
833.8489, 7.314453
834.3311, 6.040771
834.8132, 5.235413
835.2953, 4.601196
835.7774, 5.131653
836.2595, 7.443604
836.7416, 10.27979
837.2238, 11.64331
837.7059, 11.62909
838.1880, 10.90198
838.6701, 9.391846
839.1522, 7.919983
839.6343, 7.482178
840.1165, 7.559448
840.5986, 7.398743
841.0807, 6.526001
841.5628, 5.873352
842.0449, 5.521667
842.5270, 5.550110
843.0092, 6.255981
843.4913, 7.915894
843.9734, 8.620911
844.4555, 8.055237
844.9376, 7.083008
845.4197, 6.592163
845.9019, 6.492859
846.3840, 6.719116
846.8661, 7.400452
847.3482, 7.714600
847.8303, 6.699036
848.3124, 5.415649
848.7946, 4.890686
849.2767, 5.650330
849.7588, 5.958740
850.2409, 5.722595
850.7230, 5.193726
851.2051, 4.354858
851.6873, 3.332947
852.1694, 3.014771
852.6515, 3.464478
853.1336, 4.246277
853.6157, 5.681030
854.0978, 6.835510
854.5800, 6.419922
855.0621, 3.997742
855.5442, 2.681274
856.0263, 4.369446
856.5084, 5.989441
856.9905, 6.017212
857.4727, 4.461853
857.9548, 2.715454
858.4369, 0.7156980
858.9190, 0.7435910
859.4011, 0.8270260
859.8832, 0.1489870
860.3654, 0.4271850
860.8475, 0.8677980
861.3296, 1.203186
861.8117, 1.499939
862.2938, 1.649780
862.7759, 1.517944
863.2581, 1.150085
863.7402, 0.9283450
864.2223, 0.9307860
864.7044, 0.7896120
865.1865, 0.1816410
865.6686, 0.5703130
866.1508, 0.6324460
866.6329, 8.1786998E-02
867.1150, 0.7467650
867.5971, 2.311279
868.0792, 3.476746
868.5613, 3.359924
869.0435, 2.282715
869.5256, 1.217896
870.0077, 1.2210000E-03
870.4898, 0.6940310
870.9719, 0.5220340
871.4540, 3.7659001E-02
871.9362, 0.2048950
872.4183, 1.124451
872.9004, 1.697449
873.3825, 1.442688
873.8646, 1.075317
874.3467, 1.347534
874.8289, 1.948914
875.3110, 2.402710
875.7931, 2.477539
876.2752, 2.510193
876.7573, 2.476990
877.2394, 2.482849
877.7216, 2.688904
878.2037, 3.117676
878.6858, 3.327332
879.1679, 3.242615
879.6500, 3.083740
880.1321, 3.348511
880.6143, 3.580933
881.0964, 2.939880
881.5785, 1.000732
882.0606, 0.5225830
882.5427, 0.8375850
883.0248, 0.6948240
883.5070, 0.5488890
883.9891, 0.3463130
884.4712, 0.3807980
884.9533, 0.7008060
885.4354, 1.190613
885.9175, 1.935425
886.3997, 2.720398
886.8818, 3.013123
887.3639, 2.824219
887.8460, 2.656555
888.3281, 2.609741
888.8102, 2.818298
889.2924, 3.332153
889.7745, 4.159241
890.2566, 5.606384
890.7387, 8.085510
891.2208, 9.827026
891.7029, 9.630188
892.1851, 8.515503
892.6672, 9.447876
893.1493, 11.99603
893.6314, 14.25433
894.1135, 15.54297
894.5956, 16.02386
895.0778, 14.89362
895.5599, 13.07751
896.0420, 13.05090
896.5241, 15.98767
897.0062, 18.42712
897.4883, 19.72235
897.9705, 20.38623
898.4526, 21.03851
898.9347, 21.78754
899.4168, 23.21954
899.8989, 25.69000
900.3810, 28.30035
900.8632, 30.86017
901.3453, 32.94000
901.8274, 34.02631
902.3095, 32.98932
902.7916, 32.80963
903.2737, 33.95905
903.7559, 35.30084
904.2380, 35.53210
904.7201, 34.85797
905.2022, 35.64734
905.6843, 38.06079
906.1664, 39.79401
906.6486, 37.98993
907.1307, 35.29169
907.6128, 34.42084
908.0949, 35.78381
908.5770, 35.96631
909.0591, 33.81458
909.5413, 31.37134
910.0234, 29.19537
910.5055, 27.43567
910.9876, 27.50684
911.4697, 29.27991
911.9518, 30.20074
912.4340, 28.05365
912.9161, 24.96619
913.3982, 22.86743
913.8803, 21.62689
914.3624, 20.79797
914.8445, 21.11066
915.3267, 20.63312
915.8088, 18.59869
916.2909, 15.87592
916.7730, 14.44128
917.2551, 14.32306
917.7372, 13.40826
918.2194, 10.81982
918.7015, 8.478027
919.1836, 9.194214
919.6657, 11.18658
920.1478, 11.98401
920.6299, 10.51868
921.1121, 8.809326
921.5942, 6.040771
922.0763, 4.320313
922.5584, 6.116638
923.0405, 11.61139
923.5226, 14.14862
924.0048, 13.47437
924.4869, 11.72302
924.9690, 10.12531
925.4511, 8.660583
925.9332, 7.224426
926.4153, 5.813232
926.8975, 4.808777
927.3796, 4.417297
927.8617, 4.338867
928.3438, 4.724243
928.8259, 5.395813
929.3080, 5.020691
929.7902, 3.569885
930.2723, 2.195007
930.7544, 1.430664
931.2365, 1.110840
931.7186, 1.171204
932.2007, 1.439209
932.6829, 1.613892
933.1650, 1.215454
933.6471, 1.357056
934.1292, 2.378357
934.6113, 3.804077
935.0934, 5.126953
935.5756, 6.344177
936.0577, 6.512329
936.5398, 5.359741
937.0219, 4.205566
937.5040, 4.665039
937.9861, 5.644958
938.4683, 5.645142
938.9504, 4.067139
939.4325, 3.920288
939.9146, 6.476929
940.3967, 9.292725
940.8788, 11.23260
941.3610, 12.32623
941.8431, 13.06641
942.3252, 13.46637
942.8073, 13.63837
943.2894, 12.77136
943.7715, 12.41882
944.2537, 14.55377
944.7358, 18.52911
945.2179, 21.89813
945.7000, 23.50793
946.1821, 25.30536
946.6642, 27.58502
947.1464, 30.30688
947.6285, 33.56042
948.1106, 37.25696
948.5927, 40.40247
949.0748, 42.38055
949.5569, 44.96533
950.0391, 49.64624
950.5212, 55.87946
951.0033, 63.11212
951.4854, 72.05969
951.9675, 80.00433
952.4496, 85.90796
952.9318, 92.54333
953.4139, 102.0638
953.8960, 114.2060
954.3781, 128.0250
954.8602, 143.2702
955.3423, 158.3601
955.8245, 169.8423
956.3066, 182.8292
956.7887, 200.3898
957.2708, 222.8718
957.7529, 249.5791
958.2350, 281.1736
958.7172, 315.4172
959.1993, 351.8971
959.6814, 390.9980
960.1635, 433.1215
960.6456, 478.1400
961.1277, 525.2791
961.6099, 575.0754
962.0920, 625.7301
962.5741, 676.4098
963.0562, 727.5091
963.5383, 778.2930
964.0204, 826.9918
964.5026, 880.9821
964.9847, 939.7180
965.4668, 1004.044
965.9489, 1074.443
966.4310, 1150.539
966.9131, 1234.772
967.3953, 1326.542
967.8774, 1425.796
968.3595, 1533.252
968.8416, 1646.691
969.3237, 1768.513
969.8058, 1894.986
970.2880, 2012.626
970.7701, 2124.062
971.2522, 2213.679
971.7343, 2282.589
972.2164, 2317.884
972.6985, 2303.520
973.1807, 2241.524
973.6628, 2136.372
974.1449, 1966.230
974.6270, 1788.213
975.1091, 1600.300
975.5912, 1418.517
976.0734, 1255.180
976.5555, 1110.731
977.0376, 986.5364
977.5197, 884.6083
978.0018, 800.4166
978.4839, 732.6810
978.9661, 678.2766
979.4482, 634.7768
979.9303, 601.9439
980.4124, 578.8422
980.8945, 567.3140
981.3766, 561.0778
981.8588, 558.2784
982.3409, 559.4619
982.8230, 566.5522
983.3051, 579.2103
983.7872, 595.6362
984.2693, 615.5643
984.7515, 638.3024
985.2336, 663.3527
985.7157, 690.9184
986.1978, 721.4725
986.6799, 755.4351
987.1620, 790.8491
987.6442, 827.3455
988.1263, 866.4476
988.6084, 908.6544
989.0905, 954.5177
989.5726, 1004.377
990.0547, 1058.365
990.5369, 1115.671
991.0190, 1179.122
991.5011, 1242.529
991.9832, 1304.411
992.4653, 1363.679
992.9474, 1419.851
993.4296, 1473.344
993.9117, 1516.032
994.3938, 1545.878
994.8759, 1562.915
995.3580, 1569.060
995.8401, 1561.724
996.3223, 1536.588
996.8044, 1489.077
997.2865, 1430.183
997.7686, 1358.778
998.2507, 1280.456
998.7328, 1197.179
999.2150, 1109.905
999.6971, 1023.299
1000.179, 938.9525
1000.661, 861.0181
1001.143, 794.0705
1001.626, 733.8552
1002.108, 676.2018
1002.590, 622.0137
1003.072, 573.3694
1003.554, 531.9543
1004.036, 493.6011
1004.518, 457.8500
1005.000, 424.8801
1005.482, 396.6921
1005.965, 371.8622
1006.447, 347.1973
1006.929, 321.5974
1007.411, 297.5486
1007.893, 277.0060
1008.375, 257.6383
1008.857, 237.3181
1009.339, 215.6310
1009.822, 196.6923
1010.304, 180.6768
1010.786, 166.0536
1011.268, 152.6285
1011.750, 139.9564
1012.232, 127.1243
1012.714, 114.5153
1013.196, 103.0829
1013.678, 93.14874
1014.161, 84.52460
1014.643, 77.67651
1015.125, 71.68329
1015.607, 65.23334
1016.089, 58.47333
1016.571, 52.09808
1017.053, 46.24219
1017.535, 40.82214
1018.018, 35.69794
1018.500, 31.06085
1018.982, 27.04309
1019.464, 23.66486
1019.946, 20.91797
1020.428, 19.11572
1020.910, 16.72174
1021.392, 12.47089
1021.874, 7.883606
1022.357, 6.247437
1022.839, 6.623962
1023.321, 6.858765
1023.803, 6.226440
1024.285, 5.241577
1024.767, 3.919617
1025.249, 2.361023
1025.731, 0.5282590
1026.214, 1.597351
1026.696, 3.129211
1027.178, 4.018860
1027.660, 4.675110
1028.142, 5.270203
1028.624, 5.893433
1029.106, 6.924011
1029.588, 8.180664
1030.070, 8.298523
1030.553, 6.715271
1031.035, 5.181213
1031.517, 4.032043
1031.999, 3.275757
1032.481, 3.200623
1032.963, 3.486023
1033.445, 3.174988
1033.927, 1.742126
1034.410, 0.8122560
1034.892, 2.098755
1035.374, 3.298096
1035.856, 2.526428
1036.338, 0.2939450
1036.820, 1.121582
1037.302, 9.3689002E-02
1037.784, 1.374817
1038.266, 1.593689
1038.749, 1.235596
1039.231, 0.6671750
1039.713, 9.2528999E-02
1040.195, 1.004700
1040.677, 2.403687
1041.159, 3.289185
1041.641, 3.398315
1042.123, 3.350586
1042.605, 3.869263
1043.088, 4.851501
1043.570, 6.130127
1044.052, 7.684387
1044.534, 8.938660
1045.016, 8.799744
1045.498, 9.084473
1045.980, 10.85901
1046.462, 13.82123
1046.945, 16.69531
1047.427, 19.50842
1047.909, 22.28448
1048.391, 25.09332
1048.873, 27.66486
1049.355, 29.90680
1049.837, 31.66486
1050.319, 32.68378
1050.802, 32.45599
1051.284, 32.67358
1051.766, 33.84540
1052.248, 34.35907
1052.730, 32.41809
1053.212, 28.99933
1053.694, 27.43683
1054.176, 27.32477
1054.658, 26.76257
1055.141, 24.03204
1055.623, 21.59076
1056.105, 20.62762
1056.587, 20.27173
1057.069, 19.23193
1057.551, 17.48395
1058.033, 15.91693
1058.515, 14.68524
1058.997, 13.19489
1059.480, 10.47345
1059.962, 7.539001
1060.444, 5.238892
1060.926, 3.709961
1061.408, 2.861511
1061.890, 2.901855
1062.372, 2.961304
1062.854, 2.538452
1063.337, 2.294739
1063.819, 3.968384
1064.301, 6.723694
1064.783, 8.678284
1065.265, 9.001160
1065.747, 9.195801
1066.229, 9.241577
1066.711, 9.781860
1067.193, 11.39764
1067.676, 14.01190
1068.158, 16.42334
1068.640, 18.65533
1069.122, 20.93365
1069.604, 22.89008
1070.086, 25.47595
1070.568, 29.72534
1071.050, 35.06482
1071.532, 40.04413
1072.015, 44.37823
1072.497, 49.36865
1072.979, 55.24164
1073.461, 61.61566
1073.943, 68.00287
1074.425, 74.63721
1074.907, 81.89038
1075.389, 89.74988
1075.872, 98.45587
1076.354, 108.1578
1076.836, 118.5430
1077.318, 129.6755
1077.800, 141.1439
1078.282, 152.4717
1078.764, 163.6641
1079.246, 174.6655
1079.729, 185.1691
1080.211, 196.9356
1080.693, 211.4005
1081.175, 227.2679
1081.657, 243.3469
1082.139, 259.6804
1082.621, 275.3240
1083.103, 290.3689
1083.585, 306.7644
1084.068, 326.4194
1084.550, 347.0158
1085.032, 367.0055
1085.514, 386.0802
1085.996, 403.0335
1086.478, 417.6578
1086.960, 430.2288
1087.442, 440.1392
1087.924, 449.9535
1088.406, 463.0704
1088.889, 477.3665
1089.371, 489.0835
1089.853, 498.3007
1090.335, 506.8221
1090.817, 514.8611
1091.299, 522.8801
1091.781, 531.1492
1092.263, 539.4150
1092.746, 547.4410
1093.228, 554.9883
1093.710, 560.8424
1094.192, 564.8839
1094.674, 567.1627
1095.156, 567.3304
1095.638, 565.9310
1096.120, 563.3674
1096.603, 559.7194
1097.085, 555.0104
1097.567, 549.2842
1098.049, 541.1075
1098.531, 529.4176
1099.013, 516.0469
1099.495, 502.1887
1099.977, 488.0482
1100.459, 473.7718
1100.942, 460.0101
1101.424, 444.4159
1101.906, 426.6570
1102.388, 408.0132
1102.870, 388.5659
1103.352, 368.9639
1103.834, 350.1204
1104.316, 331.9805
1104.798, 314.9395
1105.281, 299.4561
1105.763, 284.4289
1106.245, 269.9705
1106.727, 255.6273
1107.209, 241.1185
1107.691, 226.4974
1108.173, 212.9388
1108.655, 200.3454
1109.138, 188.0243
1109.620, 174.8009
1110.102, 162.4550
1110.584, 151.8285
1111.066, 142.4935
1111.548, 133.2362
1112.030, 123.9991
1112.512, 116.0576
1112.995, 109.7080
1113.477, 103.6295
1113.959, 96.37628
1114.441, 89.07697
1114.923, 82.81805
1115.405, 77.60278
1115.887, 72.03204
1116.369, 65.79749
1116.851, 60.81293
1117.333, 58.22308
1117.816, 56.19989
1118.298, 52.10193
1118.780, 47.08264
1119.262, 42.85297
1119.744, 40.12482
1120.226, 37.18793
1120.708, 34.07758
1121.190, 30.51825
1121.673, 25.48523
1122.155, 20.36823
1122.637, 18.74188
1123.119, 19.70459
1123.601, 20.76428
1124.083, 22.49677
1124.565, 21.90442
1125.047, 17.60614
1125.530, 12.29926
1126.012, 8.036804
1126.494, 4.857422
1126.976, 3.269043
1127.458, 3.144226
1127.940, 3.328552
1128.422, 3.716919
1128.904, 3.632080
1129.386, 2.449890
1129.869, 0.7963260
1130.351, 0.6202390
1130.833, 1.788147
1131.315, 1.574829
1131.797, 0.2238160
1132.279, 2.080200
1132.761, 3.138062
1133.243, 3.483765
1133.725, 2.793213
1134.208, 1.363525
1134.690, 0.5639040
1135.172, 0.4664310
1135.654, 0.4288330
1136.136, 0.2516480
1136.618, 0.2734380
1137.100, 0.8247070
1137.582, 1.806641
1138.065, 3.487549
1138.547, 6.116455
1139.029, 6.562134
1139.511, 3.861389
1139.993, 2.273987
1140.475, 4.036316
1140.957, 6.916931
1141.439, 6.967102
1141.922, 5.740601
1142.404, 6.071045
1142.886, 9.645569
1143.368, 12.00464
1143.850, 12.43091
1144.332, 12.42706
1144.814, 12.91888
1145.296, 13.64948
1145.778, 13.53448
1146.260, 13.06921
1146.743, 13.77014
1147.225, 17.17065
1147.707, 20.61438
1148.189, 24.15344
1148.671, 27.09106
1149.153, 28.40253
1149.635, 28.51703
1150.117, 29.51141
1150.600, 31.39526
1151.082, 33.85535
1151.564, 37.12671
1152.046, 40.06409
1152.528, 42.50848
1153.010, 44.73175
1153.492, 46.97101
1153.974, 49.16980
1154.457, 52.06104
1154.939, 55.75037
1155.421, 60.01520
1155.903, 64.70831
1156.385, 69.91541
1156.867, 76.10071
1157.349, 82.73248
1157.831, 88.58136
1158.313, 93.68341
1158.796, 98.80347
1159.278, 103.9990
1159.760, 109.9384
1160.242, 117.2555
1160.724, 125.4922
1161.206, 134.6011
1161.688, 144.4744
1162.170, 153.9384
1162.652, 162.8568
1163.135, 172.0315
1163.617, 181.9745
1164.099, 191.8643
1164.581, 200.1608
1165.063, 208.3015
1165.545, 218.1062
1166.027, 229.8843
1166.509, 241.1470
1166.992, 252.1169
1167.474, 262.1284
1167.956, 270.5605
1168.438, 278.2694
1168.920, 287.2793
1169.402, 296.1033
1169.884, 302.7312
1170.366, 306.2571
1170.849, 309.4208
1171.331, 312.9767
1171.813, 313.5552
1172.295, 308.4232
1172.777, 299.9481
1173.259, 292.0181
1173.741, 283.6954
1174.223, 273.2483
1174.705, 257.7960
1175.188, 244.4919
1175.670, 234.0681
1176.152, 223.6357
1176.634, 210.5821
1177.116, 196.1667
1177.598, 181.5919
1178.080, 167.3593
1178.562, 154.7794
1179.044, 145.3862
1179.527, 135.8350
1180.009, 125.3552
1180.491, 115.4169
1180.973, 107.4057
1181.455, 100.8332
1181.937, 95.23334
1182.419, 90.35938
1182.901, 84.99097
1183.384, 77.96735
1183.866, 71.46454
1184.348, 65.81079
1184.830, 60.81537
1185.312, 56.24487
1185.794, 52.16162
1186.276, 48.77258
1186.758, 46.02374
1187.240, 43.60474
1187.723, 42.31262
1188.205, 39.98761
1188.687, 35.58282
1189.169, 30.62854
1189.651, 27.66174
1190.133, 26.21057
1190.615, 25.16272
1191.097, 24.33636
1191.579, 23.11908
1192.062, 20.84424
1192.544, 18.60138
1193.026, 16.72491
1193.508, 15.11285
1193.990, 13.41614
1194.472, 11.82306
1194.954, 11.27698
1195.436, 12.13361
1195.919, 12.14685
1196.401, 9.255249
1196.883, 6.545715
1197.365, 5.409241
1197.847, 5.283508
1198.329, 4.357605
1198.811, 2.946960
1199.293, 2.349792
1199.776, 3.021912
1200.258, 3.814941
1200.740, 4.782959
1201.222, 5.024963
1201.704, 3.892639
1202.186, 1.764282
1202.668, 9.2589997E-02
1203.150, 1.569702
1203.632, 2.195129
1204.115, 1.588745
1204.597, 0.8178100
1205.079, 0.1910400
1205.561, 0.2872920
1206.043, 0.5437010
1206.525, 0.6513060
1207.007, 1.317810
1207.489, 2.264465
1207.971, 2.045044
1208.454, 1.227417
1208.936, 3.070374
1209.418, 0.6326900
1209.900, 4.310791
1210.382, 3.569214
1210.864, 0.5524900
1211.346, 0.1644900
1211.828, 3.805725
1212.311, 6.831665
1212.793, 6.382690
1213.275, 5.446655
1213.757, 5.223816
1214.239, 4.820496
1214.721, 3.307983
1215.203, 0.9377440
1215.685, 0.3524780
1216.167, 0.6927490
1216.650, 0.8270260
1217.132, 0.9920040
1217.614, 1.171997
1218.096, 1.306030
1218.578, 1.507446
1219.060, 2.155640
1219.542, 3.039001
1220.024, 2.265930
1220.506, 0.1845700
1220.989, 1.108276
1221.471, 0.2753300
1221.953, 1.466187
1222.435, 1.645142
1222.917, 1.319031
1223.399, 0.6798710
1223.881, 6.4269997E-02
1224.363, 0.5064090
1224.846, 2.157471
1225.328, 3.193420
1225.810, 2.520752
1226.292, 1.418030
1226.774, 3.5889000E-02
1227.256, 1.337646
1227.738, 2.491272
1228.220, 3.337463
1228.703, 3.380554
1229.185, 2.726929
1229.667, 2.273071
1230.149, 2.793518
1230.631, 3.039124
1231.113, 2.665100
1231.595, 2.018005
1232.077, 1.243225
1232.559, 0.6035770
1233.042, 1.013672
1233.524, 2.422852
1234.006, 3.934204
1234.488, 5.738831
1234.970, 6.748474
1235.452, 6.672241
1235.934, 5.908813
1236.416, 4.568420
1236.898, 3.093811
1237.381, 2.593506
1237.863, 3.082397
1238.345, 3.679504
1238.827, 4.570129
1239.309, 4.770996
1239.791, 3.931152
1240.273, 2.777527
1240.755, 2.176819
1241.238, 2.043945
1241.720, 2.185669
1242.202, 2.614136
1242.684, 2.933655
1243.166, 2.865479
1243.648, 3.123901
1244.130, 3.907349
1244.612, 4.862244
1245.094, 5.533691
1245.577, 6.093933
1246.059, 7.049438
1246.541, 8.350952
1247.023, 8.357666
1247.505, 6.127014
1247.987, 5.376892
1248.469, 6.990295
1248.951, 8.956116
1249.433, 8.451050
1249.916, 7.051208
1250.398, 6.712219
1250.880, 7.529907
1251.362, 7.688416
1251.844, 6.789429
1252.326, 6.960876
1252.808, 8.965210
1253.290, 10.92926
1253.773, 10.73553
1254.255, 9.422729
1254.737, 7.814514
1255.219, 6.452271
1255.701, 5.946228
1256.183, 6.245178
1256.665, 7.045532
1257.147, 7.866760
1257.630, 9.307556
1258.112, 11.01764
1258.594, 12.56964
1259.076, 13.75604
1259.558, 14.36298
1260.040, 13.24390
1260.522, 10.27539
1261.004, 8.687012
1261.486, 9.476074
1261.969, 10.46753
1262.451, 9.753723
1262.933, 9.052856
1263.415, 8.974609
1263.897, 9.115601
1264.379, 11.03162
1264.861, 14.41205
1265.343, 16.08209
1265.825, 16.04132
1266.308, 15.07239
1266.790, 11.29974
1267.272, 8.416870
1267.754, 8.657166
1268.236, 10.68970
1268.718, 10.74878
1269.200, 9.359192
1269.682, 8.718689
1270.165, 9.117371
1270.647, 9.881836
1271.129, 11.77356
1271.611, 12.38861
1272.093, 10.46191
1272.575, 7.686035
1273.057, 7.840088
1273.539, 9.706543
1274.021, 10.50958
1274.504, 9.660400
1274.986, 8.573425
1275.468, 6.913452
1275.950, 6.391235
1276.432, 7.888123
1276.914, 9.756348
1277.396, 9.518433
1277.878, 7.979797
1278.360, 6.301636
1278.843, 4.585083
1279.325, 3.900574
1279.807, 4.322327
1280.289, 5.361572
1280.771, 7.231750
1281.253, 8.797791
1281.735, 7.857178
1282.217, 6.311401
1282.700, 6.583679
1283.182, 8.629639
1283.664, 9.404297
1284.146, 8.782898
1284.628, 8.105957
1285.110, 7.676208
1285.592, 7.476868
1286.074, 7.507446
##END=



