##NAMES=Segnitite
##RRUFFID=R060342
##IDEAL CHEMISTRY=Pb^2+^Fe^3+^_3_(As^5+^O_4_)(As^5+^O_3_OH)(OH)_6_
##LOCALITY=Kintore Opencut, Broken Hill, New South Wales, Australia
##OWNER=RRUFF
##SOURCE=Michael Scott
##DESCRIPTION=Yellowish-brown blebs
##STATUS=The identification of this mineral is not yet confirmed.
##URL=rruff.info/R060342
135.021, 0.000
135.503, 37.751
135.985, 4.408
136.467, 0.019
136.949, 16.090
137.432, 30.706
137.914, 43.308
138.396, 73.122
138.878, 123.163
139.360, 181.561
139.842, 229.933
140.324, 264.182
140.806, 301.554
141.288, 346.643
141.771, 399.032
142.253, 450.391
142.735, 462.266
143.217, 557.070
143.699, 716.111
144.181, 859.749
144.663, 990.820
145.145, 1066.329
145.628, 1222.118
146.110, 1347.855
146.592, 1487.513
147.074, 1693.018
147.556, 1892.044
148.038, 2068.896
148.520, 2253.845
149.002, 2465.578
149.484, 2736.968
149.967, 3001.012
150.449, 3253.069
150.931, 3496.271
151.413, 3715.428
151.895, 3907.282
152.377, 4078.321
152.859, 4229.757
153.342, 4337.078
153.824, 4475.561
154.306, 4647.699
154.788, 4876.441
155.270, 5086.576
155.752, 5261.224
156.234, 5354.362
156.716, 5402.979
157.198, 5414.837
157.680, 5388.840
158.163, 5325.293
158.645, 5225.208
159.127, 5083.799
159.609, 4889.867
160.091, 4651.283
160.573, 4388.757
161.055, 4098.650
161.538, 3793.794
162.020, 3484.307
162.502, 3159.218
162.984, 2844.322
163.466, 2550.525
163.948, 2276.185
164.430, 2011.773
164.912, 1692.854
165.394, 1408.082
165.876, 1242.190
166.359, 1036.664
166.841, 996.437
167.323, 916.216
167.805, 798.213
168.287, 528.757
168.769, 452.493
169.251, 344.010
169.733, 267.613
170.216, 213.414
170.698, 165.704
171.180, 106.760
171.662, 33.214
172.144, 29.772
172.626, 23.138
173.108, 40.543
173.590, 75.923
174.072, 84.522
174.555, 13.871
175.037, 25.894
175.519, 10.291
176.001, 7.582
176.483, 51.629
176.965, 31.203
177.447, 26.785
177.929, 18.266
178.412, 80.566
178.894, 7.946
179.376, 10.717
179.858, 27.250
180.340, 119.104
180.822, 122.562
181.304, 143.093
181.786, 180.825
182.268, 232.647
182.751, 290.744
183.233, 353.694
183.715, 420.942
184.197, 486.656
184.679, 551.442
185.161, 624.879
185.643, 723.411
186.125, 839.992
186.607, 952.406
187.090, 1048.451
187.572, 1136.163
188.054, 1239.276
188.536, 1357.539
189.018, 1484.445
189.500, 1609.712
189.982, 1732.777
190.464, 1867.495
190.947, 2020.653
191.429, 2190.012
191.911, 2351.873
192.393, 2501.362
192.875, 2659.837
193.357, 2853.226
193.839, 3079.258
194.321, 3347.890
194.803, 3699.772
195.286, 4123.849
195.768, 4464.366
196.250, 4708.154
196.732, 4893.199
197.214, 5070.527
197.696, 5237.032
198.178, 5423.131
198.661, 5649.014
199.143, 5915.292
199.625, 6194.932
200.107, 6497.799
200.589, 6805.085
201.071, 7081.805
201.553, 7329.062
202.035, 7544.593
202.517, 7723.359
202.999, 7862.106
203.482, 7997.305
203.964, 8139.085
204.446, 8274.025
204.928, 8363.164
205.410, 8403.426
205.892, 8404.822
206.374, 8371.879
206.857, 8302.978
207.339, 8205.781
207.821, 8078.892
208.303, 7924.344
208.785, 7753.775
209.267, 7570.732
209.749, 7362.531
210.231, 7110.110
210.713, 6796.483
211.195, 6504.735
211.678, 6250.822
212.160, 6030.870
212.642, 5827.627
213.124, 5664.238
213.606, 5475.394
214.088, 5190.028
214.570, 4763.633
215.052, 4369.315
215.535, 4041.826
216.017, 3778.631
216.499, 3518.738
216.981, 3254.026
217.463, 2999.864
217.945, 2773.023
218.427, 2585.603
218.909, 2403.648
219.391, 2218.942
219.874, 2029.124
220.356, 1856.134
220.838, 1699.198
221.320, 1561.403
221.802, 1451.233
222.284, 1378.366
222.766, 1312.857
223.248, 1246.763
223.731, 1177.864
224.213, 1122.359
224.695, 1083.725
225.177, 1055.719
225.659, 1027.106
226.141, 989.339
226.623, 968.073
227.105, 975.864
227.587, 1021.628
228.070, 1053.541
228.552, 1066.203
229.034, 1067.894
229.516, 1071.099
229.998, 1073.703
230.480, 1076.831
230.962, 1080.978
231.444, 1084.683
231.926, 1095.093
232.409, 1121.980
232.891, 1149.235
233.373, 1144.058
233.855, 1094.583
234.337, 1037.478
234.819, 992.805
235.301, 964.081
235.783, 929.548
236.266, 882.252
236.748, 831.617
237.230, 780.961
237.712, 728.207
238.194, 676.627
238.676, 627.478
239.158, 576.829
239.640, 535.127
240.122, 502.113
240.605, 478.868
241.087, 467.690
241.569, 477.578
242.051, 487.533
242.533, 486.197
243.015, 464.474
243.497, 453.173
243.980, 452.201
244.462, 461.991
244.944, 486.150
245.426, 530.772
245.908, 580.646
246.390, 627.715
246.872, 665.663
247.354, 713.312
247.836, 772.059
248.318, 839.945
248.801, 910.542
249.283, 983.498
249.765, 1059.196
250.247, 1136.756
250.729, 1209.833
251.211, 1299.473
251.693, 1412.496
252.176, 1541.938
252.658, 1660.398
253.140, 1760.704
253.622, 1862.423
254.104, 1981.347
254.586, 2131.754
255.068, 2259.976
255.550, 2351.812
256.032, 2420.445
256.514, 2514.492
256.997, 2647.591
257.479, 2784.705
257.961, 2909.462
258.443, 3024.770
258.925, 3120.075
259.407, 3191.625
259.889, 3243.519
260.371, 3294.904
260.854, 3349.729
261.336, 3396.164
261.818, 3430.087
262.300, 3455.318
262.782, 3452.570
263.264, 3414.610
263.746, 3348.230
264.228, 3281.028
264.711, 3215.042
265.193, 3142.554
265.675, 3057.935
266.157, 2961.149
266.639, 2854.556
267.121, 2740.064
267.603, 2617.499
268.085, 2482.999
268.567, 2334.770
269.050, 2182.469
269.532, 2030.034
270.014, 1874.651
270.496, 1737.331
270.978, 1627.916
271.460, 1536.968
271.942, 1430.022
272.424, 1299.138
272.906, 1178.738
273.389, 1093.643
273.871, 1050.262
274.353, 1001.965
274.835, 941.314
275.317, 876.063
275.799, 833.049
276.281, 819.770
276.763, 799.718
277.246, 739.538
277.728, 634.480
278.210, 562.059
278.692, 539.936
279.174, 545.773
279.656, 520.087
280.138, 457.737
280.620, 393.925
281.103, 350.232
281.585, 326.583
282.067, 301.886
282.549, 261.342
283.031, 235.433
283.513, 202.649
283.995, 204.689
284.477, 198.336
284.959, 184.045
285.441, 137.896
285.924, 132.997
286.406, 111.628
286.888, 89.631
287.370, 81.584
287.852, 63.227
288.334, 54.628
288.816, 49.458
289.298, 48.478
289.781, 59.625
290.263, 89.359
290.745, 117.879
291.227, 104.071
291.709, 51.349
292.191, 4.072
292.673, 7.824
293.155, 5.760
293.638, 11.750
294.120, 6.292
294.602, 2.718
295.084, 15.049
295.566, 26.306
296.048, 45.253
296.530, 19.765
297.012, 5.023
297.494, 0.445
297.977, 36.583
298.459, 20.071
298.941, 24.615
299.423, 29.993
299.905, 5.985
300.387, 36.042
300.869, 15.321
301.351, 22.140
301.833, 2.795
302.316, 28.575
302.798, 63.034
303.280, 98.723
303.762, 132.158
304.244, 167.724
304.726, 196.497
305.208, 201.847
305.690, 181.325
306.172, 161.519
306.655, 164.779
307.137, 183.875
307.619, 205.398
308.101, 224.624
308.583, 244.352
309.065, 271.207
309.547, 305.296
310.030, 338.373
310.512, 366.619
310.994, 388.042
311.476, 402.695
311.958, 388.424
312.440, 387.003
312.922, 435.143
313.404, 527.032
313.886, 608.670
314.369, 647.458
314.851, 668.251
315.333, 688.208
315.815, 705.794
316.297, 734.923
316.779, 785.823
317.261, 856.715
317.743, 926.093
318.225, 974.961
318.708, 1019.998
319.190, 1073.776
319.672, 1143.001
320.154, 1220.228
320.636, 1314.061
321.118, 1420.055
321.600, 1514.224
322.082, 1584.951
322.565, 1649.938
323.047, 1723.653
323.529, 1803.815
324.011, 1894.023
324.493, 1986.336
324.975, 2088.062
325.457, 2221.923
325.939, 2460.130
326.422, 2676.922
326.904, 2815.714
327.386, 2803.196
327.868, 2817.728
328.350, 2880.685
328.832, 2970.916
329.314, 3040.232
329.796, 3070.236
330.278, 3096.705
330.760, 3132.356
331.243, 3186.545
331.725, 3230.389
332.207, 3266.341
332.689, 3291.416
333.171, 3298.507
333.653, 3276.387
334.135, 3255.561
334.617, 3251.274
335.100, 3271.526
335.582, 3254.876
336.064, 3187.913
336.546, 3100.414
337.028, 3031.506
337.510, 2990.346
337.992, 2941.198
338.474, 2871.679
338.957, 2782.942
339.439, 2701.100
339.921, 2627.470
340.403, 2557.226
340.885, 2486.876
341.367, 2415.502
341.849, 2345.991
342.331, 2278.990
342.813, 2213.798
343.296, 2143.959
343.778, 2068.511
344.260, 1997.811
344.742, 1946.893
345.224, 1913.048
345.706, 1871.854
346.188, 1818.850
346.670, 1755.969
347.152, 1680.413
347.635, 1593.032
348.117, 1513.331
348.599, 1460.867
349.081, 1426.713
349.563, 1386.338
350.045, 1335.139
350.527, 1278.676
351.009, 1225.127
351.491, 1173.641
351.974, 1123.077
352.456, 1075.188
352.938, 1026.133
353.420, 967.983
353.902, 898.344
354.384, 829.174
354.866, 772.024
355.349, 723.643
355.831, 675.614
356.313, 624.371
356.795, 573.268
357.277, 527.287
357.759, 487.166
358.241, 444.210
358.723, 385.874
359.205, 324.919
359.688, 277.020
360.170, 249.081
360.652, 233.913
361.134, 195.175
361.616, 205.814
362.098, 204.416
362.580, 191.623
363.062, 133.442
363.544, 133.778
364.027, 110.604
364.509, 86.427
364.991, 94.873
365.473, 43.068
365.955, 50.892
366.437, 34.836
366.919, 29.620
367.401, 0.730
367.884, 20.949
368.366, 19.100
368.848, 30.419
369.330, 62.386
369.812, 92.204
370.294, 119.906
370.776, 92.430
371.258, 78.513
371.741, 77.424
372.223, 127.226
372.705, 111.618
373.187, 122.422
373.669, 134.449
374.151, 124.516
374.633, 136.066
375.115, 152.012
375.597, 111.283
376.079, 84.490
376.562, 70.873
377.044, 109.525
377.526, 80.968
378.008, 79.521
378.490, 79.298
378.972, 41.619
379.454, 73.276
379.936, 40.087
380.419, 51.367
380.901, 35.049
381.383, 17.627
381.865, 0.724
382.347, 2.579
382.829, 12.092
383.311, 35.204
383.793, 56.161
384.276, 73.840
384.758, 81.872
385.240, 67.715
385.722, 43.383
386.204, 33.844
386.686, 44.210
387.168, 52.768
387.650, 33.612
388.132, 2.453
388.615, 32.540
389.097, 45.968
389.579, 49.257
390.061, 43.936
390.543, 30.247
391.025, 21.141
391.507, 25.980
391.989, 38.877
392.471, 53.713
392.954, 82.225
393.436, 99.314
393.918, 82.957
394.400, 42.115
394.882, 17.852
395.364, 35.053
395.846, 65.180
396.328, 93.692
396.810, 125.564
397.293, 143.623
397.775, 134.158
398.257, 109.562
398.739, 96.511
399.221, 100.280
399.703, 112.625
400.185, 134.531
400.668, 171.878
401.150, 194.570
401.632, 189.844
402.114, 179.325
402.596, 191.110
403.078, 242.435
403.560, 279.323
404.042, 282.835
404.524, 258.007
405.007, 265.135
405.489, 313.834
405.971, 372.182
406.453, 416.857
406.935, 447.570
407.417, 465.688
407.899, 463.667
408.381, 458.082
408.863, 493.025
409.346, 569.875
409.828, 647.710
410.310, 697.248
410.792, 727.693
411.274, 777.382
411.756, 851.247
412.238, 930.638
412.720, 988.919
413.203, 1032.905
413.685, 1086.013
414.167, 1166.948
414.649, 1258.706
415.131, 1316.410
415.613, 1343.943
416.095, 1428.639
416.577, 1492.209
417.060, 1584.039
417.542, 1668.985
418.024, 1747.423
418.506, 1799.889
418.988, 1885.861
419.470, 1958.400
419.952, 2030.365
420.434, 2113.617
420.916, 2178.602
421.398, 2242.432
421.881, 2282.423
422.363, 2355.062
422.845, 2375.410
423.327, 2438.242
423.809, 2490.704
424.291, 2532.451
424.773, 2533.737
425.255, 2584.630
425.738, 2613.251
426.220, 2638.432
426.702, 2660.643
427.184, 2675.841
427.666, 2682.146
428.148, 2677.198
428.630, 2671.918
429.112, 2664.899
429.595, 2656.614
430.077, 2649.733
430.559, 2650.421
431.041, 2647.642
431.523, 2637.844
432.005, 2622.300
432.487, 2594.736
432.969, 2553.223
433.451, 2506.760
433.934, 2461.489
434.416, 2416.542
434.898, 2367.343
435.380, 2308.849
435.862, 2251.273
436.344, 2233.958
436.826, 2167.906
437.308, 2153.223
437.790, 2127.808
438.273, 2089.563
438.755, 2003.596
439.237, 1981.093
439.719, 1959.033
440.201, 1943.454
440.683, 1929.667
441.165, 1906.694
441.647, 1862.930
442.129, 1812.371
442.612, 1762.377
443.094, 1712.451
443.576, 1677.806
444.058, 1615.516
444.540, 1613.312
445.022, 1596.022
445.504, 1566.169
445.987, 1483.146
446.469, 1472.095
446.951, 1452.911
447.433, 1426.303
447.915, 1374.456
448.397, 1330.375
448.879, 1315.607
449.361, 1357.799
449.843, 1374.312
450.326, 1352.711
450.808, 1309.266
451.290, 1279.653
451.772, 1266.178
452.254, 1258.214
452.736, 1250.521
453.218, 1243.626
453.700, 1249.565
454.182, 1271.124
454.665, 1293.952
455.147, 1301.958
455.629, 1296.453
456.111, 1285.596
456.593, 1270.023
457.075, 1251.876
457.557, 1227.813
458.039, 1200.556
458.522, 1191.412
459.004, 1236.220
459.486, 1299.363
459.968, 1325.756
460.450, 1302.159
460.932, 1274.686
461.414, 1277.875
461.896, 1300.405
462.379, 1323.561
462.861, 1344.576
463.343, 1360.272
463.825, 1365.359
464.307, 1360.675
464.789, 1361.942
465.271, 1375.726
465.753, 1395.834
466.235, 1418.137
466.717, 1432.251
467.200, 1461.430
467.682, 1519.911
468.164, 1592.401
468.646, 1645.930
469.128, 1670.514
469.610, 1690.875
470.092, 1712.652
470.574, 1735.279
471.057, 1767.277
471.539, 1812.920
472.021, 1859.508
472.503, 1892.364
472.985, 1909.375
473.467, 1934.030
473.949, 1974.271
474.431, 2020.956
474.914, 2050.365
475.396, 2063.285
475.878, 2072.557
476.360, 2086.722
476.842, 2103.107
477.324, 2116.132
477.806, 2125.910
478.288, 2131.183
478.770, 2130.044
479.253, 2124.162
479.735, 2116.293
480.217, 2111.480
480.699, 2101.904
481.181, 2072.610
481.663, 2029.925
482.145, 2004.501
482.627, 1974.538
483.109, 1917.662
483.592, 1921.297
484.074, 1910.339
484.556, 1885.576
485.038, 1805.433
485.520, 1797.003
486.002, 1759.978
486.484, 1721.868
486.966, 1723.806
487.448, 1678.847
487.931, 1660.854
488.413, 1649.091
488.895, 1650.740
489.377, 1646.618
489.859, 1613.326
490.341, 1540.140
490.823, 1519.250
491.306, 1572.835
491.788, 1656.779
492.270, 1682.509
492.752, 1652.498
493.234, 1635.196
493.716, 1666.760
494.198, 1734.644
494.680, 1811.609
495.162, 1897.204
495.645, 1970.679
496.127, 2007.314
496.609, 2025.708
497.091, 2053.703
497.573, 2098.610
498.055, 2147.346
498.537, 2200.245
499.019, 2251.509
499.501, 2287.782
499.984, 2282.826
500.466, 2276.131
500.948, 2290.777
501.430, 2331.448
501.912, 2363.794
502.394, 2382.671
502.876, 2389.078
503.358, 2383.692
503.841, 2361.178
504.323, 2334.338
504.805, 2296.728
505.287, 2258.103
505.769, 2240.269
506.251, 2244.850
506.733, 2263.946
507.215, 2301.080
507.698, 2354.248
508.180, 2381.730
508.662, 2377.544
509.144, 2374.797
509.626, 2402.944
510.108, 2461.027
510.590, 2542.433
511.072, 2651.462
511.554, 2773.637
512.036, 2891.035
512.519, 3004.848
513.001, 3118.945
513.483, 3231.476
513.965, 3347.830
514.447, 3474.630
514.929, 3612.432
515.411, 3756.849
515.893, 3907.668
516.375, 4062.840
516.858, 4220.386
517.340, 4378.914
517.822, 4540.643
518.304, 4703.235
518.786, 4869.568
519.268, 5049.745
519.750, 5261.923
520.232, 5464.001
520.715, 5640.452
521.197, 5788.054
521.679, 5944.575
522.161, 6118.519
522.643, 6284.621
523.125, 6425.362
523.607, 6541.376
524.089, 6625.119
524.571, 6671.401
525.054, 6690.473
525.536, 6706.374
526.018, 6716.530
526.500, 6695.598
526.982, 6629.485
527.464, 6523.788
527.946, 6392.117
528.429, 6233.997
528.911, 6037.853
529.393, 5766.344
529.875, 5465.163
530.357, 5191.759
530.839, 4979.769
531.321, 4754.478
531.803, 4466.582
532.286, 4140.451
532.768, 3828.104
533.250, 3532.172
533.732, 3258.865
534.214, 3009.263
534.696, 2786.403
535.178, 2566.146
535.660, 2341.851
536.142, 2130.626
536.625, 1942.327
537.107, 1782.710
537.589, 1630.987
538.071, 1487.015
538.553, 1349.985
539.035, 1214.291
539.517, 1080.290
539.999, 958.484
540.481, 850.103
540.964, 756.349
541.446, 669.128
541.928, 590.511
542.410, 552.663
542.892, 476.055
543.374, 453.652
543.856, 418.093
544.338, 370.126
544.820, 272.450
545.303, 238.992
545.785, 179.820
546.267, 119.613
546.749, 81.051
547.231, 44.067
547.713, 15.330
548.195, 6.158
548.677, 26.130
549.159, 52.134
549.642, 69.327
550.124, 68.012
550.606, 39.087
551.088, 32.147
551.570, 55.720
552.052, 88.870
552.534, 106.799
553.016, 107.812
553.499, 114.925
553.981, 135.763
554.463, 160.716
554.945, 166.981
555.427, 156.893
555.909, 148.640
556.391, 159.646
556.873, 175.674
557.356, 172.360
557.838, 149.104
558.320, 125.895
558.802, 118.427
559.284, 116.899
559.766, 111.569
560.248, 98.340
560.730, 83.860
561.213, 67.001
561.695, 50.824
562.177, 41.209
562.659, 49.557
563.141, 53.123
563.623, 48.272
564.105, 34.995
564.587, 11.196
565.069, 28.695
565.552, 67.573
566.034, 93.606
566.516, 106.259
566.998, 115.537
567.480, 120.227
567.962, 126.522
568.444, 142.163
568.926, 166.598
569.408, 196.757
569.891, 235.163
570.373, 275.274
570.855, 310.963
571.337, 342.067
571.819, 369.101
572.301, 389.916
572.783, 408.215
573.265, 425.137
573.747, 440.389
574.230, 459.789
574.712, 493.955
575.194, 527.921
575.676, 549.417
576.158, 543.470
576.640, 545.440
577.122, 556.708
577.604, 576.307
578.086, 603.679
578.569, 641.592
579.051, 678.132
579.533, 709.049
580.015, 735.570
580.497, 764.731
580.979, 796.928
581.461, 824.861
581.943, 832.220
582.426, 832.762
582.908, 836.184
583.390, 828.666
583.872, 879.057
584.354, 915.387
584.836, 938.405
585.318, 908.277
585.800, 946.766
586.282, 957.747
586.765, 967.596
587.247, 1015.728
587.729, 993.297
588.211, 1040.801
588.693, 1060.381
589.175, 1092.731
589.657, 1097.410
590.140, 1110.633
590.622, 1151.524
591.104, 1146.294
591.586, 1152.558
592.068, 1169.722
592.550, 1185.507
593.032, 1198.461
593.514, 1211.673
593.996, 1233.356
594.479, 1260.422
594.961, 1278.300
595.443, 1273.271
595.925, 1265.670
596.407, 1283.021
596.889, 1319.673
597.371, 1355.108
597.853, 1382.673
598.335, 1402.485
598.818, 1412.768
599.300, 1412.291
599.782, 1411.867
600.264, 1417.325
600.746, 1421.442
601.228, 1417.649
601.710, 1388.604
602.192, 1384.682
602.674, 1415.072
603.157, 1464.207
603.639, 1507.937
604.121, 1546.965
604.603, 1574.504
605.085, 1587.396
605.567, 1587.892
606.049, 1574.067
606.531, 1547.325
607.013, 1530.625
607.496, 1548.655
607.978, 1582.485
608.460, 1605.114
608.942, 1612.905
609.424, 1621.687
609.906, 1650.791
610.388, 1680.997
610.870, 1693.580
611.353, 1670.584
611.835, 1650.131
612.317, 1640.953
612.799, 1638.842
613.281, 1634.719
613.763, 1618.615
614.245, 1618.517
614.727, 1648.509
615.209, 1700.251
615.692, 1720.748
616.174, 1704.535
616.656, 1692.855
617.138, 1716.722
617.620, 1764.809
618.102, 1787.127
618.584, 1783.011
619.067, 1777.442
619.549, 1799.519
620.031, 1833.474
620.513, 1848.809
620.995, 1821.917
621.477, 1826.304
621.959, 1804.994
622.441, 1890.780
622.923, 1952.967
623.406, 1991.269
623.888, 1932.548
624.370, 1999.380
624.852, 2016.701
625.334, 2032.659
625.816, 2089.855
626.298, 2105.254
626.780, 2100.525
627.263, 2078.462
627.745, 2100.060
628.227, 2170.076
628.709, 2244.851
629.191, 2286.211
629.673, 2303.392
630.155, 2319.621
630.637, 2338.349
631.119, 2356.182
631.602, 2366.468
632.084, 2374.747
632.566, 2390.498
633.048, 2423.463
633.530, 2458.205
634.012, 2484.611
634.494, 2507.960
634.976, 2543.391
635.458, 2604.202
635.941, 2662.258
636.423, 2713.318
636.905, 2757.090
637.387, 2771.070
637.869, 2745.187
638.351, 2720.848
638.833, 2730.746
639.315, 2769.615
639.797, 2802.509
640.280, 2828.102
640.762, 2843.514
641.244, 2837.334
641.726, 2819.958
642.208, 2810.782
642.690, 2818.269
643.172, 2829.954
643.654, 2841.469
644.137, 2851.238
644.619, 2856.904
645.101, 2868.492
645.583, 2865.051
646.065, 2834.023
646.547, 2781.378
647.029, 2737.121
647.511, 2703.500
647.994, 2668.717
648.476, 2630.405
648.958, 2587.930
649.440, 2525.789
649.922, 2439.670
650.404, 2356.421
650.886, 2312.694
651.368, 2288.975
651.851, 2235.261
652.333, 2140.805
652.815, 2038.064
653.297, 1954.425
653.779, 1880.724
654.261, 1804.788
654.743, 1724.763
655.225, 1640.843
655.707, 1552.477
656.190, 1460.156
656.672, 1363.144
657.154, 1254.358
657.636, 1153.856
658.118, 1064.070
658.600, 986.032
659.082, 929.054
659.564, 897.768
660.046, 858.775
660.529, 782.374
661.011, 681.311
661.493, 603.799
661.975, 550.976
662.457, 508.015
662.939, 460.258
663.421, 412.440
663.903, 368.170
664.385, 327.791
664.868, 297.231
665.350, 293.864
665.832, 298.829
666.314, 288.285
666.796, 245.880
667.278, 208.480
667.760, 181.093
668.242, 161.981
668.724, 145.541
669.207, 129.892
669.689, 122.516
670.171, 131.650
670.653, 146.850
671.135, 134.275
671.617, 96.704
672.099, 56.548
672.581, 20.137
673.064, 7.996
673.546, 20.771
674.028, 40.143
674.510, 11.991
674.992, 2.661
675.474, 5.750
675.956, 33.720
676.438, 14.214
676.920, 16.914
677.403, 22.888
677.885, 0.901
678.367, 33.642
678.849, 13.704
679.331, 1.253
679.813, 0.620
680.295, 7.987
680.778, 12.228
681.260, 13.064
681.742, 15.700
682.224, 29.125
682.706, 38.679
683.188, 20.008
683.670, 17.106
684.152, 41.801
684.634, 27.010
685.117, 8.957
685.599, 7.223
686.081, 22.576
686.563, 32.532
687.045, 28.184
687.527, 26.605
688.009, 27.636
688.491, 26.051
688.973, 3.366
689.456, 34.535
689.938, 52.558
690.420, 58.140
690.902, 14.186
691.384, 34.061
691.866, 28.272
692.348, 21.372
692.830, 50.058
693.312, 12.997
693.795, 40.993
694.277, 42.935
694.759, 38.791
695.241, 28.311
695.723, 48.754
696.205, 69.896
696.687, 99.335
697.169, 113.581
697.652, 101.855
698.134, 73.770
698.616, 67.494
699.098, 85.496
699.580, 99.026
700.062, 87.175
700.544, 63.654
701.026, 65.291
701.508, 89.077
701.991, 110.019
702.473, 115.738
702.955, 108.805
703.437, 82.471
703.919, 32.127
704.401, 6.127
704.883, 46.260
705.365, 95.216
705.847, 113.745
706.330, 85.757
706.812, 69.844
707.294, 69.620
707.776, 75.217
708.258, 72.974
708.740, 64.012
709.222, 67.083
709.705, 88.975
710.187, 113.531
710.669, 124.229
711.151, 122.458
711.633, 110.467
712.115, 72.435
712.597, 43.480
713.079, 52.705
713.561, 84.083
714.044, 98.054
714.526, 66.459
715.008, 41.111
715.490, 34.039
715.972, 41.830
716.454, 46.600
716.936, 47.887
717.418, 47.979
717.901, 45.500
718.383, 42.888
718.865, 33.722
719.347, 21.376
719.829, 3.323
720.311, 26.828
720.793, 43.576
721.275, 47.636
721.757, 1.219
722.240, 19.815
722.722, 12.252
723.204, 3.544
723.686, 31.074
724.168, 8.390
724.650, 18.407
725.132, 13.795
725.614, 1.043
726.096, 6.161
726.579, 7.819
727.061, 1.975
727.543, 14.412
728.025, 29.256
728.507, 24.028
728.989, 7.406
729.471, 4.481
729.953, 6.054
730.435, 7.165
730.918, 14.572
731.400, 22.084
731.882, 19.564
732.364, 16.254
732.846, 35.045
733.328, 16.819
733.810, 24.312
734.292, 28.525
734.775, 10.952
735.257, 48.748
735.739, 64.856
736.221, 63.864
736.703, 64.198
737.185, 65.241
737.667, 64.415
738.149, 58.142
738.631, 52.223
739.114, 46.468
739.596, 39.835
740.078, 43.587
740.560, 79.584
741.042, 116.409
741.524, 137.394
742.006, 139.689
742.489, 136.294
742.971, 122.551
743.453, 111.416
743.935, 115.930
744.417, 134.466
744.899, 154.392
745.381, 174.900
745.863, 193.128
746.345, 205.018
746.828, 213.336
747.310, 223.264
747.792, 237.629
748.274, 246.929
748.756, 216.566
749.238, 195.120
749.720, 180.558
750.202, 210.762
750.684, 230.338
751.167, 239.050
751.649, 206.851
752.131, 227.845
752.613, 227.389
753.095, 237.296
753.577, 258.591
754.059, 291.656
754.541, 328.360
755.023, 364.502
755.506, 389.893
755.988, 391.870
756.470, 391.195
756.952, 396.461
757.434, 405.363
757.916, 410.676
758.398, 403.120
758.880, 406.577
759.362, 430.521
759.845, 468.283
760.327, 496.164
760.809, 513.892
761.291, 527.957
761.773, 542.770
762.255, 555.516
762.737, 555.089
763.219, 546.865
763.702, 557.117
764.184, 538.871
764.666, 567.220
765.148, 584.169
765.630, 590.389
766.112, 553.619
766.594, 572.126
767.076, 568.417
767.558, 563.968
768.041, 578.373
768.523, 565.511
769.005, 590.038
769.487, 616.007
769.969, 616.942
770.451, 598.526
770.933, 567.146
771.416, 523.352
771.898, 485.168
772.380, 464.076
772.862, 452.549
773.344, 447.338
773.826, 453.909
774.308, 449.562
774.790, 430.328
775.272, 404.262
775.755, 377.416
776.237, 349.944
776.719, 320.802
777.201, 289.854
777.683, 256.912
778.165, 220.237
778.647, 185.020
779.129, 165.237
779.612, 166.049
780.094, 169.631
780.576, 167.442
781.058, 158.061
781.540, 141.545
782.022, 96.439
782.504, 71.637
782.986, 75.539
783.468, 88.228
783.951, 82.986
784.433, 59.512
784.915, 34.744
785.397, 12.407
785.879, 10.461
786.361, 46.692
786.843, 86.424
787.325, 106.699
787.807, 81.889
788.290, 59.899
788.772, 69.067
789.254, 95.800
789.736, 114.825
790.218, 123.151
790.700, 120.187
791.182, 100.262
791.664, 77.868
792.146, 83.421
792.629, 114.239
793.111, 133.407
793.593, 127.199
794.075, 110.914
794.557, 100.203
795.039, 95.523
795.521, 97.327
796.003, 122.190
796.485, 137.063
796.968, 116.298
797.450, 74.067
797.932, 56.811
798.414, 75.886
798.896, 94.054
799.378, 105.859
799.860, 109.469
800.343, 91.971
800.825, 55.922
801.307, 26.971
801.789, 22.662
802.271, 25.658
802.753, 22.537
803.235, 11.594
803.717, 12.903
804.199, 73.198
804.682, 126.887
805.164, 149.930
805.646, 150.738
806.128, 169.393
806.610, 213.678
807.092, 252.044
807.574, 266.334
808.056, 268.468
808.539, 299.297
809.021, 355.561
809.503, 414.226
809.985, 458.034
810.467, 501.562
810.949, 562.088
811.431, 636.173
811.913, 699.086
812.395, 729.230
812.878, 763.772
813.360, 813.609
813.842, 877.912
814.324, 952.411
814.806, 1038.326
815.288, 1122.387
815.770, 1195.074
816.252, 1261.402
816.734, 1333.237
817.217, 1410.232
817.699, 1494.566
818.181, 1601.258
818.663, 1703.799
819.145, 1778.137
819.627, 1823.736
820.109, 1892.739
820.591, 2001.287
821.073, 2113.429
821.556, 2215.599
822.038, 2310.266
822.520, 2412.658
823.002, 2523.275
823.484, 2639.896
823.966, 2759.711
824.448, 2883.129
824.930, 3007.022
825.413, 3132.724
825.895, 3261.815
826.377, 3397.260
826.859, 3536.566
827.341, 3677.010
827.823, 3819.854
828.305, 3955.487
828.787, 4076.906
829.269, 4209.646
829.752, 4375.912
830.234, 4562.623
830.716, 4698.385
831.198, 4789.719
831.680, 4899.314
832.162, 5083.668
832.644, 5291.133
833.127, 5481.284
833.609, 5652.422
834.091, 5819.703
834.573, 5979.442
835.055, 6141.234
835.537, 6311.418
836.019, 6488.729
836.501, 6665.383
836.983, 6839.995
837.466, 7021.899
837.948, 7212.150
838.430, 7412.715
838.912, 7638.592
839.394, 7883.633
839.876, 8121.551
840.358, 8329.745
840.840, 8532.536
841.322, 8741.075
841.805, 8956.056
842.287, 9174.776
842.769, 9396.331
843.251, 9617.896
843.733, 9834.846
844.215, 10050.150
844.697, 10283.114
845.179, 10532.001
845.661, 10778.168
846.144, 10995.702
846.626, 11210.177
847.108, 11445.973
847.590, 11699.099
848.072, 11946.622
848.554, 12177.847
849.036, 12409.521
849.518, 12645.022
850.000, 12884.068
850.483, 13130.179
850.965, 13388.638
851.447, 13624.684
851.929, 13815.237
852.411, 13983.592
852.893, 14157.760
853.375, 14343.191
853.857, 14549.233
854.340, 14821.227
854.822, 15081.299
855.304, 15280.936
855.786, 15437.470
856.268, 15632.819
856.750, 15895.920
857.232, 16120.638
857.714, 16260.078
858.196, 16361.950
858.679, 16548.057
859.161, 16801.396
859.643, 17035.576
860.125, 17193.807
860.607, 17342.125
861.089, 17531.061
861.571, 17745.100
862.054, 17948.432
862.536, 18143.256
863.018, 18314.531
863.500, 18455.459
863.982, 18576.117
864.464, 18708.311
864.946, 18850.756
865.428, 18954.242
865.910, 18986.742
866.393, 19012.977
866.875, 19111.383
867.357, 19259.516
867.839, 19419.449
868.321, 19632.982
868.803, 19788.254
869.285, 19803.055
869.767, 19773.215
870.250, 19829.303
870.732, 20003.896
871.214, 20105.123
871.696, 20091.674
872.178, 20040.820
872.660, 20073.996
873.142, 20151.609
873.624, 20183.867
874.106, 20141.035
874.589, 20071.520
875.071, 19998.330
875.553, 19912.520
876.035, 19802.135
876.517, 19664.648
876.999, 19512.605
877.481, 19350.674
877.963, 19163.828
878.445, 18934.428
878.928, 18666.963
879.410, 18381.725
879.892, 18080.117
880.374, 17763.094
880.856, 17418.879
881.338, 17063.678
881.820, 16715.189
882.302, 16383.814
882.784, 16031.811
883.267, 15658.075
883.749, 15262.758
884.231, 14837.900
884.713, 14386.556
885.195, 13960.821
885.677, 13562.441
886.159, 13188.296
886.641, 12852.850
887.123, 12527.095
887.606, 12176.396
888.088, 11803.648
888.570, 11427.288
889.052, 11042.222
889.534, 10666.049
890.016, 10311.173
890.498, 9975.079
890.981, 9635.634
891.463, 9286.380
891.945, 8966.677
892.427, 8710.810
892.909, 8485.310
893.391, 8245.456
893.873, 7990.922
894.355, 7729.863
894.837, 7441.039
895.320, 7176.847
895.802, 6973.792
896.284, 6808.241
896.766, 6607.857
897.248, 6367.711
897.730, 6122.726
898.212, 5883.102
898.694, 5652.676
899.177, 5449.770
899.659, 5264.253
900.141, 5084.223
900.623, 4912.136
901.105, 4739.583
901.587, 4551.716
902.069, 4360.795
902.551, 4191.896
903.033, 4050.896
903.516, 3919.059
903.998, 3800.674
904.480, 3682.160
904.962, 3532.705
905.444, 3366.886
905.926, 3228.116
906.408, 3134.145
906.890, 3042.604
907.372, 2921.999
907.855, 2791.070
908.337, 2666.529
908.819, 2542.683
909.301, 2446.534
909.783, 2389.536
910.265, 2333.740
910.747, 2240.727
911.229, 2119.836
911.711, 2003.944
912.194, 1895.819
912.676, 1806.108
913.158, 1757.576
913.640, 1720.414
914.122, 1672.786
914.604, 1611.368
915.086, 1548.917
915.568, 1482.059
916.050, 1421.748
916.533, 1377.306
917.015, 1343.432
917.497, 1292.503
917.979, 1227.264
918.461, 1164.686
918.943, 1120.418
919.425, 1077.967
919.907, 1019.912
920.390, 952.593
920.872, 899.916
921.354, 870.144
921.836, 845.621
922.318, 823.998
922.800, 803.685
923.282, 784.582
923.764, 764.896
924.247, 729.388
924.729, 660.866
925.211, 598.958
925.693, 592.987
926.175, 611.365
926.657, 610.522
927.139, 559.120
927.621, 510.062
928.104, 421.648
928.586, 394.175
929.068, 347.227
929.550, 353.436
930.032, 346.763
930.514, 327.884
930.996, 260.240
931.478, 255.589
931.960, 225.700
932.443, 194.774
932.925, 185.109
933.407, 151.771
933.889, 126.063
934.371, 98.928
934.853, 60.089
935.335, 13.771
935.817, 7.122
936.299, 3.922
936.782, 2.771
937.264, 3.087
937.746, 8.419
938.228, 3.805
938.710, 27.993
939.192, 35.047
939.674, 8.532
940.156, 15.257
940.638, 29.927
941.121, 35.694
941.603, 25.769
942.085, 4.320
942.567, 0.544
943.049, 27.574
943.531, 60.725
944.013, 79.636
944.495, 88.297
944.978, 92.817
945.460, 88.768
945.942, 89.602
946.424, 96.713
946.906, 106.704
947.388, 119.875
947.870, 133.746
948.352, 130.853
948.834, 108.775
949.317, 89.603
949.799, 95.959
950.281, 107.610
950.763, 106.464
951.245, 88.180
951.727, 80.772
952.209, 89.781
952.692, 98.419
953.174, 99.018
953.656, 92.828
954.138, 80.686
954.620, 64.420
955.102, 53.564
955.584, 68.526
956.066, 75.404
956.548, 36.083
957.031, 25.621
957.513, 39.287
957.995, 22.175
958.477, 64.313
958.959, 69.583
959.441, 50.965
959.923, 16.855
960.405, 23.264
960.888, 38.987
961.370, 12.278
961.852, 4.541
962.334, 24.334
962.816, 71.458
963.298, 113.327
963.780, 153.257
964.262, 169.178
964.744, 156.065
965.227, 139.102
965.709, 136.261
966.191, 144.601
966.673, 162.409
967.155, 187.796
967.637, 207.408
968.119, 205.826
968.601, 206.359
969.083, 220.460
969.566, 245.177
970.048, 268.156
970.530, 289.193
971.012, 313.660
971.494, 347.905
971.976, 379.198
972.458, 381.222
972.940, 369.009
973.422, 371.165
973.905, 403.261
974.387, 441.488
974.869, 485.442
975.351, 530.125
975.833, 568.718
976.315, 600.832
976.797, 642.925
977.279, 697.679
977.761, 745.424
978.244, 759.557
978.726, 767.100
979.208, 793.128
979.690, 837.279
980.172, 882.225
980.654, 934.979
981.136, 984.518
981.619, 1022.192
982.101, 1048.305
982.583, 1075.821
983.065, 1107.813
983.547, 1153.203
984.029, 1223.366
984.511, 1297.059
984.993, 1360.811
985.475, 1418.606
985.958, 1478.969
986.440, 1541.511
986.922, 1609.399
987.404, 1683.894
987.886, 1766.036
988.368, 1858.722
988.850, 1959.780
989.332, 2063.770
989.815, 2170.104
990.297, 2283.556
990.779, 2410.218
991.261, 2541.939
991.743, 2669.747
992.225, 2793.469
992.707, 2946.672
993.189, 3132.100
993.671, 3312.188
994.154, 3451.779
994.636, 3587.258
995.118, 3791.487
995.600, 4040.577
996.082, 4275.644
996.564, 4441.121
997.046, 4628.766
997.528, 4862.749
998.010, 5125.042
998.493, 5391.248
998.975, 5662.399
999.457, 5925.608
999.939, 6175.347
1000.421, 6433.791
1000.903, 6673.482
1001.385, 6962.242
1001.867, 7409.155
1002.349, 8061.013
1002.832, 8615.484
1003.314, 9035.304
1003.796, 9385.731
1004.278, 9678.566
1004.760, 9926.352
1005.242, 10130.531
1005.724, 10309.892
1006.206, 10547.551
1006.689, 10956.056
1007.171, 11364.044
1007.653, 11694.170
1008.135, 11956.954
1008.617, 12195.292
1009.099, 12416.602
1009.581, 12601.763
1010.063, 12749.397
1010.545, 12853.305
1011.028, 12919.938
1011.510, 12930.873
1011.992, 12862.198
1012.474, 12711.990
1012.956, 12460.331
1013.438, 12033.741
1013.920, 11564.515
1014.402, 11121.800
1014.885, 10698.896
1015.367, 10222.844
1015.849, 9696.329
1016.331, 9133.270
1016.813, 8521.747
1017.295, 7911.737
1017.777, 7357.640
1018.259, 6837.571
1018.741, 6301.964
1019.224, 5714.084
1019.706, 5167.544
1020.188, 4675.327
1020.670, 4220.558
1021.152, 3776.701
1021.634, 3352.470
1022.116, 2979.034
1022.598, 2663.494
1023.081, 2371.778
1023.563, 2082.373
1024.045, 1814.545
1024.527, 1577.428
1025.009, 1370.123
1025.491, 1201.285
1025.973, 1074.280
1026.455, 953.930
1026.938, 826.352
1027.420, 701.456
1027.902, 593.112
1028.384, 498.211
1028.866, 410.752
1029.348, 327.157
1029.830, 256.137
1030.312, 200.257
1030.794, 154.436
1031.276, 112.747
1031.759, 76.777
1032.241, 61.101
1032.723, 66.300
1033.205, 73.267
1033.687, 75.421
1034.169, 69.190
1034.651, 49.333
1035.133, 17.445
1035.616, 17.235
1036.098, 61.929
1036.580, 76.686
1037.062, 38.729
1037.544, 11.846
1038.026, 1.110
1038.508, 40.815
1038.990, 57.194
1039.473, 18.368
1039.955, 9.945
1040.437, 4.039
1040.919, 6.228
1041.401, 3.466
1041.883, 31.484
1042.365, 35.126
1042.847, 16.452
1043.329, 7.221
1043.812, 11.620
1044.294, 27.629
1044.776, 52.753
1045.258, 64.508
1045.740, 22.896
1046.222, 50.165
1046.704, 49.808
1047.186, 48.308
1047.668, 85.231
1048.151, 51.334
1048.633, 87.625
1049.115, 90.738
1049.597, 105.726
1050.079, 121.078
1050.561, 120.965
1051.043, 132.714
1051.525, 177.302
1052.008, 246.879
1052.490, 275.119
1052.972, 264.937
1053.454, 249.832
1053.936, 244.436
1054.418, 242.273
1054.900, 239.696
1055.382, 236.644
1055.865, 232.856
1056.347, 227.053
1056.829, 223.376
1057.311, 221.924
1057.793, 222.232
1058.275, 221.774
1058.757, 223.643
1059.239, 235.262
1059.721, 256.344
1060.203, 276.134
1060.686, 290.427
1061.168, 303.947
1061.650, 321.924
1062.132, 338.133
1062.614, 331.803
1063.096, 305.764
1063.578, 278.351
1064.060, 250.124
1064.543, 234.751
1065.025, 247.022
1065.507, 274.113
1065.989, 307.012
1066.471, 349.657
1066.953, 367.681
1067.435, 357.019
1067.917, 343.460
1068.400, 337.303
1068.882, 342.593
1069.364, 378.220
1069.846, 430.979
1070.328, 462.290
1070.810, 436.479
1071.292, 419.799
1071.774, 420.636
1072.256, 433.594
1072.739, 458.465
1073.221, 489.766
1073.703, 501.165
1074.185, 488.430
1074.667, 482.006
1075.149, 513.609
1075.631, 545.064
1076.113, 550.196
1076.596, 534.069
1077.078, 524.560
1077.560, 522.464
1078.042, 516.071
1078.524, 496.617
1079.006, 482.259
1079.488, 507.271
1079.970, 544.318
1080.453, 553.665
1080.935, 506.645
1081.417, 480.398
1081.899, 481.797
1082.381, 488.394
1082.863, 487.316
1083.345, 478.401
1083.827, 455.422
1084.309, 422.640
1084.792, 398.988
1085.274, 401.349
1085.756, 402.685
1086.238, 393.042
1086.720, 379.818
1087.202, 374.496
1087.684, 376.457
1088.166, 379.919
1088.648, 384.690
1089.131, 384.788
1089.613, 370.752
1090.095, 354.114
1090.577, 344.517
1091.059, 342.124
1091.541, 338.865
1092.023, 334.254
1092.505, 330.863
1092.988, 330.809
1093.470, 327.000
1093.952, 310.421
1094.434, 287.032
1094.916, 262.430
1095.398, 228.464
1095.880, 213.020
1096.362, 225.938
1096.844, 237.519
1097.327, 224.165
1097.809, 196.018
1098.291, 193.698
1098.773, 209.978
1099.255, 217.387
1099.737, 190.233
1100.219, 165.872
1100.701, 156.225
1101.183, 156.444
1101.666, 165.105
1102.148, 183.547
1102.630, 184.502
1103.112, 165.068
1103.594, 141.012
1104.076, 93.006
1104.558, 72.688
1105.040, 65.589
1105.523, 21.097
1106.005, 77.989
1106.487, 110.281
1106.969, 119.298
1107.451, 35.297
1107.933, 71.434
1108.415, 59.439
1108.897, 45.481
1109.380, 98.562
1109.862, 28.146
1110.344, 80.182
1110.826, 83.353
1111.308, 108.904
1111.790, 76.025
1112.272, 76.926
1112.754, 107.740
1113.236, 155.015
1113.719, 179.107
1114.201, 141.754
1114.683, 110.565
1115.165, 98.316
1115.647, 99.961
1116.129, 119.594
1116.611, 153.177
1117.093, 155.168
1117.575, 126.347
1118.058, 99.694
1118.540, 94.704
1119.022, 98.655
1119.504, 107.762
1119.986, 119.675
1120.468, 130.213
1120.950, 139.426
1121.432, 148.777
1121.915, 159.259
1122.397, 166.479
1122.879, 162.226
1123.361, 156.030
1123.843, 159.966
1124.325, 175.024
1124.807, 177.223
1125.289, 164.583
1125.771, 143.627
1126.254, 109.645
1126.736, 81.577
1127.218, 98.330
1127.700, 136.955
1128.182, 156.835
1128.664, 137.056
1129.146, 137.523
1129.628, 171.005
1130.110, 209.141
1130.593, 240.031
1131.075, 261.060
1131.557, 258.572
1132.039, 238.776
1132.521, 221.896
1133.003, 217.646
1133.485, 216.542
1133.967, 223.042
1134.450, 224.966
1134.932, 206.391
1135.414, 170.881
1135.896, 144.115
1136.378, 127.240
1136.860, 119.064
1137.342, 129.500
1137.824, 137.514
1138.307, 126.707
1138.789, 107.885
1139.271, 101.144
1139.753, 106.586
1140.235, 116.768
1140.717, 131.792
1141.199, 136.252
1141.681, 101.367
1142.163, 61.963
1142.646, 49.761
1143.128, 63.574
1143.610, 74.013
1144.092, 82.630
1144.574, 76.037
1145.056, 46.110
1145.538, 11.948
1146.020, 3.898
1146.502, 8.967
1146.985, 11.236
1147.467, 9.729
1147.949, 15.598
1148.431, 31.530
1148.913, 45.574
1149.395, 52.122
1149.877, 52.871
1150.359, 47.184
1150.842, 38.826
1151.324, 35.988
1151.806, 53.525
1152.288, 53.032
1152.770, 23.869
1153.252, 5.458
1153.734, 7.716
1154.216, 6.317
1154.698, 4.680
1155.181, 9.623
1155.663, 22.331
1156.145, 25.872
1156.627, 29.063
1157.109, 30.948
1157.591, 36.956
1158.073, 58.086
1158.555, 89.975
1159.037, 112.196
1159.520, 123.542
1160.002, 126.391
1160.484, 106.606
1160.966, 96.934
1161.448, 117.196
1161.930, 151.271
1162.412, 163.740
1162.894, 157.132
1163.377, 153.952
1163.859, 156.742
1164.341, 145.328
1164.823, 182.300
1165.305, 207.526
1165.787, 221.635
1166.269, 191.362
1166.751, 218.503
1167.234, 222.729
1167.716, 225.970
1168.198, 248.561
1168.680, 255.859
1169.162, 287.604
1169.644, 324.410
1170.126, 347.093
1170.608, 355.207
1171.090, 360.392
1171.573, 361.861
1172.055, 370.838
1172.537, 396.539
1173.019, 425.367
1173.501, 442.759
1173.983, 454.310
1174.465, 468.044
1174.947, 484.509
1175.430, 504.787
1175.912, 530.253
1176.394, 548.199
1176.876, 541.286
1177.358, 529.477
1177.840, 540.727
1178.322, 564.181
1178.804, 575.181
1179.286, 566.140
1179.769, 556.090
1180.251, 544.324
1180.733, 536.975
1181.215, 542.504
1181.697, 554.556
1182.179, 565.725
1182.661, 575.768
1183.143, 585.375
1183.625, 596.917
1184.108, 599.407
1184.590, 591.699
1185.072, 580.082
1185.554, 567.036
1186.036, 547.319
1186.518, 511.306
1187.000, 459.375
1187.482, 437.560
1187.965, 476.761
1188.447, 504.163
1188.929, 498.012
1189.411, 481.694
1189.893, 487.830
1190.375, 501.127
1190.857, 493.597
1191.339, 459.547
1191.822, 443.322
1192.304, 472.151
1192.786, 486.886
1193.268, 462.868
1193.750, 422.186
1194.232, 411.848
1194.714, 418.803
1195.196, 412.083
1195.678, 379.154
1196.161, 358.760
1196.643, 364.396
1197.125, 373.895
1197.607, 378.149
1198.089, 379.373
1198.571, 382.372
1199.053, 386.077
1199.535, 389.035
1200.017, 391.776
1200.500, 391.737
1200.982, 390.723
1201.464, 383.877
1201.946, 364.606
1202.428, 338.293
1202.910, 325.733
1203.392, 322.746
1203.874, 317.164
1204.357, 300.958
1204.839, 286.633
1205.321, 269.041
1205.803, 263.853
1206.285, 295.314
1206.767, 349.733
1207.249, 366.750
1207.731, 351.407
1208.214, 324.948
1208.696, 277.389
1209.178, 247.076
1209.660, 244.642
1210.142, 253.497
1210.624, 256.442
1211.106, 256.628
1211.588, 274.513
1212.070, 305.229
1212.552, 316.328
1213.035, 265.544
1213.517, 231.032
1213.999, 236.483
1214.481, 256.675
1214.963, 264.415
1215.445, 259.755
1215.927, 236.741
1216.409, 197.673
1216.892, 167.963
1217.374, 171.223
1217.856, 170.495
1218.338, 153.354
1218.820, 131.476
1219.302, 123.850
1219.784, 126.973
1220.266, 129.715
1220.749, 130.941
1221.231, 134.812
1221.713, 152.434
1222.195, 160.562
1222.677, 150.683
1223.159, 130.221
1223.641, 108.784
1224.123, 88.722
1224.605, 79.803
1225.088, 84.450
1225.570, 81.721
1226.052, 48.713
1226.534, 26.682
1227.016, 31.157
1227.498, 49.268
1227.980, 52.007
1228.462, 46.504
1228.944, 54.366
1229.427, 83.586
1229.909, 97.175
1230.391, 70.274
1230.873, 47.208
1231.355, 46.158
1231.837, 56.491
1232.319, 52.019
1232.801, 41.112
1233.284, 41.562
1233.766, 61.242
1234.248, 76.595
1234.730, 86.808
1235.212, 84.799
1235.694, 62.212
1236.176, 30.987
1236.658, 15.341
1237.141, 11.394
1237.623, 15.843
1238.105, 28.602
1238.587, 29.966
1239.069, 13.641
1239.551, 3.894
1240.033, 15.859
1240.515, 21.584
1240.997, 11.787
1241.479, 3.786
1241.962, 2.979
1242.444, 39.946
1242.926, 46.010
1243.408, 6.428
1243.890, 21.433
1244.372, 1.125
1244.854, 14.539
1245.336, 19.295
1245.819, 10.453
1246.301, 3.707
1246.783, 22.612
1247.265, 15.305
1247.747, 35.055
1248.229, 81.296
1248.711, 89.817
1249.193, 78.248
1249.676, 62.353
1250.158, 47.228
1250.640, 45.224
1251.122, 67.265
1251.604, 75.686
1252.086, 68.528
1252.568, 61.667
1253.050, 69.512
1253.532, 81.067
1254.015, 89.142
1254.497, 90.937
1254.979, 77.971
1255.461, 41.774
1255.943, 25.870
1256.425, 31.767
1256.907, 49.979
1257.389, 86.698
1257.871, 119.312
1258.354, 125.084
1258.836, 114.274
1259.318, 106.793
1259.800, 101.693
1260.282, 107.274
1260.764, 123.201
1261.246, 137.010
1261.728, 137.301
1262.211, 135.791
1262.693, 147.882
1263.175, 157.822
1263.657, 138.149
1264.139, 88.666
1264.621, 66.458
1265.103, 73.634
1265.585, 86.764
1266.068, 96.701
1266.550, 104.315
1267.032, 107.740
1267.514, 101.951
1267.996, 87.885
1268.478, 75.150
1268.960, 67.875
1269.442, 85.491
1269.924, 102.263
1270.407, 94.245
1270.889, 78.201
1271.371, 59.452
1271.853, 54.633
1272.335, 81.236
1272.817, 125.415
1273.299, 144.004
1273.781, 136.330
1274.264, 135.873
1274.746, 174.506
1275.228, 191.057
1275.710, 169.482
1276.192, 137.633
1276.674, 116.488
1277.156, 103.012
1277.638, 101.274
1278.120, 109.319
1278.603, 105.814
1279.085, 72.859
1279.567, 58.432
1280.049, 72.042
1280.531, 93.806
1281.013, 100.144
1281.495, 95.559
1281.977, 84.188
1282.459, 69.965
1282.942, 52.434
1283.424, 26.696
1283.906, 15.487
1284.388, 21.562
1284.870, 32.244
1285.352, 35.373
1285.834, 38.635
1286.316, 53.911
1286.799, 74.461
1287.281, 71.041
1287.763, 44.307
1288.245, 47.812
1288.727, 89.275
1289.209, 113.553
1289.691, 53.280
1290.173, 4.261
1290.656, 0.312
1291.138, 37.774
1291.620, 49.333
1292.102, 41.264
1292.584, 27.768
1293.066, 26.089
1293.548, 25.163
1294.030, 19.853
1294.512, 0.000
##END=



