##NAMES=Senarmontite
##RRUFFID=R060002
##IDEAL CHEMISTRY=Sb_2_O_3_
##LOCALITY=Chenlong, Xin Yi County, Guizhou Province, China
##OWNER=RRUFF
##SOURCE=Ken Roberts
##DESCRIPTION=Glassy coating over an altered stibnite crystal, mixed with cervantite
##STATUS=The identification of this mineral has been confirmed by X-ray diffraction and chemical analysis
##URL=rruff.info/R060002
##MEASURED CHEMISTRY=core and light rim: (Sb_1.99_As_0.01_)_Î£=2_O_3_
121.0265, 0.0000000E+00
121.5086, 2.097412
121.9907, 1.650146
122.4728, 2.919434
122.9550, 6.370361
123.4371, 8.277588
123.9192, 8.665527
124.4013, 6.810059
124.8834, 3.850830
125.3655, 1.991211
125.8476, 1.279785
126.3298, 1.932617
126.8119, 0.1657710
127.2940, 0.8330080
127.7761, 0.7587890
128.2582, 2.751709
128.7404, 4.019287
129.2225, 4.261719
129.7046, 3.560791
130.1867, 1.711182
130.6688, 2.924072
131.1509, 5.467041
131.6331, 4.537109
132.1152, 1.935303
132.5973, 0.8759770
133.0794, 3.188477
133.5615, 5.018311
134.0436, 6.385254
134.5258, 6.781250
135.0079, 7.210938
135.4900, 7.761719
135.9721, 8.431396
136.4542, 9.026367
136.9363, 9.274414
137.4185, 9.338135
137.9006, 11.51025
138.3827, 18.57764
138.8648, 24.77393
139.3469, 26.63647
139.8290, 24.61816
140.3112, 22.29932
140.7933, 22.67993
141.2754, 25.45923
141.7575, 27.07690
142.2396, 26.37549
142.7217, 24.92554
143.2039, 24.65527
143.6860, 25.99365
144.1681, 27.07520
144.6502, 26.00317
145.1323, 23.48169
145.6144, 20.85425
146.0966, 18.50977
146.5787, 16.45654
147.0608, 14.48804
147.5429, 11.59863
148.0250, 10.41211
148.5071, 13.22900
148.9893, 18.88892
149.4714, 24.16992
149.9535, 26.16650
150.4356, 24.55737
150.9177, 23.65479
151.3998, 24.40015
151.8820, 25.15576
152.3641, 24.64502
152.8462, 23.23926
153.3283, 22.67334
153.8104, 25.38892
154.2925, 33.47705
154.7747, 38.94604
155.2568, 39.43872
155.7389, 39.59717
156.2210, 42.66016
156.7031, 49.11353
157.1852, 56.83618
157.6673, 62.47241
158.1495, 63.78369
158.6316, 66.69287
159.1137, 71.56323
159.5958, 77.79736
160.0779, 84.94360
160.5600, 92.88745
161.0422, 101.4143
161.5243, 110.0461
162.0064, 118.1804
162.4885, 127.6562
162.9706, 139.6982
163.4527, 153.3281
163.9349, 166.6301
164.4170, 178.8357
164.8991, 190.4226
165.3812, 202.0872
165.8633, 213.2876
166.3454, 226.0603
166.8276, 242.6978
167.3097, 262.6113
167.7918, 281.6484
168.2739, 297.1235
168.7560, 311.6660
169.2381, 328.2517
169.7203, 347.2698
170.2024, 367.8633
170.6845, 389.1208
171.1666, 410.7668
171.6487, 434.3015
172.1308, 462.0396
172.6130, 490.9685
173.0951, 518.3979
173.5772, 543.2173
174.0593, 567.7463
174.5414, 596.8184
175.0235, 633.2822
175.5057, 668.1626
175.9878, 698.1206
176.4699, 726.4309
176.9520, 756.2583
177.4341, 788.9373
177.9162, 823.9819
178.3984, 860.5928
178.8805, 902.3088
179.3626, 940.2217
179.8447, 970.6772
180.3268, 997.7339
180.8089, 1026.763
181.2911, 1060.699
181.7732, 1098.589
182.2553, 1135.454
182.7374, 1169.784
183.2195, 1204.952
183.7016, 1243.187
184.1838, 1282.672
184.6659, 1319.971
185.1480, 1352.975
185.6301, 1382.271
186.1122, 1412.256
186.5943, 1442.116
187.0765, 1473.062
187.5586, 1506.404
188.0407, 1541.371
188.5228, 1575.964
189.0049, 1609.236
189.4870, 1640.636
189.9692, 1669.022
190.4513, 1693.249
190.9334, 1715.480
191.4155, 1737.354
191.8976, 1758.703
192.3797, 1778.307
192.8619, 1796.018
193.3440, 1810.842
193.8261, 1820.839
194.3082, 1825.570
194.7903, 1825.497
195.2724, 1820.071
195.7546, 1808.777
196.2367, 1795.866
196.7188, 1786.642
197.2009, 1776.991
197.6830, 1760.434
198.1651, 1733.477
198.6473, 1699.701
199.1294, 1664.645
199.6115, 1628.326
200.0936, 1590.696
200.5757, 1552.402
201.0578, 1512.702
201.5400, 1469.954
202.0221, 1422.860
202.5042, 1372.818
202.9863, 1323.167
203.4684, 1274.543
203.9505, 1225.731
204.4327, 1174.948
204.9148, 1123.909
205.3969, 1074.860
205.8790, 1028.990
206.3611, 985.9170
206.8432, 942.6172
207.3254, 897.8381
207.8075, 854.3518
208.2896, 811.6963
208.7717, 770.9329
209.2538, 733.4727
209.7359, 700.6907
210.2181, 671.9805
210.7002, 643.0281
211.1823, 610.6436
211.6644, 581.4214
212.1465, 558.8616
212.6286, 540.2544
213.1108, 520.8516
213.5929, 497.3684
214.0750, 470.1531
214.5571, 445.1311
215.0392, 421.6729
215.5213, 400.5820
216.0035, 383.4377
216.4856, 369.0276
216.9677, 355.0684
217.4498, 339.9146
217.9319, 323.8296
218.4140, 308.8164
218.8962, 294.6362
219.3783, 281.6206
219.8604, 270.5830
220.3425, 260.9346
220.8246, 250.8750
221.3067, 239.0569
221.7889, 225.7957
222.2710, 213.3218
222.7531, 201.0149
223.2352, 189.9451
223.7173, 180.9229
224.1994, 173.7222
224.6816, 167.1858
225.1637, 160.7173
225.6458, 154.2737
226.1279, 148.1306
226.6100, 143.5393
227.0921, 138.1707
227.5743, 129.0168
228.0564, 116.4287
228.5385, 105.6406
229.0206, 100.2007
229.5027, 98.41040
229.9848, 96.39917
230.4670, 94.06738
230.9491, 91.02881
231.4312, 86.59814
231.9133, 80.76367
232.3954, 75.24365
232.8775, 70.47217
233.3597, 66.70728
233.8418, 64.70947
234.3239, 65.47729
234.8060, 66.29883
235.2881, 63.34351
235.7702, 55.93188
236.2524, 49.96362
236.7345, 49.21509
237.2166, 50.71582
237.6987, 51.87305
238.1808, 51.98755
238.6629, 51.72925
239.1451, 52.28662
239.6272, 54.02759
240.1093, 54.66211
240.5914, 51.92725
241.0735, 49.07568
241.5556, 48.16553
242.0378, 49.46582
242.5199, 51.95801
243.0020, 54.95630
243.4841, 59.27002
243.9662, 61.62085
244.4483, 59.43872
244.9305, 56.43945
245.4126, 54.79639
245.8947, 54.95850
246.3768, 56.24829
246.8589, 58.27124
247.3410, 61.91650
247.8232, 63.51782
248.3053, 60.19580
248.7874, 56.65283
249.2695, 56.31738
249.7516, 59.59155
250.2337, 63.77466
250.7159, 64.83203
251.1980, 60.83228
251.6801, 58.81079
252.1622, 61.29175
252.6443, 64.08276
253.1264, 64.21167
253.6086, 61.52368
254.0907, 58.28076
254.5728, 57.48364
255.0549, 60.29688
255.5370, 61.93896
256.0191, 61.41357
256.5013, 60.72998
256.9834, 61.16528
257.4655, 62.71826
257.9476, 64.45532
258.4297, 65.32739
258.9118, 65.09595
259.3940, 64.79224
259.8761, 64.91479
260.3582, 64.55786
260.8403, 62.56494
261.3224, 59.35547
261.8045, 56.68750
262.2867, 56.54224
262.7688, 59.75244
263.2509, 60.39697
263.7330, 56.75879
264.2151, 52.45947
264.6972, 48.69800
265.1794, 45.81860
265.6615, 44.11182
266.1436, 44.14722
266.6257, 46.08154
267.1078, 46.10474
267.5899, 43.00708
268.0721, 39.56982
268.5542, 36.71436
269.0363, 34.56128
269.5184, 33.10449
270.0005, 32.50806
270.4826, 32.65088
270.9648, 31.66187
271.4469, 28.49463
271.9290, 25.59668
272.4111, 23.64111
272.8932, 22.60815
273.3753, 22.61401
273.8575, 24.05396
274.3396, 26.32886
274.8217, 26.17432
275.3038, 21.80444
275.7859, 17.54517
276.2680, 14.51929
276.7502, 12.53687
277.2323, 11.29565
277.7144, 10.80859
278.1965, 10.73438
278.6786, 10.08667
279.1607, 8.535645
279.6429, 7.332275
280.1250, 7.574463
280.6071, 8.301514
281.0892, 7.398682
281.5713, 3.750977
282.0534, 0.8085940
282.5356, 2.251709
283.0177, 0.3906250
283.4998, 2.083496
283.9819, 0.2675780
284.4640, 2.911865
284.9461, 3.689453
285.4283, 0.7268070
285.9104, 3.125488
286.3925, 3.405518
286.8746, 0.1774900
287.3567, 3.115479
287.8388, 4.210938
288.3210, 4.310059
288.8031, 4.428223
289.2852, 4.757080
289.7673, 5.070313
290.2494, 4.957275
290.7315, 4.466309
291.2137, 4.435303
291.6958, 5.751709
292.1779, 7.185303
292.6600, 6.948975
293.1421, 4.819824
293.6242, 3.067871
294.1064, 4.069824
294.5885, 7.219482
295.0706, 9.040283
295.5527, 8.475342
296.0348, 6.973145
296.5169, 5.269531
296.9991, 3.447998
297.4812, 2.777588
297.9633, 5.006592
298.4454, 8.791016
298.9275, 10.01416
299.4096, 7.303223
299.8918, 3.428955
300.3739, 0.4951170
300.8560, 4.267578
301.3381, 6.309570
301.8202, 5.259277
302.3023, 2.474854
302.7845, 0.8432620
303.2666, 0.7956540
303.7487, 0.9218750
304.2308, 0.4443360
304.7129, 0.4846190
305.1950, 1.341553
305.6772, 1.895508
306.1593, 2.390625
306.6414, 3.499268
307.1235, 5.440186
307.6056, 6.315674
308.0877, 4.187744
308.5699, 0.4572750
309.0520, 1.421143
309.5341, 0.3156740
310.0162, 1.703125
310.4983, 2.383545
310.9804, 1.949951
311.4626, 1.273926
311.9447, 0.7055660
312.4268, 5.5907998E-02
312.9089, 1.186279
313.3910, 3.239502
313.8731, 4.933105
314.3553, 4.899414
314.8374, 3.622803
315.3195, 2.621094
315.8016, 2.364746
316.2837, 2.394287
316.7658, 2.075684
317.2480, 1.372559
317.7301, 1.177246
318.2122, 2.800049
318.6943, 5.088135
319.1764, 5.216797
319.6585, 1.218994
320.1407, 2.736572
320.6228, 2.929443
321.1049, 0.1538090
321.5870, 2.884766
322.0691, 3.893799
322.5512, 3.520264
323.0334, 2.437256
323.5155, 0.3630370
323.9976, 1.409424
324.4797, 1.884277
324.9618, 1.461426
325.4439, 1.434814
325.9261, 2.362305
326.4082, 3.426514
326.8903, 3.395508
327.3724, 2.285645
327.8545, 1.482178
328.3366, 1.763672
328.8188, 2.601318
329.3009, 3.160889
329.7830, 3.331543
330.2651, 3.239014
330.7472, 2.843750
331.2293, 2.231934
331.7115, 1.854980
332.1936, 2.215820
332.6757, 2.605225
333.1578, 2.027832
333.6399, 0.4370120
334.1220, 0.8283690
334.6042, 0.5815430
335.0863, 0.6560060
335.5684, 0.8610840
336.0505, 0.6979980
336.5326, 2.636475
337.0147, 4.134766
337.4969, 5.268311
337.9790, 6.402832
338.4611, 7.823730
338.9432, 9.205811
339.4253, 9.816406
339.9074, 9.462891
340.3896, 8.863037
340.8717, 8.093018
341.3538, 7.360596
341.8359, 7.215088
342.3180, 7.751221
342.8001, 8.730957
343.2823, 10.12915
343.7644, 11.93506
344.2465, 13.21216
344.7286, 13.58032
345.2107, 13.27661
345.6928, 12.69604
346.1750, 11.94531
346.6571, 11.09766
347.1392, 9.981445
347.6213, 8.665283
348.1034, 8.660645
348.5855, 11.70459
349.0677, 14.61475
349.5498, 15.00537
350.0319, 13.18994
350.5140, 11.07715
350.9961, 9.757813
351.4782, 9.129150
351.9604, 8.595947
352.4425, 7.067383
352.9246, 6.660889
353.4067, 10.03979
353.8888, 14.90723
354.3709, 16.61353
354.8531, 13.18066
355.3352, 7.100098
355.8173, 2.890869
356.2994, 0.5896000
356.7815, 4.6875000E-02
357.2636, 2.504395
357.7458, 6.322021
358.2279, 9.508301
358.7100, 11.59692
359.1921, 13.38232
359.6742, 16.01855
360.1563, 19.94312
360.6385, 21.18970
361.1206, 17.11597
361.6027, 13.16089
362.0848, 12.32861
362.5669, 14.17407
363.0490, 16.62622
363.5312, 18.25244
364.0133, 19.27368
364.4954, 21.51172
364.9775, 26.19287
365.4596, 30.48193
365.9417, 34.55640
366.4239, 38.00562
366.9060, 39.69946
367.3881, 39.07861
367.8702, 37.23315
368.3523, 36.60864
368.8344, 37.81372
369.3166, 39.61084
369.7987, 41.93848
370.2808, 44.83862
370.7629, 48.44995
371.2450, 52.74976
371.7271, 57.53369
372.2093, 62.64648
372.6914, 68.22217
373.1735, 73.22290
373.6556, 77.80493
374.1377, 81.75024
374.6198, 84.18115
375.1020, 85.89990
375.5841, 88.61060
376.0662, 93.59985
376.5483, 100.2551
377.0304, 105.4417
377.5125, 106.8633
377.9947, 109.7549
378.4768, 115.7229
378.9589, 123.5566
379.4410, 131.9937
379.9231, 140.4963
380.4052, 148.8865
380.8874, 157.2397
381.3695, 166.0276
381.8516, 172.7803
382.3337, 174.4438
382.8158, 176.5815
383.2979, 182.5625
383.7801, 191.9207
384.2622, 201.6440
384.7443, 209.0830
385.2264, 214.5503
385.7085, 221.5027
386.1906, 230.9619
386.6728, 240.3223
387.1549, 247.9810
387.6370, 255.0537
388.1191, 263.3625
388.6012, 274.1636
389.0833, 285.7480
389.5655, 294.5745
390.0476, 299.8298
390.5297, 305.7737
391.0118, 313.9426
391.4939, 323.4949
391.9760, 334.4236
392.4582, 346.6804
392.9403, 357.7266
393.4224, 365.0811
393.9045, 369.3750
394.3866, 373.9937
394.8687, 379.9868
395.3509, 385.2261
395.8330, 387.5078
396.3151, 387.6042
396.7972, 387.9668
397.2793, 390.2539
397.7614, 392.9963
398.2436, 394.3489
398.7257, 394.3127
399.2078, 392.6543
399.6899, 388.5435
400.1720, 382.9426
400.6541, 377.9985
401.1363, 373.9675
401.6184, 370.3416
402.1005, 367.9783
402.5826, 365.8914
403.0647, 360.6682
403.5468, 350.5117
404.0290, 339.0266
404.5111, 331.6899
404.9932, 328.7737
405.4753, 325.3311
405.9574, 321.1863
406.4395, 315.6941
406.9217, 307.2839
407.4038, 296.1536
407.8859, 285.6333
408.3680, 278.5334
408.8501, 274.5227
409.3322, 269.3547
409.8144, 261.6543
410.2965, 254.4595
410.7786, 249.3325
411.2607, 245.3494
411.7428, 240.8477
412.2249, 235.1855
412.7071, 228.6960
413.1892, 221.9319
413.6713, 213.8413
414.1534, 207.6357
414.6355, 204.7803
415.1176, 202.6609
415.5998, 199.3262
416.0819, 194.7307
416.5640, 190.1453
417.0461, 186.8308
417.5282, 184.8250
418.0103, 181.6755
418.4925, 175.1809
418.9746, 169.9307
419.4567, 168.0691
419.9388, 167.7041
420.4209, 166.0801
420.9030, 161.9622
421.3852, 156.5020
421.8673, 151.9414
422.3494, 148.0984
422.8315, 145.6462
423.3136, 146.3469
423.7957, 147.0125
424.2779, 145.1201
424.7600, 140.9539
425.2421, 137.1843
425.7242, 136.4937
426.2063, 138.4800
426.6884, 139.2385
427.1706, 138.2200
427.6527, 136.8657
428.1348, 135.9294
428.6169, 135.0625
429.0990, 133.6191
429.5811, 131.1360
430.0633, 128.6306
430.5454, 127.6472
431.0275, 128.2273
431.5096, 128.3782
431.9917, 126.9338
432.4738, 125.4915
432.9560, 125.8208
433.4381, 127.8989
433.9202, 130.1086
434.4023, 131.9414
434.8844, 133.3257
435.3665, 133.6506
435.8487, 132.6572
436.3308, 132.6165
436.8129, 136.0220
437.2950, 141.8018
437.7771, 145.2468
438.2592, 144.0842
438.7414, 142.8101
439.2235, 144.1472
439.7056, 147.2476
440.1877, 150.1392
440.6698, 152.1433
441.1519, 153.4902
441.6341, 154.5676
442.1162, 155.4985
442.5983, 155.7224
443.0804, 153.8896
443.5625, 152.3540
444.0446, 152.9224
444.5268, 155.4907
445.0089, 159.3950
445.4910, 164.4546
445.9731, 170.2903
446.4552, 173.2119
446.9373, 169.9888
447.4195, 167.6870
447.9016, 167.5544
448.3837, 168.7510
448.8658, 170.5393
449.3479, 172.6099
449.8300, 174.7031
450.3122, 176.5759
450.7943, 178.3887
451.2764, 179.2168
451.7585, 177.6208
452.2406, 176.2512
452.7227, 176.0994
453.2049, 177.0454
453.6870, 178.7852
454.1691, 181.5376
454.6512, 184.3652
455.1333, 184.5459
455.6154, 181.1646
456.0976, 177.9551
456.5797, 177.1030
457.0618, 176.2473
457.5439, 172.9927
458.0260, 167.0615
458.5081, 161.3450
458.9903, 158.7324
459.4724, 158.2351
459.9545, 156.1958
460.4366, 151.9824
460.9187, 146.9036
461.4008, 141.2854
461.8830, 135.5554
462.3651, 131.0334
462.8472, 129.0837
463.3293, 126.9026
463.8114, 121.9390
464.2935, 114.9636
464.7756, 108.5591
465.2578, 103.6116
465.7399, 99.47021
466.2220, 95.47095
466.7041, 91.94873
467.1862, 87.41333
467.6683, 80.47266
468.1505, 73.27197
468.6326, 67.55298
469.1147, 63.36353
469.5968, 59.93164
470.0789, 56.69922
470.5610, 53.70996
471.0432, 51.43970
471.5253, 51.34058
472.0074, 50.22046
472.4895, 46.50171
472.9716, 41.80298
473.4537, 37.96777
473.9359, 35.38281
474.4180, 33.28369
474.9001, 30.71362
475.3822, 27.57056
475.8643, 25.06714
476.3464, 24.45142
476.8286, 23.31567
477.3107, 20.04297
477.7928, 15.91479
478.2749, 12.98975
478.7570, 12.21582
479.2391, 12.60278
479.7213, 12.90186
480.2034, 13.30054
480.6855, 13.06177
481.1676, 11.15332
481.6497, 9.085205
482.1318, 7.972412
482.6140, 7.711426
483.0961, 7.809326
483.5782, 8.484375
484.0603, 9.283691
484.5424, 9.715332
485.0245, 9.808105
485.5067, 8.867432
485.9888, 5.648926
486.4709, 1.531494
486.9530, 9.5702998E-02
487.4351, 2.674316
487.9172, 4.918701
488.3994, 4.907227
488.8815, 3.957031
489.3636, 3.953125
489.8457, 5.198242
490.3278, 6.495361
490.8099, 6.709473
491.2921, 5.864014
491.7742, 5.446777
492.2563, 6.490234
492.7384, 6.817139
493.2205, 5.247803
493.7026, 2.718506
494.1848, 0.2766110
494.6669, 1.524170
495.1490, 2.493408
495.6311, 2.324951
496.1132, 0.7490230
496.5953, 1.125244
497.0775, 4.317627
497.5596, 6.811035
498.0417, 7.433594
498.5238, 6.724609
499.0059, 6.025146
499.4880, 6.202637
499.9702, 6.428223
500.4523, 4.403320
500.9344, 0.5532230
501.4165, 3.309326
501.8986, 0.5351560
502.3807, 3.368408
502.8629, 4.118652
503.3450, 1.753662
503.8271, 0.5004880
504.3092, 1.207764
504.7913, 0.8083500
505.2734, 0.6066890
505.7556, 3.013916
506.2377, 4.193115
506.7198, 2.454590
507.2019, 1.203857
507.6840, 3.690674
508.1661, 4.897217
508.6483, 5.326660
509.1304, 4.557129
509.6125, 3.350098
510.0946, 2.616943
510.5767, 2.472656
511.0588, 2.420898
511.5410, 2.068115
512.0231, 1.425537
512.5052, 0.3132320
512.9873, 2.669189
513.4694, 4.459961
513.9515, 3.403809
514.4337, 1.337646
514.9158, 0.4567870
515.3979, 1.343994
515.8800, 2.749756
516.3621, 2.877930
516.8442, 1.496338
517.3264, 1.378906
517.8085, 4.338135
518.2906, 6.188965
518.7727, 4.196045
519.2548, 0.1748050
519.7369, 2.787354
520.2191, 3.488525
520.7012, 3.278809
521.1833, 3.810059
521.6654, 4.897461
522.1475, 4.950195
522.6296, 3.225098
523.1118, 1.114502
523.5939, 0.2573240
524.0760, 0.4667970
524.5581, 0.4560550
525.0402, 0.3120120
525.5223, 0.3771970
526.0045, 2.818604
526.4866, 6.120361
526.9687, 7.622070
527.4508, 6.092529
527.9329, 2.728271
528.4150, 0.4631350
528.8972, 4.461182
529.3793, 5.677734
529.8614, 1.742676
530.3435, 2.606201
530.8256, 4.777588
531.3077, 5.133789
531.7899, 5.327637
532.2720, 6.400146
532.7541, 7.622559
533.2362, 6.912598
533.7183, 3.479248
534.2004, 0.3203130
534.6826, 3.061768
535.1647, 5.226318
535.6468, 4.190430
536.1289, 0.7167970
536.6110, 1.653320
537.0931, 4.6390002E-03
537.5753, 3.675049
538.0574, 5.800049
538.5395, 6.367676
539.0216, 5.724609
539.5037, 3.440186
539.9858, 0.5126950
540.4680, 1.628906
540.9501, 3.174316
541.4322, 3.287842
541.9143, 0.4851070
542.3964, 4.319580
542.8785, 3.678467
543.3607, 1.018555
543.8428, 5.928711
544.3249, 8.747559
544.8070, 9.681396
545.2891, 9.465820
545.7712, 7.016602
546.2534, 4.845947
546.7355, 2.144043
547.2176, 0.4074710
547.6997, 1.563232
548.1818, 5.020264
548.6639, 8.070313
549.1461, 8.512939
549.6282, 6.921143
550.1103, 5.448975
550.5924, 3.508301
551.0745, 3.135742
551.5566, 6.780273
552.0388, 11.09229
552.5209, 13.42529
553.0030, 13.56665
553.4851, 13.03589
553.9672, 11.93774
554.4493, 11.01440
554.9315, 12.08228
555.4136, 15.25000
555.8957, 18.05078
556.3778, 19.39697
556.8599, 19.30908
557.3420, 17.44165
557.8242, 12.49023
558.3063, 9.167969
558.7884, 9.314453
559.2705, 10.78418
559.7526, 11.79004
560.2347, 12.23413
560.7169, 13.32104
561.1990, 16.10376
561.6811, 19.85547
562.1632, 21.11572
562.6453, 17.47534
563.1274, 15.45410
563.6096, 16.91284
564.0917, 19.08057
564.5738, 19.89771
565.0559, 19.35962
565.5380, 18.82910
566.0201, 19.59741
566.5023, 21.02954
566.9844, 21.40625
567.4665, 20.63867
567.9486, 19.45459
568.4307, 17.39771
568.9128, 15.72852
569.3950, 16.59326
569.8771, 20.32690
570.3592, 22.92700
570.8413, 21.98120
571.3234, 20.00024
571.8055, 19.81201
572.2877, 21.18823
572.7698, 21.96997
573.2519, 20.83569
573.7340, 18.76660
574.2161, 18.28882
574.6982, 20.13794
575.1804, 22.37012
575.6625, 26.29956
576.1446, 29.39624
576.6267, 29.65820
577.1088, 27.72974
577.5909, 25.20435
578.0731, 22.98486
578.5552, 21.60962
579.0373, 22.60645
579.5194, 26.54712
580.0015, 29.45142
580.4836, 30.31812
580.9658, 30.32837
581.4479, 30.53491
581.9300, 30.67236
582.4121, 29.80005
582.8942, 26.23413
583.3763, 22.65796
583.8585, 21.87378
584.3406, 23.33228
584.8227, 25.39038
585.3048, 27.67407
585.7869, 29.46436
586.2690, 29.48169
586.7512, 27.06885
587.2333, 25.59399
587.7154, 25.88330
588.1975, 26.80176
588.6796, 28.11914
589.1617, 29.39160
589.6439, 29.69971
590.1260, 28.78149
590.6081, 27.92578
591.0902, 29.52319
591.5723, 34.02246
592.0544, 35.91821
592.5366, 33.22168
593.0187, 30.56763
593.5008, 30.67944
593.9829, 32.36060
594.4650, 33.58911
594.9471, 33.66943
595.4293, 32.87207
595.9114, 30.99731
596.3935, 28.75195
596.8756, 27.86133
597.3577, 28.71460
597.8398, 30.14136
598.3220, 31.41479
598.8041, 32.36963
599.2862, 32.07935
599.7683, 28.72827
600.2504, 26.27393
600.7325, 26.86401
601.2147, 28.35400
601.6968, 28.17163
602.1789, 26.17090
602.6610, 24.09668
603.1431, 23.31104
603.6252, 23.63013
604.1074, 24.55469
604.5895, 26.50195
605.0716, 27.76880
605.5537, 27.76611
606.0358, 27.36621
606.5179, 26.90698
607.0001, 26.38184
607.4822, 25.89429
607.9643, 25.15845
608.4464, 24.67432
608.9285, 25.81445
609.4106, 28.28320
609.8928, 29.20435
610.3749, 27.11328
610.8570, 24.07104
611.3391, 23.24878
611.8212, 25.46509
612.3033, 26.82153
612.7855, 26.77881
613.2676, 26.52881
613.7497, 26.63916
614.2318, 26.87646
614.7139, 26.71533
615.1960, 25.99048
615.6782, 25.22119
616.1603, 25.29761
616.6424, 26.32202
617.1245, 26.46167
617.6066, 24.79321
618.0887, 23.76074
618.5709, 25.14819
619.0530, 27.69482
619.5351, 29.89087
620.0172, 31.65039
620.4993, 32.34033
620.9814, 30.65698
621.4636, 28.09009
621.9457, 27.10205
622.4278, 27.84277
622.9099, 28.77051
623.3920, 28.87109
623.8741, 28.45190
624.3563, 28.55225
624.8384, 29.65173
625.3205, 30.57043
625.8026, 31.49695
626.2847, 32.07397
626.7668, 31.73035
627.2490, 30.84814
627.7311, 30.50488
628.2132, 31.38940
628.6953, 32.70923
629.1774, 32.86902
629.6595, 31.77527
630.1417, 31.13599
630.6238, 31.43286
631.1059, 32.12927
631.5880, 32.98315
632.0701, 33.49634
632.5522, 32.97241
633.0344, 30.38806
633.5165, 28.00293
633.9986, 27.14441
634.4807, 27.13733
634.9628, 26.73840
635.4449, 25.72070
635.9271, 25.67200
636.4092, 28.47412
636.8913, 33.71655
637.3734, 36.56934
637.8555, 35.79187
638.3376, 34.52881
638.8198, 32.88403
639.3019, 31.32983
639.7840, 30.09729
640.2661, 29.27356
640.7482, 29.04602
641.2303, 29.69812
641.7125, 30.90088
642.1946, 32.57275
642.6767, 34.56982
643.1588, 35.09094
643.6409, 33.17810
644.1230, 30.65222
644.6052, 29.88647
645.0873, 31.21326
645.5694, 31.65503
646.0515, 30.79871
646.5336, 29.40588
647.0157, 27.18250
647.4979, 24.94385
647.9800, 23.73462
648.4621, 23.78552
648.9442, 24.54736
649.4263, 25.74048
649.9084, 27.20667
650.3906, 27.24756
650.8727, 25.19397
651.3548, 23.77979
651.8369, 23.55627
652.3190, 24.02539
652.8011, 25.58875
653.2833, 28.26746
653.7654, 29.63501
654.2475, 27.41248
654.7296, 24.53894
655.2117, 24.26489
655.6938, 25.77441
656.1760, 26.03113
656.6581, 23.80676
657.1402, 20.93506
657.6223, 20.24219
658.1044, 22.30396
658.5865, 23.07446
659.0687, 20.69910
659.5508, 19.10840
660.0329, 20.25757
660.5150, 22.20178
660.9971, 22.35876
661.4792, 20.26819
661.9614, 18.32239
662.4435, 19.31311
662.9256, 21.62451
663.4077, 21.18909
663.8898, 17.88623
664.3719, 14.61511
664.8541, 12.61108
665.3362, 11.43713
665.8183, 10.42578
666.3004, 9.745483
666.7825, 8.612427
667.2646, 5.738037
667.7468, 3.733032
668.2289, 4.537109
668.7110, 6.889404
669.1931, 8.676880
669.6752, 9.217896
670.1573, 9.498291
670.6395, 11.34607
671.1216, 14.47522
671.6037, 14.49658
672.0858, 10.35229
672.5679, 6.355225
673.0500, 4.247925
673.5322, 3.556641
674.0143, 3.630127
674.4964, 4.574829
674.9785, 5.341675
675.4606, 5.946899
675.9427, 5.965454
676.4249, 4.415405
676.9070, 2.022705
677.3891, 0.5729980
677.8712, 0.7683110
678.3533, 1.963623
678.8354, 3.399414
679.3176, 5.180298
679.7997, 6.147339
680.2818, 6.201416
680.7639, 5.550049
681.2460, 3.370850
681.7281, 1.085815
682.2103, 0.4449460
682.6924, 1.717651
683.1745, 3.147583
683.6566, 4.175537
684.1387, 4.600098
684.6208, 3.853638
685.1030, 2.200684
685.5851, 0.7016600
686.0672, 0.2071530
686.5493, 0.5372310
687.0314, 0.1368410
687.5135, 1.382935
687.9957, 1.568726
688.4778, 2.227417
688.9599, 4.270874
689.4420, 1.444458
689.9241, 2.957153
690.4063, 5.371582
690.8884, 5.099243
691.3705, 3.488892
691.8526, 0.4334720
692.3347, 2.845093
692.8168, 3.851196
693.2990, 2.672119
693.7811, 1.156860
694.2632, 5.2124001E-02
694.7453, 1.270630
695.2274, 4.084473
695.7095, 9.086426
696.1917, 11.16565
696.6738, 7.813354
697.1559, 4.847778
697.6380, 4.574463
698.1201, 5.395020
698.6022, 5.305908
699.0844, 4.023804
699.5665, 2.789551
700.0486, 2.764771
700.5307, 3.475952
701.0128, 3.795288
701.4949, 3.728149
701.9771, 2.956299
702.4592, 1.020264
702.9413, 0.9681400
703.4234, 1.613525
703.9055, 0.8326420
704.3876, 6.6528000E-02
704.8698, 0.8455810
705.3519, 1.523315
705.8340, 1.696899
706.3161, 1.710693
706.7982, 2.047119
707.2803, 2.725098
707.7625, 2.504395
708.2446, 0.2135010
708.7267, 3.815063
709.2088, 3.146484
709.6909, 2.271484
710.1730, 6.953125
710.6552, 9.968628
711.1373, 11.37244
711.6194, 10.33289
712.1015, 7.418335
712.5836, 5.960083
713.0657, 7.123779
713.5479, 8.571655
714.0300, 9.867065
714.5121, 10.81006
714.9942, 11.04858
715.4763, 10.67419
715.9584, 10.42920
716.4406, 10.63196
716.9227, 10.75537
717.4048, 9.786011
717.8869, 7.653076
718.3690, 7.258057
718.8511, 10.19873
719.3333, 12.87048
719.8154, 11.61377
720.2975, 8.254272
720.7796, 7.557861
721.2617, 11.52795
721.7438, 14.93518
722.2260, 15.82812
722.7081, 15.50098
723.1902, 14.94788
723.6723, 14.30945
724.1544, 13.32104
724.6365, 11.81091
725.1187, 10.48010
725.6008, 10.80005
726.0829, 12.94141
726.5650, 14.66748
727.0471, 16.16919
727.5292, 16.62097
728.0114, 14.76978
728.4935, 11.96265
728.9756, 10.37329
729.4577, 10.34924
729.9398, 10.25305
730.4219, 9.125488
730.9041, 8.164917
731.3862, 8.589355
731.8683, 9.889404
732.3504, 10.76392
732.8325, 10.79053
733.3146, 10.84656
733.7968, 12.36365
734.2789, 15.12830
734.7610, 15.73120
735.2431, 13.31128
735.7252, 11.40845
736.2073, 11.47998
736.6895, 12.45190
737.1716, 13.35803
737.6537, 14.17444
738.1358, 14.20544
738.6179, 12.69019
739.1000, 10.97803
739.5822, 9.447266
740.0643, 8.350464
740.5464, 7.853394
741.0285, 8.070435
741.5106, 9.496582
741.9927, 13.00171
742.4749, 17.36475
742.9570, 18.13477
743.4391, 14.68225
743.9212, 11.41797
744.4033, 8.733887
744.8854, 7.126709
745.3676, 7.645752
745.8497, 9.608398
746.3318, 10.70544
746.8139, 10.76917
747.2960, 10.30310
747.7781, 8.219971
748.2603, 6.266113
748.7424, 6.798096
749.2245, 9.104980
749.7066, 10.52600
750.1887, 9.501099
750.6708, 7.390137
751.1530, 5.894653
751.6351, 5.075928
752.1172, 6.448853
752.5993, 11.09314
753.0814, 14.23730
753.5635, 12.74548
754.0457, 8.573853
754.5278, 5.290161
755.0099, 2.634277
755.4920, 1.727295
755.9741, 4.549805
756.4562, 7.207031
756.9384, 7.317017
757.4205, 5.964233
757.9026, 4.801147
758.3847, 4.301270
758.8668, 4.168823
759.3489, 3.924194
759.8311, 3.924438
760.3132, 5.923706
760.7953, 9.943115
761.2774, 12.00415
761.7595, 10.76514
762.2416, 7.824219
762.7238, 3.930786
763.2059, 0.7885740
763.6880, 1.824097
764.1701, 4.649902
764.6522, 9.279419
765.1343, 9.283813
765.6165, 7.792847
766.0986, 7.117920
766.5807, 7.060425
767.0628, 6.858765
767.5449, 6.140015
768.0270, 5.268188
768.5092, 5.207520
768.9913, 5.554321
769.4734, 4.625244
769.9555, 2.217529
770.4376, 0.2409670
770.9197, 0.1085210
771.4019, 0.5667720
771.8840, 1.011719
772.3661, 1.578613
772.8482, 0.8786620
773.3303, 3.580933
773.8124, 6.396484
774.2946, 4.610229
774.7767, 0.7784420
775.2588, 2.402100
775.7409, 4.363403
776.2230, 4.833862
776.7051, 2.204346
777.1873, 0.9421390
777.6694, 1.173950
778.1515, 0.7463380
778.6336, 2.497681
779.1157, 3.442871
779.5978, 3.920288
780.0800, 4.204346
780.5621, 4.349609
781.0442, 4.707275
781.5263, 5.371338
782.0084, 6.029663
782.4905, 6.777466
782.9727, 7.357544
783.4548, 7.512085
783.9369, 7.392334
784.4190, 7.350952
784.9011, 7.399048
785.3832, 7.674805
785.8654, 9.127197
786.3475, 10.20215
786.8296, 8.477783
787.3117, 4.854858
787.7938, 2.295288
788.2759, 2.110107
788.7581, 3.276733
789.2402, 4.832764
789.7223, 6.704712
790.2044, 6.801270
790.6865, 4.496582
791.1686, 3.101563
791.6508, 4.427002
792.1329, 6.575562
792.6150, 6.830078
793.0971, 5.174194
793.5792, 4.868042
794.0613, 8.344482
794.5435, 10.38586
795.0256, 7.485596
795.5077, 3.693237
795.9898, 3.276245
796.4719, 5.994873
796.9540, 8.888916
797.4362, 10.45154
797.9183, 10.91504
798.4004, 10.02222
798.8825, 8.243774
799.3646, 7.780884
799.8467, 8.921631
800.3289, 9.343994
800.8110, 7.423950
801.2931, 4.520508
801.7752, 3.646729
802.2573, 5.582397
802.7394, 6.892090
803.2216, 6.823608
803.7037, 7.000854
804.1858, 8.819458
804.6679, 10.51123
805.1500, 9.512939
805.6321, 5.837402
806.1143, 3.138428
806.5964, 3.859253
807.0785, 5.645020
807.5606, 7.074707
808.0427, 7.992188
808.5248, 7.644043
809.0070, 6.082886
809.4891, 5.206177
809.9712, 6.813843
810.4533, 9.727417
810.9354, 10.37463
811.4175, 8.274536
811.8997, 7.991821
812.3818, 10.71497
812.8639, 13.63782
813.3460, 15.25659
813.8281, 15.99695
814.3102, 16.82910
814.7924, 17.94531
815.2745, 18.26074
815.7566, 17.40198
816.2387, 15.91467
816.7208, 12.68652
817.2029, 9.689819
817.6851, 10.34839
818.1672, 14.68579
818.6493, 18.22766
819.1314, 17.03564
819.6135, 13.84070
820.0956, 13.49939
820.5778, 15.24719
821.0599, 15.18457
821.5420, 12.49792
822.0241, 10.43494
822.5062, 11.27942
822.9883, 14.02747
823.4705, 15.55273
823.9526, 15.99670
824.4347, 14.78601
824.9168, 9.800781
825.3989, 5.735107
825.8810, 4.859497
826.3632, 5.751465
826.8453, 6.553101
827.3274, 7.025391
827.8095, 7.942627
828.2916, 10.91821
828.7737, 13.11536
829.2559, 11.55273
829.7380, 8.236572
830.2201, 6.206177
830.7022, 6.124390
831.1843, 7.331421
831.6664, 9.973511
832.1486, 13.04358
832.6307, 13.20520
833.1128, 10.48877
833.5949, 9.704346
834.0770, 11.68469
834.5591, 13.54028
835.0413, 13.54651
835.5233, 12.26306
836.0054, 10.82312
836.4875, 8.441528
836.9697, 7.892944
837.4518, 11.00403
837.9339, 13.45422
838.4160, 13.49438
838.8981, 12.45886
839.3802, 11.97388
839.8624, 12.09253
840.3445, 11.45715
840.8266, 8.116089
841.3087, 5.267700
841.7908, 6.489990
842.2729, 9.687500
842.7551, 11.27234
843.2372, 10.93994
843.7193, 10.60828
844.2014, 11.53149
844.6835, 12.72046
845.1656, 11.86353
845.6478, 8.953125
846.1299, 7.881348
846.6120, 9.239380
847.0941, 10.07312
847.5762, 8.957642
848.0583, 6.955200
848.5405, 5.388794
849.0226, 4.163208
849.5047, 3.572632
849.9868, 4.245972
850.4689, 4.674072
850.9510, 4.260864
851.4332, 3.690063
851.9153, 3.423950
852.3974, 3.530518
852.8795, 4.064087
853.3616, 5.276001
853.8438, 6.205566
854.3259, 5.617798
854.8080, 4.567261
855.2901, 4.874390
855.7722, 6.228027
856.2543, 6.847046
856.7365, 6.032715
857.2186, 4.989380
857.7007, 5.258789
858.1828, 6.633057
858.6649, 7.665771
859.1470, 8.417847
859.6292, 8.484497
860.1113, 7.542603
860.5934, 6.254150
861.0755, 5.141113
861.5576, 4.181885
862.0397, 3.170654
862.5219, 1.121094
863.0040, 0.6754150
863.4861, 4.255615
863.9682, 7.002808
864.4503, 5.669556
864.9324, 2.274658
865.4146, 0.5710450
865.8967, 2.226807
866.3788, 2.047485
866.8609, 2.371094
867.3430, 6.936523
867.8251, 6.813232
868.3073, 4.171143
868.7894, 3.474609
869.2715, 5.313110
869.7536, 7.379883
870.2357, 8.123291
870.7178, 7.874634
871.2000, 6.853760
871.6821, 5.128052
872.1642, 5.459839
872.6463, 8.635254
873.1284, 10.52527
873.6105, 8.739136
874.0927, 5.390625
874.5748, 3.613770
875.0569, 3.488770
875.5390, 4.165894
876.0211, 7.251831
876.5032, 9.010498
876.9854, 7.855591
877.4675, 6.082275
877.9496, 5.216431
878.4317, 5.198120
878.9138, 5.652100
879.3959, 6.904175
879.8781, 7.354858
880.3602, 5.265137
880.8423, 2.737183
881.3244, 1.874878
881.8065, 2.229492
882.2886, 2.509644
882.7708, 2.315063
883.2529, 2.130859
883.7350, 2.599487
884.2171, 3.227295
884.6992, 2.539185
885.1813, 0.8023680
885.6635, 0.3409420
886.1456, 1.686157
886.6277, 2.790283
887.1098, 2.095215
887.5919, 0.4649660
888.0740, 0.2602540
888.5562, 2.096069
889.0383, 3.027588
889.5204, 2.829468
890.0025, 2.086182
890.4846, 0.1120610
890.9667, 1.964111
891.4489, 1.243042
891.9310, 1.865601
892.4131, 4.682861
892.8952, 8.349976
893.3773, 9.645020
893.8594, 4.823853
894.3416, 0.3620610
894.8237, 0.6785890
895.3058, 2.505859
895.7879, 5.318848
896.2700, 6.469238
896.7521, 6.419189
897.2343, 4.834717
897.7164, 2.791626
898.1985, 1.936035
898.6806, 1.916626
899.1627, 1.489746
899.6448, 0.4071040
900.1270, 0.5651860
900.6091, 0.7854000
901.0912, 0.4406740
901.5733, 0.1999510
902.0554, 1.149902
902.5375, 1.109375
903.0197, 0.3381350
903.5018, 1.294312
903.9839, 0.5899660
904.4660, 0.7205810
904.9481, 0.8623050
905.4302, 0.3746340
905.9124, 0.7557370
906.3945, 0.3367920
906.8766, 1.365234
907.3587, 2.518921
907.8408, 3.155884
908.3229, 2.453247
908.8051, 0.9172360
909.2872, 0.1595460
909.7693, 0.5141600
910.2514, 0.1605220
910.7335, 1.544067
911.2156, 3.282349
911.6978, 4.256470
912.1799, 4.570923
912.6620, 4.340820
913.1441, 3.687256
913.6262, 2.976196
914.1083, 2.279297
914.5905, 1.951904
915.0726, 3.162964
915.5547, 4.945923
916.0368, 4.366577
916.5189, 1.588623
917.0010, 0.1289060
917.4832, 0.8917240
917.9653, 2.872437
918.4474, 3.151611
918.9295, 1.936279
919.4116, 1.340088
919.8937, 1.353882
920.3759, 2.205444
920.8580, 4.304199
921.3401, 6.435303
921.8222, 7.651123
922.3043, 7.922974
922.7864, 7.310425
923.2686, 4.770020
923.7507, 3.353149
924.2328, 4.780273
924.7149, 5.764038
925.1970, 4.299805
925.6791, 2.246582
926.1613, 1.830688
926.6434, 2.979004
927.1255, 3.717773
927.6076, 3.257446
928.0897, 2.755859
928.5718, 2.405884
929.0540, 2.450562
929.5361, 3.046875
930.0182, 4.076904
930.5003, 5.910889
930.9824, 8.604126
931.4645, 10.89282
931.9467, 11.90588
932.4288, 11.86743
932.9109, 10.40723
933.3930, 8.280762
933.8751, 7.297607
934.3572, 7.638550
934.8394, 8.166504
935.3215, 8.147095
935.8036, 7.907104
936.2857, 8.220459
936.7678, 8.910645
937.2499, 8.549316
937.7321, 7.048706
938.2142, 5.131592
938.6963, 2.913330
939.1784, 1.163574
939.6605, 0.8566890
940.1426, 1.712646
940.6248, 1.904663
941.1069, 0.6019290
941.5890, 0.9663090
942.0711, 4.770142
942.5532, 7.616577
943.0353, 6.367310
943.5175, 3.395264
943.9996, 2.551270
944.4817, 3.994019
944.9638, 5.307129
945.4459, 7.025879
945.9280, 7.748047
946.4102, 6.247192
946.8923, 4.471680
947.3744, 3.537476
947.8565, 3.523682
948.3386, 4.419189
948.8207, 6.230103
949.3029, 8.255249
949.7850, 11.27234
950.2671, 13.15808
950.7492, 11.06812
951.2313, 7.609009
951.7134, 7.158813
952.1956, 9.442749
952.6777, 10.00598
953.1598, 5.817627
953.6419, 1.827148
954.1240, 5.287842
954.6061, 11.78894
955.0883, 12.75537
955.5704, 9.132202
956.0525, 6.473755
956.5346, 6.518555
957.0167, 7.070923
957.4988, 6.033325
957.9810, 4.166504
958.4631, 3.446899
958.9452, 3.873657
959.4273, 5.227661
959.9094, 7.549927
960.3915, 8.965454
960.8737, 8.410889
961.3558, 6.996216
961.8379, 6.561768
962.3200, 7.030518
962.8021, 5.944092
963.2842, 2.310791
963.7664, 0.2708740
964.2485, 1.462402
964.7306, 2.733521
965.2127, 1.705078
965.6948, 0.3775630
966.1769, 0.5102540
966.6591, 2.136108
967.1412, 3.414673
967.6233, 1.257813
968.1054, 0.5738530
968.5875, 3.792480
969.0696, 7.661621
969.5518, 9.908447
970.0339, 10.65710
970.5160, 10.69629
970.9981, 10.15027
971.4802, 8.860718
971.9623, 5.345947
972.4445, 2.658081
972.9266, 2.994873
973.4087, 4.890869
973.8908, 7.050659
974.3729, 8.904297
974.8550, 9.328003
975.3372, 7.227783
975.8193, 5.357422
976.3014, 6.742676
976.7835, 8.603394
977.2656, 7.605835
977.7477, 4.582275
978.2299, 1.463623
978.7120, 1.044556
979.1941, 2.643066
979.6762, 3.006592
980.1583, 2.527344
980.6404, 1.565186
981.1226, 0.2655030
981.6047, 1.363525
982.0868, 3.070801
982.5689, 3.383911
983.0510, 1.748291
983.5331, 1.7090000E-03
984.0153, 0.2695310
984.4974, 1.917603
984.9795, 3.209229
985.4616, 4.073364
985.9437, 3.031128
986.4258, 0.2821040
986.9080, 1.213989
987.3901, 3.160889
987.8722, 9.202637
988.3543, 11.21863
988.8364, 9.349365
989.3185, 7.320557
989.8007, 4.917480
990.2828, 3.382813
990.7649, 3.118896
991.2470, 3.341553
991.7291, 3.644653
992.2112, 3.997437
992.6934, 4.417725
993.1755, 5.095703
993.6576, 4.724243
994.1397, 1.578613
994.6218, 0.5764160
995.1039, 4.701904
995.5861, 9.292847
996.0682, 11.45044
996.5503, 11.29321
997.0324, 8.721436
997.5145, 2.169067
997.9966, 1.967041
998.4788, 2.816406
998.9609, 1.841064
999.4430, 2.556641
999.9251, 6.931763
1000.407, 7.508179
1000.889, 5.361572
1001.371, 4.927490
1001.854, 8.117920
1002.336, 9.837036
1002.818, 6.877563
1003.300, 3.858521
1003.782, 3.994751
1004.264, 5.202637
1004.746, 4.664673
1005.228, 2.543457
1005.711, 1.128784
1006.193, 1.455688
1006.675, 2.126587
1007.157, 2.317993
1007.639, 2.469482
1008.121, 2.696655
1008.603, 3.296753
1009.085, 5.206299
1009.567, 8.141479
1010.050, 10.09253
1010.532, 9.827759
1011.014, 8.495361
1011.496, 6.246704
1011.978, 4.235718
1012.460, 4.640747
1012.942, 6.543335
1013.424, 7.438599
1013.906, 6.747681
1014.389, 5.631470
1014.871, 4.849976
1015.353, 4.357300
1015.835, 3.995605
1016.317, 3.903076
1016.799, 4.785400
1017.281, 6.347534
1017.763, 7.136475
1018.246, 6.710083
1018.728, 5.602661
1019.210, 4.025513
1019.692, 2.780273
1020.174, 4.426758
1020.656, 8.073120
1021.138, 8.622925
1021.620, 5.984497
1022.102, 4.606812
1022.585, 6.189209
1023.067, 8.688232
1023.549, 10.01599
1024.031, 10.50330
1024.513, 11.62048
1024.995, 13.23914
1025.477, 11.41504
1025.959, 5.404785
1026.442, 2.435181
1026.924, 6.031006
1027.406, 10.98645
1027.888, 11.18481
1028.370, 7.667725
1028.852, 5.967407
1029.334, 6.229126
1029.816, 7.492310
1030.298, 10.10461
1030.781, 11.70776
1031.263, 10.93774
1031.745, 9.490356
1032.227, 9.561646
1032.709, 8.894165
1033.191, 8.487305
1033.673, 9.103394
1034.155, 8.467285
1034.638, 9.978882
1035.120, 11.07141
1035.602, 10.31384
1036.084, 8.969604
1036.566, 8.702637
1037.048, 9.392700
1037.530, 9.244385
1038.012, 7.433838
1038.495, 6.924805
1038.977, 8.864746
1039.459, 10.65918
1039.941, 11.44958
1040.423, 11.20996
1040.905, 9.229736
1041.387, 5.674072
1041.869, 4.604370
1042.351, 8.586548
1042.833, 10.73608
1043.316, 9.161011
1043.798, 7.570679
1044.280, 7.359619
1044.762, 7.954102
1045.244, 9.412354
1045.726, 11.48792
1046.208, 11.84216
1046.690, 8.685547
1047.173, 6.414307
1047.655, 5.641235
1048.137, 5.491821
1048.619, 5.610229
1049.101, 6.127441
1049.583, 7.561890
1050.065, 9.753784
1050.547, 11.07935
1051.030, 11.19495
1051.512, 10.69580
1051.994, 8.833252
1052.476, 7.313965
1052.958, 7.072021
1053.440, 7.590698
1053.922, 8.677002
1054.404, 10.05164
1054.886, 10.24646
1055.369, 8.151001
1055.851, 6.258179
1056.333, 4.965820
1056.815, 4.509277
1057.297, 5.592041
1057.779, 7.203003
1058.261, 8.063110
1058.743, 8.251343
1059.225, 8.317261
1059.708, 8.690308
1060.190, 8.813965
1060.672, 7.950562
1061.154, 7.133667
1061.636, 7.131836
1062.118, 7.466553
1062.600, 7.397461
1063.082, 7.139771
1063.565, 7.907837
1064.047, 10.72058
1064.529, 12.28308
1065.011, 10.33240
1065.493, 8.034546
1065.975, 7.065308
1066.457, 6.875122
1066.939, 6.872559
1067.422, 7.046997
1067.904, 7.520874
1068.386, 8.585327
1068.868, 8.830811
1069.350, 6.049927
1069.832, 4.176758
1070.314, 6.657471
1070.796, 10.36914
1071.278, 12.29944
1071.760, 12.33557
1072.243, 10.92334
1072.725, 7.806030
1073.207, 6.142456
1073.689, 8.759033
1074.171, 11.48608
1074.653, 11.99207
1075.135, 11.38367
1075.617, 10.18201
1076.100, 9.042114
1076.582, 9.477051
1077.064, 11.98779
1077.546, 13.67542
1078.028, 12.56409
1078.510, 11.15112
1078.992, 11.00110
1079.474, 11.03406
1079.957, 9.893799
1080.439, 8.208618
1080.921, 7.750977
1081.403, 8.867310
1081.885, 9.086792
1082.367, 5.769165
1082.849, 3.302246
1083.331, 4.371460
1083.813, 6.812866
1084.296, 9.691650
1084.778, 12.14697
1085.260, 12.98816
1085.742, 12.06396
1086.224, 10.41467
1086.706, 7.525146
1087.188, 5.460571
1087.670, 5.819580
1088.152, 6.691528
1088.635, 6.737183
1089.117, 6.266724
1089.599, 5.744141
1090.081, 5.314087
1090.563, 5.256836
1091.045, 5.905396
1091.527, 6.435913
1092.009, 6.462402
1092.491, 6.308960
1092.974, 6.243652
1093.456, 6.077271
1093.938, 5.282593
1094.420, 4.120361
1094.902, 3.806641
1095.384, 5.019653
1095.866, 5.900146
1096.348, 4.892944
1096.831, 4.395630
1097.313, 6.544556
1097.795, 9.155029
1098.277, 9.597412
1098.759, 8.567627
1099.241, 8.878784
1099.723, 11.59558
1100.205, 12.64343
1100.688, 9.199951
1101.170, 5.914307
1101.652, 4.654297
1102.134, 4.354492
1102.616, 4.555786
1103.098, 4.870850
1103.580, 4.388672
1104.062, 2.900269
1104.544, 2.790527
1105.026, 6.568481
1105.509, 9.030396
1105.991, 7.697021
1106.473, 5.693359
1106.955, 4.923462
1107.437, 4.774536
1107.919, 4.115356
1108.401, 2.908081
1108.883, 2.124268
1109.366, 1.609253
1109.848, 1.971924
1110.330, 4.615356
1110.812, 6.583374
1111.294, 5.660278
1111.776, 4.002930
1112.258, 4.402344
1112.740, 6.381470
1113.223, 6.778442
1113.705, 4.675781
1114.187, 2.634644
1114.669, 2.7710000E-02
1115.151, 1.513062
1115.633, 0.2185060
1116.115, 1.929443
1116.597, 0.2253420
1117.079, 3.331421
1117.562, 4.407593
1118.044, 2.273438
1118.526, 0.7481690
1119.008, 0.4171140
1119.490, 0.4802250
1119.972, 1.625244
1120.454, 3.556030
1120.936, 3.971191
1121.418, 3.307007
1121.901, 2.067139
1122.383, 0.2229000
1122.865, 0.4007570
1123.347, 1.238037
1123.829, 1.296997
1124.311, 1.341919
1124.793, 3.872314
1125.275, 4.958496
1125.758, 5.617432
1126.240, 7.342041
1126.722, 9.564453
1127.204, 8.628784
1127.686, 9.851563
1128.168, 11.55627
1128.650, 9.099243
1129.132, 13.15588
1129.615, 11.09814
1130.097, 7.352661
1130.579, 5.237305
1131.061, 4.574951
1131.543, 5.300781
1132.025, 7.455444
1132.507, 7.640015
1132.989, 5.672241
1133.471, 4.901367
1133.953, 6.110962
1134.436, 6.857544
1134.918, 5.636719
1135.400, 4.101807
1135.882, 4.964844
1136.364, 7.278320
1136.846, 6.062988
1137.328, 2.002319
1137.810, 1.694214
1138.293, 5.517944
1138.775, 8.688477
1139.257, 9.358521
1139.739, 8.445557
1140.221, 6.458618
1140.703, 4.348267
1141.185, 4.000732
1141.667, 5.073120
1142.150, 7.076416
1142.632, 9.575684
1143.114, 11.09485
1143.596, 11.37756
1144.078, 11.32129
1144.560, 11.45496
1145.042, 11.46509
1145.524, 10.74731
1146.006, 9.866577
1146.489, 10.08179
1146.971, 10.65247
1147.453, 9.988281
1147.935, 8.194580
1148.417, 6.133179
1148.899, 4.171875
1149.381, 2.936523
1149.863, 2.860596
1150.345, 3.774292
1150.828, 6.656738
1151.310, 9.493042
1151.792, 9.506226
1152.274, 7.859863
1152.756, 6.778931
1153.238, 6.689331
1153.720, 4.693359
1154.202, 9.686523
1154.685, 12.53149
1155.167, 13.33997
1155.649, 6.026978
1156.131, 9.198853
1156.613, 8.168335
1157.095, 6.965454
1157.577, 11.61255
1158.059, 5.479126
1158.542, 10.03247
1159.024, 10.31958
1159.506, 12.55933
1159.988, 10.56909
1160.470, 9.885254
1160.952, 13.43127
1161.434, 14.63391
1161.916, 12.15002
1162.398, 14.50427
1162.880, 8.219849
1163.363, 9.520996
1163.845, 14.09595
1164.327, 11.83044
1164.809, 14.28931
1165.291, 14.94385
1165.773, 7.446045
1166.255, 14.09961
1166.737, 14.62744
1167.220, 8.864868
1167.702, 15.02942
1168.184, 10.14563
1168.666, 9.209839
1169.148, 11.24377
1169.630, 10.18298
1170.112, 14.01208
1170.594, 13.13770
1171.077, 11.84119
1171.559, 12.38135
1172.041, 7.717651
1172.523, 12.66638
1173.005, 10.93054
1173.487, 12.56897
1173.969, 10.84094
1174.451, 12.66479
1174.933, 12.00061
1175.416, 8.284424
1175.898, 6.381836
1176.380, 9.733643
1176.862, 14.52820
1177.344, 15.24158
1177.826, 13.07617
1178.308, 10.17102
1178.790, 7.258789
1179.272, 6.200195
1179.755, 6.834473
1180.237, 7.527588
1180.719, 7.580200
1181.201, 7.500732
1181.683, 7.939697
1182.165, 8.426147
1182.647, 7.832520
1183.129, 7.327148
1183.612, 8.701660
1184.094, 10.89807
1184.576, 12.18970
1185.058, 12.35400
1185.540, 11.70703
1186.022, 10.08191
1186.504, 9.579346
1186.986, 12.35864
1187.469, 14.49048
1187.951, 13.42090
1188.433, 11.79321
1188.915, 11.33020
1189.397, 11.81799
1189.879, 13.40369
1190.361, 16.03833
1190.843, 16.63379
1191.325, 13.41992
1191.807, 10.51343
1192.290, 6.376831
1192.772, 5.290039
1193.254, 11.04456
1193.736, 17.21912
1194.218, 18.16626
1194.700, 15.36169
1195.182, 12.36060
1195.664, 9.003052
1196.147, 8.055054
1196.629, 10.24646
1197.111, 10.47327
1197.593, 7.516968
1198.075, 5.572144
1198.557, 6.791626
1199.039, 8.535889
1199.521, 7.723511
1200.004, 8.925659
1200.486, 9.622192
1200.968, 9.227173
1201.450, 10.31482
1201.932, 9.692383
1202.414, 8.080322
1202.896, 5.955200
1203.378, 5.110840
1203.860, 6.466919
1204.343, 7.895874
1204.825, 6.916992
1205.307, 4.887939
1205.789, 2.664795
1206.271, 1.297729
1206.753, 3.244751
1207.235, 6.845703
1207.717, 7.977417
1208.199, 6.288086
1208.682, 5.920166
1209.164, 9.526245
1209.646, 12.03345
1210.128, 10.15015
1210.610, 7.354736
1211.092, 4.788940
1211.574, 3.083740
1212.056, 3.007813
1212.539, 4.094849
1213.021, 5.584595
1213.503, 7.481934
1213.985, 8.524048
1214.467, 7.751587
1214.949, 7.612915
1215.431, 8.826172
1215.913, 9.692261
1216.396, 9.633545
1216.878, 8.879028
1217.360, 7.324463
1217.842, 5.561768
1218.324, 5.163452
1218.806, 6.137939
1219.288, 7.786255
1219.770, 10.18689
1220.252, 11.88696
1220.734, 12.68030
1221.217, 10.58569
1221.699, 4.642700
1222.181, 2.1118000E-02
1222.663, 2.083984
1223.145, 7.229004
1223.627, 8.752930
1224.109, 7.814819
1224.591, 6.609619
1225.074, 5.455688
1225.556, 5.022827
1226.038, 5.138062
1226.520, 4.613647
1227.002, 2.999268
1227.484, 1.651245
1227.966, 1.859619
1228.448, 2.311768
1228.931, 1.472168
1229.413, 0.9702150
1229.895, 3.087158
1230.377, 5.877808
1230.859, 5.967041
1231.341, 7.574951
1231.823, 8.817871
1232.305, 7.892212
1232.787, 9.834961
1233.270, 7.843506
1233.752, 5.900146
1234.234, 4.188843
1234.716, 3.454102
1235.198, 4.214111
1235.680, 6.050049
1236.162, 8.981079
1236.644, 12.29053
1237.126, 12.13184
1237.609, 7.996460
1238.091, 5.545776
1238.573, 4.939209
1239.055, 5.966064
1239.537, 8.594238
1240.019, 9.720215
1240.501, 7.580322
1240.983, 5.256592
1241.466, 6.998413
1241.948, 9.856201
1242.430, 7.532104
1242.912, 2.418335
1243.394, 1.222778
1243.876, 3.102295
1244.358, 2.973267
1244.840, 1.360962
1245.323, 0.4504390
1245.805, 1.293335
1246.287, 1.124146
1246.769, 3.501953
1247.251, 7.219238
1247.733, 5.588379
1248.215, 3.354736
1248.697, 4.849243
1249.179, 7.625610
1249.661, 7.921143
1250.144, 5.857788
1250.626, 3.804321
1251.108, 1.201294
1251.590, 0.8983150
1252.072, 4.395020
1252.554, 6.797119
1253.036, 7.156616
1253.518, 6.293823
1254.001, 4.212646
1254.483, 2.480469
1254.965, 3.266235
1255.447, 1.704468
1255.929, 1.113647
1256.411, 1.316895
1256.893, 0.2735600
1257.375, 1.172607
1257.858, 2.339233
1258.340, 3.315063
1258.822, 3.881836
1259.304, 3.923462
1259.786, 3.369873
1260.268, 1.255737
1260.750, 7.1777001E-02
1261.232, 3.036011
1261.714, 6.902344
1262.197, 8.134155
1262.679, 7.310791
1263.161, 4.056641
1263.643, 2.8809000E-02
1264.125, 0.4211430
1264.607, 7.037720
1265.089, 10.85095
1265.571, 7.890381
1266.053, 5.296509
1266.536, 3.485352
1267.018, 3.438477
1267.500, 5.069336
1267.982, 6.775635
1268.464, 5.482666
1268.946, 2.863892
1269.428, 3.181641
1269.910, 6.175293
1270.393, 7.395752
1270.875, 7.030396
1271.357, 8.044556
1271.839, 10.50452
1272.321, 10.95691
1272.803, 8.403931
1273.285, 6.088379
1273.767, 6.289673
1274.250, 7.370483
1274.732, 7.205566
1275.214, 7.222900
1275.696, 8.480835
1276.178, 9.586182
1276.660, 9.703857
1277.142, 9.156128
1277.624, 8.252930
1278.106, 7.264893
1278.589, 6.228638
1279.071, 4.616089
1279.553, 3.962402
1280.035, 4.838501
1280.517, 6.061157
1280.999, 8.101807
1281.481, 9.252686
1281.963, 8.185059
1282.445, 6.238159
1282.928, 5.208496
1283.410, 4.946777
1283.892, 5.158325
1284.374, 5.847900
1284.856, 4.182495
1285.338, 0.4758300
1285.820, 0.2119140
1286.302, 2.721802
1286.785, 5.278198
1287.267, 2.426514
1287.749, 0.5288090
1288.231, 0.0000000E+00
##END=



