##NAMES=Serandite
##RRUFFID=R050261
##IDEAL CHEMISTRY=NaMn^2+^_2_Si_3_O_8_(OH)
##LOCALITY=Mont Saint-Hilaire, Rouville County, Quebec, Canada
##OWNER=RRUFF
##SOURCE=Marcus Origlieri
##DESCRIPTION=Orange tabular single crystal associated with aegirine and microcline
##STATUS=The identification of this mineral has been confirmed by X-ray diffraction and chemical analysis
##URL=rruff.info/R050261
##MEASURED CHEMISTRY=Na_0.96_(Mn_0.92_Ca_0.06_Fe_0.01_)_2_Si_3.03_O_8_(OH)
147.5026, 0.0000000E+00
147.9847, 9.0332001E-02
148.4668, 4.005981
148.9490, 6.308716
149.4311, 3.848633
149.9132, 0.4515380
150.3953, 0.5312500
150.8774, 1.314331
151.3595, 4.867920
151.8417, 10.37195
152.3238, 18.29688
152.8059, 25.59619
153.2880, 31.05640
153.7701, 36.09485
154.2522, 42.36987
154.7344, 50.93323
155.2165, 59.71997
155.6986, 68.16052
156.1807, 76.23804
156.6628, 84.31934
157.1449, 91.73767
157.6271, 99.76868
158.1092, 109.9324
158.5913, 123.2135
159.0734, 137.5948
159.5555, 152.8141
160.0376, 169.7777
160.5198, 184.9319
161.0019, 196.8010
161.4840, 206.2465
161.9661, 214.3610
162.4482, 222.6976
162.9303, 229.0902
163.4125, 231.9993
163.8946, 230.1046
164.3767, 227.2821
164.8588, 223.2966
165.3409, 219.7437
165.8230, 222.0477
166.3052, 234.4291
166.7873, 251.3721
167.2694, 267.7881
167.7515, 282.4744
168.2336, 295.9590
168.7157, 305.6139
169.1978, 311.9854
169.6800, 315.1278
170.1621, 315.8079
170.6442, 312.2422
171.1263, 302.4636
171.6084, 284.9253
172.0905, 262.6135
172.5727, 235.3237
173.0548, 204.2878
173.5369, 175.0623
174.0190, 150.8708
174.5011, 130.5261
174.9832, 112.2826
175.4654, 94.94385
175.9475, 80.31238
176.4296, 70.73315
176.9117, 65.88599
177.3938, 63.24988
177.8759, 62.16296
178.3581, 61.82617
178.8402, 60.75525
179.3223, 58.68701
179.8044, 55.52490
180.2865, 50.98779
180.7686, 45.09875
181.2508, 38.26782
181.7329, 30.13831
182.2150, 21.24768
182.6971, 13.11841
183.1792, 6.477905
183.6613, 0.7961430
184.1435, 5.194092
184.6256, 11.58240
185.1077, 16.88354
185.5898, 19.81201
186.0719, 20.49585
186.5540, 19.38550
187.0362, 15.56116
187.5183, 10.30542
188.0004, 7.963379
188.4825, 8.844604
188.9646, 9.527954
189.4467, 5.459473
189.9289, 2.756348
190.4110, 9.976440
190.8931, 13.56592
191.3752, 14.78992
191.8573, 18.99988
192.3394, 26.54529
192.8216, 35.66370
193.3037, 44.80225
193.7858, 53.95068
194.2679, 62.45605
194.7500, 70.01453
195.2321, 76.65527
195.7143, 82.98376
196.1964, 89.02588
196.6785, 94.50403
197.1606, 99.13904
197.6427, 103.0178
198.1248, 105.7772
198.6070, 106.7145
199.0891, 106.0328
199.5712, 107.1310
200.0533, 110.3842
200.5354, 114.4559
201.0175, 117.9725
201.4997, 121.1700
201.9818, 122.2456
202.4639, 120.0028
202.9460, 114.4407
203.4281, 109.5876
203.9102, 105.6674
204.3924, 102.0768
204.8745, 97.84192
205.3566, 92.82263
205.8387, 88.00024
206.3208, 83.45862
206.8029, 79.07935
207.2851, 77.02869
207.7672, 78.20227
208.2493, 80.41272
208.7314, 79.86255
209.2135, 75.43298
209.6956, 72.06055
210.1778, 71.90332
210.6599, 75.42139
211.1420, 77.74658
211.6241, 78.17542
212.1062, 78.16382
212.5883, 80.06372
213.0705, 84.36304
213.5526, 89.25415
214.0347, 94.08704
214.5168, 98.93237
214.9989, 103.5597
215.4810, 107.8491
215.9632, 112.0317
216.4453, 116.0847
216.9274, 119.2429
217.4095, 124.2128
217.8916, 132.6273
218.3737, 145.4725
218.8559, 155.3615
219.3380, 160.7157
219.8201, 164.3971
220.3022, 171.2692
220.7843, 183.1675
221.2664, 194.1721
221.7486, 202.1334
222.2307, 206.1876
222.7128, 211.3088
223.1949, 218.6869
223.6770, 226.1547
224.1591, 230.1429
224.6413, 229.8927
225.1234, 227.7573
225.6055, 224.0516
226.0876, 218.2899
226.5697, 213.6656
227.0518, 211.1348
227.5340, 209.0132
228.0161, 204.4768
228.4982, 195.5646
228.9803, 187.6912
229.4624, 182.4331
229.9445, 180.0090
230.4267, 178.9758
230.9088, 179.9877
231.3909, 181.8765
231.8730, 183.0320
232.3551, 183.2817
232.8372, 183.1331
233.3194, 182.8573
233.8015, 182.6522
234.2836, 181.2841
234.7657, 178.9355
235.2478, 175.3147
235.7299, 169.8553
236.2121, 161.7488
236.6942, 153.2716
237.1763, 145.1661
237.6584, 137.7070
238.1405, 128.6896
238.6226, 117.0272
239.1048, 104.8346
239.5869, 94.71814
240.0690, 87.39209
240.5511, 80.89233
241.0332, 74.66907
241.5153, 68.58716
241.9975, 62.63501
242.4796, 56.14465
242.9617, 50.39734
243.4438, 47.28699
243.9259, 49.17712
244.4080, 49.80054
244.8902, 47.09326
245.3723, 40.70410
245.8544, 37.88916
246.3365, 39.77527
246.8186, 43.81506
247.3007, 47.67114
247.7829, 50.43933
248.2650, 54.88049
248.7471, 61.48987
249.2292, 70.32068
249.7113, 80.94775
250.1934, 94.03699
250.6756, 108.2747
251.1577, 122.6106
251.6398, 136.6667
252.1219, 151.5342
252.6040, 167.2809
253.0861, 183.7991
253.5683, 202.1542
254.0504, 223.0594
254.5325, 245.0100
255.0146, 266.7642
255.4967, 288.3167
255.9788, 309.9301
256.4609, 332.2863
256.9431, 354.9119
257.4252, 375.5813
257.9073, 395.0117
258.3894, 411.5752
258.8715, 424.2205
259.3536, 433.1782
259.8358, 437.9338
260.3179, 438.2268
260.8000, 434.2864
261.2821, 427.1626
261.7642, 415.8857
262.2463, 402.9752
262.7285, 389.1083
263.2106, 372.5266
263.6927, 361.0475
264.1748, 357.0179
264.6569, 358.2229
265.1390, 356.1370
265.6212, 348.8772
266.1033, 342.2712
266.5854, 339.9822
267.0675, 343.3740
267.5496, 345.9620
268.0317, 347.7085
268.5139, 348.2488
268.9960, 346.4230
269.4781, 341.8613
269.9602, 335.9443
270.4423, 329.7021
270.9244, 323.6249
271.4066, 314.3716
271.8887, 301.1243
272.3708, 285.4095
272.8529, 270.4331
273.3350, 256.3196
273.8171, 242.5104
274.2993, 228.0919
274.7814, 212.9150
275.2635, 200.2681
275.7456, 190.2365
276.2277, 182.5797
276.7098, 177.5176
277.1920, 175.4034
277.6741, 173.8584
278.1562, 171.8082
278.6383, 169.2469
279.1204, 168.1171
279.6025, 168.5387
280.0847, 170.0833
280.5668, 171.7587
281.0489, 173.3699
281.5310, 177.6165
282.0131, 187.2345
282.4952, 200.9692
282.9774, 207.6472
283.4595, 206.1322
283.9416, 202.4712
284.4237, 203.6843
284.9058, 209.7504
285.3879, 214.4446
285.8701, 215.8206
286.3522, 214.7035
286.8343, 214.3564
287.3164, 214.9653
287.7985, 214.7878
288.2806, 211.6453
288.7628, 205.8434
289.2449, 200.5941
289.7270, 196.5377
290.2091, 193.4539
290.6912, 191.4417
291.1733, 190.5562
291.6555, 188.7230
292.1376, 183.1904
292.6197, 174.9965
293.1018, 169.1947
293.5839, 167.2316
294.0660, 167.0187
294.5482, 165.1731
295.0303, 161.8029
295.5124, 157.9409
295.9945, 153.6202
296.4766, 149.2788
296.9587, 146.5663
297.4409, 146.0970
297.9230, 145.8518
298.4051, 143.1396
298.8872, 138.2979
299.3693, 132.6847
299.8514, 126.5499
300.3336, 120.2654
300.8157, 114.9982
301.2978, 111.1060
301.7799, 106.4457
302.2620, 97.61292
302.7441, 86.09692
303.2263, 75.85913
303.7084, 69.62170
304.1905, 65.11682
304.6726, 59.16577
305.1547, 51.70337
305.6368, 44.34570
306.1190, 38.59253
306.6011, 33.88867
307.0832, 29.44836
307.5653, 24.81238
308.0474, 20.42261
308.5295, 17.33301
309.0117, 15.32263
309.4938, 12.46643
309.9759, 6.344482
310.4580, 0.9484860
310.9401, 6.833374
311.4222, 10.88232
311.9044, 13.03711
312.3865, 12.18933
312.8686, 9.076050
313.3507, 6.341309
313.8328, 5.602539
314.3149, 5.767944
314.7971, 6.146362
315.2792, 7.195190
315.7613, 7.250366
316.2434, 4.757202
316.7255, 0.6748050
317.2076, 2.932495
317.6898, 3.225464
318.1719, 4.276001
318.6540, 9.074585
319.1361, 19.12988
319.6182, 28.35425
320.1003, 34.61267
320.5825, 39.05164
321.0646, 43.21631
321.5467, 46.65564
322.0288, 50.52600
322.5109, 55.43958
322.9930, 61.60547
323.4752, 67.83667
323.9573, 73.89697
324.4394, 80.02954
324.9215, 86.43201
325.4036, 92.99255
325.8857, 99.52100
326.3679, 106.3092
326.8500, 113.4814
327.3321, 119.7664
327.8142, 124.8315
328.2963, 128.9897
328.7784, 132.4324
329.2606, 136.5308
329.7427, 138.3694
330.2248, 137.0385
330.7069, 133.3317
331.1890, 130.1389
331.6711, 128.6289
332.1533, 125.9458
332.6354, 120.7518
333.1175, 111.8806
333.5996, 103.3640
334.0817, 95.19849
334.5638, 87.48779
335.0460, 80.30127
335.5281, 73.68738
336.0102, 67.18042
336.4923, 60.55432
336.9744, 53.66711
337.4565, 46.55676
337.9387, 38.89075
338.4208, 31.59875
338.9029, 25.80835
339.3850, 21.57373
339.8671, 18.03528
340.3492, 15.00305
340.8313, 12.56665
341.3134, 11.70630
341.7956, 12.97290
342.2777, 14.15430
342.7598, 13.00867
343.2419, 9.460815
343.7240, 6.620605
344.2061, 4.817993
344.6883, 4.238159
345.1704, 5.784912
345.6525, 9.591309
346.1346, 13.69617
346.6167, 16.83948
347.0988, 19.19946
347.5810, 21.63867
348.0631, 24.29016
348.5452, 26.85413
349.0273, 28.61829
349.5094, 29.74268
349.9915, 31.27136
350.4737, 33.22009
350.9558, 35.98096
351.4379, 40.79199
351.9200, 47.76794
352.4021, 55.01782
352.8842, 61.46692
353.3664, 66.89172
353.8485, 70.75769
354.3306, 71.63330
354.8127, 71.95667
355.2948, 74.79089
355.7769, 79.86682
356.2591, 85.17334
356.7412, 88.40442
357.2233, 91.50024
357.7054, 97.20264
358.1875, 107.8374
358.6696, 118.0245
359.1518, 123.2712
359.6339, 125.0190
360.1160, 126.7092
360.5981, 129.0226
361.0802, 132.4590
361.5623, 138.0946
362.0445, 146.8860
362.5266, 153.9066
363.0087, 155.7710
363.4908, 154.9642
363.9729, 154.6284
364.4550, 156.4242
364.9372, 158.0980
365.4193, 159.5856
365.9014, 160.8859
366.3835, 159.4718
366.8656, 153.4353
367.3477, 145.3167
367.8299, 136.8654
368.3120, 126.9773
368.7941, 118.1687
369.2762, 112.1198
369.7583, 107.8387
370.2404, 100.6874
370.7226, 88.35864
371.2047, 75.60681
371.6868, 64.16650
372.1689, 54.27954
372.6510, 45.00037
373.1331, 35.65527
373.6153, 27.23804
374.0974, 21.64844
374.5795, 20.27295
375.0616, 19.02637
375.5437, 16.92908
376.0258, 13.99585
376.5080, 9.941895
376.9901, 3.984985
377.4722, 1.663208
377.9543, 4.886597
378.4364, 5.460449
378.9185, 4.911499
379.4007, 3.046265
379.8828, 0.5651860
380.3649, 0.3101810
380.8470, 0.5260010
381.3291, 2.180176
381.8112, 4.763306
382.2934, 7.987793
382.7755, 9.180176
383.2576, 7.653564
383.7397, 5.474976
384.2218, 5.997437
384.7039, 8.720215
385.1861, 10.88379
385.6682, 10.72266
386.1503, 9.283325
386.6324, 8.431274
387.1145, 8.196167
387.5966, 8.463135
388.0788, 10.08582
388.5609, 12.01660
389.0430, 12.29150
389.5251, 9.407593
390.0072, 5.794189
390.4893, 3.379517
390.9715, 2.080811
391.4536, 1.432007
391.9357, 1.930542
392.4178, 2.549316
392.8999, 2.505249
393.3820, 1.695435
393.8642, 7.2388001E-02
394.3463, 3.805420
394.8284, 8.289185
395.3105, 10.77356
395.7926, 7.371338
396.2747, 4.724854
396.7569, 6.027100
397.2390, 11.58484
397.7211, 16.52380
398.2032, 18.36218
398.6853, 20.11023
399.1674, 23.93762
399.6496, 32.40063
400.1317, 40.11914
400.6138, 46.02710
401.0959, 50.78247
401.5780, 56.83044
402.0602, 65.78894
402.5423, 74.08203
403.0244, 79.74866
403.5065, 81.26868
403.9886, 85.81433
404.4707, 94.98438
404.9529, 105.6360
405.4350, 113.1312
405.9171, 116.2499
406.3992, 120.2612
406.8813, 126.6489
407.3634, 135.0975
407.8456, 143.9193
408.3277, 153.1598
408.8098, 162.6709
409.2919, 172.5924
409.7740, 182.8884
410.2561, 191.7433
410.7383, 198.4075
411.2204, 204.6003
411.7025, 213.9606
412.1846, 226.1445
412.6667, 238.3290
413.1488, 250.0531
413.6310, 260.4476
414.1131, 267.2368
414.5952, 270.2126
415.0773, 271.3600
415.5594, 272.8510
416.0415, 273.7324
416.5237, 272.2246
417.0058, 266.6444
417.4879, 259.6827
417.9700, 253.9418
418.4521, 248.8994
418.9342, 242.4106
419.4164, 232.9346
419.8985, 221.7772
420.3806, 209.7557
420.8627, 196.4366
421.3448, 183.6836
421.8269, 171.5481
422.3091, 160.4528
422.7912, 150.9115
423.2733, 144.1798
423.7554, 137.9272
424.2375, 131.8757
424.7196, 126.0757
425.2018, 119.0349
425.6839, 108.5872
426.1660, 98.43481
426.6481, 90.71887
427.1302, 87.74585
427.6123, 83.72363
428.0945, 77.69568
428.5766, 70.79724
429.0587, 65.75757
429.5408, 63.49109
430.0229, 61.14539
430.5050, 57.40808
430.9872, 52.19507
431.4693, 48.51257
431.9514, 46.53699
432.4335, 45.51953
432.9156, 45.10132
433.3977, 45.29602
433.8799, 44.26831
434.3620, 41.06433
434.8441, 36.98840
435.3262, 35.25842
435.8083, 35.82715
436.2904, 36.20300
436.7726, 34.45728
437.2547, 31.50061
437.7368, 29.40259
438.2189, 28.31433
438.7010, 27.24951
439.1831, 24.95569
439.6652, 22.00378
440.1473, 19.56116
440.6295, 18.34607
441.1116, 18.06274
441.5937, 19.24744
442.0758, 21.30090
442.5579, 21.76013
443.0400, 16.50464
443.5222, 11.28784
444.0043, 11.02222
444.4864, 18.94836
444.9685, 25.29211
445.4506, 25.45886
445.9327, 22.43396
446.4149, 20.61768
446.8970, 21.97876
447.3791, 23.85327
447.8612, 25.99316
448.3433, 28.30945
448.8254, 29.28076
449.3076, 26.83533
449.7897, 24.80725
450.2718, 25.82495
450.7539, 32.30261
451.2360, 36.42773
451.7181, 37.21716
452.2003, 36.30078
452.6824, 36.46899
453.1645, 37.62598
453.6466, 39.74316
454.1287, 42.83887
454.6108, 47.03882
455.0930, 52.37732
455.5751, 59.04346
456.0572, 65.35291
456.5393, 68.70178
457.0214, 69.92944
457.5035, 73.64185
457.9857, 81.42737
458.4678, 90.42554
458.9499, 96.71045
459.4320, 100.7015
459.9141, 104.0385
460.3962, 108.3617
460.8784, 112.0939
461.3605, 112.9067
461.8426, 110.7483
462.3247, 108.1272
462.8068, 106.8997
463.2889, 105.9850
463.7711, 104.2449
464.2532, 101.1323
464.7353, 97.47400
465.2174, 93.20544
465.6995, 88.62830
466.1816, 84.38647
466.6638, 79.21375
467.1459, 75.74548
467.6280, 75.32446
468.1101, 78.69434
468.5922, 81.85950
469.0743, 85.17932
469.5565, 87.91675
470.0386, 89.30505
470.5207, 88.39709
471.0028, 88.04602
471.4849, 88.42505
471.9670, 89.59534
472.4492, 91.76428
472.9313, 94.98083
473.4134, 99.07397
473.8955, 104.0728
474.3776, 109.9852
474.8597, 116.6665
475.3419, 124.3932
475.8240, 131.6006
476.3061, 136.6053
476.7882, 139.6499
477.2703, 141.6526
477.7524, 142.3534
478.2346, 142.9272
478.7167, 144.6125
479.1988, 147.4985
479.6809, 151.9067
480.1630, 159.1658
480.6451, 167.3083
481.1273, 174.2441
481.6094, 179.8519
482.0915, 185.7734
482.5736, 193.4454
483.0557, 201.6060
483.5378, 209.1721
484.0200, 215.7480
484.5021, 221.8447
484.9842, 226.5668
485.4663, 230.8405
485.9484, 237.0717
486.4305, 246.5835
486.9127, 257.0990
487.3948, 268.4587
487.8769, 280.9392
488.3590, 291.1589
488.8411, 297.7820
489.3232, 303.6821
489.8054, 311.3308
490.2875, 321.2985
490.7696, 331.1643
491.2517, 340.6171
491.7338, 349.7349
492.2159, 358.5474
492.6981, 367.1472
493.1802, 375.6177
493.6623, 385.5946
494.1444, 395.5973
494.6265, 398.6888
495.1086, 394.8413
495.5908, 387.5320
496.0729, 377.4396
496.5550, 366.2814
497.0371, 358.1305
497.5192, 354.8695
498.0013, 351.9655
498.4835, 344.8284
498.9656, 334.9656
499.4477, 325.7124
499.9298, 319.3472
500.4119, 313.1649
500.8940, 304.8386
501.3762, 294.4033
501.8583, 286.3923
502.3404, 284.4915
502.8225, 283.6832
503.3046, 280.8138
503.7867, 273.9265
504.2689, 267.6726
504.7510, 261.7290
505.2331, 256.7347
505.7152, 253.8296
506.1973, 254.4528
506.6794, 254.3505
507.1616, 252.3539
507.6437, 248.6970
508.1258, 245.2275
508.6079, 241.9045
509.0900, 238.9172
509.5721, 236.8823
510.0543, 235.6813
510.5364, 233.0259
511.0185, 228.5664
511.5006, 223.5457
511.9827, 219.8643
512.4648, 216.7224
512.9470, 212.0057
513.4291, 204.5347
513.9112, 196.1934
514.3933, 188.5282
514.8754, 181.3541
515.3575, 174.3049
515.8397, 166.2765
516.3218, 158.7026
516.8039, 153.1067
517.2860, 150.0295
517.7681, 146.6173
518.2502, 140.4659
518.7324, 134.4049
519.2145, 130.8538
519.6966, 131.9230
520.1787, 132.9586
520.6608, 133.6785
521.1429, 134.2841
521.6251, 135.0792
522.1072, 136.1083
522.5893, 136.8115
523.0714, 137.3656
523.5535, 137.9023
524.0356, 137.5836
524.5178, 136.4393
524.9999, 133.5515
525.4820, 127.4159
525.9641, 118.4640
526.4462, 109.8556
526.9283, 102.0239
527.4105, 94.55969
527.8926, 86.45691
528.3747, 77.96167
528.8568, 70.23193
529.3389, 64.50793
529.8210, 59.50159
530.3032, 53.65186
530.7853, 46.99451
531.2674, 40.50403
531.7495, 34.74646
532.2316, 29.32324
532.7137, 23.37451
533.1959, 16.31873
533.6780, 11.53613
534.1601, 10.87195
534.6422, 11.95813
535.1243, 12.47119
535.6064, 12.24536
536.0886, 11.38977
536.5707, 9.211426
537.0528, 6.442505
537.5349, 5.411011
538.0170, 7.387695
538.4991, 8.475830
538.9813, 6.454590
539.4634, 1.549072
539.9455, 1.212769
540.4276, 1.571533
540.9097, 0.9842530
541.3918, 0.5740970
541.8740, 0.1777340
542.3561, 0.2204590
542.8382, 0.4465330
543.3203, 0.8166500
543.8024, 1.093506
544.2845, 1.808228
544.7667, 4.131958
545.2488, 11.67029
545.7309, 18.40601
546.2130, 19.22876
546.6951, 15.20203
547.1772, 11.08228
547.6594, 7.426025
548.1415, 5.312744
548.6236, 5.725098
549.1057, 9.691284
549.5878, 12.81714
550.0699, 14.91101
550.5521, 16.00952
551.0342, 16.02051
551.5163, 14.24524
551.9984, 13.03186
552.4805, 13.03235
552.9626, 13.42957
553.4448, 11.99182
553.9269, 8.400757
554.4090, 5.361206
554.8911, 3.517822
555.3732, 3.088013
555.8553, 6.130493
556.3375, 12.52856
556.8196, 17.62927
557.3017, 16.58167
557.7838, 12.17517
558.2659, 8.806396
558.7480, 7.052856
559.2302, 6.216187
559.7123, 6.207642
560.1944, 6.658325
560.6765, 7.093384
561.1586, 7.597778
561.6407, 7.816895
562.1229, 7.529419
562.6050, 6.858398
563.0871, 6.176880
563.5692, 5.029663
564.0513, 4.437378
564.5334, 4.965210
565.0156, 6.681396
565.4977, 7.703857
565.9798, 8.162964
566.4619, 7.696899
566.9440, 5.709229
567.4261, 2.079224
567.9083, 1.167603
568.3904, 4.067505
568.8725, 5.992920
569.3546, 5.137939
569.8367, 2.280151
570.3188, 0.9949950
570.8010, 3.255493
571.2831, 6.541016
571.7652, 8.116211
572.2473, 8.123901
572.7294, 7.036987
573.2115, 3.745605
573.6937, 0.4874270
574.1758, 1.350830
574.6579, 1.645752
575.1400, 1.001709
575.6221, 1.855591
576.1042, 4.577515
576.5864, 5.463379
577.0685, 2.612671
577.5506, 1.282715
578.0327, 2.611938
578.5148, 4.610840
578.9969, 4.241333
579.4791, 0.3790280
579.9612, 1.556885
580.4433, 0.4411620
580.9254, 4.315430
581.4075, 4.182495
581.8896, 0.1057130
582.3718, 4.123291
582.8539, 7.136230
583.3360, 8.715576
583.8181, 7.581787
584.3002, 3.859375
584.7823, 0.3620610
585.2645, 0.1726070
585.7466, 0.7785640
586.2287, 0.8339840
586.7108, 6.122803
587.1929, 10.32861
587.6750, 11.45288
588.1571, 10.29858
588.6392, 7.812256
589.1213, 0.1130370
589.6035, 3.983643
590.0856, 1.492676
590.5677, 4.976074
591.0498, 8.156250
591.5319, 6.631104
592.0140, 5.150391
592.4962, 5.870850
592.9783, 8.291992
593.4604, 7.378662
593.9425, 2.706787
594.4246, 1.305664
594.9067, 0.1350100
595.3889, 4.927734
595.8710, 6.548340
596.3531, 4.302734
596.8352, 0.8017580
597.3173, 3.276123
597.7994, 6.529297
598.2816, 6.753662
598.7637, 1.128662
599.2458, 3.971924
599.7279, 4.958252
600.2100, 3.299072
600.6921, 1.813477
601.1743, 0.1831050
601.6564, 0.2995610
602.1385, 1.544189
602.6206, 5.141846
603.1027, 6.052246
603.5848, 2.873047
604.0670, 4.7363002E-02
604.5491, 0.1669920
605.0312, 2.632568
605.5133, 3.443848
605.9954, 2.014648
606.4775, 7.2265998E-02
606.9597, 0.5671390
607.4418, 0.2656250
607.9239, 0.3320310
608.4060, 0.8652340
608.8881, 2.134766
609.3702, 5.547363
609.8524, 9.681641
610.3345, 12.01758
610.8166, 10.15210
611.2987, 7.805908
611.7808, 5.967773
612.2629, 4.882324
612.7451, 5.317383
613.2272, 10.17725
613.7093, 13.94458
614.1914, 14.38062
614.6735, 11.38159
615.1556, 10.15869
615.6378, 11.22827
616.1199, 12.98999
616.6020, 14.49292
617.0841, 15.74023
617.5662, 17.11401
618.0483, 18.59692
618.5305, 20.26587
619.0126, 22.59961
619.4947, 25.20239
619.9768, 26.94775
620.4589, 27.20044
620.9410, 27.50098
621.4232, 29.98926
621.9053, 33.46411
622.3874, 35.74097
622.8695, 34.68262
623.3516, 33.65771
623.8337, 33.72144
624.3159, 34.88989
624.7980, 37.06348
625.2801, 40.69263
625.7622, 44.61157
626.2443, 48.63721
626.7264, 52.85571
627.2086, 56.94360
627.6907, 61.47900
628.1728, 64.62549
628.6549, 63.40723
629.1370, 58.42798
629.6191, 57.46558
630.1013, 61.39648
630.5834, 67.48462
631.0655, 73.72827
631.5476, 79.96313
632.0297, 85.60059
632.5118, 90.02539
632.9940, 94.60596
633.4761, 100.5020
633.9582, 107.0913
634.4403, 113.3252
634.9224, 118.2883
635.4045, 123.8809
635.8867, 130.4700
636.3688, 137.9895
636.8509, 146.1101
637.3330, 155.1992
637.8151, 164.8401
638.2972, 175.0239
638.7794, 185.4717
639.2615, 194.3364
639.7436, 201.6133
640.2257, 209.3943
640.7078, 219.1968
641.1899, 230.8496
641.6721, 243.9109
642.1542, 258.5632
642.6363, 273.3569
643.1184, 285.4827
643.6005, 297.8159
644.0826, 313.9070
644.5648, 336.0725
645.0469, 358.6506
645.5290, 378.5837
646.0111, 398.3762
646.4932, 421.6245
646.9753, 450.5559
647.4575, 481.0437
647.9396, 511.5747
648.4217, 543.2871
648.9038, 579.0669
649.3859, 619.4683
649.8680, 664.6082
650.3502, 715.0105
650.8323, 769.8159
651.3144, 825.5530
651.7965, 883.0093
652.2786, 945.1807
652.7607, 1012.456
653.2429, 1086.413
653.7250, 1169.895
654.2071, 1262.527
654.6892, 1359.731
655.1713, 1457.654
655.6534, 1560.644
656.1356, 1672.305
656.6177, 1792.715
657.0998, 1922.320
657.5819, 2059.045
658.0640, 2206.727
658.5461, 2366.701
659.0283, 2537.235
659.5104, 2725.878
659.9925, 2932.744
660.4746, 3156.764
660.9567, 3397.286
661.4388, 3654.171
661.9210, 3925.250
662.4031, 4208.169
662.8852, 4501.875
663.3673, 4809.125
663.8494, 5125.574
664.3315, 5437.148
664.8137, 5750.526
665.2958, 6045.747
665.7779, 6321.738
666.2600, 6573.848
666.7421, 6757.294
667.2242, 6873.138
667.7064, 6904.457
668.1885, 6846.866
668.6706, 6698.007
669.1527, 6477.711
669.6348, 6171.750
670.1169, 5820.346
670.5991, 5436.320
671.0812, 5021.261
671.5633, 4607.573
672.0454, 4194.455
672.5275, 3796.752
673.0096, 3429.092
673.4918, 3093.684
673.9739, 2791.690
674.4560, 2524.803
674.9381, 2286.818
675.4202, 2073.493
675.9023, 1882.875
676.3845, 1714.883
676.8666, 1574.430
677.3487, 1447.806
677.8308, 1337.181
678.3129, 1239.080
678.7950, 1148.722
679.2772, 1067.134
679.7593, 992.8484
680.2414, 925.1943
680.7235, 864.9563
681.2056, 813.7209
681.6877, 772.1860
682.1699, 734.2283
682.6520, 696.2197
683.1341, 660.1221
683.6162, 630.5520
684.0983, 606.9167
684.5804, 585.5342
685.0626, 563.7637
685.5447, 543.7153
686.0268, 526.5176
686.5089, 512.4204
686.9910, 501.4490
687.4731, 494.8799
687.9553, 490.4316
688.4374, 486.6919
688.9195, 482.6521
689.4016, 482.2522
689.8837, 485.7590
690.3658, 492.3618
690.8480, 501.2712
691.3301, 512.3979
691.8122, 525.5015
692.2943, 540.5098
692.7764, 557.4980
693.2585, 575.9282
693.7407, 596.6963
694.2228, 621.1270
694.7049, 650.8901
695.1870, 683.1711
695.6691, 714.9873
696.1512, 748.2195
696.6334, 787.9729
697.1155, 839.5056
697.5976, 891.8237
698.0797, 943.4768
698.5618, 994.2161
699.0439, 1044.967
699.5261, 1096.418
700.0082, 1144.177
700.4903, 1186.714
700.9724, 1224.079
701.4545, 1260.256
701.9366, 1294.046
702.4188, 1315.831
702.9009, 1317.936
703.3830, 1305.838
703.8651, 1284.450
704.3472, 1254.381
704.8293, 1214.216
705.3115, 1157.968
705.7936, 1095.779
706.2757, 1032.761
706.7578, 968.2590
707.2399, 905.5942
707.7220, 844.3157
708.2042, 784.4856
708.6863, 725.7371
709.1684, 667.6196
709.6505, 618.3264
710.1326, 578.6230
710.6147, 543.6025
711.0969, 507.9287
711.5790, 473.2363
712.0611, 442.5574
712.5432, 416.5708
713.0253, 394.0776
713.5074, 375.4780
713.9896, 359.4460
714.4717, 344.6294
714.9538, 330.3093
715.4359, 318.3713
715.9180, 309.7007
716.4001, 302.9175
716.8823, 296.1912
717.3644, 289.6074
717.8465, 283.6570
718.3286, 279.3582
718.8107, 274.7495
719.2928, 264.2615
719.7750, 248.7598
720.2571, 234.8799
720.7392, 228.2024
721.2213, 222.0684
721.7034, 207.3374
722.1855, 186.8513
722.6677, 169.5603
723.1498, 163.1489
723.6319, 157.2500
724.1140, 147.4580
724.5961, 133.8354
725.0782, 119.2837
725.5604, 101.5581
726.0425, 87.38330
726.5246, 80.65503
727.0067, 80.50122
727.4888, 77.25342
727.9709, 70.76465
728.4531, 64.20020
728.9352, 60.35205
729.4173, 57.87671
729.8994, 54.20435
730.3815, 49.23853
730.8636, 45.13330
731.3458, 45.42114
731.8279, 45.54126
732.3100, 41.53638
732.7921, 31.26562
733.2742, 23.60791
733.7563, 20.32910
734.2385, 18.57935
734.7206, 16.28442
735.2027, 13.09082
735.6848, 11.37891
736.1669, 11.47437
736.6490, 12.13599
737.1312, 12.07080
737.6133, 11.50830
738.0954, 11.24536
738.5775, 11.60767
739.0596, 11.23438
739.5417, 7.146973
740.0239, 2.554688
740.5060, 1.355469
740.9881, 7.519287
741.4702, 12.25928
741.9523, 14.41870
742.4344, 14.16357
742.9166, 10.86816
743.3987, 2.819580
743.8808, 1.914063
744.3629, 1.402832
744.8450, 1.164551
745.3271, 0.2705080
745.8093, 4.772217
746.2914, 7.076904
746.7735, 4.609619
747.2556, 1.034424
747.7377, 0.7255860
748.2198, 0.8549800
748.7020, 0.2756350
749.1841, 4.300537
749.6662, 7.578613
750.1483, 8.931152
750.6304, 8.776367
751.1125, 8.025635
751.5947, 5.989258
752.0768, 5.183105
752.5589, 6.937744
753.0410, 9.819580
753.5231, 8.518311
754.0052, 3.527344
754.4874, 0.8383790
754.9695, 6.059326
755.4516, 13.15283
755.9337, 14.34106
756.4158, 10.96582
756.8979, 7.595703
757.3801, 5.592529
757.8622, 4.545654
758.3443, 4.670410
758.8264, 5.805908
759.3085, 6.569580
759.7906, 7.289063
760.2728, 6.962891
760.7549, 4.643799
761.2370, 0.9350590
761.7191, 0.5571290
762.2012, 0.1735840
762.6833, 1.412109
763.1655, 2.511230
763.6476, 3.266113
764.1297, 3.363525
764.6118, 2.820801
765.0939, 1.828125
765.5760, 0.7822270
766.0582, 2.753662
766.5403, 2.242432
767.0224, 1.115234
767.5045, 2.262939
767.9866, 4.9316000E-02
768.4688, 2.485352
768.9509, 3.924805
769.4330, 4.294189
769.9151, 3.405273
770.3972, 1.175781
770.8793, 0.3635250
771.3615, 1.502686
771.8436, 4.495850
772.3257, 4.638428
772.8078, 1.632813
773.2899, 0.1066890
773.7720, 3.031738
774.2542, 7.117432
774.7363, 9.801758
775.2184, 10.88550
775.7005, 10.53833
776.1826, 7.810547
776.6647, 5.274414
777.1469, 5.281982
777.6290, 7.703613
778.1111, 7.655273
778.5932, 4.900635
779.0753, 2.490723
779.5574, 4.138672
780.0396, 7.309082
780.5217, 8.102051
781.0038, 5.684082
781.4859, 4.052979
781.9680, 5.677246
782.4501, 8.252686
782.9323, 10.16772
783.4144, 11.42505
783.8965, 11.47510
784.3785, 9.493408
784.8607, 7.747314
785.3428, 8.628906
785.8249, 11.81226
786.3070, 14.29053
786.7891, 15.82300
787.2712, 16.68628
787.7534, 16.89966
788.2355, 16.68994
788.7176, 16.24634
789.1997, 15.47021
789.6818, 15.01538
790.1639, 15.61157
790.6461, 16.24585
791.1282, 15.91748
791.6103, 13.42822
792.0924, 13.47217
792.5745, 16.87939
793.0566, 20.98096
793.5388, 23.38672
794.0209, 24.22192
794.5030, 23.62109
794.9851, 21.45117
795.4672, 19.41235
795.9493, 19.47998
796.4315, 20.31958
796.9136, 20.31641
797.3957, 18.79077
797.8778, 17.72705
798.3599, 18.08887
798.8420, 18.80518
799.3242, 19.12817
799.8063, 19.13452
800.2884, 18.33325
800.7705, 16.42480
801.2526, 14.68970
801.7347, 14.39404
802.2169, 15.35645
802.6990, 17.15308
803.1811, 19.74219
803.6632, 22.36084
804.1453, 25.21948
804.6274, 27.65454
805.1096, 28.83911
805.5917, 27.95459
806.0738, 26.85254
806.5559, 24.97070
807.0380, 23.48267
807.5201, 23.55786
808.0023, 25.50610
808.4844, 27.82666
808.9665, 30.68945
809.4486, 32.90967
809.9307, 33.22559
810.4128, 31.71387
810.8950, 28.19214
811.3771, 22.54688
811.8592, 18.74561
812.3413, 19.71436
812.8234, 22.21460
813.3055, 23.84546
813.7877, 24.99854
814.2698, 25.33496
814.7519, 24.33301
815.2340, 23.10229
815.7161, 22.78516
816.1982, 23.34619
816.6804, 23.78003
817.1625, 24.09546
817.6446, 24.00513
818.1267, 23.02441
818.6088, 21.99292
819.0909, 21.92163
819.5731, 22.91309
820.0552, 24.16602
820.5373, 25.21802
821.0194, 25.90869
821.5015, 26.16870
821.9836, 26.11157
822.4658, 26.72754
822.9479, 28.33252
823.4300, 30.02710
823.9121, 30.80371
824.3942, 30.67603
824.8763, 30.08276
825.3585, 29.16479
825.8406, 27.96362
826.3227, 25.54736
826.8048, 23.02686
827.2869, 21.84521
827.7690, 22.43091
828.2512, 21.99561
828.7333, 19.29517
829.2154, 17.15967
829.6975, 17.23071
830.1796, 19.39868
830.6617, 20.79053
831.1439, 21.39258
831.6260, 21.49072
832.1081, 20.62329
832.5902, 19.34155
833.0723, 18.17725
833.5544, 17.23975
834.0366, 17.42725
834.5187, 21.29199
835.0008, 24.46680
835.4829, 23.74048
835.9650, 19.21436
836.4471, 16.79614
836.9293, 16.83130
837.4114, 18.00366
837.8935, 20.10205
838.3756, 22.60669
838.8577, 23.93726
839.3398, 24.19775
839.8220, 24.20532
840.3041, 24.30713
840.7862, 24.42627
841.2683, 24.71533
841.7504, 25.05469
842.2325, 24.70020
842.7147, 22.28955
843.1968, 20.92261
843.6789, 22.04956
844.1610, 24.79688
844.6431, 25.07617
845.1252, 22.81934
845.6074, 20.23804
846.0895, 18.11816
846.5716, 16.42310
847.0537, 15.12671
847.5358, 14.22803
848.0179, 13.71802
848.5001, 13.25537
848.9822, 13.54077
849.4643, 15.60693
849.9464, 18.50391
850.4285, 19.96582
850.9106, 19.57495
851.3928, 18.96948
851.8749, 18.37305
852.3570, 17.89795
852.8391, 17.98364
853.3212, 18.37280
853.8033, 18.27734
854.2855, 17.05762
854.7676, 15.82104
855.2497, 15.28198
855.7318, 15.18848
856.2139, 15.19409
856.6960, 15.77881
857.1782, 15.64502
857.6603, 14.61987
858.1424, 13.00098
858.6245, 10.83960
859.1066, 8.254883
859.5887, 6.892822
860.0709, 7.256592
860.5530, 8.053467
861.0351, 8.525391
861.5172, 8.334473
861.9993, 6.677979
862.4814, 2.286621
862.9636, 0.6784670
863.4457, 0.2456050
863.9278, 1.255859
864.4099, 2.425293
864.8920, 3.425537
865.3741, 2.641602
865.8563, 0.3359380
866.3384, 2.999512
866.8205, 3.141113
867.3026, 1.341553
867.7847, 2.229980
868.2668, 7.713135
868.7490, 11.76440
869.2311, 11.90625
869.7132, 10.52246
870.1953, 9.028320
870.6774, 7.551758
871.1595, 5.507324
871.6417, 2.200439
872.1238, 0.1054690
872.6059, 1.937744
873.0880, 6.183838
873.5701, 6.364014
874.0522, 2.990967
874.5344, 0.1511230
875.0165, 1.135742
875.4986, 2.974365
875.9807, 3.979980
876.4628, 4.013428
876.9449, 2.862793
877.4271, 1.478760
877.9092, 3.304932
878.3913, 2.6860000E-03
878.8734, 6.251221
879.3555, 8.828857
879.8376, 8.077881
880.3198, 6.169434
880.8019, 2.951904
881.2840, 0.1220700
881.7661, 0.5161130
882.2482, 0.4904790
882.7303, 1.981201
883.2125, 2.380859
883.6946, 5.175049
884.1767, 12.58472
884.6588, 21.04980
885.1409, 24.22388
885.6230, 21.88452
886.1052, 22.12891
886.5873, 26.67139
887.0694, 32.50952
887.5515, 35.97021
888.0336, 38.49219
888.5157, 41.96387
888.9979, 46.67749
889.4800, 52.70850
889.9621, 60.45630
890.4442, 69.31812
890.9263, 79.38379
891.4084, 91.14941
891.8906, 100.0642
892.3727, 105.7727
892.8548, 111.1467
893.3369, 118.3716
893.8190, 126.9368
894.3011, 136.7688
894.7833, 147.7097
895.2654, 157.1055
895.7475, 161.5771
896.2296, 166.0737
896.7117, 174.3662
897.1938, 185.8562
897.6760, 193.4565
898.1581, 196.8928
898.6402, 197.1577
899.1223, 193.6880
899.6044, 188.0144
900.0865, 184.3027
900.5687, 181.5940
901.0508, 176.4561
901.5329, 165.2981
902.0150, 153.2661
902.4971, 142.3965
902.9792, 132.5359
903.4614, 123.0959
903.9435, 114.0295
904.4256, 105.2725
904.9077, 96.85059
905.3898, 88.46802
905.8719, 78.62158
906.3541, 68.30493
906.8362, 61.01172
907.3183, 58.51660
907.8004, 56.54736
908.2825, 51.05322
908.7646, 45.34937
909.2468, 43.45483
909.7289, 48.83423
910.2110, 50.00269
910.6931, 45.71045
911.1752, 40.06396
911.6573, 36.45166
912.1395, 34.53027
912.6216, 32.66626
913.1037, 30.81177
913.5858, 30.33423
914.0679, 34.39136
914.5500, 38.38574
915.0322, 38.46191
915.5143, 34.30786
915.9964, 31.32153
916.4785, 30.32007
916.9606, 29.06152
917.4427, 26.72339
917.9249, 23.51611
918.4070, 19.12598
918.8891, 14.04712
919.3712, 11.03003
919.8533, 13.24585
920.3354, 16.00122
920.8176, 16.47437
921.2997, 15.29053
921.7818, 13.46729
922.2639, 10.92139
922.7460, 7.984619
923.2281, 4.214844
923.7103, 0.5527340
924.1924, 0.8979490
924.6745, 0.5141600
925.1566, 1.246826
925.6387, 3.787842
926.1208, 6.249023
926.6030, 7.230713
927.0851, 7.519775
927.5672, 7.880615
928.0493, 8.683105
928.5314, 8.626709
929.0135, 7.103516
929.4957, 6.024414
929.9778, 7.133789
930.4599, 9.743896
930.9420, 10.46191
931.4241, 9.590820
931.9063, 9.161621
932.3884, 10.98267
932.8705, 13.05127
933.3526, 14.16602
933.8347, 14.36377
934.3168, 14.00464
934.7990, 13.27124
935.2811, 11.87183
935.7632, 8.929932
936.2453, 5.538330
936.7274, 5.796631
937.2095, 8.870117
937.6917, 10.64160
938.1738, 9.889160
938.6559, 7.447510
939.1380, 2.630371
939.6201, 3.117920
940.1022, 7.712646
940.5844, 10.26538
941.0665, 13.06958
941.5486, 16.18286
942.0307, 19.70483
942.5128, 23.26147
942.9949, 27.09229
943.4771, 32.31641
943.9592, 38.90332
944.4413, 46.42285
944.9234, 55.75952
945.4055, 64.82959
945.8876, 70.92285
946.3698, 74.24878
946.8519, 82.99365
947.3340, 98.96948
947.8161, 115.7332
948.2982, 131.8711
948.7803, 146.5859
949.2625, 155.7334
949.7446, 161.5654
950.2267, 171.4915
950.7088, 191.6470
951.1909, 212.6375
951.6730, 228.9739
952.1552, 243.8577
952.6373, 262.0969
953.1194, 284.4844
953.6015, 307.9795
954.0836, 332.2800
954.5657, 357.0632
955.0479, 382.4709
955.5300, 407.7534
956.0121, 431.0544
956.4942, 451.9993
956.9763, 475.3728
957.4584, 503.8132
957.9406, 535.2214
958.4227, 569.1936
958.9048, 604.9497
959.3869, 640.4194
959.8690, 675.4297
960.3511, 711.5759
960.8333, 750.4585
961.3154, 790.1658
961.7975, 829.1560
962.2796, 867.1694
962.7617, 902.9678
963.2438, 929.8342
963.7260, 962.3091
964.2081, 1007.108
964.6902, 1056.873
965.1723, 1103.229
965.6544, 1146.178
966.1365, 1188.730
966.6187, 1231.595
967.1008, 1271.667
967.5829, 1305.556
968.0650, 1335.420
968.5471, 1363.374
969.0292, 1389.408
969.5114, 1417.752
969.9935, 1454.117
970.4756, 1487.353
970.9577, 1513.701
971.4398, 1533.246
971.9219, 1545.644
972.4041, 1551.485
972.8862, 1559.066
973.3683, 1578.223
973.8504, 1595.251
974.3325, 1598.556
974.8146, 1591.737
975.2968, 1582.434
975.7789, 1574.074
976.2610, 1558.790
976.7431, 1534.298
977.2252, 1505.632
977.7073, 1480.424
978.1895, 1457.218
978.6716, 1430.247
979.1537, 1398.339
979.6358, 1366.920
980.1179, 1341.559
980.6000, 1316.639
981.0822, 1286.277
981.5643, 1250.431
982.0463, 1220.464
982.5284, 1197.616
983.0106, 1176.028
983.4927, 1151.738
983.9748, 1128.050
984.4569, 1113.469
984.9390, 1105.208
985.4211, 1094.780
985.9033, 1075.801
986.3854, 1057.437
986.8675, 1043.402
987.3496, 1031.016
987.8317, 1017.435
988.3138, 1002.614
988.7960, 985.4612
989.2781, 965.6130
989.7602, 946.9780
990.2423, 933.2078
990.7244, 922.8447
991.2065, 915.0098
991.6887, 909.6040
992.1708, 903.8938
992.6529, 896.9368
993.1350, 890.0825
993.6171, 883.1350
994.0992, 876.9641
994.5814, 874.7192
995.0635, 876.1548
995.5456, 880.7166
996.0277, 890.7947
996.5098, 899.8323
996.9919, 901.5830
997.4741, 899.6731
997.9562, 899.4727
998.4383, 904.3020
998.9204, 904.8921
999.4025, 900.6355
999.8846, 893.2830
1000.367, 883.4141
1000.849, 871.9258
1001.331, 861.5986
1001.813, 852.3818
1002.295, 842.7083
1002.777, 830.1667
1003.259, 818.4207
1003.742, 809.5808
1004.224, 803.0398
1004.706, 796.2839
1005.188, 788.6023
1005.670, 787.8057
1006.152, 797.4658
1006.634, 811.3591
1007.116, 819.8914
1007.599, 828.0947
1008.081, 844.0264
1008.563, 871.9221
1009.045, 901.6760
1009.527, 931.2380
1010.009, 963.4409
1010.491, 999.2410
1010.973, 1039.422
1011.455, 1087.856
1011.938, 1144.082
1012.420, 1204.488
1012.902, 1266.912
1013.384, 1331.856
1013.866, 1400.631
1014.348, 1472.706
1014.830, 1542.956
1015.312, 1609.772
1015.794, 1681.355
1016.277, 1761.156
1016.759, 1839.384
1017.241, 1902.646
1017.723, 1953.330
1018.205, 1997.527
1018.687, 2036.776
1019.169, 2061.578
1019.651, 2069.661
1020.134, 2059.530
1020.616, 2030.259
1021.098, 1982.838
1021.580, 1922.220
1022.062, 1848.345
1022.544, 1766.536
1023.026, 1676.191
1023.508, 1581.405
1023.990, 1486.458
1024.473, 1390.678
1024.955, 1293.365
1025.437, 1187.966
1025.919, 1091.589
1026.401, 1006.080
1026.883, 928.6584
1027.365, 857.9900
1027.847, 793.7537
1028.330, 734.9365
1028.812, 681.7642
1029.294, 631.0303
1029.776, 580.1594
1030.258, 533.0300
1030.740, 492.7510
1031.222, 457.9373
1031.704, 425.2676
1032.187, 394.6072
1032.669, 366.6323
1033.151, 341.4626
1033.633, 318.0312
1034.115, 294.3481
1034.597, 272.0989
1035.079, 253.8665
1035.561, 240.8831
1036.043, 228.5413
1036.526, 216.7100
1037.008, 204.8525
1037.490, 192.6199
1037.972, 180.1106
1038.454, 166.8750
1038.936, 153.4797
1039.418, 141.8960
1039.900, 134.1541
1040.382, 127.6448
1040.865, 122.3464
1041.347, 116.7471
1041.829, 108.5325
1042.311, 96.95068
1042.793, 88.52637
1043.275, 84.05151
1043.757, 80.54346
1044.239, 75.20068
1044.722, 69.20825
1045.204, 64.15942
1045.686, 60.17529
1046.168, 55.64893
1046.650, 49.18945
1047.132, 44.19678
1047.614, 42.07812
1048.096, 41.59326
1048.578, 39.48999
1049.061, 36.27539
1049.543, 33.69092
1050.025, 32.36597
1050.507, 31.24878
1050.989, 30.32349
1051.471, 28.87402
1051.953, 26.20679
1052.435, 22.08032
1052.917, 19.94067
1053.400, 19.94824
1053.882, 21.13574
1054.364, 23.90845
1054.846, 26.12939
1055.328, 24.43799
1055.810, 20.42627
1056.292, 18.23169
1056.774, 21.19482
1057.257, 22.03125
1057.739, 19.08374
1058.221, 15.73340
1058.703, 17.74658
1059.185, 22.78076
1059.667, 22.73511
1060.149, 17.02588
1060.631, 12.24463
1061.114, 13.48315
1061.596, 14.95996
1062.078, 13.32300
1062.560, 9.857910
1063.042, 8.981445
1063.524, 10.50806
1064.006, 11.61230
1064.488, 11.58472
1064.970, 11.35352
1065.453, 12.48267
1065.935, 13.54761
1066.417, 12.39990
1066.899, 7.327148
1067.381, 4.884033
1067.863, 5.900635
1068.345, 7.531738
1068.827, 8.488770
1069.309, 8.677490
1069.792, 7.115967
1070.274, 4.524414
1070.756, 3.045410
1071.238, 5.301025
1071.720, 6.448730
1072.202, 4.423828
1072.684, 2.033447
1073.166, 2.881836
1073.649, 6.522461
1074.131, 8.039307
1074.613, 7.227051
1075.095, 5.437744
1075.577, 2.605225
1076.059, 4.5166001E-02
1076.541, 1.875244
1077.023, 2.779541
1077.505, 2.623291
1077.988, 1.170898
1078.470, 0.1909180
1078.952, 1.283447
1079.434, 1.756592
1079.916, 0.3359380
1080.398, 1.579346
1080.880, 1.802979
1081.362, 0.3144530
1081.844, 1.542236
1082.327, 1.711914
1082.809, 0.4580080
1083.291, 3.597900
1083.773, 8.255371
1084.255, 5.891357
1084.737, 1.307129
1085.219, 6.028809
1085.701, 4.767334
1086.183, 2.406738
1086.666, 0.3422850
1087.148, 2.344727
1087.630, 2.104492
1088.112, 0.5805660
1088.594, 0.1071780
1089.076, 4.042236
1089.558, 7.507324
1090.040, 7.924561
1090.523, 7.149170
1091.005, 5.277832
1091.487, 3.496094
1091.969, 5.053223
1092.451, 12.32593
1092.933, 14.77686
1093.415, 10.64600
1093.897, 5.002930
1094.380, 2.926270
1094.862, 2.746582
1095.344, 2.078613
1095.826, 0.8388670
1096.308, 0.6428220
1096.790, 2.272705
1097.272, 4.714355
1097.754, 8.541504
1098.236, 11.86938
1098.719, 9.804932
1099.201, 4.226318
1099.683, 0.9230960
1100.165, 1.723877
1100.647, 2.246338
1101.129, 0.1418460
1101.611, 2.700684
1102.093, 5.893799
1102.575, 8.957520
1103.058, 7.416016
1103.540, 1.706299
1104.022, 2.818115
1104.504, 3.466797
1104.986, 2.983887
1105.468, 3.099121
1105.950, 3.402344
1106.432, 3.467773
1106.915, 3.458740
1107.397, 2.389160
1107.879, 0.2187500
1108.361, 2.784180
1108.843, 8.490723
1109.325, 13.32300
1109.807, 11.63477
1110.289, 5.486572
1110.771, 0.3593750
1111.254, 3.593018
1111.736, 4.513916
1112.218, 1.728760
1112.700, 2.769775
1113.182, 8.364990
1113.664, 13.55396
1114.146, 13.94824
1114.628, 9.847656
1115.110, 6.837402
1115.593, 8.292480
1116.075, 9.706543
1116.557, 9.816406
1117.039, 9.249756
1117.521, 9.326904
1118.003, 9.864014
1118.485, 9.973145
1118.967, 9.499512
1119.450, 8.691162
1119.932, 5.644775
1120.414, 4.516846
1120.896, 9.234375
1121.378, 18.01611
1121.860, 20.52124
1122.342, 16.92358
1122.824, 12.88989
1123.307, 9.412598
1123.789, 8.372070
1124.271, 13.98950
1124.753, 21.32666
1125.235, 24.77856
1125.717, 23.66040
1126.199, 22.36646
1126.681, 20.68726
1127.163, 20.25854
1127.646, 22.45386
1128.128, 25.79468
1128.610, 29.94165
1129.092, 33.43091
1129.574, 33.39795
1130.056, 24.55420
1130.538, 21.53247
1131.020, 26.20312
1131.502, 31.36353
1131.985, 30.08154
1132.467, 25.67920
1132.949, 24.97388
1133.431, 27.30347
1133.913, 30.04224
1134.395, 32.98071
1134.877, 35.19678
1135.359, 36.67212
1135.842, 37.36157
1136.324, 36.67798
1136.806, 35.14746
1137.288, 34.86499
1137.770, 35.85474
1138.252, 36.34375
1138.734, 34.82202
1139.216, 33.50879
1139.698, 33.06934
1140.181, 33.32202
1140.663, 34.43701
1141.145, 36.01782
1141.627, 34.96191
1142.109, 30.80347
1142.591, 28.38770
1143.073, 32.30054
1143.555, 37.20312
1144.037, 39.97241
1144.520, 40.81812
1145.002, 40.46411
1145.484, 38.98364
1145.966, 38.07471
1146.448, 38.12109
1146.930, 38.58472
1147.412, 40.29834
1147.894, 41.65039
1148.377, 40.58545
1148.859, 37.11426
1149.341, 34.46338
1149.823, 32.49536
1150.305, 30.48389
1150.787, 28.79395
1151.269, 27.30054
1151.751, 25.27368
1152.234, 23.08447
1152.716, 21.28613
1153.198, 19.56226
1153.680, 20.58960
1154.162, 25.25537
1154.644, 28.51416
1155.126, 26.19580
1155.608, 21.38916
1156.090, 17.61304
1156.573, 15.64136
1157.055, 16.60522
1157.537, 25.21826
1158.019, 28.40015
1158.501, 24.18311
1158.983, 19.51465
1159.465, 20.39551
1159.947, 24.38428
1160.429, 27.52710
1160.912, 29.53271
1161.394, 29.66821
1161.876, 25.21973
1162.358, 22.55518
1162.840, 22.77490
1163.322, 24.44800
1163.804, 27.15283
1164.286, 29.86548
1164.769, 28.48291
1165.251, 23.63208
1165.733, 21.29565
1166.215, 27.30713
1166.697, 31.88013
1167.179, 32.02954
1167.661, 30.16577
1168.143, 29.84009
1168.625, 30.52222
1169.108, 30.99414
1169.590, 31.26685
1170.072, 31.04077
1170.554, 29.30078
1171.036, 28.06421
1171.518, 28.34692
1172.000, 27.04834
1172.482, 28.24219
1172.964, 25.89502
1173.447, 24.66382
1173.929, 25.15112
1174.411, 24.95898
1174.893, 20.90234
1175.375, 17.71045
1175.857, 18.44165
1176.339, 21.78271
1176.821, 22.84131
1177.304, 21.82495
1177.786, 20.38477
1178.268, 18.82690
1178.750, 17.95703
1179.232, 18.44214
1179.714, 19.41162
1180.196, 20.46265
1180.678, 21.35986
1181.161, 20.62085
1181.643, 18.48804
1182.125, 17.24536
1182.607, 17.76147
1183.089, 18.92041
1183.571, 20.41162
1184.053, 21.88647
1184.535, 23.19434
1185.017, 24.38062
1185.500, 24.21240
1185.982, 22.75342
1186.464, 21.54248
1186.946, 21.26245
1187.428, 21.35132
1187.910, 21.12061
1188.392, 21.14502
1188.874, 22.27930
1189.356, 24.62524
1189.839, 26.40894
1190.321, 27.54883
1190.803, 27.74072
1191.285, 25.91797
1191.767, 24.02148
1192.249, 23.65332
1192.731, 24.15430
1193.213, 24.62939
1193.696, 25.16382
1194.178, 25.20630
1194.660, 24.79053
1195.142, 23.84521
1195.624, 21.95874
1196.106, 19.97095
1196.588, 18.48071
1197.070, 17.51416
1197.552, 17.16553
1198.035, 17.74487
1198.517, 17.62354
1198.999, 16.72290
1199.481, 15.32007
1199.963, 12.40820
1200.445, 10.28906
1200.927, 11.22339
1201.409, 14.13965
1201.891, 16.40698
1202.374, 17.53931
1202.856, 20.52832
1203.338, 25.99976
1203.820, 29.29761
1204.302, 23.36475
1204.784, 16.03296
1205.266, 15.01318
1205.748, 18.74268
1206.231, 20.31201
1206.713, 18.81836
1207.195, 19.41309
1207.677, 23.00317
1208.159, 26.18921
1208.641, 24.61890
1209.123, 22.28369
1209.605, 23.06079
1210.088, 26.51831
1210.570, 29.90845
1211.052, 33.56836
1211.534, 33.23462
1212.016, 27.86426
1212.498, 21.44971
1212.980, 16.71265
1213.462, 13.67993
1213.944, 12.95752
1214.427, 14.24829
1214.909, 15.57520
1215.391, 17.22241
1215.873, 17.08228
1216.355, 14.24219
1216.837, 12.18457
1217.319, 16.28394
1217.801, 21.43872
1218.283, 22.34570
1218.766, 19.42334
1219.248, 17.72485
1219.730, 17.43066
1220.212, 16.60449
1220.694, 14.71704
1221.176, 12.98853
1221.658, 12.58374
1222.140, 12.85767
1222.623, 13.23120
1223.105, 13.69800
1223.587, 14.90576
1224.069, 17.07129
1224.551, 17.30347
1225.033, 14.29712
1225.515, 11.97632
1225.997, 15.05127
1226.479, 19.51001
1226.962, 21.75732
1227.444, 22.02881
1227.926, 22.60864
1228.408, 23.49341
1228.890, 23.06445
1229.372, 20.53125
1229.854, 17.93408
1230.336, 16.48145
1230.818, 16.11157
1231.301, 17.27075
1231.783, 19.54028
1232.265, 20.49292
1232.747, 20.14478
1233.229, 19.60620
1233.711, 19.12793
1234.193, 18.94702
1234.675, 19.70166
1235.158, 20.36841
1235.640, 20.72803
1236.122, 20.42725
1236.604, 15.45654
1237.086, 6.665039
1237.568, 1.946045
1238.050, 5.121582
1238.532, 8.526855
1239.015, 7.070313
1239.497, 4.404541
1239.979, 3.071045
1240.461, 2.771484
1240.943, 1.697754
1241.425, 3.7108999E-02
1241.907, 1.314453
1242.389, 2.020752
1242.871, 2.431152
1243.354, 2.930908
1243.836, 2.960938
1244.318, 2.378906
1244.800, 1.077393
1245.282, 2.018799
1245.764, 6.344971
1246.246, 9.390137
1246.728, 10.23071
1247.210, 10.33276
1247.693, 8.604980
1248.175, 8.380371
1248.657, 12.00977
1249.139, 17.65454
1249.621, 19.07520
1250.103, 17.33691
1250.585, 15.30762
1251.067, 13.21582
1251.550, 12.85156
1252.032, 16.02393
1252.514, 18.42163
1252.996, 17.09058
1253.478, 14.20508
1253.960, 16.06226
1254.442, 20.14160
1254.924, 20.71655
1255.406, 14.31982
1255.889, 10.40161
1256.371, 11.17896
1256.853, 10.84741
1257.335, 5.031006
1257.817, 1.944092
1258.299, 1.785400
1258.781, 2.612305
1259.263, 6.616943
1259.745, 9.616455
1260.228, 10.11768
1260.710, 7.412354
1261.192, 4.907227
1261.674, 4.505615
1262.156, 5.035889
1262.638, 4.414307
1263.120, 3.884521
1263.602, 5.627686
1264.085, 10.61401
1264.567, 13.81104
1265.049, 15.22241
1265.531, 14.98047
1266.013, 13.00391
1266.495, 9.928467
1266.977, 4.907471
1267.459, 5.9326001E-02
1267.942, 1.788818
1268.424, 0.5866700
1268.906, 0.8225100
1269.388, 2.460449
1269.870, 4.389160
1270.352, 6.985840
1270.834, 9.169434
1271.316, 10.76123
1271.798, 10.72876
1272.281, 8.006836
1272.763, 2.882080
1273.245, 1.910156
1273.727, 4.217041
1274.209, 4.830811
1274.691, 1.160400
1275.173, 1.658691
1275.655, 0.4990230
1276.137, 1.643066
1276.620, 3.474365
1277.102, 4.793457
1277.584, 3.688232
1278.066, 1.294922
1278.548, 2.119873
1279.030, 9.442627
1279.512, 14.24585
1279.994, 13.05420
1280.476, 10.87109
1280.959, 9.629395
1281.441, 9.417725
1281.923, 11.24780
1282.405, 14.69604
1282.887, 14.61670
1283.369, 7.903076
1283.851, 4.942627
1284.333, 7.548340
1284.816, 10.88184
1285.298, 12.84302
1285.780, 14.03247
1286.262, 16.01660
1286.744, 17.00879
1287.226, 15.23364
1287.708, 16.89429
1288.190, 19.19214
1288.672, 17.29907
1289.155, 22.54688
1289.637, 21.18384
1290.119, 17.08276
1290.601, 10.82495
1291.083, 6.066895
1291.565, 6.437500
1292.047, 11.21631
1292.529, 14.97607
1293.011, 17.55566
1293.494, 17.10913
1293.976, 12.07715
1294.458, 7.984131
1294.940, 10.01953
1295.422, 13.06543
1295.904, 13.67676
1296.386, 12.52441
1296.868, 11.75244
1297.351, 11.37305
1297.833, 11.70557
1298.315, 12.97266
1298.797, 14.19922
1299.279, 15.66943
1299.761, 15.72827
1300.243, 13.21191
1300.725, 10.07837
1301.208, 11.34790
1301.690, 14.32397
1302.172, 12.37573
1302.654, 3.708496
1303.136, 0.2631840
1303.618, 4.176270
1304.100, 7.071533
1304.582, 5.145996
1305.064, 0.0000000E+00
##END=



