##NAMES=Shortite
##RRUFFID=R050248
##IDEAL CHEMISTRY=Na_2_Ca_2_(CO_3_)_3_
##LOCALITY=Stauffer mine, Green River, Wyoming, USA
##OWNER=RRUFF
##SOURCE=Marcus Origlieri
##DESCRIPTION=Colorless wedge-shaped single crystal
##STATUS=The identification of this mineral has been confirmed by X-ray diffraction and chemical analysis
##URL=rruff.info/R050248
##MEASURED CHEMISTRY=Na_2.00_Ca_2.00_(CO_3_)_3_ ; CO2 not measured but estimated by difference and stoichiometry.
93.74609, 0.0000000E+00
94.22821, 1.539654
94.71033, 3.136189
95.19244, 5.555532
95.67456, 7.817753
96.15668, 9.264301
96.63879, 10.54566
97.12091, 11.37140
97.60303, 12.09507
98.08514, 13.72511
98.56726, 15.86151
99.04938, 15.67655
99.53149, 13.05611
100.0136, 10.18347
100.4957, 7.714165
100.9778, 5.386787
101.4600, 3.120182
101.9421, 1.003513
102.4242, 0.8839340
102.9063, 2.644764
103.3884, 3.876369
103.8705, 4.256172
104.3527, 3.439217
104.8348, 2.657333
105.3169, 2.024406
105.7990, 1.550415
106.2811, 0.8072890
106.7632, 4.1939002E-02
107.2454, 1.184319
107.7275, 3.179520
108.2096, 6.451111
108.6917, 9.889435
109.1738, 13.10825
109.6559, 15.94818
110.1381, 19.99586
110.6202, 25.15712
111.1023, 31.62836
111.5844, 39.61600
112.0665, 49.69925
112.5486, 60.90660
113.0308, 73.21248
113.5129, 87.04948
113.9950, 101.0628
114.4771, 115.1415
114.9592, 129.2065
115.4413, 143.4041
115.9235, 155.9188
116.4056, 169.8490
116.8877, 186.1517
117.3698, 204.8176
117.8519, 226.8988
118.3340, 254.2125
118.8162, 285.4009
119.2983, 316.9817
119.7804, 349.6202
120.2625, 381.4740
120.7446, 410.9010
121.2267, 437.9650
121.7089, 462.3786
122.1910, 482.4817
122.6731, 499.1404
123.1552, 516.2370
123.6373, 536.0816
124.1194, 557.6357
124.6016, 579.9368
125.0837, 600.8041
125.5658, 623.2523
126.0479, 649.2035
126.5300, 678.7714
127.0121, 713.8466
127.4943, 754.1694
127.9764, 800.8790
128.4585, 857.8384
128.9406, 924.8279
129.4227, 1002.900
129.9048, 1097.606
130.3869, 1210.267
130.8691, 1326.557
131.3512, 1442.786
131.8333, 1554.649
132.3154, 1636.794
132.7975, 1670.674
133.2796, 1663.298
133.7618, 1636.742
134.2439, 1581.113
134.7260, 1516.615
135.2081, 1480.851
135.6902, 1476.994
136.1723, 1505.880
136.6545, 1572.070
137.1366, 1674.648
137.6187, 1799.601
138.1008, 1960.608
138.5829, 2126.353
139.0650, 2247.055
139.5472, 2332.618
140.0293, 2342.840
140.5114, 2243.005
140.9935, 2011.904
141.4756, 1771.878
141.9577, 1516.546
142.4399, 1257.456
142.9220, 1042.961
143.4041, 875.1846
143.8862, 742.0618
144.3683, 636.1766
144.8504, 563.7154
145.3326, 504.5685
145.8147, 459.0016
146.2968, 425.7333
146.7789, 400.6760
147.2610, 385.7107
147.7431, 376.5829
148.2253, 370.1111
148.7074, 364.9948
149.1895, 364.3640
149.6716, 368.9583
150.1537, 378.7400
150.6358, 391.1827
151.1180, 406.1515
151.6001, 423.2032
152.0822, 442.7294
152.5643, 465.9644
153.0464, 490.3228
153.5285, 517.0099
154.0107, 546.6980
154.4928, 570.9577
154.9749, 593.0967
155.4570, 608.4538
155.9391, 612.5400
156.4212, 603.1165
156.9034, 584.2916
157.3855, 555.1498
157.8676, 514.1954
158.3497, 472.7604
158.8318, 429.6541
159.3139, 387.8008
159.7961, 350.6743
160.2782, 318.6458
160.7603, 291.7911
161.2424, 270.3960
161.7245, 254.8373
162.2066, 243.4165
162.6888, 236.0114
163.1709, 232.2204
163.6530, 231.4267
164.1351, 233.7081
164.6172, 238.6790
165.0993, 246.3991
165.5815, 257.3660
166.0636, 269.6488
166.5457, 282.1609
167.0278, 295.3758
167.5099, 310.2759
167.9921, 328.9127
168.4742, 348.5127
168.9563, 367.5264
169.4384, 386.9855
169.9205, 402.8314
170.4026, 413.7410
170.8848, 419.2715
171.3669, 417.8650
171.8490, 406.5269
172.3311, 388.6884
172.8132, 367.2929
173.2953, 341.2578
173.7775, 314.7202
174.2596, 289.5553
174.7417, 266.3086
175.2238, 247.5452
175.7059, 235.5765
176.1880, 229.0228
176.6702, 225.9715
177.1523, 225.6073
177.6344, 229.1380
178.1165, 237.3536
178.5986, 250.4351
179.0807, 268.9874
179.5629, 294.3839
180.0450, 325.7330
180.5271, 361.2269
181.0092, 402.5127
181.4913, 445.9746
181.9734, 489.0043
182.4556, 531.0605
182.9377, 564.7842
183.4198, 584.8834
183.9019, 592.4213
184.3840, 589.6279
184.8661, 574.4091
185.3483, 551.5333
185.8304, 527.0915
186.3125, 501.1627
186.7946, 479.0668
187.2767, 465.5673
187.7588, 459.8664
188.2409, 459.0209
188.7231, 462.6424
189.2052, 470.3585
189.6873, 481.8729
190.1694, 497.4466
190.6515, 514.8002
191.1336, 531.9635
191.6158, 549.0141
192.0979, 566.5321
192.5800, 584.3175
193.0621, 602.8826
193.5442, 623.6440
194.0263, 646.5327
194.5085, 673.3215
194.9906, 704.6586
195.4727, 740.5292
195.9548, 783.8646
196.4369, 836.5549
196.9190, 897.2189
197.4012, 963.0046
197.8833, 1036.781
198.3654, 1103.863
198.8475, 1148.921
199.3296, 1172.399
199.8117, 1172.464
200.2939, 1142.097
200.7760, 1085.952
201.2581, 1035.958
201.7402, 991.7070
202.2223, 955.5147
202.7044, 931.5790
203.1866, 921.2492
203.6687, 914.5490
204.1508, 911.0711
204.6329, 910.1466
205.1150, 900.9612
205.5971, 882.3986
206.0793, 858.0258
206.5614, 831.5748
207.0435, 803.3834
207.5256, 772.5953
208.0077, 738.7569
208.4898, 701.8934
208.9720, 663.3615
209.4541, 622.5398
209.9362, 581.1114
210.4183, 541.2081
210.9004, 503.7202
211.3825, 465.3932
211.8647, 424.5102
212.3468, 380.9930
212.8289, 339.9380
213.3110, 301.1897
213.7931, 264.9888
214.2752, 232.1252
214.7574, 202.4652
215.2395, 175.7273
215.7216, 151.6436
216.2037, 130.4240
216.6858, 111.6876
217.1679, 95.91864
217.6501, 81.95563
218.1322, 68.55670
218.6143, 55.29733
219.0964, 43.36911
219.5785, 33.42603
220.0606, 25.42941
220.5428, 17.90570
221.0249, 10.63315
221.5070, 4.149261
221.9891, 0.6812130
222.4712, 3.332855
222.9533, 5.620758
223.4355, 7.859680
223.9176, 10.07547
224.3997, 12.33948
224.8818, 14.86600
225.3639, 17.22644
225.8460, 19.02335
226.3282, 20.27133
226.8103, 20.85788
227.2924, 20.56287
227.7745, 19.32019
228.2566, 18.49686
228.7387, 18.55911
229.2209, 18.55072
229.7030, 17.45816
230.1851, 14.99762
230.6672, 11.97675
231.1493, 8.478271
231.6314, 4.491608
232.1136, 0.3564760
232.5957, 3.877838
233.0778, 8.309082
233.5599, 12.86719
234.0420, 17.02942
234.5241, 22.31766
235.0063, 29.04364
235.4884, 37.14841
235.9705, 46.28821
236.4526, 56.98953
236.9347, 68.29938
237.4168, 79.33411
237.8990, 89.62247
238.3811, 100.5206
238.8632, 112.3663
239.3453, 125.1934
239.8274, 137.5087
240.3095, 148.4353
240.7917, 159.9177
241.2738, 173.7831
241.7559, 191.2930
242.2380, 208.4945
242.7201, 223.9252
243.2022, 237.9351
243.6844, 255.2785
244.1665, 276.8925
244.6486, 300.8774
245.1307, 325.7054
245.6128, 350.6997
246.0949, 378.1940
246.5771, 408.3514
247.0592, 441.0999
247.5413, 476.4498
248.0234, 514.1642
248.5055, 554.5894
248.9876, 597.6072
249.4697, 644.5579
249.9519, 691.5547
250.4340, 738.4377
250.9161, 785.1489
251.3982, 831.4225
251.8803, 876.8267
252.3624, 921.8459
252.8446, 966.1436
253.3267, 1009.860
253.8088, 1053.310
254.2909, 1098.058
254.7730, 1142.655
255.2551, 1179.822
255.7373, 1206.985
256.2194, 1231.017
256.7015, 1255.405
257.1836, 1281.241
257.6657, 1304.625
258.1479, 1324.091
258.6300, 1341.231
259.1121, 1360.806
259.5942, 1381.263
260.0763, 1407.361
260.5584, 1441.089
261.0406, 1480.673
261.5227, 1532.255
262.0048, 1597.153
262.4869, 1673.348
262.9690, 1758.130
263.4511, 1851.047
263.9333, 1952.581
264.4154, 2065.089
264.8975, 2194.491
265.3796, 2316.964
265.8617, 2438.536
266.3438, 2548.910
266.8260, 2635.319
267.3081, 2703.264
267.7902, 2730.479
268.2723, 2706.788
268.7544, 2629.833
269.2365, 2514.611
269.7187, 2354.379
270.2008, 2164.844
270.6829, 1967.561
271.1650, 1758.458
271.6471, 1557.447
272.1292, 1372.772
272.6114, 1204.061
273.0935, 1055.109
273.5756, 927.9291
274.0577, 819.2421
274.5398, 724.9620
275.0219, 646.6146
275.5041, 578.0579
275.9862, 518.5853
276.4683, 467.8773
276.9504, 422.0458
277.4325, 381.2493
277.9146, 344.8996
278.3968, 312.6457
278.8788, 284.6978
279.3610, 259.8389
279.8431, 238.2765
280.3252, 219.7847
280.8073, 202.4234
281.2894, 186.1561
281.7715, 171.0750
282.2537, 157.4349
282.7358, 145.2536
283.2179, 133.6584
283.7000, 122.4893
284.1821, 111.8088
284.6642, 101.9225
285.1464, 92.77304
285.6285, 84.65872
286.1106, 78.06232
286.5927, 72.88599
287.0748, 67.89874
287.5569, 63.08578
288.0391, 58.31982
288.5212, 52.93945
289.0033, 46.90421
289.4854, 41.64304
289.9675, 38.48779
290.4496, 36.98941
290.9318, 35.02863
291.4139, 32.35330
291.8960, 29.25491
292.3781, 25.96402
292.8602, 22.50928
293.3423, 19.63626
293.8245, 18.15140
294.3066, 17.57861
294.7887, 16.25519
295.2708, 13.99185
295.7529, 11.54034
296.2350, 9.926178
296.7172, 8.995300
297.1993, 7.998413
297.6814, 6.280640
298.1635, 4.308411
298.6456, 3.172913
299.1277, 2.908112
299.6099, 3.005249
300.0920, 3.063751
300.5741, 3.088684
301.0562, 3.161682
301.5383, 3.748932
302.0204, 4.166870
302.5026, 3.001556
302.9847, 0.3128360
303.4668, 2.124756
303.9489, 2.552246
304.4310, 1.781708
304.9131, 1.382660
305.3953, 2.216217
305.8774, 3.193542
306.3595, 2.940521
306.8416, 1.665802
307.3237, 0.4895630
307.8058, 0.1088870
308.2880, 0.2614440
308.7701, 0.6643680
309.2522, 1.413452
309.7343, 2.143311
310.2164, 2.696198
310.6985, 3.017609
311.1807, 2.934387
311.6628, 1.833893
312.1449, 0.5750120
312.6270, 1.2512000E-02
313.1091, 0.3541260
313.5912, 0.8163150
314.0734, 0.9963070
314.5555, 0.9389040
315.0376, 0.7320560
315.5197, 0.1006470
316.0018, 0.7094120
316.4839, 0.3642880
316.9661, 1.158417
317.4482, 2.423828
317.9303, 2.743866
318.4124, 2.470123
318.8945, 2.021362
319.3766, 1.225159
319.8588, 0.5518800
320.3409, 0.1628720
320.8230, 5.1910002E-02
321.3051, 0.1393740
321.7872, 0.6715390
322.2693, 1.240631
322.7515, 1.528534
323.2336, 1.279755
323.7157, 0.9465640
324.1978, 0.6146550
324.6799, 0.2673340
325.1620, 0.1585690
325.6442, 0.5247800
326.1263, 1.061859
326.6084, 1.922241
327.0905, 4.054199
327.5726, 5.224030
328.0547, 4.594482
328.5369, 2.866455
329.0190, 1.855530
329.5011, 1.725342
329.9832, 2.183258
330.4653, 3.314056
330.9474, 5.736542
331.4296, 7.253235
331.9117, 7.482056
332.3938, 6.978027
332.8759, 6.522766
333.3580, 6.130005
333.8401, 5.769135
334.3223, 5.394836
334.8044, 4.971100
335.2865, 4.841003
335.7686, 5.152588
336.2507, 5.605591
336.7328, 5.797577
337.2150, 5.360687
337.6971, 5.664246
338.1792, 7.232025
338.6613, 9.777954
339.1434, 11.61325
339.6255, 12.70816
340.1077, 13.15439
340.5898, 12.65314
341.0719, 10.94992
341.5540, 10.31427
342.0361, 11.07071
342.5182, 12.91635
343.0004, 15.72473
343.4825, 19.76840
343.9646, 22.60760
344.4467, 22.06946
344.9288, 18.50327
345.4109, 16.60370
345.8931, 16.76166
346.3752, 17.92108
346.8573, 18.93939
347.3394, 19.78976
347.8215, 20.03271
348.3036, 19.07779
348.7858, 17.44186
349.2679, 16.60513
349.7500, 16.58499
350.2321, 17.05017
350.7142, 18.18729
351.1964, 19.62833
351.6785, 20.23114
352.1606, 19.30588
352.6427, 17.75674
353.1248, 16.56641
353.6069, 15.76144
354.0891, 15.60971
354.5712, 16.97672
355.0533, 18.88910
355.5354, 19.80429
356.0175, 19.05139
356.4996, 18.27081
356.9818, 18.71045
357.4639, 20.20813
357.9460, 22.36563
358.4281, 25.70779
358.9102, 29.17432
359.3923, 32.35764
359.8745, 35.38934
360.3566, 36.43048
360.8387, 32.54321
361.3208, 26.48804
361.8029, 21.85220
362.2850, 20.55057
362.7672, 20.36270
363.2493, 20.64502
363.7314, 21.29483
364.2135, 21.67987
364.6956, 21.76797
365.1777, 21.47195
365.6599, 20.65244
366.1420, 18.05142
366.6241, 16.34625
367.1062, 16.62698
367.5883, 18.23108
368.0704, 19.23743
368.5526, 19.07153
369.0347, 18.58701
369.5168, 18.14703
369.9989, 17.79651
370.4810, 17.41187
370.9631, 16.67426
371.4453, 15.95010
371.9274, 15.81628
372.4095, 16.99060
372.8916, 17.71268
373.3737, 17.39062
373.8558, 15.95300
374.3380, 15.43243
374.8201, 16.29800
375.3022, 17.28229
375.7843, 17.23721
376.2664, 15.75076
376.7485, 14.84628
377.2307, 15.05154
377.7128, 15.91843
378.1949, 15.80936
378.6770, 14.45108
379.1591, 13.13181
379.6412, 12.57248
380.1234, 12.77295
380.6055, 13.32001
381.0876, 14.40909
381.5697, 15.39093
382.0518, 14.99100
382.5339, 13.30893
383.0161, 12.02011
383.4982, 12.03027
383.9803, 12.89883
384.4624, 13.37970
384.9445, 13.50363
385.4266, 13.37759
385.9088, 12.85617
386.3909, 12.10379
386.8730, 11.69330
387.3551, 12.00687
387.8372, 12.44867
388.3193, 12.16913
388.8015, 11.36185
389.2836, 10.66156
389.7657, 10.63025
390.2478, 10.79877
390.7299, 10.58707
391.2120, 9.811554
391.6942, 9.127380
392.1763, 9.197968
392.6584, 9.613464
393.1405, 9.736603
393.6226, 8.931366
394.1047, 8.108582
394.5869, 7.777771
395.0690, 7.929321
395.5511, 8.114594
396.0332, 8.212646
396.5153, 8.300262
396.9974, 8.407684
397.4796, 8.562042
397.9617, 8.689484
398.4438, 8.782135
398.9259, 8.803864
399.4080, 8.688904
399.8901, 8.211060
400.3723, 7.848328
400.8544, 7.793854
401.3365, 8.130402
401.8186, 8.500671
402.3007, 9.070801
402.7828, 9.560089
403.2649, 9.602234
403.7470, 8.997070
404.2292, 8.379883
404.7113, 7.796570
405.1934, 7.268372
405.6755, 7.054169
406.1576, 7.213867
406.6397, 7.523438
407.1219, 7.927856
407.6040, 8.487762
408.0861, 8.656616
408.5682, 8.238281
409.0503, 7.636353
409.5324, 7.784821
410.0146, 8.700287
410.4967, 9.323730
410.9788, 8.863708
411.4609, 7.637909
411.9430, 7.006744
412.4251, 7.043030
412.9073, 7.417816
413.3894, 7.997162
413.8715, 8.663727
414.3536, 8.978729
414.8357, 8.599243
415.3178, 8.083923
415.8000, 8.306793
416.2821, 9.093689
416.7642, 9.641571
417.2463, 9.385254
417.7284, 8.669586
418.2105, 7.796509
418.6927, 6.752838
419.1748, 5.792969
419.6569, 4.999664
420.1390, 4.390076
420.6211, 4.001862
421.1032, 4.066437
421.5854, 4.168365
422.0675, 3.868988
422.5496, 3.209656
423.0317, 3.309387
423.5138, 5.931671
423.9959, 8.447479
424.4781, 9.155945
424.9602, 5.752472
425.4423, 3.286133
425.9244, 2.546722
426.4065, 2.899536
426.8886, 2.945465
427.3708, 2.335419
427.8529, 1.853058
428.3350, 1.721222
428.8171, 1.952057
429.2992, 2.446930
429.7813, 3.449219
430.2635, 4.439362
430.7456, 4.795471
431.2277, 4.307312
431.7098, 4.007416
432.1919, 4.097168
432.6740, 4.505920
433.1562, 5.067566
433.6383, 5.820313
434.1204, 6.297638
434.6025, 6.105560
435.0846, 5.344818
435.5667, 4.617889
436.0489, 3.936554
436.5310, 3.285278
437.0131, 2.567383
437.4952, 1.858093
437.9773, 1.409760
438.4594, 1.388580
438.9416, 1.627411
439.4237, 1.911591
439.9058, 2.250854
440.3879, 2.702820
440.8700, 3.705322
441.3521, 4.673798
441.8343, 4.887390
442.3164, 3.991577
442.7985, 3.005585
443.2806, 2.368500
443.7627, 2.053192
444.2448, 2.005371
444.7270, 2.548279
445.2091, 3.041962
445.6912, 3.258606
446.1733, 3.180054
446.6554, 2.868134
447.1375, 1.586029
447.6197, 0.5661010
448.1018, 0.5932920
448.5839, 3.383087
449.0660, 4.968079
449.5481, 4.781006
450.0302, 3.524261
450.5124, 2.678162
450.9945, 2.478882
451.4766, 2.264709
451.9587, 1.729523
452.4408, 0.8383480
452.9229, 0.6810300
453.4051, 1.573456
453.8872, 2.457581
454.3693, 2.035461
454.8514, 0.2023930
455.3335, 0.5505070
455.8156, 0.4783330
456.2978, 2.318634
456.7799, 3.019348
457.2620, 2.626526
457.7441, 1.956543
458.2262, 1.198181
458.7083, 0.5711060
459.1905, 0.7852480
459.6726, 1.906311
460.1547, 2.794525
460.6368, 1.953735
461.1189, 0.3125610
461.6010, 0.5725100
462.0832, 0.1923220
462.5653, 1.276855
463.0474, 1.644836
463.5295, 1.445862
464.0116, 1.265503
464.4937, 1.578949
464.9759, 1.971619
465.4580, 2.080322
465.9401, 1.752289
466.4222, 1.947083
466.9043, 3.945374
467.3864, 6.061371
467.8686, 6.732788
468.3507, 4.368286
468.8328, 2.206146
469.3149, 0.1510010
469.7970, 1.525970
470.2791, 1.597137
470.7613, 1.245575
471.2434, 3.721893
471.7255, 4.248901
472.2076, 2.378082
472.6897, 1.233765
473.1718, 0.9191890
473.6540, 1.105713
474.1361, 1.531281
474.6182, 2.210388
475.1003, 2.722107
475.5824, 2.909637
476.0645, 2.933594
476.5467, 3.226044
477.0288, 3.752808
477.5109, 4.170105
477.9930, 4.169891
478.4751, 3.895447
478.9572, 3.751007
479.4394, 3.782928
479.9215, 3.693390
480.4036, 3.115509
480.8857, 2.282471
481.3678, 1.541992
481.8499, 0.8461300
482.3321, 0.4176640
482.8142, 0.6748050
483.2963, 1.352081
483.7784, 1.671661
484.2605, 0.9630130
484.7426, 0.1442870
485.2248, 0.3576970
485.7069, 0.4663390
486.1890, 0.3554080
486.6711, 0.2416990
487.1532, 0.9126280
487.6353, 1.280762
488.1175, 1.205200
488.5996, 1.019287
489.0817, 0.6929320
489.5638, 0.2901920
490.0459, 3.6319999E-03
490.5280, 0.2552800
491.0102, 0.4249270
491.4923, 0.5294490
491.9744, 0.5717160
492.4565, 4.7577001E-02
492.9386, 1.182739
493.4207, 2.392731
493.9029, 2.649170
494.3850, 2.100647
494.8671, 1.716339
495.3492, 1.708008
495.8313, 1.944153
496.3134, 2.366180
496.7956, 2.905304
497.2777, 3.302948
497.7598, 3.495422
498.2419, 3.419983
498.7240, 2.906189
499.2061, 1.957031
499.6883, 1.136444
500.1704, 0.8404850
500.6525, 0.8057250
501.1346, 0.7747190
501.6167, 0.5527650
502.0988, 0.5853880
502.5810, 1.317932
503.0631, 2.293701
503.5452, 2.638153
504.0273, 1.448059
504.5094, 0.4156490
504.9915, 6.2346999E-02
505.4737, 3.3325002E-02
505.9558, 0.4265140
506.4379, 1.291718
506.9200, 2.124695
507.4021, 2.574524
507.8842, 2.622192
508.3664, 2.330658
508.8485, 1.571960
509.3306, 0.7156980
509.8127, 0.4150090
510.2948, 0.6614990
510.7769, 1.009003
511.2591, 1.416412
511.7412, 1.765228
512.2233, 1.750885
512.7054, 1.388184
513.1875, 0.8330380
513.6696, 0.1567080
514.1517, 1.122284
514.6339, 1.282562
515.1160, 0.3766480
515.5981, 0.5740660
516.0802, 0.8099370
516.5623, 0.6779480
517.0444, 0.6479190
517.5266, 1.139404
518.0087, 1.472473
518.4908, 1.411621
518.9729, 0.9831540
519.4550, 0.3357240
519.9371, 1.458557
520.4193, 2.561981
520.9014, 1.948273
521.3835, 1.137817
521.8656, 2.642639
522.3477, 1.804565
522.8298, 0.1996770
523.3120, 0.7061460
523.7941, 0.8072510
524.2762, 0.5508120
524.7583, 0.1502380
525.2404, 1.019775
525.7225, 1.428467
526.2047, 1.384125
526.6868, 1.091400
527.1689, 0.4580990
527.6510, 0.3580930
528.1331, 0.9091490
528.6152, 1.160309
529.0974, 1.047516
529.5795, 9.9426001E-02
530.0616, 1.125946
530.5437, 1.795380
531.0258, 1.631561
531.5079, 1.250519
531.9901, 0.8744200
532.4722, 0.5622860
532.9543, 0.4086610
533.4364, 0.7226260
533.9185, 0.9095460
534.4006, 0.5778810
534.8828, 0.1810300
535.3649, 0.4744870
535.8470, 0.2295840
536.3291, 0.9726560
536.8112, 1.356537
537.2933, 1.296326
537.7755, 1.136566
538.2576, 0.7289430
538.7397, 0.4230960
539.2218, 0.7249150
539.7039, 1.708588
540.1860, 2.493530
540.6682, 2.943909
541.1503, 3.063538
541.6324, 2.708954
542.1145, 1.935699
542.5966, 1.253632
543.0787, 0.8033450
543.5609, 0.6574100
544.0430, 1.187012
544.5251, 2.336487
545.0072, 3.200470
545.4893, 3.047485
545.9714, 2.329712
546.4536, 1.390320
546.9357, 3.6254998E-02
547.4178, 0.8321530
547.8999, 0.6076050
548.3820, 0.2489930
548.8641, 1.106262
549.3463, 2.232941
549.8284, 2.909973
550.3105, 2.735535
550.7926, 1.908081
551.2747, 1.537109
551.7568, 1.829498
552.2390, 2.236206
552.7211, 2.624115
553.2032, 3.037811
553.6853, 2.747711
554.1674, 1.554626
554.6495, 0.2882390
555.1317, 0.1438900
555.6138, 0.1643680
556.0959, 0.4685970
556.5780, 0.6569820
557.0601, 0.7715150
557.5422, 0.9512020
558.0244, 1.119293
558.5065, 1.043396
558.9886, 0.1844480
559.4707, 0.6459660
559.9528, 0.6296390
560.4349, 0.1084900
560.9171, 0.7926030
561.3992, 1.207581
561.8813, 1.354767
562.3634, 1.057556
562.8455, 9.1643997E-02
563.3276, 0.4403080
563.8098, 1.082397
564.2919, 2.981445
564.7740, 3.943451
565.2561, 3.566071
565.7382, 2.965424
566.2203, 2.025024
566.7025, 1.060516
567.1846, 1.041504
567.6667, 2.127350
568.1488, 3.027069
568.6309, 3.206116
569.1130, 2.812073
569.5952, 2.212799
570.0773, 1.417633
570.5594, 0.8404540
571.0415, 0.9751280
571.5236, 1.531464
572.0057, 2.005432
572.4879, 2.365967
572.9700, 2.522430
573.4521, 2.224670
573.9342, 1.762146
574.4163, 1.478760
574.8984, 1.624481
575.3806, 1.701202
575.8627, 1.331299
576.3448, 0.8178100
576.8269, 0.9440310
577.3090, 2.907257
577.7911, 4.116638
578.2733, 3.576141
578.7554, 1.419098
579.2375, 0.4342960
579.7196, 0.8362730
580.2017, 1.666138
580.6838, 2.292999
581.1660, 2.721161
581.6481, 3.592224
582.1302, 5.105927
582.6123, 6.241516
583.0944, 5.273895
583.5765, 2.923645
584.0587, 1.166656
584.5408, 0.6107480
585.0229, 0.7878110
585.5050, 1.696838
585.9871, 2.969513
586.4692, 3.734619
586.9514, 3.097717
587.4335, 2.388336
587.9156, 2.276337
588.3977, 2.751038
588.8798, 3.221619
589.3619, 3.671600
589.8441, 4.005554
590.3262, 4.133698
590.8083, 3.917542
591.2904, 4.007141
591.7725, 4.704773
592.2546, 5.295563
592.7368, 4.836060
593.2189, 3.120544
593.7010, 1.868286
594.1831, 1.373749
594.6652, 1.437042
595.1473, 1.925323
595.6295, 2.733582
596.1116, 3.312622
596.5937, 3.244629
597.0758, 2.947235
597.5579, 3.019165
598.0400, 3.367645
598.5222, 3.523285
599.0043, 3.111542
599.4864, 2.518036
599.9685, 1.936401
600.4506, 1.362579
600.9327, 1.009674
601.4149, 0.6464540
601.8970, 0.7188110
602.3791, 1.623077
602.8612, 4.391693
603.3433, 6.001190
603.8254, 5.992523
604.3076, 5.143677
604.7897, 4.733398
605.2718, 4.787872
605.7539, 4.600616
606.2360, 3.884216
606.7181, 2.923859
607.2003, 2.438141
607.6824, 2.400574
608.1645, 2.600739
608.6466, 3.115204
609.1287, 3.693146
609.6108, 4.062378
610.0930, 4.210114
610.5751, 4.067688
611.0572, 3.175446
611.5393, 2.251343
612.0214, 1.928284
612.5035, 2.572083
612.9857, 3.012939
613.4678, 2.971466
613.9499, 2.692078
614.4320, 2.427063
614.9141, 2.183685
615.3962, 1.916504
615.8784, 1.523132
616.3605, 1.174438
616.8426, 1.288452
617.3247, 1.872223
617.8068, 2.592773
618.2889, 3.530273
618.7711, 4.395599
619.2532, 4.190369
619.7353, 3.055511
620.2174, 2.212036
620.6995, 3.040863
621.1816, 4.248260
621.6638, 4.015442
622.1459, 2.163483
622.6280, 0.9560550
623.1101, 2.410248
623.5922, 4.474518
624.0743, 5.518036
624.5565, 4.846008
625.0386, 3.977325
625.5207, 2.687073
626.0028, 1.501129
626.4849, 1.167297
626.9670, 2.299042
627.4492, 2.615692
627.9313, 1.489471
628.4134, 0.3788150
628.8955, 1.349487
629.3776, 1.412384
629.8597, 1.091705
630.3419, 0.3247070
630.8240, 0.5269780
631.3061, 0.5614010
631.7882, 8.7006003E-02
632.2703, 0.5440980
632.7524, 4.1565001E-02
633.2346, 0.8742070
633.7167, 1.197235
634.1988, 0.8930360
634.6809, 0.6885380
635.1630, 0.8960570
635.6451, 1.258484
636.1273, 1.629272
636.6094, 2.299286
637.0915, 2.343719
637.5736, 1.446594
638.0557, 0.2322390
638.5378, 0.5441890
639.0200, 0.8633730
639.5021, 0.8555910
639.9842, 0.4387820
640.4663, 0.1427920
640.9484, 0.4076840
641.4305, 0.3949280
641.9127, 0.3436580
642.3948, 0.2936400
642.8769, 0.3263850
643.3590, 0.5987240
643.8411, 1.059418
644.3232, 1.464447
644.8054, 1.614075
645.2875, 1.732819
645.7696, 2.002899
646.2517, 2.460632
646.7338, 2.766602
647.2159, 2.699646
647.6981, 2.601013
648.1802, 2.731110
648.6623, 3.406281
649.1444, 3.141876
649.6265, 1.491913
650.1086, 0.2120360
650.5908, 0.1281130
651.0729, 1.605560
651.5550, 2.875366
652.0371, 3.249084
652.5192, 3.185242
653.0013, 3.227173
653.4835, 3.314850
653.9656, 3.297668
654.4477, 3.024567
654.9298, 2.722504
655.4119, 2.617310
655.8940, 2.612152
656.3762, 2.407013
656.8583, 1.574432
657.3404, 0.8747860
657.8225, 0.6272280
658.3046, 0.8046260
658.7867, 0.8632200
659.2689, 0.6665040
659.7510, 0.6068730
660.2331, 1.104218
660.7152, 2.159149
661.1973, 2.138733
661.6794, 0.9109500
662.1616, 0.4209290
662.6437, 0.8095090
663.1258, 0.5370180
663.6079, 0.2205200
664.0900, 4.8004001E-02
664.5721, 0.3528750
665.0543, 0.7579040
665.5364, 1.247101
666.0185, 1.800995
666.5006, 2.476471
666.9827, 3.133972
667.4648, 3.873016
667.9470, 4.536255
668.4291, 4.826996
668.9112, 4.559998
669.3933, 4.218292
669.8754, 3.757141
670.3575, 3.343506
670.8397, 3.710449
671.3218, 4.917114
671.8039, 5.857880
672.2860, 5.927979
672.7681, 5.410339
673.2502, 4.592438
673.7324, 3.595764
674.2145, 3.307434
674.6966, 5.339905
675.1787, 7.647278
675.6608, 8.055603
676.1429, 6.232422
676.6251, 5.369049
677.1072, 7.231964
677.5893, 9.832855
678.0714, 11.77188
678.5535, 12.48755
679.0356, 14.05957
679.5178, 16.54575
679.9999, 19.79102
680.4820, 23.75668
680.9641, 28.52258
681.4462, 33.08047
681.9283, 37.41461
682.4105, 41.23776
682.8926, 43.96329
683.3747, 45.83884
683.8568, 47.35220
684.3389, 48.38715
684.8210, 49.61606
685.3032, 51.61603
685.7853, 54.17261
686.2674, 56.78354
686.7495, 58.42120
687.2316, 61.15555
687.7137, 65.51294
688.1959, 71.47351
688.6780, 78.91397
689.1601, 87.41571
689.6422, 98.41183
690.1243, 113.0549
690.6064, 130.9460
691.0886, 148.0557
691.5707, 164.4020
692.0528, 180.3957
692.5349, 195.3080
693.0170, 210.7657
693.4991, 229.9413
693.9813, 252.8934
694.4634, 277.4973
694.9455, 308.9336
695.4276, 336.9480
695.9097, 355.6059
696.3918, 368.3135
696.8740, 357.9527
697.3561, 305.8331
697.8382, 241.8011
698.3203, 187.3625
698.8024, 142.3124
699.2845, 107.9901
699.7667, 85.96094
700.2488, 72.27969
700.7309, 63.09824
701.2130, 58.04678
701.6951, 54.74857
702.1772, 52.56409
702.6594, 52.01590
703.1415, 53.83066
703.6236, 57.72409
704.1057, 63.14444
704.5878, 70.12656
705.0699, 78.32455
705.5521, 88.44473
706.0342, 99.79996
706.5163, 109.9809
706.9984, 117.4540
707.4805, 125.8729
707.9626, 136.0287
708.4448, 147.8813
708.9269, 161.3171
709.4090, 176.3159
709.8911, 191.9255
710.3732, 212.9944
710.8553, 233.0855
711.3374, 232.7794
711.8195, 213.5772
712.3016, 188.3146
712.7838, 157.9969
713.2659, 130.4645
713.7480, 111.7126
714.2301, 102.3011
714.7122, 100.6660
715.1943, 109.2906
715.6765, 123.2577
716.1586, 140.7112
716.6407, 164.6763
717.1228, 180.3751
717.6049, 186.2926
718.0870, 187.4114
718.5692, 186.7565
719.0513, 184.7197
719.5334, 185.8711
720.0155, 191.0817
720.4976, 196.7623
720.9797, 199.5265
721.4619, 200.1937
721.9440, 199.6768
722.4261, 196.7611
722.9082, 196.0544
723.3903, 196.8466
723.8724, 202.1069
724.3546, 215.7824
724.8367, 236.7773
725.3188, 269.1512
725.8009, 318.3076
726.2830, 376.0313
726.7651, 427.0525
727.2473, 471.8072
727.7294, 511.7471
728.2115, 544.9648
728.6936, 576.8755
729.1757, 616.1420
729.6578, 662.1989
730.1400, 712.0718
730.6221, 797.6607
731.1042, 857.4998
731.5863, 846.9688
732.0684, 774.8331
732.5505, 670.4813
733.0327, 496.3428
733.5148, 340.0202
733.9969, 226.7927
734.4790, 154.2715
734.9611, 101.8887
735.4432, 72.49380
735.9254, 53.59152
736.4075, 41.56299
736.8896, 35.08755
737.3717, 29.28000
737.8538, 24.19595
738.3359, 19.94296
738.8181, 16.73102
739.3002, 14.31866
739.7823, 12.62219
740.2644, 11.61749
740.7465, 10.73376
741.2286, 9.764740
741.7108, 8.849884
742.1929, 7.987823
742.6750, 7.059784
743.1571, 6.701263
743.6392, 7.205872
744.1213, 7.690369
744.6035, 7.350494
745.0856, 6.255005
745.5677, 5.469727
746.0498, 5.029297
746.5319, 4.941589
747.0140, 5.798920
747.4962, 6.814270
747.9783, 6.669159
748.4604, 4.925598
748.9425, 3.137787
749.4246, 1.768646
749.9067, 0.8773800
750.3889, 0.5703430
750.8710, 1.573303
751.3531, 1.835663
751.8352, 0.9999080
752.3173, 0.1143190
752.7994, 0.5489810
753.2816, 0.2980350
753.7637, 0.1789860
754.2458, 0.9436650
754.7279, 1.485443
755.2100, 0.8233950
755.6921, 0.4842220
756.1743, 1.298462
756.6564, 1.068207
757.1385, 0.6521610
757.6206, 0.4038090
758.1027, 0.2891850
758.5848, 0.2629090
759.0670, 0.4691160
759.5491, 0.5304570
760.0312, 0.3428340
760.5133, 3.8176998E-02
760.9954, 0.1025390
761.4775, 6.5033004E-02
761.9597, 0.1625370
762.4418, 0.5279540
762.9239, 1.004791
763.4060, 1.361664
763.8881, 1.559082
764.3702, 1.535156
764.8524, 0.8029790
765.3345, 0.2968140
765.8166, 0.8443300
766.2987, 1.996002
766.7808, 2.597595
767.2629, 1.991486
767.7451, 1.436432
768.2272, 1.233124
768.7093, 1.213623
769.1914, 0.6448670
769.6735, 0.5756840
770.1556, 1.160278
770.6378, 0.2981870
771.1199, 1.228149
771.6020, 2.102722
772.0841, 2.360626
772.5662, 2.151428
773.0483, 0.8985900
773.5305, 0.2013850
774.0126, 0.3222050
774.4947, 0.3826600
774.9768, 1.036316
775.4589, 1.723938
775.9410, 2.068695
776.4232, 1.860809
776.9053, 1.210175
777.3874, 0.7459410
777.8695, 0.4758000
778.3516, 0.2954100
778.8337, 0.1484680
779.3159, 6.0210999E-02
779.7980, 0.1404420
780.2801, 0.3451540
780.7622, 0.4619450
781.2443, 0.1177370
781.7264, 0.1337590
782.2086, 0.2406310
782.6907, 1.203491
783.1728, 1.578674
783.6549, 0.9441220
784.1370, 0.1901860
784.6191, 0.4976200
785.1013, 1.062531
785.5834, 0.8429570
786.0655, 0.2103880
786.5476, 1.210876
787.0297, 1.340698
787.5118, 1.138794
787.9940, 1.782440
788.4761, 3.142487
788.9582, 3.990601
789.4403, 3.144318
789.9224, 1.983307
790.4045, 1.239441
790.8867, 0.9849850
791.3688, 1.068359
791.8509, 1.775146
792.3330, 2.328033
792.8151, 2.261932
793.2972, 1.653961
793.7794, 1.302124
794.2615, 1.205383
794.7436, 1.500397
795.2257, 2.912048
795.7078, 4.437714
796.1899, 4.456207
796.6721, 3.010193
797.1542, 1.667938
797.6363, 1.266541
798.1184, 1.078613
798.6005, 0.5915830
799.0826, 0.2702030
799.5648, 0.4501340
800.0469, 0.2158200
800.5290, 1.189606
801.0111, 2.558502
801.4932, 4.095459
801.9753, 3.783203
802.4575, 1.683868
802.9396, 0.1033020
803.4217, 0.3489690
803.9038, 1.638794
804.3859, 2.454590
804.8680, 2.696259
805.3502, 2.521271
805.8323, 1.439362
806.3144, 0.4594420
806.7965, 0.1160890
807.2786, 0.4421690
807.7607, 0.7202150
808.2429, 0.9792180
808.7250, 1.099365
809.2071, 0.7750850
809.6892, 0.2616580
810.1713, 0.6093750
810.6534, 1.736267
811.1356, 2.653381
811.6177, 2.406342
812.0998, 1.881897
812.5819, 1.852264
813.0640, 2.381775
813.5461, 2.532074
814.0283, 1.623260
814.5104, 0.9171750
814.9925, 0.9877620
815.4746, 1.793396
815.9567, 2.330109
816.4388, 2.550140
816.9210, 2.974060
817.4031, 4.707581
817.8852, 6.597321
818.3673, 6.088196
818.8494, 3.430389
819.3315, 0.9852290
819.8137, 0.1804500
820.2958, 0.5938420
820.7779, 0.3157350
821.2600, 0.6661380
821.7421, 1.318207
822.2242, 1.406677
822.7064, 1.646210
823.1885, 2.536682
823.6706, 3.852234
824.1527, 4.367249
824.6348, 4.106384
825.1169, 3.559875
825.5991, 2.662170
826.0812, 1.882874
826.5633, 1.927307
827.0454, 2.628418
827.5275, 2.895355
828.0096, 1.476593
828.4918, 0.5699460
828.9739, 1.165985
829.4560, 2.977966
829.9381, 4.002686
830.4202, 4.145691
830.9023, 4.043762
831.3845, 3.872955
831.8666, 3.716431
832.3487, 3.800385
832.8308, 4.090027
833.3129, 4.433960
833.7950, 4.888885
834.2772, 5.247406
834.7593, 5.426697
835.2414, 5.414185
835.7235, 5.112061
836.2056, 4.146851
836.6877, 3.547943
837.1699, 3.579712
837.6520, 4.120361
838.1341, 5.162842
838.6162, 6.660797
839.0983, 7.522003
839.5804, 7.019470
840.0626, 5.930389
840.5447, 4.702271
841.0268, 3.600342
841.5089, 3.327545
841.9910, 5.243530
842.4731, 6.733459
842.9553, 6.873932
843.4374, 6.187408
843.9195, 5.619263
844.4016, 5.183624
844.8837, 4.388855
845.3658, 2.918182
845.8480, 1.471802
846.3301, 1.262299
846.8122, 2.079163
847.2943, 3.380707
847.7764, 5.439972
848.2585, 7.191742
848.7407, 7.325653
849.2228, 6.948944
849.7049, 7.857452
850.1870, 11.27985
850.6691, 14.09003
851.1512, 15.87860
851.6334, 17.18170
852.1155, 18.85294
852.5976, 20.83752
853.0797, 22.51025
853.5618, 23.68121
854.0439, 24.67560
854.5261, 25.77548
855.0082, 26.98016
855.4903, 28.23416
855.9724, 29.17270
856.4545, 30.90991
856.9366, 34.41516
857.4188, 38.20285
857.9009, 40.50974
858.3830, 40.59427
858.8651, 43.85135
859.3472, 50.74899
859.8293, 60.08325
860.3115, 71.48175
860.7936, 84.03708
861.2757, 95.72888
861.7578, 106.2328
862.2399, 117.8653
862.7220, 130.9060
863.2042, 146.0536
863.6863, 166.1270
864.1684, 193.2450
864.6505, 212.3439
865.1326, 225.5708
865.6147, 224.4192
866.0969, 196.0486
866.5790, 147.6565
867.0611, 107.3894
867.5432, 75.42450
868.0253, 51.39877
868.5074, 37.30237
868.9896, 28.48712
869.4717, 22.66238
869.9538, 19.53519
870.4359, 17.05191
870.9180, 15.02835
871.4001, 13.36469
871.8823, 12.00812
872.3644, 10.99017
872.8465, 10.70569
873.3286, 11.14371
873.8107, 11.43762
874.2928, 10.88818
874.7750, 9.933228
875.2571, 8.738556
875.7392, 7.572876
876.2213, 7.229034
876.7034, 8.883575
877.1855, 10.22171
877.6677, 10.69299
878.1498, 10.59293
878.6319, 10.54816
879.1140, 10.52332
879.5961, 10.23096
880.0782, 9.513733
880.5604, 8.701294
881.0425, 8.349152
881.5246, 8.290833
882.0067, 8.118652
882.4888, 7.483276
882.9709, 6.957214
883.4531, 6.868042
883.9352, 6.987640
884.4173, 6.973785
884.8994, 6.735565
885.3815, 6.455566
885.8636, 6.079254
886.3458, 5.828766
886.8279, 6.170837
887.3100, 6.838898
887.7921, 7.130402
888.2742, 6.921875
888.7563, 6.787048
889.2385, 7.026367
889.7206, 7.437225
890.2027, 7.698547
890.6848, 7.641479
891.1669, 8.317841
891.6490, 10.11533
892.1312, 11.47989
892.6133, 11.01990
893.0954, 9.209167
893.5775, 7.508789
894.0596, 5.982056
894.5417, 5.249695
895.0239, 6.357269
895.5060, 7.795898
895.9881, 8.303864
896.4702, 7.883850
896.9523, 7.955475
897.4344, 9.143768
897.9166, 9.943146
898.3987, 9.775848
898.8808, 8.856384
899.3629, 7.794067
899.8450, 6.621582
900.3271, 5.573486
900.8093, 4.493500
901.2914, 3.866882
901.7735, 4.487000
902.2556, 5.823792
902.7377, 6.773926
903.2198, 6.833099
903.7020, 6.769958
904.1841, 6.465546
904.6662, 6.260742
905.1483, 7.015350
905.6304, 8.640106
906.1125, 9.300323
906.5947, 8.483490
907.0768, 7.359955
907.5589, 7.212128
908.0410, 7.421234
908.5231, 7.201660
909.0052, 6.217987
909.4874, 5.247040
909.9695, 4.024139
910.4516, 3.221344
910.9337, 3.571014
911.4158, 5.145355
911.8979, 5.798004
912.3801, 5.483307
912.8622, 5.027496
913.3443, 5.301971
913.8264, 5.652222
914.3085, 5.184570
914.7906, 3.892242
915.2728, 2.738922
915.7549, 2.060150
916.2370, 1.545197
916.7191, 0.8680110
917.2012, 0.2540890
917.6833, 1.533325
918.1655, 4.786255
918.6476, 6.672974
919.1297, 4.744263
919.6118, 1.743103
920.0939, 1.557343
920.5760, 3.117981
921.0582, 3.911346
921.5403, 1.981354
922.0224, 0.7034000
922.5045, 1.042847
922.9866, 2.218842
923.4688, 3.226013
923.9509, 4.145386
924.4330, 4.182312
924.9151, 2.992920
925.3972, 1.804382
925.8793, 2.370453
926.3615, 3.664032
926.8436, 4.048370
927.3257, 2.881866
927.8078, 2.192871
928.2899, 3.226410
928.7720, 4.319550
929.2542, 4.572876
929.7363, 3.956635
930.2184, 2.788208
930.7005, 1.037262
931.1826, 0.3556820
931.6647, 0.3821110
932.1469, 0.1672970
932.6290, 0.2682800
933.1111, 1.0559000E-02
933.5932, 0.1599430
934.0753, 0.5003970
934.5574, 0.7222900
935.0396, 0.1562190
935.5217, 1.642365
936.0038, 2.063538
936.4859, 1.396545
936.9680, 0.5669250
937.4501, 0.2450870
937.9323, 0.8511960
938.4144, 0.7184750
938.8965, 0.2658690
939.3786, 0.2286990
939.8607, 1.429596
940.3428, 2.006165
940.8250, 1.227966
941.3071, 0.1226810
941.7892, 0.3396610
942.2713, 0.1402590
942.7534, 2.7283000E-02
943.2355, 0.1210330
943.7177, 0.2431030
944.1998, 0.7761230
944.6819, 1.233093
945.1640, 0.6878660
945.6461, 0.9505000
946.1282, 1.374817
946.6104, 1.812195
947.0925, 4.093567
947.5746, 3.490784
948.0567, 0.6901250
948.5388, 0.8495480
949.0209, 1.147705
949.5031, 0.6758420
949.9852, 1.112976
950.4673, 2.728882
950.9494, 2.389160
951.4315, 0.8140870
951.9136, 0.5684200
952.3958, 1.703674
952.8779, 2.104614
953.3600, 1.501587
953.8421, 0.4630740
954.3242, 0.3415530
954.8063, 0.9081420
955.2885, 1.208984
955.7706, 1.207947
956.2527, 1.170166
956.7348, 1.312012
957.2169, 1.521973
957.6990, 1.708374
958.1811, 1.870911
958.6632, 1.922791
959.1453, 1.969666
959.6274, 1.730896
960.1096, 0.8189700
960.5917, 0.4856570
961.0738, 0.8841550
961.5559, 0.4720460
962.0380, 0.1938480
962.5201, 1.132202
963.0023, 1.927429
963.4844, 2.284607
963.9665, 2.309143
964.4486, 2.321350
964.9307, 2.537292
965.4128, 2.166809
965.8950, 0.8573000
966.3771, 0.5469360
966.8592, 0.6624150
967.3413, 7.2082996E-02
967.8234, 0.6157840
968.3055, 0.8231810
968.7877, 0.5375980
969.2698, 0.8883060
969.7519, 2.414917
970.2340, 3.192261
970.7161, 3.132446
971.1982, 3.304138
971.6804, 3.821533
972.1625, 3.977844
972.6446, 3.001404
973.1267, 1.545959
973.6088, 0.8138430
974.0909, 0.6664430
974.5731, 0.6064450
975.0552, 0.4856570
975.5373, 0.2487790
976.0194, 0.3716430
976.5015, 0.9275510
976.9836, 0.3852540
977.4658, 1.446289
977.9479, 1.920349
978.4300, 0.1096800
978.9121, 1.642151
979.3942, 0.2645260
979.8763, 3.423523
980.3585, 4.411682
980.8406, 1.963562
981.3227, 0.1210330
981.8048, 1.269409
982.2869, 1.930298
982.7690, 2.269348
983.2512, 2.298767
983.7333, 2.249329
984.2154, 2.144348
984.6975, 2.064270
985.1796, 2.431030
985.6617, 2.473938
986.1439, 1.004944
986.6260, 1.261780
987.1081, 2.034180
987.5902, 0.2221070
988.0723, 1.121765
988.5544, 1.430298
989.0366, 1.216614
989.5187, 1.431946
990.0008, 1.902222
990.4829, 1.778137
990.9650, 0.7495730
991.4471, 6.6895001E-02
991.9293, 1.079590
992.4114, 2.298340
992.8935, 2.465393
993.3756, 1.455078
993.8577, 0.7695920
994.3398, 0.4595340
994.8220, 0.6748660
995.3041, 2.031677
995.7862, 3.586975
996.2683, 3.450745
996.7504, 2.118042
997.2325, 1.115601
997.7147, 0.8034670
998.1968, 1.321533
998.6789, 3.338867
999.1610, 5.575928
999.6431, 6.019470
1000.125, 4.716980
1000.607, 3.759766
1001.089, 3.396240
1001.572, 3.595215
1002.054, 4.797363
1002.536, 6.270203
1003.018, 7.271606
1003.500, 7.582214
1003.982, 7.859375
1004.464, 8.304871
1004.946, 8.690369
1005.429, 8.894104
1005.911, 9.026733
1006.393, 9.361877
1006.875, 9.944519
1007.357, 10.73981
1007.839, 12.05835
1008.321, 13.17010
1008.803, 13.61957
1009.285, 13.70715
1009.768, 13.81757
1010.250, 13.89764
1010.732, 14.23047
1011.214, 14.87744
1011.696, 15.81903
1012.178, 17.17151
1012.660, 18.64844
1013.142, 20.03741
1013.625, 21.28644
1014.107, 21.89398
1014.589, 20.06976
1015.071, 19.61981
1015.553, 22.73315
1016.035, 27.70795
1016.517, 28.15277
1016.999, 24.52374
1017.481, 21.58594
1017.964, 20.85944
1018.446, 21.49603
1018.928, 23.70563
1019.410, 26.43628
1019.892, 28.35431
1020.374, 29.15076
1020.856, 29.22815
1021.338, 28.20758
1021.820, 27.47040
1022.303, 28.24109
1022.785, 30.06628
1023.267, 32.02582
1023.749, 34.03033
1024.231, 35.70410
1024.713, 37.16638
1025.195, 37.95105
1025.677, 37.16864
1026.160, 35.83490
1026.642, 36.15491
1027.124, 38.20227
1027.606, 40.11041
1028.088, 41.52661
1028.570, 42.90649
1029.052, 45.17926
1029.534, 47.39111
1030.016, 48.29053
1030.499, 47.38025
1030.981, 47.27307
1031.463, 48.26685
1031.945, 49.74487
1032.427, 51.60547
1032.909, 53.63977
1033.391, 55.12366
1033.873, 56.16815
1034.356, 57.26886
1034.838, 59.07532
1035.320, 60.49762
1035.802, 60.39386
1036.284, 60.02448
1036.766, 61.07538
1037.248, 63.81702
1037.730, 66.44568
1038.213, 68.98029
1038.695, 70.78406
1039.177, 70.46313
1039.659, 69.30542
1040.141, 68.53741
1040.623, 68.32941
1041.105, 69.48175
1041.587, 73.61450
1042.069, 76.79456
1042.552, 77.77393
1043.034, 77.45862
1043.516, 77.78394
1043.998, 78.66589
1044.480, 79.74011
1044.962, 80.97937
1045.444, 82.29492
1045.926, 83.25342
1046.408, 84.49390
1046.891, 86.59821
1047.373, 89.64899
1047.855, 92.70319
1048.337, 95.69232
1048.819, 99.37695
1049.301, 104.3130
1049.783, 110.1392
1050.265, 117.5380
1050.748, 125.4771
1051.230, 131.2945
1051.712, 132.2557
1052.194, 133.7672
1052.676, 136.4374
1053.158, 139.6302
1053.640, 142.7314
1054.122, 145.6397
1054.604, 146.4255
1055.087, 144.8727
1055.569, 148.4265
1056.051, 158.6874
1056.533, 178.1664
1057.015, 205.6841
1057.497, 242.9897
1057.979, 302.8016
1058.461, 385.8571
1058.943, 485.1727
1059.426, 606.6404
1059.908, 724.9853
1060.390, 813.5161
1060.872, 880.7043
1061.354, 936.4488
1061.836, 975.6429
1062.318, 1020.080
1062.800, 1069.072
1063.283, 1126.373
1063.765, 1193.617
1064.247, 1272.063
1064.729, 1360.285
1065.211, 1461.169
1065.693, 1585.772
1066.175, 1716.727
1066.657, 1899.755
1067.140, 2132.076
1067.622, 2441.097
1068.104, 2880.432
1068.586, 3448.695
1069.068, 4065.537
1069.550, 4724.053
1070.032, 5453.420
1070.514, 6440.541
1070.996, 7383.170
1071.479, 8203.890
1071.961, 8818.625
1072.443, 8494.005
1072.925, 6913.133
1073.407, 5269.958
1073.889, 3801.252
1074.371, 2590.944
1074.853, 1768.801
1075.335, 1260.376
1075.818, 921.3802
1076.300, 747.9993
1076.782, 655.8863
1077.264, 641.5226
1077.746, 685.9761
1078.228, 794.8958
1078.710, 956.5317
1079.192, 1107.506
1079.675, 1244.274
1080.157, 1347.051
1080.639, 1382.223
1081.121, 1407.749
1081.603, 1447.736
1082.085, 1502.446
1082.567, 1569.385
1083.049, 1648.025
1083.531, 1740.827
1084.014, 1848.464
1084.496, 1971.775
1084.978, 2092.982
1085.460, 2243.339
1085.942, 2427.107
1086.424, 2663.091
1086.906, 3055.569
1087.388, 3607.403
1087.870, 4329.237
1088.353, 5239.884
1088.835, 6297.179
1089.317, 7395.693
1089.799, 8580.787
1090.281, 10232.99
1090.763, 12615.21
1091.245, 13827.48
1091.727, 12507.87
1092.209, 10301.98
1092.692, 7752.919
1093.174, 5038.517
1093.656, 3133.758
1094.138, 1993.663
1094.620, 1244.632
1095.102, 836.1666
1095.584, 590.6924
1096.066, 440.9500
1096.549, 353.3955
1097.031, 287.9664
1097.513, 245.2692
1097.995, 210.4385
1098.477, 183.8622
1098.959, 162.2209
1099.441, 144.3164
1099.923, 129.2976
1100.406, 116.0043
1100.888, 104.3051
1101.370, 93.85156
1101.852, 84.52826
1102.334, 76.82617
1102.816, 71.07080
1103.298, 66.31140
1103.780, 61.26355
1104.262, 56.32819
1104.745, 52.55988
1105.227, 49.95734
1105.709, 47.53442
1106.191, 45.26587
1106.673, 42.48749
1107.155, 38.55359
1107.637, 34.34399
1108.119, 32.14246
1108.601, 31.66089
1109.084, 31.29553
1109.566, 30.77997
1110.048, 29.62555
1110.530, 26.80365
1111.012, 23.78662
1111.494, 21.77991
1111.976, 20.71545
1112.458, 19.25952
1112.941, 17.37073
1113.423, 15.44830
1113.905, 13.44226
1114.387, 11.78064
1114.869, 11.13788
1115.351, 11.03271
1115.833, 10.86737
1116.315, 10.71332
1116.797, 9.918640
1117.280, 8.252258
1117.762, 6.760986
1118.244, 6.315613
1118.726, 6.465820
1119.208, 6.588379
1119.690, 6.629333
1120.172, 6.453186
1120.654, 5.883789
1121.136, 5.278076
1121.619, 4.687256
1122.101, 4.032166
1122.583, 3.040344
1123.065, 1.933838
1123.547, 1.514404
1124.029, 1.788940
1124.511, 2.128601
1124.993, 2.656738
1125.476, 2.632080
1125.958, 1.611145
1126.440, 7.3059000E-02
1126.922, 1.257629
1127.404, 2.314148
1127.886, 2.422913
1128.368, 1.360779
1128.850, 0.2785640
1129.333, 0.1759640
1129.815, 0.1897580
1130.297, 0.2042240
1130.779, 0.9268190
1131.261, 1.698792
1131.743, 2.536377
1132.225, 3.170227
1132.707, 3.593933
1133.189, 3.587280
1133.672, 2.369202
1134.154, 0.9512940
1134.636, 0.5399780
1135.118, 1.390381
1135.600, 2.565308
1136.082, 4.275208
1136.564, 5.261536
1137.046, 4.315002
1137.528, 2.886353
1138.011, 3.650879
1138.493, 5.378662
1138.975, 5.800476
1139.457, 2.827515
1139.939, 1.054382
1140.421, 0.8578490
1140.903, 1.038574
1141.385, 0.3673100
1141.868, 0.9666750
1142.350, 5.3100999E-02
1142.832, 1.747192
1143.314, 2.960938
1143.796, 3.164368
1144.278, 2.554321
1144.760, 0.7012940
1145.242, 1.177917
1145.724, 1.359497
1146.207, 0.3266600
1146.689, 0.2734380
1147.171, 0.3247070
1147.653, 0.1231690
1148.135, 8.9109996E-03
1148.617, 0.6336670
1149.099, 2.515808
1149.581, 4.644226
1150.063, 4.683411
1150.546, 2.998962
1151.028, 2.354065
1151.510, 3.298096
1151.992, 4.079468
1152.474, 2.909119
1152.956, 1.807190
1153.438, 2.120056
1153.920, 3.539612
1154.403, 5.164429
1154.885, 6.962585
1155.367, 7.582397
1155.849, 6.343506
1156.331, 4.898743
1156.813, 4.233826
1157.295, 4.318604
1157.777, 5.617554
1158.260, 8.073975
1158.742, 8.695251
1159.224, 7.331116
1159.706, 6.225830
1160.188, 6.466309
1160.670, 7.099792
1161.152, 7.340942
1161.634, 7.250732
1162.116, 6.823975
1162.599, 5.877930
1163.081, 5.282288
1163.563, 4.981323
1164.045, 5.279846
1164.527, 7.171570
1165.009, 9.029907
1165.491, 8.183350
1165.973, 5.812256
1166.455, 4.278442
1166.938, 4.115234
1167.420, 4.844482
1167.902, 6.819946
1168.384, 8.496399
1168.866, 8.185974
1169.348, 6.998047
1169.830, 6.679077
1170.312, 7.099854
1170.795, 7.711853
1171.277, 8.607239
1171.759, 9.283264
1172.241, 9.628601
1172.723, 9.911682
1173.205, 10.56696
1173.687, 11.30987
1174.169, 11.68048
1174.651, 11.62634
1175.134, 11.05109
1175.616, 9.113770
1176.098, 7.797180
1176.580, 7.592468
1177.062, 7.858032
1177.544, 7.644775
1178.026, 7.166138
1178.508, 7.027649
1178.990, 7.286072
1179.473, 7.292786
1179.955, 5.947937
1180.437, 5.519043
1180.919, 7.130371
1181.401, 9.423950
1181.883, 9.288391
1182.365, 7.610291
1182.847, 7.348877
1183.330, 9.220398
1183.812, 10.60126
1184.294, 9.553162
1184.776, 8.604797
1185.258, 8.910339
1185.740, 10.00140
1186.222, 10.46881
1186.704, 10.42328
1187.187, 10.23126
1187.669, 9.916565
1188.151, 9.651428
1188.633, 9.359985
1189.115, 9.325500
1189.597, 9.800720
1190.079, 10.62323
1190.561, 11.20923
1191.043, 11.51001
1191.526, 11.10504
1192.008, 9.354736
1192.490, 7.990417
1192.972, 8.383850
1193.454, 8.846924
1193.936, 7.905518
1194.418, 8.386536
1194.900, 6.166260
1195.382, 8.355530
1195.865, 9.749268
1196.347, 8.942322
1196.829, 7.426453
1197.311, 5.124451
1197.793, 3.380798
1198.275, 3.660522
1198.757, 5.869629
1199.239, 6.421448
1199.722, 5.414734
1200.204, 4.547852
1200.686, 4.301453
1201.168, 4.565491
1201.650, 6.210388
1202.132, 7.834045
1202.614, 7.696960
1203.096, 5.797668
1203.578, 4.902588
1204.061, 4.954102
1204.543, 5.101318
1205.025, 4.916870
1205.507, 4.655884
1205.989, 4.051819
1206.471, 3.711609
1206.953, 4.719116
1207.435, 7.004028
1207.917, 8.070740
1208.400, 7.809631
1208.882, 7.463989
1209.364, 8.216431
1209.846, 8.645325
1210.328, 7.245850
1210.810, 5.386169
1211.292, 5.437134
1211.774, 7.347168
1212.257, 8.520386
1212.739, 8.728699
1213.221, 8.241577
1213.703, 6.224731
1214.185, 4.639771
1214.667, 4.972595
1215.149, 6.311707
1215.631, 7.146667
1216.114, 7.483093
1216.596, 7.504883
1217.078, 7.220703
1217.560, 7.135925
1218.042, 7.617798
1218.524, 8.392883
1219.006, 9.679688
1219.488, 10.96869
1219.970, 10.91644
1220.453, 9.637939
1220.935, 8.497375
1221.417, 7.696960
1221.899, 7.501221
1222.381, 8.651001
1222.863, 9.898926
1223.345, 10.78040
1223.827, 11.14490
1224.309, 10.14246
1224.792, 8.085571
1225.274, 7.297607
1225.756, 8.352539
1226.238, 9.381775
1226.720, 8.990845
1227.202, 8.504761
1227.684, 8.752563
1228.166, 8.316101
1228.649, 7.948364
1229.131, 7.976990
1229.613, 7.232422
1230.095, 7.072632
1230.577, 7.128113
1231.059, 7.319458
1231.541, 7.547668
1232.023, 7.799683
1232.505, 8.032715
1232.988, 8.098511
1233.470, 8.019897
1233.952, 7.891663
1234.434, 7.779175
1234.916, 7.481995
1235.398, 6.472656
1235.880, 5.782959
1236.362, 6.096985
1236.844, 6.975098
1237.327, 6.917664
1237.809, 6.112427
1238.291, 5.203064
1238.773, 4.359802
1239.255, 3.653442
1239.737, 3.077148
1240.219, 2.648560
1240.701, 2.350586
1241.184, 2.269104
1241.666, 2.664063
1242.148, 3.411316
1242.630, 4.309082
1243.112, 5.720276
1243.594, 5.794189
1244.076, 3.018555
1244.558, 0.6928100
1245.041, 0.4591670
1245.523, 1.739258
1246.005, 3.541565
1246.487, 5.504211
1246.969, 6.771240
1247.451, 6.993469
1247.933, 6.794312
1248.415, 6.074707
1248.897, 5.400635
1249.380, 5.081116
1249.862, 4.973938
1250.344, 4.905823
1250.826, 4.795410
1251.308, 4.382568
1251.790, 3.176331
1252.272, 2.901794
1252.754, 3.914673
1253.236, 4.924011
1253.719, 5.194397
1254.201, 5.119507
1254.683, 5.367981
1255.165, 5.716736
1255.647, 5.777466
1256.129, 5.373962
1256.611, 4.979980
1257.093, 4.628113
1257.576, 4.109985
1258.058, 3.143127
1258.540, 2.163818
1259.022, 1.619202
1259.504, 1.442627
1259.986, 1.569885
1260.468, 1.990662
1260.950, 2.708313
1261.432, 3.768127
1261.915, 4.468994
1262.397, 4.302795
1262.879, 3.768372
1263.361, 2.922241
1263.843, 2.219604
1264.325, 2.494995
1264.807, 1.660950
1265.289, 3.534546
1265.771, 1.022888
1266.254, 0.9511720
1266.736, 0.8820190
1267.218, 2.4901999E-02
1267.700, 1.666931
1268.182, 3.260864
1268.664, 3.988953
1269.146, 3.856201
1269.628, 3.218933
1270.111, 2.165344
1270.593, 1.494690
1271.075, 1.752869
1271.557, 2.232056
1272.039, 2.987122
1272.521, 3.480347
1273.003, 3.105042
1273.485, 2.073547
1273.968, 1.853577
1274.450, 2.253052
1274.932, 2.428589
1275.414, 1.674133
1275.896, 1.227112
1276.378, 1.445984
1276.860, 1.787231
1277.342, 1.887756
1277.824, 1.801575
1278.307, 1.498291
1278.789, 1.151855
1279.271, 1.271729
1279.753, 2.642212
1280.235, 3.335571
1280.717, 3.184082
1281.199, 2.482300
1281.681, 0.9205320
1282.163, 0.6846310
1282.646, 0.5407710
1283.128, 0.5928340
1283.610, 1.079224
1284.092, 9.3079001E-02
1284.574, 0.3251340
1285.056, 0.1499020
1285.538, 0.5044560
1286.020, 2.079956
1286.503, 3.443909
1286.985, 2.882690
1287.467, 1.390503
1287.949, 0.6526490
1288.431, 0.7979130
1288.913, 1.555908
1289.395, 2.944275
1289.877, 4.047974
1290.359, 4.355957
1290.842, 4.187988
1291.324, 3.315552
1291.806, 2.404785
1292.288, 2.314758
1292.770, 1.603027
1293.252, 2.619385
1293.734, 1.286194
1294.216, 0.2769170
1294.698, 1.091003
1295.181, 1.874878
1295.663, 1.815247
1296.145, 1.830139
1296.627, 2.638672
1297.109, 3.966370
1297.591, 4.644653
1298.073, 4.728271
1298.555, 4.318481
1299.038, 2.931763
1299.520, 2.186096
1300.002, 2.420898
1300.484, 3.130554
1300.966, 4.386597
1301.448, 5.394470
1301.930, 3.907837
1302.412, 1.199158
1302.895, 0.1369630
1303.377, 1.155701
1303.859, 2.241333
1304.341, 1.840515
1304.823, 1.238281
1305.305, 0.0000000E+00
##END=



