##NAMES=Siderite
##RRUFFID=R040034
##IDEAL CHEMISTRY=FeCO_3_
##LOCALITY=Pribram, Czech Republic
##OWNER=RRUFF
##SOURCE=University of Arizona Mineral Museum
##DESCRIPTION=Group of tan colored flattened rhombohedra
##STATUS=The identification of this mineral has been confirmed by X-ray diffraction and chemical analysis
##URL=rruff.info/R040034
##MEASURED CHEMISTRY=(Fe_0.72_Mg_0.24_Mn_0.03_Ca_0.01_)_Î£=1_C_1.00_O_3_; CO_2_ estimated by difference
150.2960, 0.0000000E+00
150.7781, 1.6968001E-02
151.2602, 1.414413
151.7424, 2.310425
152.2245, 2.380081
152.7066, 1.766647
153.1887, 0.8365020
153.6708, 0.3695220
154.1529, 0.6829830
154.6351, 8.3205998E-02
155.1172, 1.624542
155.5993, 3.724564
156.0814, 7.098175
156.5635, 10.26010
157.0456, 12.94013
157.5278, 15.09601
158.0099, 16.91663
158.4920, 17.90109
158.9741, 18.83167
159.4562, 20.40654
159.9383, 22.53648
160.4205, 25.54984
160.9026, 30.10764
161.3847, 36.35287
161.8668, 41.72929
162.3489, 44.09467
162.8310, 45.48264
163.3132, 48.26230
163.7953, 54.87674
164.2774, 61.80066
164.7595, 66.81956
165.2416, 69.41595
165.7237, 72.78174
166.2059, 79.46072
166.6880, 87.84470
167.1701, 95.42685
167.6522, 100.1900
168.1343, 104.4211
168.6164, 109.7396
169.0985, 116.4476
169.5807, 123.6564
170.0628, 130.9083
170.5449, 138.2037
171.0270, 145.5032
171.5091, 152.6999
171.9912, 159.9494
172.4734, 167.3867
172.9555, 175.0557
173.4376, 182.9589
173.9197, 191.5741
174.4018, 200.5443
174.8839, 208.8128
175.3661, 214.9699
175.8482, 220.2655
176.3303, 226.3665
176.8124, 233.7787
177.2945, 241.4981
177.7766, 248.1745
178.2588, 254.1568
178.7409, 260.6083
179.2230, 268.9492
179.7051, 278.2650
180.1872, 286.5911
180.6693, 293.3938
181.1515, 300.0957
181.6336, 308.9422
182.1157, 319.7667
182.5978, 330.2228
183.0799, 338.8696
183.5620, 345.8476
184.0442, 351.7033
184.5263, 357.0528
185.0084, 362.4057
185.4905, 369.2332
185.9726, 377.3329
186.4547, 386.1388
186.9369, 394.3781
187.4190, 401.5519
187.9011, 407.1414
188.3832, 411.2538
188.8653, 413.3684
189.3474, 414.3775
189.8296, 415.0345
190.3117, 413.1794
190.7938, 406.8387
191.2759, 396.5580
191.7580, 385.6113
192.2401, 374.9612
192.7223, 363.8781
193.2044, 350.1299
193.6865, 333.5117
194.1686, 314.7495
194.6507, 293.8827
195.1328, 271.0302
195.6150, 248.6219
196.0971, 227.0921
196.5792, 206.6005
197.0613, 188.0013
197.5434, 171.5340
198.0255, 155.9827
198.5077, 140.2847
198.9898, 124.2914
199.4719, 109.9826
199.9540, 97.84973
200.4361, 87.81985
200.9182, 79.58792
201.4004, 73.61261
201.8825, 68.19588
202.3646, 61.18224
202.8467, 52.27861
203.3288, 44.84583
203.8109, 40.15512
204.2931, 37.81671
204.7752, 34.34694
205.2573, 29.36469
205.7394, 24.16603
206.2215, 20.17110
206.7036, 17.63094
207.1858, 15.12512
207.6679, 12.17468
208.1500, 8.968979
208.6321, 6.661072
209.1142, 5.460648
209.5963, 4.741180
210.0785, 3.834396
210.5606, 2.673477
211.0427, 1.613541
211.5248, 0.7767790
212.0069, 0.1557920
212.4890, 0.7049710
212.9712, 2.004227
213.4533, 3.275589
213.9354, 3.983063
214.4175, 4.040237
214.8996, 3.802414
215.3817, 3.252487
215.8639, 2.393951
216.3460, 1.679474
216.8281, 0.8863830
217.3102, 0.5366060
217.7923, 1.459091
218.2744, 4.420670
218.7565, 6.704590
219.2387, 7.583252
219.7208, 7.049271
220.2029, 6.080292
220.6850, 4.232269
221.1671, 2.487396
221.6492, 2.156677
222.1314, 4.108551
222.6135, 5.451691
223.0956, 5.293808
223.5777, 3.549225
224.0598, 2.445801
224.5419, 2.099823
225.0241, 2.251358
225.5062, 2.784805
225.9883, 4.251328
226.4704, 4.883545
226.9525, 3.949890
227.4346, 1.331909
227.9168, 0.1315460
228.3989, 0.1450960
228.8810, 0.9487760
229.3631, 1.023239
229.8452, 9.3291998E-02
230.3273, 1.055054
230.8095, 2.483032
231.2916, 4.234467
231.7737, 4.970398
232.2558, 4.050140
232.7379, 2.780167
233.2200, 2.529587
233.7022, 3.831863
234.1843, 5.098297
234.6664, 5.947083
235.1485, 6.360825
235.6306, 7.153931
236.1127, 8.650620
236.5949, 10.20593
237.0770, 11.17625
237.5591, 11.20828
238.0412, 11.34286
238.5233, 11.82681
239.0054, 12.66154
239.4876, 13.23494
239.9697, 13.36737
240.4518, 13.43677
240.9339, 13.79871
241.4160, 14.64305
241.8981, 15.37827
242.3803, 15.64714
242.8624, 15.49527
243.3445, 16.55966
243.8266, 19.72026
244.3087, 23.11433
244.7908, 25.17065
245.2730, 25.30830
245.7551, 25.22269
246.2372, 24.82458
246.7193, 24.21434
247.2014, 24.94191
247.6835, 27.90588
248.1657, 31.10670
248.6478, 32.83698
249.1299, 32.04330
249.6120, 32.13519
250.0941, 33.86717
250.5762, 36.97826
251.0584, 39.32536
251.5405, 40.49568
252.0226, 41.43062
252.5047, 42.79544
252.9868, 44.88385
253.4689, 46.73894
253.9511, 48.21538
254.4332, 49.38350
254.9153, 50.45238
255.3974, 50.93159
255.8795, 52.06979
256.3616, 54.86581
256.8438, 60.29868
257.3259, 64.84198
257.8080, 67.96555
258.2901, 70.01102
258.7722, 72.41232
259.2543, 75.27631
259.7365, 78.33157
260.2186, 81.33246
260.7007, 83.80215
261.1828, 87.65254
261.6649, 93.56638
262.1470, 100.7170
262.6292, 106.7136
263.1113, 110.9417
263.5934, 115.1655
264.0755, 120.0363
264.5576, 125.3341
265.0397, 132.4202
265.5219, 142.1668
266.0040, 153.2088
266.4861, 162.3660
266.9682, 168.5986
267.4503, 175.3911
267.9324, 184.1620
268.4146, 195.2949
268.8967, 207.1769
269.3788, 219.8078
269.8609, 233.1911
270.3430, 247.2237
270.8251, 262.0800
271.3073, 276.7832
271.7894, 289.8716
272.2715, 300.8531
272.7536, 316.3929
273.2357, 337.6836
273.7178, 361.6116
274.2000, 383.6715
274.6821, 403.2586
275.1642, 423.0747
275.6463, 443.7364
276.1284, 465.1078
276.6105, 488.0409
277.0927, 513.0029
277.5748, 538.8616
278.0569, 564.0592
278.5390, 588.4269
279.0211, 613.2490
279.5032, 638.7444
279.9854, 664.5392
280.4675, 690.4836
280.9496, 716.5239
281.4317, 743.4329
281.9138, 771.8651
282.3959, 801.7907
282.8781, 832.9385
283.3602, 865.5815
283.8423, 899.4212
284.3244, 932.4377
284.8065, 964.7468
285.2886, 997.3827
285.7708, 1030.747
286.2529, 1064.771
286.7350, 1100.598
287.2171, 1139.414
287.6992, 1179.815
288.1813, 1216.969
288.6635, 1250.920
289.1456, 1283.204
289.6277, 1315.576
290.1098, 1347.742
290.5919, 1376.911
291.0740, 1403.183
291.5562, 1425.933
292.0383, 1443.673
292.5204, 1456.567
293.0025, 1464.880
293.4846, 1469.995
293.9667, 1470.998
294.4489, 1464.583
294.9310, 1450.337
295.4131, 1428.972
295.8952, 1399.437
296.3773, 1362.673
296.8594, 1324.058
297.3416, 1288.057
297.8237, 1251.864
298.3058, 1208.940
298.7879, 1157.898
299.2700, 1103.330
299.7521, 1050.349
300.2343, 998.5508
300.7164, 949.3190
301.1985, 904.3789
301.6806, 861.3592
302.1627, 816.6346
302.6448, 769.4867
303.1270, 723.5774
303.6091, 681.1575
304.0912, 642.3636
304.5733, 605.4778
305.0554, 570.1787
305.5375, 536.6362
306.0197, 505.9761
306.5018, 478.2244
306.9839, 451.4582
307.4660, 423.9032
307.9481, 396.8335
308.4302, 372.1820
308.9124, 350.9144
309.3945, 331.5783
309.8766, 313.0760
310.3587, 295.3249
310.8408, 278.8059
311.3229, 263.9266
311.8051, 250.2290
312.2872, 237.7043
312.7693, 226.5944
313.2514, 216.0475
313.7335, 205.3153
314.2156, 194.6557
314.6978, 184.6805
315.1799, 176.1383
315.6620, 168.0419
316.1441, 159.7612
316.6262, 150.8001
317.1083, 142.5297
317.5905, 135.4746
318.0726, 129.5273
318.5547, 124.4043
319.0368, 121.0248
319.5189, 117.6856
320.0010, 113.4062
320.4832, 107.8019
320.9653, 102.6954
321.4474, 99.15619
321.9295, 96.20502
322.4116, 92.69650
322.8937, 86.86398
323.3759, 81.91168
323.8580, 79.43729
324.3401, 79.68048
324.8222, 78.60477
325.3043, 74.02191
325.7864, 68.78622
326.2686, 65.07117
326.7507, 64.68518
327.2328, 64.05112
327.7149, 62.69632
328.1970, 60.68327
328.6791, 58.49155
329.1613, 55.80290
329.6434, 53.14612
330.1255, 50.79123
330.6076, 48.65887
331.0897, 47.03094
331.5718, 46.17477
332.0540, 45.82648
332.5361, 45.24881
333.0182, 44.56821
333.5003, 43.48398
333.9824, 41.80930
334.4645, 39.25693
334.9467, 36.91585
335.4288, 34.85818
335.9109, 32.99658
336.3930, 31.12082
336.8751, 28.90033
337.3572, 27.41769
337.8394, 27.33284
338.3215, 28.74507
338.8036, 28.70079
339.2857, 26.61937
339.7678, 24.16592
340.2499, 23.26735
340.7320, 24.24031
341.2141, 24.72256
341.6963, 24.10497
342.1784, 22.63939
342.6605, 21.45103
343.1426, 20.63443
343.6247, 19.91510
344.1068, 18.65298
344.5890, 16.79092
345.0711, 15.67975
345.5532, 15.91141
346.0353, 16.90469
346.5174, 17.15802
346.9995, 16.61955
347.4817, 16.03172
347.9638, 15.83168
348.4459, 15.95213
348.9280, 16.38600
349.4101, 17.26909
349.8922, 17.73604
350.3744, 16.22559
350.8565, 13.33981
351.3386, 11.12288
351.8207, 10.57339
352.3028, 11.19041
352.7849, 12.76959
353.2671, 15.34999
353.7492, 17.08873
354.2313, 15.02220
354.7134, 11.12622
355.1955, 9.020630
355.6776, 11.68832
356.1598, 15.10220
356.6419, 15.08473
357.1240, 12.21239
357.6061, 9.565369
358.0882, 9.268112
358.5703, 10.03230
359.0525, 10.61444
359.5346, 10.70285
360.0167, 10.31827
360.4988, 9.202438
360.9809, 7.731689
361.4630, 6.771301
361.9452, 6.860306
362.4273, 7.295273
362.9094, 7.761749
363.3915, 8.247314
363.8736, 8.597839
364.3557, 8.869385
364.8379, 8.988235
365.3200, 8.834869
365.8021, 8.151077
366.2842, 7.396362
366.7663, 6.475891
367.2484, 5.322784
367.7306, 4.793854
368.2127, 5.927170
368.6948, 7.195038
369.1769, 7.592316
369.6590, 6.507416
370.1411, 5.250793
370.6233, 3.478653
371.1054, 1.507889
371.5875, 0.5948940
372.0696, 1.313797
372.5517, 2.345917
373.0338, 3.215363
373.5160, 3.984772
373.9981, 4.447250
374.4802, 4.392273
374.9623, 4.051498
375.4444, 3.826279
375.9265, 3.830444
376.4087, 3.600739
376.8908, 2.872910
377.3729, 1.672577
377.8550, 0.9598240
378.3371, 0.8135220
378.8192, 0.9637600
379.3014, 1.140823
379.7835, 1.335495
380.2656, 1.863113
380.7477, 3.069595
381.2298, 4.382050
381.7119, 4.056580
382.1941, 2.062958
382.6762, 4.3120999E-02
383.1583, 0.8329320
383.6404, 0.8041990
384.1225, 0.6898500
384.6046, 0.5215000
385.0868, 0.4554140
385.5689, 0.9028930
386.0510, 1.685089
386.5331, 2.141815
387.0152, 1.655090
387.4973, 0.7877660
387.9795, 0.3434300
388.4616, 0.3307800
388.9437, 0.4811400
389.4258, 0.6589810
389.9079, 0.8472290
390.3900, 1.020599
390.8722, 1.200729
391.3543, 1.325302
391.8364, 1.291245
392.3185, 1.143585
392.8006, 1.054398
393.2827, 1.183975
393.7649, 1.354523
394.2470, 1.455154
394.7291, 1.487183
395.2112, 1.403625
395.6933, 1.019531
396.1754, 0.5492860
396.6576, 0.3128050
397.1397, 0.7973180
397.6218, 1.142197
398.1039, 0.9615480
398.5860, 0.1787260
399.0681, 0.3701630
399.5503, 0.7637630
400.0324, 0.7962490
400.5145, 0.2874450
400.9966, 1.919098
401.4787, 3.004547
401.9608, 1.995316
402.4430, 0.3542330
402.9251, 0.9919740
403.4072, 1.107346
403.8893, 3.368011
404.3714, 4.637970
404.8535, 4.739334
405.3357, 4.630692
405.8178, 4.309464
406.2999, 3.786209
406.7820, 2.879089
407.2641, 1.412018
407.7462, 0.6186520
408.2284, 1.127289
408.7105, 2.608353
409.1926, 3.434616
409.6747, 3.553558
410.1568, 3.405014
410.6389, 3.429138
411.1211, 3.543793
411.6032, 3.205124
412.0853, 2.160385
412.5674, 0.9467930
413.0495, 0.3427280
413.5316, 0.2756650
414.0138, 0.3877870
414.4959, 0.5175480
414.9780, 0.6904140
415.4601, 1.120132
415.9422, 1.863602
416.4243, 2.182465
416.9065, 0.8107910
417.3886, 1.223450
417.8707, 2.352493
418.3528, 1.235977
418.8349, 0.1844180
419.3170, 0.7391820
419.7992, 0.5569310
420.2813, 0.2223210
420.7634, 0.2943880
421.2455, 0.6812290
421.7276, 0.6851350
422.2097, 7.8475997E-02
422.6919, 0.4547880
423.1740, 0.9407810
423.6561, 1.209549
424.1382, 1.009720
424.6203, 0.1974180
425.1024, 1.372910
425.5846, 2.212448
426.0667, 2.683182
426.5488, 3.389114
427.0309, 5.132660
427.5130, 6.411499
427.9951, 5.980347
428.4773, 2.436829
428.9594, 0.3345030
429.4415, 0.5659640
429.9236, 2.154526
430.4057, 2.408218
430.8878, 0.7509770
431.3700, 0.4497990
431.8521, 0.1421360
432.3342, 2.527924
432.8163, 3.948593
433.2984, 4.263855
433.7805, 4.111908
434.2627, 4.126144
434.7448, 4.297806
435.2269, 4.557755
435.7090, 4.971832
436.1911, 5.380310
436.6732, 5.331726
437.1554, 4.890762
437.6375, 4.593338
438.1196, 4.995514
438.6017, 5.714020
439.0838, 5.986130
439.5659, 5.599716
440.0480, 5.460297
440.5302, 6.755936
441.0123, 8.742798
441.4944, 10.21245
441.9765, 10.27000
442.4586, 9.990936
442.9407, 9.862503
443.4229, 9.902588
443.9050, 10.23097
444.3871, 11.61064
444.8692, 12.90230
445.3513, 13.24986
445.8334, 11.74280
446.3156, 10.59503
446.7977, 10.08954
447.2798, 10.20309
447.7619, 10.92160
448.2440, 12.92750
448.7261, 14.78465
449.2083, 16.11267
449.6904, 16.89597
450.1725, 17.85501
450.6546, 19.25679
451.1367, 20.46730
451.6188, 20.89494
452.1010, 20.20674
452.5831, 19.91760
453.0652, 20.24443
453.5473, 20.98988
454.0294, 21.82376
454.5115, 22.79182
454.9937, 23.31230
455.4758, 22.62389
455.9579, 21.17790
456.4400, 21.71426
456.9221, 24.40274
457.4042, 27.33672
457.8864, 28.62375
458.3685, 28.64545
458.8506, 28.51132
459.3327, 28.68001
459.8148, 28.85477
460.2969, 28.12224
460.7791, 26.80598
461.2612, 26.27028
461.7433, 28.30812
462.2254, 30.90082
462.7075, 32.14076
463.1896, 31.77203
463.6718, 31.46616
464.1539, 32.57201
464.6360, 34.00650
465.1181, 34.67671
465.6002, 32.81773
466.0823, 31.59064
466.5645, 32.09398
467.0466, 33.94855
467.5287, 35.56934
468.0108, 36.89330
468.4929, 37.85777
468.9750, 38.45706
469.4572, 38.74899
469.9393, 38.50851
470.4214, 36.87851
470.9035, 35.48003
471.3856, 36.39752
471.8677, 40.63564
472.3499, 43.93726
472.8320, 45.44562
473.3141, 45.58498
473.7962, 45.71268
474.2783, 45.80652
474.7604, 46.38857
475.2426, 48.12350
475.7247, 50.64209
476.2068, 52.04489
476.6889, 52.08890
477.1710, 51.83507
477.6531, 52.37389
478.1353, 53.58257
478.6174, 55.16472
479.0995, 57.39479
479.5816, 59.48776
480.0637, 60.43660
480.5458, 60.42851
481.0280, 60.15457
481.5101, 59.31953
481.9922, 58.85742
482.4743, 59.84486
482.9564, 62.65999
483.4385, 65.07378
483.9207, 65.82228
484.4028, 65.85793
484.8849, 66.17572
485.3670, 66.94553
485.8491, 68.05307
486.3312, 69.85580
486.8134, 72.09482
487.2955, 73.57980
487.7776, 73.67825
488.2597, 73.73883
488.7418, 74.27362
489.2239, 75.27731
489.7061, 76.62537
490.1882, 78.57248
490.6703, 80.43298
491.1524, 81.29233
491.6345, 80.96967
492.1166, 81.12189
492.5988, 82.23907
493.0809, 83.86081
493.5630, 84.75043
494.0451, 84.93222
494.5272, 85.04808
495.0093, 85.52971
495.4915, 86.21309
495.9736, 86.77243
496.4557, 87.19376
496.9378, 87.41681
497.4199, 86.99448
497.9020, 86.43170
498.3842, 86.55383
498.8663, 88.02397
499.3484, 89.65291
499.8305, 90.79420
500.3126, 91.52014
500.7947, 92.00789
501.2769, 91.87323
501.7590, 91.91275
502.2411, 92.77975
502.7232, 94.76508
503.2053, 95.79797
503.6874, 94.50812
504.1696, 92.85312
504.6517, 92.30026
505.1338, 93.76816
505.6159, 94.70883
506.0980, 94.81735
506.5801, 94.38043
507.0623, 94.13716
507.5444, 94.28369
508.0265, 93.92345
508.5086, 92.33487
508.9907, 89.80655
509.4728, 88.84332
509.9550, 89.55414
510.4371, 90.96295
510.9192, 92.86414
511.4013, 94.86955
511.8834, 95.21088
512.3655, 93.26245
512.8477, 90.81100
513.3298, 90.11676
513.8119, 90.55394
514.2940, 90.62897
514.7761, 88.93687
515.2582, 87.18848
515.7404, 87.14111
516.2225, 88.50278
516.7046, 89.02875
517.1867, 86.40904
517.6688, 83.52794
518.1509, 82.39941
518.6331, 84.17242
519.1152, 85.55397
519.5973, 86.08179
520.0794, 85.89828
520.5615, 85.19373
521.0436, 83.68768
521.5258, 82.01962
522.0079, 79.87685
522.4900, 77.60289
522.9721, 77.29588
523.4542, 79.81818
523.9363, 81.78775
524.4185, 81.10471
524.9006, 77.78378
525.3827, 75.14389
525.8648, 73.22046
526.3469, 71.73373
526.8290, 70.34718
527.3112, 69.13834
527.7933, 68.42267
528.2754, 68.43288
528.7575, 68.66734
529.2396, 68.72206
529.7217, 68.53180
530.2039, 67.91141
530.6860, 66.16049
531.1681, 64.39346
531.6502, 63.53111
532.1323, 63.58815
532.6144, 63.50006
533.0966, 62.76144
533.5787, 61.76454
534.0608, 60.77827
534.5429, 59.95868
535.0250, 58.96286
535.5071, 57.61392
535.9893, 56.14948
536.4714, 54.95766
536.9535, 54.28302
537.4356, 53.37523
537.9177, 51.97447
538.3998, 50.20512
538.8820, 48.82961
539.3641, 47.85553
539.8462, 47.27072
540.3283, 47.42278
540.8104, 48.14149
541.2925, 47.97768
541.7747, 46.75343
542.2568, 45.29291
542.7389, 44.51962
543.2210, 44.21654
543.7031, 43.88495
544.1852, 43.53163
544.6674, 42.82419
545.1495, 41.09770
545.6316, 38.76277
546.1137, 36.83072
546.5958, 35.99583
547.0779, 35.51222
547.5601, 35.01180
548.0422, 34.46460
548.5243, 33.93315
549.0064, 33.80296
549.4885, 33.42961
549.9706, 32.36044
550.4528, 29.79732
550.9349, 28.04262
551.4170, 27.22844
551.8991, 27.14838
552.3812, 27.62416
552.8633, 28.95248
553.3455, 29.33147
553.8276, 27.97313
554.3097, 25.52432
554.7918, 24.22453
555.2739, 24.13760
555.7560, 23.99702
556.2382, 22.94594
556.7203, 21.38422
557.2024, 19.91670
557.6845, 18.55544
558.1666, 17.87888
558.6487, 19.07652
559.1309, 21.00064
559.6130, 22.21046
560.0951, 22.40646
560.5772, 21.82013
561.0593, 19.85750
561.5414, 17.26071
562.0236, 15.37601
562.5057, 15.31606
562.9878, 15.29982
563.4699, 14.72382
563.9520, 13.67876
564.4341, 13.12767
564.9163, 13.43718
565.3984, 13.78685
565.8805, 13.66544
566.3626, 12.90939
566.8447, 12.88300
567.3268, 13.91919
567.8090, 14.80203
568.2911, 13.74242
568.7732, 11.01646
569.2553, 9.112030
569.7374, 8.605988
570.2195, 8.780960
570.7017, 8.879471
571.1838, 8.977402
571.6659, 9.021637
572.1480, 9.233124
572.6301, 9.283463
573.1122, 8.638428
573.5944, 7.393448
574.0765, 6.510483
574.5586, 7.035538
575.0407, 7.561157
575.5228, 7.085403
576.0049, 4.863388
576.4871, 3.584183
576.9692, 4.154678
577.4513, 5.281784
577.9334, 5.747543
578.4155, 5.232971
578.8976, 4.824783
579.3798, 4.788651
579.8619, 4.886292
580.3440, 4.477234
580.8261, 3.514862
581.3082, 2.542694
581.7903, 1.732391
582.2725, 1.141327
582.7546, 1.027405
583.2367, 1.346756
583.7188, 1.727524
584.2009, 1.965790
584.6830, 2.145905
585.1652, 2.433792
585.6473, 2.897736
586.1294, 3.075516
586.6115, 2.184723
587.0936, 1.106445
587.5757, 0.7828060
588.0578, 2.820206
588.5399, 4.001251
589.0220, 3.104614
589.5042, 1.008652
589.9863, 0.2308500
590.4684, 0.2518310
590.9505, 1.2070000E-02
591.4326, 0.4248350
591.9147, 0.9970400
592.3969, 0.9589540
592.8790, 0.1730800
593.3611, 0.6168210
593.8432, 0.8330840
594.3253, 0.6039580
594.8074, 0.7451630
595.2896, 1.328766
595.7717, 1.856171
596.2538, 1.590897
596.7359, 0.9676210
597.2180, 0.8637850
597.7001, 1.823914
598.1823, 2.642532
598.6644, 2.170517
599.1465, 1.046326
599.6286, 0.3549040
600.1107, 0.9590910
600.5928, 1.570953
601.0750, 1.847809
601.5571, 1.795273
602.0392, 1.556992
602.5213, 0.8125920
603.0034, 0.2964020
603.4855, 0.4323580
603.9677, 1.305664
604.4498, 1.591782
604.9319, 1.174500
605.4140, 0.5562290
605.8961, 0.2453920
606.3782, 0.1680760
606.8604, 0.2717440
607.3425, 1.273117
607.8246, 2.063675
608.3067, 1.484390
608.7888, 2.3697000E-02
609.2709, 1.273911
609.7531, 2.199081
610.2352, 2.631622
610.7173, 2.301773
611.1994, 1.415985
611.6815, 0.5219880
612.1636, 0.7672730
612.6458, 1.517395
613.1279, 0.9931180
613.6100, 0.8769840
614.0921, 1.731339
614.5742, 0.8777160
615.0563, 8.0017000E-02
615.5385, 0.1448360
616.0206, 0.9520420
616.5027, 1.269485
616.9848, 0.5951390
617.4669, 0.2275090
617.9490, 5.6899998E-02
618.4312, 1.152512
618.9133, 1.362991
619.3954, 4.4539999E-02
619.8775, 1.454498
620.3596, 1.196991
620.8417, 0.1120150
621.3239, 0.8919370
621.8060, 3.9000999E-02
622.2881, 1.194458
622.7702, 1.849564
623.2523, 2.038773
623.7344, 1.947372
624.2166, 1.248825
624.6987, 0.6252590
625.1808, 0.4434510
625.6629, 0.7593080
626.1450, 0.6132810
626.6271, 0.4800720
627.1093, 1.278473
627.5914, 0.4974670
628.0735, 2.072922
628.5556, 2.898804
629.0377, 1.512009
629.5198, 0.4755250
630.0020, 1.237808
630.4841, 1.045563
630.9662, 0.7378230
631.4483, 0.5270230
631.9304, 0.2639010
632.4125, 0.4579770
632.8947, 1.320801
633.3768, 1.691925
633.8589, 0.6427460
634.3410, 0.2802730
634.8231, 0.4154210
635.3052, 0.1571810
635.7874, 0.8912660
636.2695, 2.236374
636.7516, 3.140701
637.2337, 3.034271
637.7158, 1.836349
638.1979, 1.506897
638.6801, 2.348068
639.1622, 3.173172
639.6443, 2.741211
640.1264, 1.273178
640.6085, 0.8589170
641.0906, 1.793365
641.5728, 2.958786
642.0549, 3.038574
642.5370, 2.534958
643.0191, 2.429810
643.5012, 3.250290
643.9833, 4.001602
644.4655, 3.859940
644.9476, 3.266571
645.4297, 2.960175
645.9118, 3.776123
646.3939, 4.213852
646.8760, 3.491470
647.3582, 2.023773
647.8403, 1.470520
648.3224, 2.298279
648.8045, 3.121994
649.2866, 3.433624
649.7687, 3.280502
650.2509, 3.036728
650.7330, 2.681580
651.2151, 2.412735
651.6972, 2.433716
652.1793, 2.662094
652.6614, 2.899567
653.1436, 3.120972
653.6257, 3.265671
654.1078, 3.248245
654.5899, 3.203232
655.0720, 3.307846
655.5541, 3.861099
656.0363, 3.895844
656.5184, 2.628433
657.0005, 0.9737090
657.4826, 6.3598998E-02
657.9647, 0.1522220
658.4468, 0.5276790
658.9290, 1.254761
659.4111, 2.171722
659.8932, 2.894669
660.3753, 3.448547
660.8574, 3.761169
661.3395, 3.699600
661.8217, 3.381104
662.3038, 3.255219
662.7859, 3.310516
663.2680, 3.240616
663.7501, 2.454224
664.2322, 1.666687
664.7144, 1.700058
665.1965, 2.558792
665.6786, 3.423920
666.1607, 4.268524
666.6428, 4.767517
667.1249, 4.533813
667.6071, 3.061905
668.0892, 2.286926
668.5713, 2.732178
669.0534, 3.437332
669.5355, 3.356415
670.0176, 2.250000
670.4998, 1.999725
670.9819, 2.999710
671.4640, 4.266617
671.9461, 4.373444
672.4282, 3.699524
672.9103, 3.325317
673.3925, 3.554550
673.8746, 4.010925
674.3567, 4.724533
674.8388, 5.527435
675.3209, 5.925751
675.8030, 5.201523
676.2852, 4.355087
676.7673, 3.785339
677.2494, 3.585022
677.7315, 3.643707
678.2136, 4.174988
678.6957, 4.474121
679.1779, 4.258698
679.6600, 3.659531
680.1421, 3.253464
680.6242, 2.983917
681.1063, 2.898453
681.5884, 3.310776
682.0706, 3.930206
682.5527, 3.529465
683.0348, 2.021423
683.5169, 0.8693540
683.9990, 1.592209
684.4811, 3.005630
684.9633, 3.877823
685.4454, 3.959885
685.9275, 3.981567
686.4096, 3.987091
686.8917, 3.977951
687.3738, 3.878021
687.8560, 3.549103
688.3381, 3.584961
688.8202, 4.193512
689.3023, 5.022354
689.7844, 5.486496
690.2665, 5.590500
690.7487, 5.682541
691.2308, 5.858215
691.7129, 5.947968
692.1950, 5.612122
692.6771, 5.009537
693.1592, 4.601868
693.6414, 4.730560
694.1235, 5.022308
694.6056, 5.058640
695.0877, 4.939163
695.5698, 5.111969
696.0519, 6.290695
696.5341, 7.283630
697.0162, 7.371475
697.4983, 6.563980
697.9804, 6.570374
698.4625, 7.832458
698.9446, 9.117264
699.4268, 9.551468
699.9089, 9.179901
700.3910, 9.353867
700.8731, 10.12495
701.3552, 10.86433
701.8373, 10.72316
702.3195, 10.24048
702.8016, 10.49083
703.2837, 11.73763
703.7658, 12.83357
704.2479, 12.44077
704.7300, 11.87173
705.2122, 12.39694
705.6943, 15.07660
706.1764, 17.59227
706.6585, 19.97620
707.1406, 21.95782
707.6227, 23.15453
708.1049, 23.34813
708.5870, 23.60109
709.0691, 23.99141
709.5512, 24.63934
710.0333, 25.76561
710.5154, 27.34749
710.9976, 29.24542
711.4797, 31.51199
711.9618, 33.92079
712.4439, 36.07680
712.9260, 38.17621
713.4081, 40.74361
713.8903, 44.72974
714.3724, 48.44855
714.8545, 51.02296
715.3366, 52.67262
715.8187, 54.97227
716.3008, 58.67136
716.7830, 61.75465
717.2651, 63.02362
717.7472, 62.93073
718.2293, 65.66780
718.7114, 71.41231
719.1935, 76.97899
719.6757, 79.78456
720.1578, 81.21397
720.6399, 84.14153
721.1220, 88.54152
721.6041, 92.85188
722.0862, 95.70973
722.5684, 98.22224
723.0505, 101.3245
723.5326, 105.2907
724.0147, 108.8181
724.4968, 111.2694
724.9789, 113.5645
725.4611, 116.3082
725.9432, 119.6335
726.4253, 123.0261
726.9074, 126.7271
727.3895, 129.9210
727.8716, 131.4140
728.3538, 131.6155
728.8359, 132.1662
729.3180, 133.4367
729.8001, 134.6247
730.2822, 135.1783
730.7643, 135.1551
731.2465, 134.5671
731.7286, 132.7822
732.2107, 131.4266
732.6928, 131.8334
733.1749, 132.6042
733.6570, 131.5662
734.1392, 127.7726
734.6213, 124.2852
735.1034, 121.5572
735.5855, 119.2807
736.0676, 116.6616
736.5497, 113.7642
737.0319, 111.6732
737.5140, 111.2123
737.9961, 111.1477
738.4782, 109.9571
738.9603, 107.7277
739.4424, 105.0778
739.9246, 101.5971
740.4067, 98.43121
740.8888, 96.31670
741.3709, 95.04042
741.8530, 93.45729
742.3351, 91.31183
742.8173, 89.16817
743.2994, 87.22884
743.7815, 85.41063
744.2636, 83.28143
744.7457, 80.72618
745.2278, 78.04454
745.7100, 75.45319
746.1921, 72.85347
746.6742, 69.94315
747.1563, 66.78072
747.6384, 63.97336
748.1205, 62.29166
748.6027, 60.70837
749.0848, 58.45244
749.5669, 55.49280
750.0490, 52.80849
750.5311, 50.63687
751.0132, 48.52873
751.4954, 46.35922
751.9775, 44.14735
752.4596, 41.03433
752.9417, 36.67152
753.4238, 33.06905
753.9059, 32.47899
754.3881, 33.71823
754.8702, 33.73779
755.3523, 32.31805
755.8344, 30.30675
756.3165, 27.86566
756.7986, 25.38043
757.2808, 23.24387
757.7629, 21.62988
758.2450, 19.95706
758.7271, 17.48291
759.2092, 15.46045
759.6913, 14.98946
760.1735, 16.80553
760.6556, 16.77943
761.1377, 14.36221
761.6198, 11.52750
762.1019, 10.45328
762.5840, 10.75159
763.0662, 11.44106
763.5483, 12.53156
764.0304, 13.07060
764.5125, 11.76141
764.9946, 9.664871
765.4767, 7.994720
765.9589, 7.113754
766.4410, 6.493301
766.9231, 6.125198
767.4052, 5.927734
767.8873, 5.829453
768.3694, 5.843735
768.8516, 5.966003
769.3337, 6.270828
769.8158, 6.624054
770.2979, 6.332809
770.7800, 5.585968
771.2621, 5.448715
771.7443, 6.589600
772.2264, 7.403381
772.7085, 5.899429
773.1906, 3.364914
773.6727, 1.719223
774.1548, 2.118683
774.6370, 2.721802
775.1191, 3.578262
775.6012, 4.319687
776.0833, 4.170837
776.5654, 2.845474
777.0475, 1.933716
777.5297, 1.852493
778.0118, 2.097260
778.4939, 1.648376
778.9760, 0.7129060
779.4581, 5.0446000E-02
779.9402, 0.1338040
780.4224, 0.1674350
780.9045, 1.542328
781.3866, 3.309357
781.8687, 4.167236
782.3508, 2.669632
782.8329, 1.544571
783.3151, 1.509384
783.7972, 2.087753
784.2793, 2.223099
784.7614, 1.852783
785.2435, 1.349152
785.7256, 0.6938320
786.2077, 0.1210480
786.6898, 0.2977140
787.1719, 1.013336
787.6541, 1.484558
788.1362, 1.185760
788.6183, 0.7107700
789.1004, 0.3537140
789.5825, 0.1311340
790.0646, 8.8196002E-02
790.5468, 0.3326420
791.0289, 0.6672360
791.5110, 1.150894
791.9931, 1.667648
792.4752, 1.769684
792.9573, 1.400757
793.4395, 1.150604
793.9216, 1.399750
794.4037, 1.696411
794.8858, 0.7806400
795.3679, 0.8892360
795.8500, 1.808655
796.3322, 0.3559420
796.8143, 1.177002
797.2964, 1.324539
797.7785, 0.4739070
798.2606, 4.2617999E-02
798.7427, 5.5312999E-02
799.2249, 0.7778020
799.7070, 2.892838
800.1891, 5.522430
800.6712, 5.051056
801.1533, 1.427353
801.6354, 1.118912
802.1176, 1.0666000E-02
802.5997, 2.402512
803.0818, 2.524826
803.5639, 1.002350
804.0460, 0.1997990
804.5281, 0.1634060
805.0103, 0.6770020
805.4924, 0.8559270
805.9745, 0.6855770
806.4566, 0.2115330
806.9387, 0.8394930
807.4208, 1.588959
807.9030, 1.761856
808.3851, 1.487259
808.8672, 1.028229
809.3493, 0.4191590
809.8314, 3.2455001E-02
810.3135, 0.1259920
810.7957, 3.6667001E-02
811.2778, 0.1005710
811.7599, 0.2781830
812.2420, 0.4747310
812.7241, 0.8427580
813.2062, 1.049255
813.6884, 0.9871670
814.1705, 0.6882930
814.6526, 0.1293790
815.1347, 0.8777310
815.6168, 1.334686
816.0989, 0.6766660
816.5811, 0.4337160
817.0632, 0.3554230
817.5453, 0.6317440
818.0274, 1.384308
818.5095, 1.117477
818.9916, 0.6520540
819.4738, 0.5064540
819.9559, 0.5793460
820.4380, 0.5988620
820.9201, 0.1778410
821.4022, 0.1750950
821.8843, 1.005478
822.3665, 2.205948
822.8486, 2.430511
823.3307, 1.645538
823.8128, 0.9439700
824.2949, 0.6358180
824.7770, 0.6858370
825.2592, 1.537048
825.7413, 2.678055
826.2234, 2.934448
826.7055, 0.3752900
827.1876, 1.568268
827.6697, 1.075073
828.1519, 0.8843540
828.6340, 2.028748
829.1161, 2.063553
829.5982, 1.923523
830.0803, 1.738464
830.5624, 1.525864
831.0446, 1.342514
831.5267, 1.174561
832.0088, 0.8945470
832.4909, 0.2939150
832.9730, 0.1070860
833.4551, 0.3366700
833.9373, 1.251373
834.4194, 2.030762
834.9015, 2.333328
835.3836, 2.763962
835.8657, 3.802628
836.3478, 4.733627
836.8300, 4.051590
837.3121, 1.446716
837.7942, 0.4694820
838.2763, 2.126236
838.7584, 4.406570
839.2405, 4.383316
839.7227, 2.967178
840.2048, 2.042725
840.6869, 2.386063
841.1690, 2.712982
841.6511, 2.134521
842.1332, 1.345108
842.6154, 1.200302
843.0975, 2.016785
843.5796, 2.792450
844.0617, 3.603821
844.5438, 4.167480
845.0259, 3.995834
845.5081, 3.231430
845.9902, 2.476852
846.4723, 1.759903
846.9544, 1.469833
847.4365, 2.414307
847.9186, 3.732224
848.4008, 4.451889
848.8829, 4.171844
849.3650, 3.868622
849.8471, 3.682693
850.3292, 3.515640
850.8113, 3.294128
851.2935, 3.017456
851.7756, 2.615082
852.2577, 1.994568
852.7398, 1.845551
853.2219, 3.274521
853.7040, 5.362335
854.1862, 6.784485
854.6683, 7.269867
855.1504, 7.627289
855.6325, 8.136566
856.1146, 8.721741
856.5967, 9.395035
857.0789, 10.19925
857.5610, 10.58682
858.0431, 10.35455
858.5252, 10.30945
859.0073, 11.20871
859.4894, 12.66496
859.9716, 13.49857
860.4537, 13.72307
860.9358, 13.96764
861.4179, 14.91006
861.9000, 15.79008
862.3821, 15.97253
862.8643, 15.47078
863.3464, 15.23442
863.8285, 15.25891
864.3106, 15.69055
864.7927, 16.68013
865.2748, 18.05731
865.7570, 19.23463
866.2391, 20.21916
866.7212, 20.55751
867.2033, 19.31689
867.6854, 17.87709
868.1675, 18.08794
868.6497, 19.31151
869.1318, 19.73602
869.6139, 17.62997
870.0960, 16.03964
870.5781, 16.08871
871.0602, 16.96692
871.5424, 16.41409
872.0245, 14.20787
872.5066, 13.10023
872.9887, 14.32628
873.4708, 15.92021
873.9529, 14.51488
874.4351, 11.20607
874.9172, 8.482849
875.3993, 7.356735
875.8814, 6.641678
876.3635, 6.130020
876.8456, 5.680756
877.3278, 5.065643
877.8099, 4.128342
878.2920, 3.609497
878.7741, 3.609100
879.2562, 3.845139
879.7383, 4.206497
880.2205, 4.518814
880.7026, 4.139984
881.1847, 2.814590
881.6668, 1.604218
882.1489, 1.017456
882.6310, 0.9950410
883.1132, 1.644897
883.5953, 3.513412
884.0774, 4.251556
884.5595, 3.298691
885.0416, 2.147049
885.5237, 2.445847
886.0059, 3.894150
886.4880, 4.083450
886.9701, 2.974365
887.4522, 1.874969
887.9343, 1.785461
888.4164, 2.109772
888.8986, 2.428268
889.3807, 2.697235
889.8628, 2.789612
890.3449, 2.600418
890.8270, 2.362350
891.3091, 2.200241
891.7913, 2.107544
892.2734, 1.989899
892.7555, 1.825821
893.2376, 1.627060
893.7197, 1.253174
894.2018, 0.9925540
894.6840, 1.253876
895.1661, 1.887665
895.6482, 2.413239
896.1303, 2.686707
896.6124, 2.774460
897.0945, 2.640564
897.5767, 2.398407
898.0588, 2.247726
898.5409, 2.191406
899.0230, 1.914063
899.5051, 1.133469
899.9872, 0.6650090
900.4694, 2.060318
900.9515, 4.340393
901.4336, 5.848892
901.9157, 5.840225
902.3978, 5.585983
902.8799, 5.184326
903.3621, 4.833328
903.8442, 4.831253
904.3263, 5.375290
904.8084, 4.906738
905.2905, 3.095154
905.7726, 1.626480
906.2548, 2.802246
906.7369, 5.140091
907.2190, 6.257477
907.7011, 5.951050
908.1832, 5.082199
908.6653, 3.129990
909.1475, 1.564026
909.6296, 1.348587
910.1117, 2.452072
910.5938, 2.978165
911.0759, 2.794968
911.5580, 2.846100
912.0402, 3.940521
912.5223, 5.463974
913.0044, 5.914993
913.4865, 5.549362
913.9686, 5.228806
914.4507, 5.633560
914.9329, 5.844116
915.4150, 5.177261
915.8971, 4.074631
916.3792, 3.664490
916.8613, 4.115494
917.3434, 4.643768
917.8256, 5.162231
918.3077, 5.611221
918.7898, 6.034195
919.2719, 6.414734
919.7540, 6.396027
920.2361, 5.763519
920.7183, 5.178223
921.2004, 5.086212
921.6825, 5.086594
922.1646, 4.725311
922.6467, 3.728180
923.1288, 3.265305
923.6110, 3.482208
924.0931, 3.828461
924.5752, 3.555405
925.0573, 3.039993
925.5394, 3.369888
926.0215, 4.571777
926.5037, 5.345016
926.9858, 4.425034
927.4679, 3.426193
927.9500, 3.439774
928.4321, 4.392563
928.9142, 5.123550
929.3964, 5.640259
929.8785, 5.818405
930.3606, 5.506668
930.8427, 4.961411
931.3248, 4.740829
931.8069, 4.698532
932.2891, 4.533981
932.7712, 4.126205
933.2533, 3.754608
933.7354, 3.724197
934.2175, 3.809601
934.6996, 3.437683
935.1818, 2.215500
935.6639, 1.882858
936.1460, 2.904526
936.6281, 4.298416
937.1102, 4.672058
937.5923, 4.382187
938.0745, 4.218887
938.5566, 4.350204
939.0387, 4.670105
939.5208, 5.507675
940.0029, 6.209396
940.4850, 6.204132
940.9672, 5.287949
941.4493, 4.803955
941.9314, 4.870560
942.4135, 5.165436
942.8956, 5.663605
943.3777, 6.170273
943.8599, 6.428421
944.3420, 6.421234
944.8241, 6.049393
945.3062, 4.785980
945.7883, 3.646805
946.2704, 2.938461
946.7526, 2.685318
947.2347, 3.254974
947.7168, 4.906570
948.1989, 5.574127
948.6810, 4.417633
949.1631, 2.803391
949.6453, 2.530350
950.1274, 3.222687
950.6095, 4.394135
951.0916, 6.665436
951.5737, 7.777557
952.0558, 5.728928
952.5380, 3.240845
953.0201, 2.621338
953.5022, 4.249573
953.9843, 4.557816
954.4664, 3.345093
954.9485, 2.205521
955.4307, 2.810623
955.9128, 4.067352
956.3949, 4.615173
956.8770, 4.418076
957.3591, 4.030396
957.8412, 3.526978
958.3234, 2.952377
958.8055, 2.137131
959.2876, 1.288940
959.7697, 1.471329
960.2518, 2.655472
960.7339, 3.284805
961.2161, 2.517914
961.6982, 1.483002
962.1803, 1.496735
962.6624, 2.025803
963.1445, 2.221741
963.6266, 0.9126590
964.1088, 0.8316800
964.5909, 2.902222
965.0730, 5.158905
965.5551, 5.335526
966.0372, 3.692947
966.5193, 2.687683
967.0015, 2.496460
967.4836, 2.162323
967.9657, 0.1668090
968.4478, 1.685638
968.9299, 1.465012
969.4120, 0.9194640
969.8942, 2.174393
970.3763, 1.704468
970.8584, 1.049149
971.3405, 0.6580660
971.8226, 0.5361790
972.3047, 0.8270870
972.7869, 1.426636
973.2690, 1.934021
973.7511, 2.404999
974.2332, 2.413834
974.7153, 0.9468380
975.1974, 0.7807310
975.6796, 0.8626100
976.1617, 1.938995
976.6438, 2.674393
977.1259, 0.6060790
977.6080, 1.773346
978.0901, 1.625183
978.5723, 2.3193000E-02
979.0544, 1.237900
979.5365, 1.826645
980.0186, 1.971283
980.5007, 1.552490
980.9828, 0.8876500
981.4650, 1.5300000E-04
981.9471, 1.019958
982.4291, 1.628006
982.9113, 1.827225
983.3934, 1.576096
983.8755, 0.6053470
984.3576, 0.4506990
984.8397, 0.7204740
985.3218, 0.4669800
985.8040, 0.1795350
986.2861, 0.1157530
986.7682, 0.2151340
987.2503, 0.1172330
987.7324, 0.4108280
988.2145, 7.4309997E-02
988.6967, 1.257889
989.1788, 1.159607
989.6609, 0.3992160
990.1430, 1.646118
990.6251, 0.7646480
991.1072, 0.7289280
991.5894, 1.638321
992.0715, 1.867813
992.5536, 1.758652
993.0357, 1.082199
993.5178, 0.7122040
993.9999, 1.064102
994.4821, 1.707321
994.9642, 1.523666
995.4463, 0.7330020
995.9284, 2.2964001E-02
996.4105, 0.5031280
996.8926, 0.6110380
997.3748, 0.4917300
997.8569, 1.695633
998.3390, 1.636795
998.8211, 0.3800200
999.3032, 1.055328
999.7853, 0.1246950
1000.267, 0.9825740
1000.750, 0.9726410
1001.232, 0.3784330
1001.714, 4.7363002E-02
1002.196, 2.3375999E-02
1002.678, 0.2514950
1003.160, 1.251007
1003.642, 1.850342
1004.124, 1.599762
1004.607, 0.7768250
1005.089, 0.1124110
1005.571, 0.3982090
1006.053, 0.9410100
1006.535, 1.676788
1007.017, 2.188980
1007.499, 1.870361
1007.981, 1.157639
1008.463, 0.5907440
1008.946, 0.4196320
1009.428, 8.7130005E-03
1009.910, 0.9685360
1010.392, 1.618301
1010.874, 1.040237
1011.356, 0.2494050
1011.838, 0.3378450
1012.320, 0.5521550
1012.802, 1.191055
1013.285, 0.7752080
1013.767, 0.1760410
1014.249, 0.4454350
1014.731, 0.9011840
1015.213, 0.6804050
1015.695, 0.3834380
1016.177, 1.005997
1016.659, 0.8438260
1017.142, 0.6422880
1017.624, 1.816238
1018.106, 3.365860
1018.588, 3.579254
1019.070, 1.835007
1019.552, 0.9234770
1020.034, 2.033493
1020.516, 3.363495
1020.998, 3.934845
1021.481, 3.983383
1021.963, 5.414459
1022.445, 8.052719
1022.927, 10.12015
1023.409, 10.34120
1023.891, 10.18947
1024.373, 10.63643
1024.855, 11.35886
1025.338, 11.79477
1025.820, 11.86458
1026.302, 11.37108
1026.784, 10.24849
1027.266, 9.454147
1027.748, 10.01689
1028.230, 11.27129
1028.712, 11.95937
1029.194, 12.02740
1029.677, 12.47202
1030.159, 14.02238
1030.641, 15.71638
1031.123, 17.16541
1031.605, 18.47937
1032.087, 20.35284
1032.569, 22.66367
1033.051, 23.70253
1033.534, 22.41460
1034.016, 21.50471
1034.498, 23.71552
1034.980, 27.21890
1035.462, 29.71808
1035.944, 30.68513
1036.426, 32.11656
1036.908, 34.21429
1037.391, 35.97357
1037.873, 35.86536
1038.355, 35.13074
1038.837, 37.64198
1039.319, 42.61987
1039.801, 46.55692
1040.283, 46.85829
1040.765, 47.06799
1041.247, 48.42052
1041.729, 50.39961
1042.212, 51.82332
1042.694, 52.60019
1043.176, 55.55421
1043.658, 61.46193
1044.140, 66.89758
1044.622, 67.78529
1045.104, 67.50821
1045.586, 69.53021
1046.069, 74.37384
1046.551, 78.30350
1047.033, 80.94336
1047.515, 83.55692
1047.997, 86.40393
1048.479, 89.56750
1048.961, 93.51927
1049.443, 97.85451
1049.926, 101.5484
1050.408, 103.1986
1050.890, 106.0318
1051.372, 112.1956
1051.854, 119.1337
1052.336, 124.9100
1052.818, 129.5597
1053.300, 133.9274
1053.782, 138.0045
1054.265, 143.0870
1054.747, 151.1341
1055.229, 159.6846
1055.711, 166.3516
1056.193, 171.8101
1056.675, 178.7548
1057.157, 188.1168
1057.639, 196.4592
1058.121, 202.7709
1058.604, 209.0053
1059.086, 218.2190
1059.568, 229.1812
1060.050, 239.5417
1060.532, 248.8354
1061.014, 258.7293
1061.496, 270.1709
1061.978, 281.8727
1062.461, 292.9420
1062.943, 303.7959
1063.425, 316.8070
1063.907, 331.9918
1064.389, 348.9297
1064.871, 368.2516
1065.353, 388.1635
1065.835, 407.4407
1066.318, 426.3503
1066.800, 445.5066
1067.282, 463.6939
1067.764, 486.4615
1068.246, 514.1851
1068.728, 543.7695
1069.210, 572.1326
1069.692, 601.2359
1070.174, 632.8334
1070.656, 667.7070
1071.139, 709.1793
1071.621, 762.3533
1072.103, 816.9227
1072.585, 870.0370
1073.067, 925.6756
1073.549, 990.6780
1074.031, 1063.709
1074.513, 1145.288
1074.996, 1234.971
1075.478, 1328.330
1075.960, 1421.530
1076.442, 1517.324
1076.924, 1616.902
1077.406, 1720.776
1077.888, 1823.939
1078.370, 1926.094
1078.853, 2033.381
1079.335, 2146.712
1079.817, 2266.165
1080.299, 2393.969
1080.781, 2528.954
1081.263, 2667.647
1081.745, 2810.106
1082.227, 2961.744
1082.709, 3122.927
1083.192, 3291.465
1083.674, 3469.810
1084.156, 3654.632
1084.638, 3847.049
1085.120, 4040.267
1085.602, 4216.124
1086.084, 4381.595
1086.566, 4510.991
1087.048, 4603.925
1087.531, 4656.594
1088.013, 4666.237
1088.495, 4631.638
1088.977, 4538.710
1089.459, 4386.465
1089.941, 4192.819
1090.423, 3954.101
1090.905, 3693.323
1091.387, 3416.306
1091.870, 3128.099
1092.352, 2850.796
1092.834, 2581.950
1093.316, 2330.546
1093.798, 2098.261
1094.280, 1885.620
1094.762, 1694.334
1095.244, 1522.501
1095.727, 1368.150
1096.209, 1233.702
1096.691, 1110.953
1097.173, 999.7784
1097.655, 900.6174
1098.137, 814.5576
1098.619, 739.8270
1099.101, 673.5012
1099.583, 615.8389
1100.066, 563.8080
1100.548, 516.9369
1101.030, 474.4155
1101.512, 437.5567
1101.994, 404.1623
1102.476, 372.4013
1102.958, 342.6206
1103.440, 317.4832
1103.922, 296.7472
1104.405, 277.4862
1104.887, 256.8048
1105.369, 238.1496
1105.851, 223.9683
1106.333, 212.5599
1106.815, 200.8750
1107.297, 188.8128
1107.779, 176.9389
1108.262, 165.1660
1108.744, 154.3019
1109.226, 145.2968
1109.708, 137.2177
1110.190, 129.0236
1110.672, 120.7715
1111.154, 112.9961
1111.636, 105.5958
1112.119, 98.93594
1112.601, 93.18185
1113.083, 88.05042
1113.565, 83.22894
1114.047, 78.48083
1114.529, 73.33522
1115.011, 67.51065
1115.493, 62.50351
1115.975, 59.09276
1116.458, 55.84273
1116.940, 51.88387
1117.422, 47.71844
1117.904, 45.44237
1118.386, 44.46844
1118.868, 42.46666
1119.350, 37.81465
1119.832, 33.63200
1120.314, 31.26541
1120.797, 29.88353
1121.279, 29.09210
1121.761, 28.88548
1122.243, 28.03838
1122.725, 26.58110
1123.207, 25.22588
1123.689, 25.04665
1124.171, 24.45036
1124.654, 21.81546
1125.136, 18.26083
1125.618, 15.83524
1126.100, 14.72638
1126.582, 13.83322
1127.064, 13.11293
1127.546, 12.40939
1128.028, 11.42641
1128.510, 10.51564
1128.993, 10.29646
1129.475, 10.56058
1129.957, 10.01624
1130.439, 8.050247
1130.921, 6.866867
1131.403, 7.001358
1131.885, 7.540649
1132.367, 7.406082
1132.849, 6.820297
1133.332, 6.062454
1133.814, 5.179565
1134.296, 4.524368
1134.778, 4.428146
1135.260, 4.093948
1135.742, 3.104095
1136.224, 1.959991
1136.706, 2.049286
1137.189, 2.811935
1137.671, 2.558197
1138.153, 0.4882970
1138.635, 0.8728330
1139.117, 0.4636840
1139.599, 1.653915
1140.081, 1.072205
1140.563, 0.7461090
1141.046, 1.263290
1141.528, 0.6491550
1142.010, 0.2790680
1142.492, 1.548157
1142.974, 2.356003
1143.456, 2.101334
1143.938, 1.404587
1144.420, 0.7563780
1144.902, 0.1480560
1145.385, 0.1977840
1145.867, 0.2934720
1146.349, 0.3668210
1146.831, 0.8651430
1147.313, 1.069199
1147.795, 0.3109740
1148.277, 1.973267
1148.759, 1.519165
1149.241, 1.813049
1149.724, 3.071701
1150.206, 1.889450
1150.688, 0.2624970
1151.170, 0.5247800
1151.652, 0.6880040
1152.134, 1.3321000E-02
1152.616, 1.150040
1153.098, 1.440903
1153.581, 0.3233180
1154.063, 0.1367340
1154.545, 1.420303
1155.027, 2.654663
1155.509, 1.327896
1155.991, 0.5616300
1156.473, 0.1371920
1156.955, 3.378616
1157.438, 4.436829
1157.920, 1.646027
1158.402, 0.1742250
1158.884, 0.3135530
1159.366, 1.747894
1159.848, 2.630325
1160.330, 2.836868
1160.812, 1.672165
1161.294, 1.237488
1161.776, 2.363724
1162.259, 0.1078490
1162.741, 2.340942
1163.223, 3.046570
1163.705, 2.653915
1164.187, 1.803329
1164.669, 0.6674800
1165.151, 0.4205170
1165.633, 1.481750
1166.116, 2.090378
1166.598, 2.019791
1167.080, 1.612152
1167.562, 0.8479310
1168.044, 5.0400000E-02
1168.526, 9.6450999E-02
1169.008, 0.4497530
1169.490, 0.6359250
1169.973, 0.2750090
1170.455, 0.8133390
1170.937, 0.3505860
1171.419, 0.5746000
1171.901, 1.948547
1172.383, 3.574677
1172.865, 3.618027
1173.347, 2.344238
1173.829, 1.256042
1174.312, 1.003067
1174.794, 1.229233
1175.276, 2.387711
1175.758, 3.510345
1176.240, 3.476929
1176.722, 2.334793
1177.204, 2.017838
1177.686, 2.491943
1178.168, 2.810196
1178.651, 2.033096
1179.133, 1.334885
1179.615, 1.336823
1180.097, 1.778305
1180.579, 2.392181
1181.061, 3.176376
1181.543, 3.774216
1182.025, 4.164124
1182.508, 4.365952
1182.990, 4.078522
1183.472, 3.921509
1183.954, 4.571533
1184.436, 5.579941
1184.918, 5.948639
1185.400, 5.648819
1185.882, 5.160553
1186.365, 4.518478
1186.847, 4.062195
1187.329, 4.348053
1187.811, 4.685532
1188.293, 4.440750
1188.775, 3.793365
1189.257, 3.249939
1189.739, 2.724182
1190.221, 3.329498
1190.703, 5.527512
1191.186, 7.452026
1191.668, 6.894028
1192.150, 5.599030
1192.632, 5.144394
1193.114, 5.474396
1193.596, 5.266693
1194.078, 4.424011
1194.560, 4.011627
1195.043, 4.410187
1195.525, 5.008209
1196.007, 5.233398
1196.489, 5.289963
1196.971, 5.456345
1197.453, 5.731186
1197.935, 5.935699
1198.417, 6.110428
1198.900, 5.564438
1199.382, 3.630493
1199.864, 2.084518
1200.346, 3.585876
1200.828, 6.037781
1201.310, 6.850540
1201.792, 5.623306
1202.274, 4.964966
1202.756, 4.916718
1203.239, 5.093796
1203.721, 5.371948
1204.203, 5.729767
1204.685, 6.154587
1205.167, 6.621201
1205.649, 7.236526
1206.131, 8.218216
1206.613, 8.037094
1207.095, 6.296509
1207.578, 5.009125
1208.060, 5.726563
1208.542, 7.084717
1209.024, 7.433502
1209.506, 7.359528
1209.988, 7.903763
1210.470, 9.514496
1210.952, 9.901520
1211.435, 8.997986
1211.917, 8.039978
1212.399, 7.548111
1212.881, 7.514481
1213.363, 8.847824
1213.845, 10.55846
1214.327, 10.52214
1214.809, 7.597778
1215.292, 6.060318
1215.774, 6.308075
1216.256, 7.041611
1216.738, 7.483383
1217.220, 7.537003
1217.702, 6.877808
1218.184, 5.966736
1218.666, 5.830505
1219.148, 6.816605
1219.630, 7.516312
1220.113, 7.836319
1220.595, 7.684464
1221.077, 6.861465
1221.559, 5.931885
1222.041, 5.207764
1222.523, 4.809540
1223.005, 4.990250
1223.487, 5.938675
1223.970, 6.281021
1224.452, 5.901794
1224.934, 5.252640
1225.416, 4.014252
1225.898, 3.217010
1226.380, 4.485901
1226.862, 6.904190
1227.344, 7.486572
1227.827, 6.085251
1228.309, 5.409134
1228.791, 5.563553
1229.273, 5.915680
1229.755, 6.469315
1230.237, 6.809296
1230.719, 6.299011
1231.201, 5.312042
1231.683, 4.709229
1232.166, 4.553711
1232.648, 4.875320
1233.130, 5.672348
1233.612, 6.076706
1234.094, 4.819550
1234.576, 3.460693
1235.058, 3.424286
1235.540, 4.104416
1236.022, 3.787643
1236.505, 2.434998
1236.987, 2.084808
1237.469, 3.131638
1237.951, 4.368484
1238.433, 5.303299
1238.915, 5.659454
1239.397, 4.729965
1239.879, 3.271027
1240.362, 3.011536
1240.844, 3.848343
1241.326, 4.253860
1241.808, 3.946396
1242.290, 3.430527
1242.772, 3.065353
1243.254, 2.940170
1243.736, 3.345581
1244.219, 3.958466
1244.701, 3.973297
1245.183, 3.443069
1245.665, 2.421371
1246.147, 0.8235470
1246.629, 0.5579380
1247.111, 4.767029
1247.593, 8.062836
1248.075, 7.791580
1248.557, 5.493622
1249.040, 4.528381
1249.522, 4.661270
1250.004, 5.234406
1250.486, 6.190994
1250.968, 6.432526
1251.450, 4.650024
1251.932, 3.017639
1252.414, 2.277588
1252.897, 2.153488
1253.379, 2.190338
1253.861, 2.338318
1254.343, 2.449005
1254.825, 2.486572
1255.307, 2.672043
1255.789, 3.289566
1256.271, 3.771896
1256.754, 3.989166
1257.236, 3.910416
1257.718, 2.975342
1258.200, 1.877686
1258.682, 2.243607
1259.164, 4.481949
1259.646, 5.795349
1260.128, 5.499039
1260.610, 4.927094
1261.093, 4.503189
1261.575, 4.114655
1262.057, 3.845459
1262.539, 3.417984
1263.021, 2.003464
1263.503, 0.6205750
1263.985, 0.9775700
1264.467, 1.939133
1264.949, 3.901657
1265.432, 3.333954
1265.914, 2.111130
1266.396, 2.131088
1266.878, 2.538742
1267.360, 2.166061
1267.842, 0.9084780
1268.324, 0.6586000
1268.806, 1.536026
1269.289, 2.444656
1269.771, 3.131821
1270.253, 3.485092
1270.735, 3.131668
1271.217, 2.592560
1271.699, 2.428818
1272.181, 2.574646
1272.663, 2.511826
1273.146, 2.247849
1273.628, 2.292877
1274.110, 1.942780
1274.592, 2.495529
1275.074, 2.836395
1275.556, 2.997620
1276.038, 3.056290
1276.520, 2.914871
1277.002, 2.011551
1277.484, 0.4826810
1277.967, 0.2183530
1278.449, 0.3710480
1278.931, 1.148132
1279.413, 1.874725
1279.895, 2.365280
1280.377, 2.573257
1280.859, 2.469040
1281.341, 1.541321
1281.823, 0.9536440
1282.306, 0.6905210
1282.788, 1.024582
1283.270, 0.9882200
1283.752, 0.0000000E+00
##END=



