##NAMES=Sillimanite
##RRUFFID=R060787
##IDEAL CHEMISTRY=Al_2_OSiO_4_
##LOCALITY=Moragahakanda, Sri Lanka
##OWNER=RRUFF
##SOURCE=Michael Scott
##DESCRIPTION=Mass of colorless parallel prismatic crystals
##STATUS=The identification of this mineral has been confirmed by X-ray diffraction and chemical analysis
##URL=rruff.info/R060787
##MEASURED CHEMISTRY=Al_2.01_Si_0.99_O_5_
179.3817, 0.0000000E+00
179.8638, 35.22656
180.3460, 19.63672
180.8281, 54.48047
181.3102, 46.94922
181.7923, 14.06641
182.2744, 20.44141
182.7565, 9.136719
183.2387, 91.96875
183.7208, 197.2969
184.2029, 237.4414
184.6850, 219.7148
185.1671, 210.1133
185.6492, 253.6172
186.1314, 328.4258
186.6135, 366.5000
187.0956, 329.7891
187.5777, 295.2148
188.0598, 331.0430
188.5419, 429.6992
189.0241, 512.6055
189.5062, 532.4023
189.9883, 511.0312
190.4704, 512.9180
190.9525, 568.9883
191.4346, 610.8320
191.9168, 568.7148
192.3989, 453.0430
192.8810, 360.2539
193.3631, 334.4453
193.8452, 366.4648
194.3273, 426.3828
194.8095, 535.8828
195.2916, 638.5586
195.7737, 683.3438
196.2558, 677.2305
196.7379, 680.5742
197.2200, 724.6016
197.7022, 790.4375
198.1843, 841.7773
198.6664, 875.4492
199.1485, 900.7812
199.6306, 915.6094
200.1127, 923.1328
200.5949, 948.8750
201.0770, 1017.137
201.5591, 1096.984
202.0412, 1137.707
202.5233, 1128.453
203.0054, 1109.066
203.4876, 1109.133
203.9697, 1123.277
204.4518, 1120.520
204.9339, 1083.180
205.4160, 1029.277
205.8981, 985.0547
206.3803, 950.4453
206.8624, 922.8867
207.3445, 911.7461
207.8266, 909.6289
208.3087, 880.0352
208.7908, 796.0898
209.2730, 699.4688
209.7551, 648.2930
210.2372, 647.9297
210.7193, 645.5625
211.2014, 598.8633
211.6835, 524.9844
212.1657, 485.4922
212.6478, 509.1523
213.1299, 551.3359
213.6120, 555.6836
214.0941, 521.5469
214.5762, 496.4336
215.0584, 500.8633
215.5405, 531.2656
216.0226, 584.0312
216.5047, 670.8516
216.9868, 756.8359
217.4689, 806.6016
217.9511, 823.9727
218.4332, 825.8633
218.9153, 807.1641
219.3974, 779.9297
219.8795, 769.5547
220.3616, 783.5469
220.8438, 805.4492
221.3259, 815.5312
221.8080, 817.3750
222.2901, 831.8789
222.7722, 868.2773
223.2543, 920.3828
223.7365, 979.6055
224.2186, 1045.016
224.7007, 1115.406
225.1828, 1188.188
225.6649, 1264.188
226.1470, 1346.527
226.6292, 1432.254
227.1113, 1526.711
227.5934, 1629.867
228.0755, 1739.246
228.5576, 1874.391
229.0397, 2050.945
229.5219, 2265.617
230.0040, 2506.859
230.4861, 2755.703
230.9682, 3042.293
231.4503, 3401.031
231.9324, 3831.891
232.4146, 4294.578
232.8967, 4729.688
233.3788, 5190.719
233.8609, 5823.855
234.3430, 6883.289
234.8251, 7895.777
235.3073, 8665.375
235.7894, 9159.172
236.2715, 9097.242
236.7536, 8178.699
237.2357, 6641.660
237.7178, 5290.766
238.2000, 4092.254
238.6821, 3105.117
239.1642, 2396.141
239.6463, 1930.750
240.1284, 1606.516
240.6105, 1410.621
241.0927, 1303.449
241.5748, 1194.402
242.0569, 1071.801
242.5390, 972.6680
243.0211, 923.0547
243.5033, 905.5859
243.9854, 892.7148
244.4675, 881.0273
244.9496, 854.8242
245.4317, 775.8086
245.9138, 627.8555
246.3960, 495.8594
246.8781, 390.2539
247.3602, 312.6758
247.8423, 270.8477
248.3244, 267.9297
248.8065, 283.0156
249.2887, 284.2969
249.7708, 259.1328
250.2529, 276.7812
250.7350, 397.4922
251.2171, 530.1133
251.6992, 574.9648
252.1814, 523.0273
252.6635, 457.5508
253.1456, 461.9219
253.6277, 549.1445
254.1098, 635.2305
254.5919, 742.1094
255.0741, 829.8555
255.5562, 857.8359
256.0383, 835.1211
256.5204, 815.3438
257.0025, 845.5547
257.4846, 925.6250
257.9668, 952.1992
258.4489, 892.7148
258.9310, 824.5273
259.4131, 776.3945
259.8952, 744.2500
260.3773, 714.3164
260.8595, 678.5977
261.3416, 638.4805
261.8237, 600.9414
262.3058, 551.6680
262.7879, 522.3359
263.2701, 545.0117
263.7522, 584.3750
264.2343, 586.1719
264.7164, 525.7461
265.1985, 429.8164
265.6806, 366.3047
266.1628, 341.8672
266.6449, 346.5000
267.1270, 427.3594
267.6091, 510.9492
268.0912, 523.8125
268.5733, 448.3750
269.0555, 328.3789
269.5376, 228.5820
270.0197, 148.2812
270.5018, 94.12500
270.9839, 74.18750
271.4660, 68.39844
271.9482, 71.35156
272.4303, 78.38672
272.9124, 79.75391
273.3945, 62.70703
273.8766, 22.50781
274.3587, 7.402344
274.8409, 47.99609
275.3230, 58.60547
275.8051, 1.171875
276.2872, 105.8516
276.7693, 192.8750
277.2514, 207.7344
277.7336, 161.6328
278.2157, 158.7383
278.6978, 238.5625
279.1799, 309.9297
279.6620, 332.0664
280.1441, 332.1992
280.6263, 352.7773
281.1084, 418.9531
281.5905, 507.6562
282.0726, 567.7227
282.5547, 597.0977
283.0368, 599.7734
283.5190, 541.9570
284.0011, 475.9492
284.4832, 455.6094
284.9653, 498.9570
285.4474, 563.7109
285.9295, 606.0352
286.4117, 626.4336
286.8938, 618.8008
287.3759, 569.1523
287.8580, 499.0742
288.3401, 416.9492
288.8222, 324.5938
289.3044, 244.7891
289.7865, 199.6328
290.2686, 183.5039
290.7507, 167.9766
291.2328, 150.7539
291.7149, 132.7891
292.1971, 114.6875
292.6792, 96.94922
293.1613, 80.58203
293.6434, 75.85547
294.1255, 69.80469
294.6076, 31.01562
295.0898, 49.01172
295.5719, 117.9844
296.0540, 147.1602
296.5361, 134.6719
297.0182, 75.78906
297.5003, 60.26953
297.9825, 218.5547
298.4646, 363.6016
298.9467, 493.9102
299.4288, 599.6953
299.9109, 660.3945
300.3930, 702.5859
300.8752, 802.9258
301.3573, 970.8438
301.8394, 1170.238
302.3215, 1394.164
302.8036, 1639.477
303.2857, 1912.820
303.7679, 2223.293
304.2500, 2528.062
304.7321, 2743.555
305.2142, 2796.000
305.6963, 2950.461
306.1784, 3309.203
306.6606, 3727.703
307.1427, 4078.523
307.6248, 4340.547
308.1069, 4574.340
308.5890, 4853.184
309.0711, 5203.949
309.5533, 5420.945
310.0354, 5541.191
310.5175, 5520.133
310.9996, 5303.090
311.4817, 4923.426
311.9638, 4444.855
312.4460, 3901.316
312.9281, 3312.090
313.4102, 2779.066
313.8923, 2277.754
314.3744, 1870.645
314.8565, 1608.480
315.3387, 1429.297
315.8208, 1265.707
316.3029, 1091.453
316.7850, 923.4258
317.2671, 794.5781
317.7492, 717.0000
318.2314, 650.5078
318.7135, 607.6875
319.1956, 562.1484
319.6777, 486.3477
320.1598, 382.6992
320.6419, 289.5195
321.1241, 246.3867
321.6062, 253.2305
322.0883, 264.1758
322.5704, 281.0117
323.0525, 296.2383
323.5346, 281.1562
324.0168, 259.2383
324.4989, 290.9453
324.9810, 449.4375
325.4631, 663.6172
325.9452, 761.8086
326.4273, 709.6055
326.9095, 659.2930
327.3916, 701.8984
327.8737, 785.7344
328.3558, 838.1875
328.8379, 833.5312
329.3200, 830.0703
329.8022, 891.4023
330.2843, 1001.473
330.7664, 1073.711
331.2485, 1076.910
331.7306, 1028.934
332.2127, 944.3203
332.6949, 813.6289
333.1770, 710.5742
333.6591, 685.9141
334.1412, 693.2852
334.6233, 668.0781
335.1054, 600.1172
335.5876, 524.7461
336.0697, 478.4062
336.5518, 465.6523
337.0339, 428.3281
337.5160, 346.9766
337.9981, 261.0000
338.4803, 187.9180
338.9624, 128.3516
339.4445, 76.98047
339.9266, 28.91016
340.4087, 10.28125
340.8908, 15.68359
341.3730, 39.74609
341.8551, 97.26953
342.3372, 158.2578
342.8193, 215.2500
343.3014, 265.3320
343.7835, 305.6992
344.2657, 327.7188
344.7478, 307.6055
345.2299, 206.4688
345.7120, 173.3438
346.1941, 260.6875
346.6762, 364.7461
347.1584, 444.6328
347.6405, 496.8086
348.1226, 528.3828
348.6047, 534.2266
349.0868, 523.3008
349.5689, 558.0391
350.0511, 670.4102
350.5332, 773.4688
351.0153, 845.8242
351.4974, 888.1797
351.9795, 898.0625
352.4616, 870.7891
352.9438, 821.5859
353.4259, 761.6719
353.9080, 691.1602
354.3901, 636.1641
354.8722, 613.0469
355.3543, 602.2500
355.8365, 583.0664
356.3186, 555.7383
356.8007, 517.8398
357.2828, 455.9609
357.7649, 385.8867
358.2470, 341.8125
358.7292, 331.0430
359.2113, 322.7773
359.6934, 284.6719
360.1755, 220.2617
360.6576, 184.7656
361.1397, 212.4453
361.6219, 240.1328
362.1040, 230.8477
362.5861, 190.2344
363.0682, 133.0039
363.5503, 62.18359
364.0324, 9.089844
364.5146, 44.23828
364.9967, 2.503906
365.4788, 25.86328
365.9609, 7.644531
366.4430, 28.38281
366.9251, 70.28125
367.4073, 111.0469
367.8894, 136.5195
368.3715, 130.9062
368.8536, 93.44531
369.3357, 30.09766
369.8178, 77.01953
370.3000, 192.9297
370.7821, 330.7422
371.2642, 466.5508
371.7463, 554.1445
372.2284, 561.2383
372.7105, 515.6328
373.1927, 487.3555
373.6748, 477.5000
374.1569, 481.9375
374.6390, 511.7930
375.1211, 548.4062
375.6032, 580.4219
376.0854, 606.1562
376.5675, 619.0352
377.0496, 606.6016
377.5317, 574.7422
378.0138, 551.4141
378.4959, 544.5430
378.9781, 538.5234
379.4602, 519.6328
379.9423, 490.1797
380.4244, 454.6016
380.9065, 431.0820
381.3886, 389.7344
381.8708, 281.5039
382.3529, 120.4844
382.8350, 12.32422
383.3171, 74.45703
383.7992, 78.57422
384.2813, 60.14844
384.7635, 15.90625
385.2456, 57.55859
385.7277, 32.41016
386.2098, 25.62109
386.6919, 92.76562
387.1740, 158.7617
387.6562, 201.1953
388.1383, 190.7344
388.6204, 116.0703
389.1025, 51.44922
389.5846, 12.56641
390.0667, 33.10547
390.5489, 109.2578
391.0310, 199.0039
391.5131, 269.9648
391.9952, 304.0000
392.4773, 311.3828
392.9594, 317.2578
393.4416, 322.0898
393.9237, 323.1094
394.4058, 291.9180
394.8879, 274.9062
395.3700, 320.4297
395.8521, 430.6875
396.3343, 536.3750
396.8164, 577.9609
397.2985, 570.8438
397.7806, 573.7734
398.2627, 595.4336
398.7448, 613.8594
399.2270, 619.3359
399.7091, 608.6797
400.1912, 572.0781
400.6733, 482.9141
401.1554, 390.0352
401.6375, 324.5195
402.1197, 282.6719
402.6018, 247.8945
403.0839, 208.5703
403.5660, 189.8438
404.0481, 251.1562
404.5302, 480.6133
405.0124, 586.6797
405.4945, 438.9297
405.9766, 250.8047
406.4587, 189.9336
406.9408, 257.1289
407.4229, 355.2891
407.9051, 409.6250
408.3872, 422.3203
408.8693, 414.6875
409.3514, 366.4688
409.8335, 323.6641
410.3156, 294.9102
410.7978, 275.6289
411.2799, 261.2344
411.7620, 249.9609
412.2441, 240.1992
412.7262, 223.1484
413.2083, 196.8516
413.6905, 199.7148
414.1726, 251.8594
414.6547, 313.3047
415.1368, 353.5586
415.6189, 378.2383
416.1010, 407.5352
416.5832, 453.8516
417.0653, 505.8789
417.5474, 554.3906
418.0295, 598.4219
418.5116, 623.6523
418.9937, 616.4062
419.4759, 592.6641
419.9580, 592.9141
420.4401, 634.1406
420.9222, 655.4961
421.4043, 634.5234
421.8864, 590.3359
422.3686, 536.4219
422.8507, 482.7773
423.3328, 445.3398
423.8149, 443.0547
424.2970, 476.4141
424.7791, 472.9258
425.2613, 370.9609
425.7434, 303.2500
426.2255, 336.2539
426.7076, 411.1875
427.1897, 451.0820
427.6718, 426.8594
428.1540, 365.6797
428.6361, 300.8750
429.1182, 225.2773
429.6003, 199.2695
430.0824, 282.5234
430.5645, 361.3594
431.0467, 357.9766
431.5288, 291.3984
432.0109, 230.7539
432.4930, 198.8633
432.9751, 195.5859
433.4572, 232.0117
433.9394, 307.3242
434.4215, 377.7422
434.9036, 432.2695
435.3857, 462.6445
435.8678, 440.6680
436.3499, 334.0898
436.8321, 276.3945
437.3142, 352.0820
437.7963, 463.6250
438.2784, 502.4453
438.7605, 463.8125
439.2426, 407.7773
439.7248, 379.1719
440.2069, 382.2969
440.6890, 385.3008
441.1711, 413.3828
441.6532, 415.2227
442.1353, 355.7578
442.6175, 281.8984
443.0996, 238.0273
443.5817, 236.1523
444.0638, 256.8008
444.5459, 283.1953
445.0280, 315.4766
445.5102, 334.7266
445.9923, 328.6211
446.4744, 337.3516
446.9565, 383.5742
447.4386, 456.8320
447.9207, 539.4766
448.4029, 636.7266
448.8850, 726.4570
449.3671, 768.4258
449.8492, 773.6875
450.3313, 820.8398
450.8134, 953.4102
451.2956, 1115.555
451.7777, 1205.348
452.2598, 1191.113
452.7419, 1253.305
453.2240, 1477.918
453.7061, 1730.762
454.1883, 1913.469
454.6704, 2033.945
455.1525, 2155.832
455.6346, 2324.344
456.1167, 2510.520
456.5988, 2611.090
457.0810, 2638.844
457.5631, 2545.926
458.0452, 2255.621
458.5273, 1912.258
459.0095, 1597.891
459.4916, 1331.727
459.9737, 1115.254
460.4558, 967.1523
460.9379, 872.0234
461.4200, 760.0820
461.9022, 621.5703
462.3843, 499.4609
462.8664, 415.1367
463.3485, 366.2266
463.8306, 352.7148
464.3127, 392.7070
464.7949, 425.7969
465.2770, 408.8672
465.7591, 369.3867
466.2412, 355.1719
466.7233, 375.2812
467.2054, 406.2148
467.6876, 429.3281
468.1697, 445.4609
468.6518, 435.4023
469.1339, 361.1211
469.6160, 308.0703
470.0981, 304.9414
470.5803, 334.2109
471.0624, 383.8203
471.5445, 447.1328
472.0266, 494.7344
472.5087, 477.2422
472.9908, 385.7773
473.4730, 310.6328
473.9551, 258.9258
474.4372, 219.5312
474.9193, 179.5273
475.4014, 146.9492
475.8835, 146.6250
476.3657, 197.3516
476.8478, 249.1094
477.3299, 253.9297
477.8120, 229.3516
478.2941, 260.4492
478.7762, 385.1094
479.2584, 529.9297
479.7405, 604.3906
480.2226, 589.4453
480.7047, 608.2812
481.1868, 684.6328
481.6689, 775.2500
482.1511, 872.2734
482.6332, 964.5234
483.1153, 1038.398
483.5974, 1088.496
484.0795, 1104.555
484.5616, 1057.629
485.0438, 921.1094
485.5259, 797.4688
486.0080, 665.9492
486.4901, 573.3086
486.9722, 570.2695
487.4543, 629.3633
487.9365, 667.9805
488.4186, 635.3320
488.9007, 566.7461
489.3828, 509.8516
489.8649, 464.3438
490.3470, 428.9023
490.8292, 405.3320
491.3113, 388.2109
491.7934, 371.1406
492.2755, 355.4492
492.7576, 331.4883
493.2397, 284.9805
493.7219, 240.5625
494.2040, 233.0938
494.6861, 246.0781
495.1682, 215.5039
495.6503, 98.64453
496.1324, 50.63281
496.6146, 76.52734
497.0967, 113.3281
497.5788, 229.0234
498.0609, 190.7969
498.5430, 127.2266
499.0251, 117.2539
499.5073, 152.3711
499.9894, 174.4922
500.4715, 143.0078
500.9536, 82.44141
501.4357, 30.40625
501.9178, 13.46094
502.4000, 29.89453
502.8821, 0.6328130
503.3642, 48.35938
503.8463, 66.28516
504.3284, 53.72266
504.8105, 30.35547
505.2927, 16.51953
505.7748, 59.58594
506.2569, 81.26953
506.7390, 79.54688
507.2211, 49.34766
507.7032, 15.56250
508.1854, 94.95312
508.6675, 128.3828
509.1496, 78.68359
509.6317, 60.90234
510.1138, 109.1367
510.5959, 167.7617
511.0781, 206.7734
511.5602, 230.5625
512.0423, 257.5938
512.5244, 303.6211
513.0065, 348.8516
513.4886, 355.3008
513.9708, 326.1289
514.4529, 306.7500
514.9350, 323.8711
515.4171, 340.9375
515.8992, 281.0859
516.3813, 122.6914
516.8635, 46.44922
517.3456, 176.6484
517.8277, 314.4688
518.3098, 276.8242
518.7919, 121.3711
519.2740, 36.32031
519.7562, 119.1406
520.2383, 289.0039
520.7204, 369.6914
521.2025, 320.3125
521.6846, 298.7891
522.1667, 354.5039
522.6489, 404.7070
523.1310, 409.0898
523.6131, 375.9609
524.0952, 329.6289
524.5773, 265.1250
525.0594, 213.2227
525.5416, 223.4219
526.0237, 284.4219
526.5058, 335.2109
526.9879, 361.0625
527.4700, 362.3633
527.9521, 334.4609
528.4343, 270.9297
528.9164, 222.3398
529.3985, 199.9609
529.8806, 181.5000
530.3627, 150.2969
530.8448, 118.5469
531.3270, 117.4805
531.8091, 157.0000
532.2912, 191.6641
532.7733, 130.0625
533.2554, 48.05859
533.7375, 109.8633
534.2197, 39.37109
534.7018, 176.0508
535.1839, 149.8867
535.6660, 42.02734
536.1481, 3.875000
536.6302, 64.94141
537.1124, 151.9375
537.5945, 181.2891
538.0766, 181.3828
538.5587, 218.5391
539.0408, 304.0703
539.5229, 385.9453
540.0051, 417.0469
540.4872, 398.9727
540.9693, 371.6211
541.4514, 313.8086
541.9335, 272.4961
542.4156, 267.7695
542.8978, 275.2500
543.3799, 271.9961
543.8620, 254.6328
544.3441, 234.8438
544.8262, 219.6562
545.3083, 210.8477
545.7905, 220.6016
546.2726, 256.1133
546.7547, 275.7695
547.2368, 254.7070
547.7189, 211.7500
548.2010, 178.0859
548.6832, 153.2461
549.1653, 138.6250
549.6474, 135.5469
550.1295, 141.9453
550.6116, 157.5742
551.0938, 181.0000
551.5759, 212.5781
552.0580, 254.5078
552.5401, 294.2969
553.0222, 293.7969
553.5043, 224.3242
553.9865, 185.6758
554.4686, 220.7812
554.9507, 270.2539
555.4328, 305.5898
555.9149, 323.8398
556.3970, 319.5195
556.8792, 269.8477
557.3613, 225.7422
557.8434, 260.3633
558.3255, 351.0391
558.8076, 405.9023
559.2897, 397.6914
559.7719, 364.5859
560.2540, 346.8789
560.7361, 347.9922
561.2182, 356.2383
561.7003, 381.0117
562.1824, 398.6680
562.6646, 389.3320
563.1467, 373.5273
563.6288, 394.5234
564.1109, 456.3086
564.5930, 488.0938
565.0751, 378.8281
565.5573, 162.2305
566.0394, 63.90625
566.5215, 115.9219
567.0036, 164.3047
567.4857, 132.7305
567.9678, 53.04688
568.4500, 17.21484
568.9321, 83.81250
569.4142, 120.6250
569.8963, 114.6562
570.3784, 79.34375
570.8605, 4.496094
571.3427, 92.25391
571.8248, 156.0039
572.3069, 154.0938
572.7890, 110.8672
573.2711, 89.18359
573.7532, 105.4570
574.2354, 89.65625
574.7175, 22.80859
575.1996, 108.4141
575.6817, 75.41797
576.1638, 35.70703
576.6459, 115.2070
577.1281, 114.6367
577.6102, 89.24219
578.0923, 53.16016
578.5744, 28.10547
579.0565, 88.91797
579.5386, 252.8086
580.0208, 419.0859
580.5029, 487.0664
580.9850, 459.5078
581.4671, 457.0859
581.9492, 527.7383
582.4313, 563.6016
582.9135, 502.3008
583.3956, 430.7812
583.8777, 430.8516
584.3598, 509.2227
584.8419, 612.7891
585.3240, 718.3164
585.8062, 815.5000
586.2883, 868.4922
586.7704, 877.6016
587.2525, 909.6211
587.7346, 994.4727
588.2167, 1107.750
588.6989, 1216.875
589.1810, 1326.824
589.6631, 1410.078
590.1452, 1423.695
590.6273, 1454.473
591.1094, 1563.188
591.5916, 1711.215
592.0737, 1838.199
592.5558, 1908.883
593.0379, 1949.004
593.5200, 2006.461
594.0021, 2075.723
594.4843, 2069.246
594.9664, 1955.867
595.4485, 1842.164
595.9306, 1808.500
596.4127, 1806.113
596.8948, 1726.852
597.3770, 1527.277
597.8591, 1360.449
598.3412, 1288.266
598.8233, 1256.047
599.3054, 1237.133
599.7875, 1213.996
600.2697, 1142.680
600.7518, 991.5039
601.2339, 812.0273
601.7160, 731.9922
602.1981, 779.9648
602.6802, 787.8555
603.1624, 708.7500
603.6445, 624.0586
604.1266, 585.7578
604.6087, 581.4102
605.0908, 579.6016
605.5729, 571.9766
606.0551, 568.4453
606.5372, 591.2852
607.0193, 618.3906
607.5014, 600.7578
607.9835, 528.9805
608.4656, 449.9219
608.9478, 400.4453
609.4299, 373.1719
609.9120, 325.0703
610.3941, 220.2266
610.8762, 170.5156
611.3583, 256.6094
611.8405, 350.1172
612.3226, 363.4648
612.8047, 308.4844
613.2868, 257.4922
613.7689, 246.3398
614.2510, 244.6992
614.7332, 212.6523
615.2153, 169.4805
615.6974, 173.7734
616.1795, 240.9844
616.6616, 313.6992
617.1437, 332.3477
617.6259, 298.1719
618.1080, 266.4375
618.5901, 244.2930
619.0722, 214.5156
619.5543, 151.9844
620.0364, 96.68359
620.5186, 87.19531
621.0007, 123.5391
621.4828, 169.6953
621.9649, 212.0430
622.4470, 248.1719
622.9291, 273.7695
623.4113, 289.7734
623.8934, 301.8008
624.3755, 312.7305
624.8576, 317.0586
625.3397, 306.0000
625.8218, 275.5234
626.3040, 258.9648
626.7861, 271.3672
627.2682, 278.4648
627.7503, 293.9648
628.2324, 294.5859
628.7145, 240.3789
629.1967, 128.0742
629.6788, 33.65625
630.1609, 18.62109
630.6430, 51.16797
631.1251, 77.37891
631.6072, 99.51172
632.0894, 153.4570
632.5715, 261.2891
633.0536, 356.7383
633.5357, 343.6289
634.0178, 190.0469
634.4999, 95.07031
634.9821, 81.29297
635.4642, 95.13281
635.9463, 153.3633
636.4284, 214.3633
636.9105, 214.7344
637.3926, 143.5742
637.8748, 90.62500
638.3569, 157.3906
638.8390, 275.4102
639.3211, 307.3555
639.8032, 254.9297
640.2853, 194.8086
640.7675, 157.9648
641.2496, 131.7500
641.7317, 92.61719
642.2138, 25.96094
642.6959, 2.882813
643.1780, 45.66406
643.6602, 103.5273
644.1423, 196.4023
644.6244, 278.8477
645.1065, 281.5703
645.5886, 190.4492
646.0707, 92.25781
646.5529, 62.92578
647.0350, 70.54297
647.5171, 55.58984
647.9992, 18.18750
648.4813, 23.69531
648.9634, 67.08203
649.4456, 91.98047
649.9277, 59.37500
650.4098, 54.22266
650.8919, 133.3906
651.3740, 184.4805
651.8561, 194.6133
652.3383, 116.7930
652.8204, 15.44141
653.3025, 27.48828
653.7846, 6.664063
654.2667, 58.91797
654.7488, 98.67188
655.2310, 123.4688
655.7131, 112.1641
656.1952, 73.65625
656.6773, 81.30859
657.1594, 173.5547
657.6415, 284.7773
658.1237, 306.3320
658.6058, 213.0273
659.0879, 153.5117
659.5700, 138.5977
660.0521, 147.1914
660.5342, 208.4375
661.0164, 272.0977
661.4985, 271.6523
661.9806, 196.4297
662.4627, 120.7305
662.9448, 104.6094
663.4269, 102.8125
663.9091, 32.58594
664.3912, 80.55469
664.8733, 117.2812
665.3554, 29.25000
665.8375, 101.7227
666.3196, 165.3086
666.8018, 156.9727
667.2839, 126.1172
667.7660, 39.96484
668.2481, 18.01562
668.7302, 15.92188
669.2123, 18.50391
669.6945, 74.48438
670.1766, 148.6055
670.6587, 182.3516
671.1408, 103.5664
671.6229, 13.32812
672.1050, 6.546875
672.5872, 61.34766
673.0693, 125.6211
673.5514, 181.3945
674.0335, 227.1641
674.5156, 263.9727
674.9977, 286.5547
675.4799, 289.6172
675.9620, 273.4336
676.4441, 251.6055
676.9262, 208.6992
677.4083, 178.1914
677.8904, 203.8203
678.3726, 281.6562
678.8547, 338.7969
679.3368, 362.0312
679.8189, 355.5859
680.3010, 293.4648
680.7831, 215.4258
681.2653, 186.0312
681.7474, 212.9766
682.2295, 244.5938
682.7116, 236.5664
683.1937, 197.1289
683.6758, 145.5664
684.1580, 74.18750
684.6401, 48.76562
685.1222, 100.3438
685.6043, 176.8438
686.0864, 236.3320
686.5685, 278.1445
687.0507, 300.8281
687.5328, 308.6250
688.0149, 292.2617
688.4970, 205.7539
688.9791, 132.7266
689.4612, 172.6328
689.9434, 298.5234
690.4255, 400.6875
690.9076, 401.8281
691.3897, 357.4961
691.8718, 353.5352
692.3539, 385.1445
692.8361, 421.3438
693.3182, 457.9375
693.8003, 489.5977
694.2824, 509.2344
694.7645, 521.4414
695.2466, 548.0977
695.7288, 599.0625
696.2109, 648.8867
696.6930, 692.0977
697.1751, 737.7539
697.6572, 807.1367
698.1393, 879.9219
698.6215, 905.4883
699.1036, 851.3164
699.5857, 807.3711
700.0678, 863.1289
700.5499, 973.4375
701.0320, 1065.992
701.5142, 1132.859
701.9963, 1169.891
702.4784, 1169.164
702.9605, 1169.953
703.4426, 1267.812
703.9247, 1512.188
704.4069, 1640.266
704.8890, 1539.215
705.3711, 1487.922
705.8532, 1651.711
706.3353, 1908.398
706.8174, 2113.484
707.2996, 2252.645
707.7817, 2354.273
708.2638, 2431.121
708.7459, 2468.953
709.2280, 2444.844
709.7101, 2377.672
710.1923, 2306.699
710.6744, 2243.098
711.1565, 2162.598
711.6386, 2043.082
712.1207, 1884.832
712.6028, 1673.609
713.0850, 1396.066
713.5671, 1182.867
714.0492, 1092.020
714.5313, 1050.832
715.0134, 976.4336
715.4955, 865.6445
715.9777, 777.5586
716.4598, 738.2461
716.9419, 685.7734
717.4240, 588.5117
717.9061, 483.1914
718.3882, 388.2812
718.8704, 316.3672
719.3525, 300.0586
719.8346, 383.2461
720.3167, 487.9414
720.7988, 512.2070
721.2809, 481.8398
721.7631, 476.2539
722.2452, 504.3906
722.7273, 517.8438
723.2094, 484.9727
723.6915, 418.1250
724.1736, 369.1328
724.6558, 344.7539
725.1379, 319.6602
725.6200, 284.1328
726.1021, 257.4453
726.5842, 261.0820
727.0663, 277.8242
727.5485, 274.7422
728.0306, 243.6641
728.5127, 207.3125
728.9948, 168.6836
729.4769, 134.4141
729.9590, 121.6641
730.4412, 116.6016
730.9233, 76.35938
731.4054, 12.97266
731.8875, 92.55469
732.3696, 83.45312
732.8517, 0.8437500
733.3339, 83.85938
733.8160, 173.8164
734.2981, 216.2852
734.7802, 177.5664
735.2623, 111.9922
735.7444, 89.11719
736.2266, 112.1523
736.7087, 136.1992
737.1908, 172.0508
737.6729, 194.2227
738.1550, 183.3398
738.6371, 167.4492
739.1193, 162.6328
739.6014, 175.1016
740.0835, 221.2109
740.5656, 352.0898
741.0477, 456.8828
741.5298, 398.0234
742.0120, 261.4766
742.4941, 195.0430
742.9762, 215.2539
743.4583, 270.4258
743.9404, 335.4062
744.4225, 379.4336
744.9047, 304.5586
745.3868, 85.85938
745.8689, 67.00391
746.3510, 139.9688
746.8331, 126.0312
747.3152, 37.65234
747.7974, 264.4844
748.2795, 354.6094
748.7616, 260.1367
749.2437, 206.7383
749.7258, 245.8750
750.2079, 292.1836
750.6901, 316.6211
751.1722, 325.4648
751.6543, 333.0508
752.1364, 341.6719
752.6185, 336.6250
753.1006, 285.6758
753.5828, 227.3867
754.0649, 240.8984
754.5470, 304.4102
755.0291, 308.3047
755.5112, 227.9531
755.9933, 148.6875
756.4755, 158.5234
756.9576, 235.1133
757.4397, 238.3906
757.9218, 133.1836
758.4039, 67.94141
758.8860, 81.67578
759.3682, 120.7852
759.8503, 154.0547
760.3324, 182.8359
760.8145, 211.8672
761.2966, 255.4141
761.7787, 271.3594
762.2609, 224.3008
762.7430, 168.7695
763.2251, 139.5625
763.7072, 134.7773
764.1893, 148.8320
764.6714, 175.8711
765.1536, 198.8359
765.6357, 201.4570
766.1178, 187.8594
766.5999, 169.3945
767.0820, 147.0117
767.5641, 123.5352
768.0463, 99.34375
768.5284, 80.72266
769.0105, 75.51172
769.4926, 84.46875
769.9747, 122.0664
770.4568, 212.7852
770.9390, 260.4297
771.4211, 205.7148
771.9032, 143.9453
772.3853, 169.1328
772.8674, 256.0586
773.3495, 302.4844
773.8317, 274.0547
774.3138, 240.3281
774.7959, 210.9297
775.2780, 191.3555
775.7601, 198.2383
776.2422, 216.8633
776.7244, 204.4062
777.2065, 140.2891
777.6886, 91.56250
778.1707, 148.9961
778.6528, 258.4531
779.1349, 316.9219
779.6171, 321.0898
780.0992, 274.0391
780.5813, 173.7891
781.0634, 82.25391
781.5455, 86.12500
782.0276, 179.9688
782.5098, 227.8789
782.9919, 203.3711
783.4740, 212.8672
783.9561, 299.8867
784.4382, 407.6836
784.9203, 491.2109
785.4025, 551.6797
785.8846, 597.6406
786.3667, 623.4492
786.8488, 641.8047
787.3309, 658.8359
787.8130, 664.6602
788.2952, 655.3203
788.7773, 627.8320
789.2594, 564.1133
789.7415, 447.3633
790.2236, 361.9297
790.7057, 411.1211
791.1879, 510.3242
791.6700, 538.0195
792.1521, 504.8633
792.6342, 477.9844
793.1163, 480.4570
793.5984, 467.8789
794.0806, 374.7578
794.5627, 225.1484
795.0448, 178.2031
795.5269, 252.5508
796.0090, 302.2617
796.4911, 289.0781
796.9733, 253.2852
797.4554, 231.4453
797.9375, 217.2656
798.4196, 173.3359
798.9017, 47.13672
799.3839, 32.73828
799.8660, 41.39453
800.3481, 28.42188
800.8302, 5.500000
801.3123, 15.76562
801.7944, 9.789063
802.2766, 34.85547
802.7587, 50.00000
803.2408, 30.77344
803.7229, 122.4141
804.2050, 167.3633
804.6871, 171.6484
805.1693, 139.3594
805.6514, 68.55469
806.1335, 3.117188
806.6156, 55.21094
807.0977, 71.96875
807.5798, 14.65625
808.0620, 184.6797
808.5441, 262.2812
809.0262, 210.7930
809.5083, 158.4023
809.9904, 204.3711
810.4725, 296.9648
810.9547, 274.8906
811.4368, 66.70312
811.9189, 20.99219
812.4010, 74.76953
812.8831, 197.2695
813.3652, 319.6094
813.8474, 407.5430
814.3295, 395.9023
814.8116, 272.4805
815.2937, 196.9414
815.7758, 223.8164
816.2579, 264.9727
816.7401, 315.5469
817.2222, 343.9219
817.7043, 296.5039
818.1864, 192.5625
818.6685, 125.6406
819.1506, 158.2148
819.6328, 199.6055
820.1149, 163.6914
820.5970, 84.77734
821.0791, 2.195313
821.5612, 70.37891
822.0433, 105.9219
822.5255, 91.64844
823.0076, 45.47266
823.4897, 22.49609
823.9718, 104.4922
824.4539, 139.1289
824.9360, 124.3242
825.4182, 89.32031
825.9003, 36.32422
826.3824, 13.07031
826.8645, 42.33594
827.3466, 48.73828
827.8287, 1.414063
828.3109, 146.5977
828.7930, 254.6133
829.2751, 301.4180
829.7573, 312.8672
830.2394, 284.3359
830.7215, 236.2031
831.2036, 205.4023
831.6857, 194.2617
832.1678, 205.8047
832.6500, 271.5078
833.1321, 327.1250
833.6142, 337.3438
834.0963, 314.2656
834.5784, 260.4609
835.0605, 186.2891
835.5427, 142.2266
836.0248, 181.1328
836.5069, 234.1484
836.9890, 207.8008
837.4711, 151.2070
837.9532, 182.2695
838.4354, 292.9258
838.9175, 352.0977
839.3996, 282.8984
839.8817, 167.4258
840.3638, 142.4180
840.8459, 195.1406
841.3281, 224.9141
841.8102, 228.7852
842.2923, 212.9688
842.7744, 173.5742
843.2565, 141.5312
843.7386, 158.8477
844.2208, 221.3125
844.7029, 254.0859
845.1850, 245.5391
845.6671, 231.4961
846.1492, 199.3047
846.6313, 183.1172
847.1135, 223.7070
847.5956, 294.3320
848.0777, 330.0977
848.5598, 311.5469
849.0419, 302.8477
849.5240, 331.4688
850.0062, 350.0039
850.4883, 316.7148
850.9704, 269.7578
851.4525, 262.8828
851.9346, 299.7969
852.4167, 333.6992
852.8989, 333.6602
853.3810, 331.9414
853.8631, 362.0742
854.3452, 400.3164
854.8273, 413.7773
855.3094, 402.6523
855.7916, 378.2773
856.2737, 344.5000
856.7558, 326.3711
857.2379, 365.6719
857.7200, 440.9844
858.2021, 486.4062
858.6843, 504.6680
859.1664, 524.4258
859.6485, 563.8359
860.1306, 632.2734
860.6127, 750.4375
861.0948, 909.0352
861.5770, 1033.891
862.0591, 1121.871
862.5412, 1195.074
863.0233, 1241.352
863.5054, 1307.469
863.9875, 1418.668
864.4697, 1580.270
864.9518, 1818.117
865.4339, 2169.797
865.9160, 2483.219
866.3981, 2728.496
866.8802, 2974.328
867.3624, 3236.523
867.8445, 3511.020
868.3266, 3808.195
868.8087, 4119.734
869.2908, 4394.488
869.7729, 4611.801
870.2551, 4807.273
870.7372, 5026.844
871.2193, 5187.746
871.7014, 5230.926
872.1835, 5167.008
872.6656, 5019.266
873.1478, 4794.480
873.6299, 4509.047
874.1120, 4160.605
874.5941, 3769.410
875.0762, 3308.508
875.5583, 2839.293
876.0405, 2472.719
876.5226, 2216.074
877.0047, 1985.926
877.4868, 1725.969
877.9689, 1482.312
878.4510, 1327.926
878.9332, 1240.168
879.4153, 1167.348
879.8974, 1104.383
880.3795, 1039.387
880.8616, 968.8242
881.3438, 894.1211
881.8259, 808.5078
882.3080, 718.4297
882.7901, 675.2031
883.2722, 685.0000
883.7543, 623.7461
884.2365, 446.3438
884.7186, 289.6016
885.2007, 257.6133
885.6828, 307.5117
886.1649, 316.6914
886.6470, 273.8125
887.1292, 227.2070
887.6113, 161.3125
888.0934, 121.6875
888.5755, 126.3594
889.0576, 161.6992
889.5397, 233.8281
890.0219, 338.1836
890.5040, 370.3594
890.9861, 256.4219
891.4682, 178.0898
891.9503, 170.0703
892.4324, 186.6992
892.9146, 219.9531
893.3967, 252.7031
893.8788, 251.5391
894.3609, 206.3438
894.8430, 180.3906
895.3251, 212.8125
895.8073, 248.0977
896.2894, 269.2617
896.7715, 268.8711
897.2536, 221.5703
897.7357, 144.7148
898.2178, 98.25000
898.7000, 112.0898
899.1821, 151.8086
899.6642, 215.1055
900.1463, 271.6367
900.6284, 274.1133
901.1105, 241.5977
901.5927, 226.8945
902.0748, 242.2695
902.5569, 252.9219
903.0390, 224.7695
903.5211, 182.5078
904.0032, 161.9023
904.4854, 160.7500
904.9675, 173.4375
905.4496, 198.7812
905.9317, 241.8867
906.4138, 306.8711
906.8959, 362.4453
907.3781, 350.5039
907.8602, 286.5820
908.3423, 277.0938
908.8244, 320.4648
909.3065, 321.8750
909.7886, 253.1211
910.2708, 182.8906
910.7529, 168.6406
911.2350, 191.6875
911.7171, 196.0352
912.1992, 177.6445
912.6813, 168.1719
913.1635, 172.3750
913.6456, 176.1836
914.1277, 185.0508
914.6098, 168.5273
915.0919, 67.66016
915.5740, 109.9102
916.0562, 154.9219
916.5383, 22.64062
917.0204, 146.8086
917.5025, 176.2344
917.9846, 164.3281
918.4667, 127.9023
918.9489, 75.14844
919.4310, 11.86719
919.9131, 76.24609
920.3952, 104.3203
920.8773, 21.33984
921.3594, 58.89844
921.8416, 133.8242
922.3237, 172.6250
922.8058, 115.5117
923.2879, 2.582031
923.7700, 38.12891
924.2521, 41.99219
924.7343, 122.5156
925.2164, 199.1523
925.6985, 234.8789
926.1806, 170.7695
926.6627, 75.67969
927.1448, 37.34375
927.6270, 60.81641
928.1091, 86.05859
928.5912, 83.03516
929.0733, 84.63281
929.5554, 115.5430
930.0375, 154.8555
930.5197, 181.2930
931.0018, 198.9297
931.4839, 221.0547
931.9660, 250.6172
932.4481, 275.6602
932.9302, 296.6250
933.4124, 300.3789
933.8945, 254.8906
934.3766, 194.0391
934.8587, 174.5508
935.3408, 196.0664
935.8229, 234.4180
936.3051, 280.2266
936.7872, 317.4062
937.2693, 321.1289
937.7514, 303.8008
938.2335, 286.0898
938.7156, 275.8672
939.1978, 290.5625
939.6799, 327.5898
940.1620, 341.9102
940.6441, 298.6875
941.1262, 243.1523
941.6083, 260.8203
942.0905, 325.8320
942.5726, 340.5625
943.0547, 308.4688
943.5368, 295.7812
944.0189, 322.8438
944.5010, 344.8047
944.9832, 312.2578
945.4653, 259.9414
945.9474, 298.4688
946.4295, 418.5742
946.9116, 491.0820
947.3937, 503.6719
947.8759, 479.5742
948.3580, 421.0117
948.8401, 389.2266
949.3222, 478.1406
949.8043, 658.9648
950.2864, 717.1602
950.7686, 634.5508
951.2507, 622.8945
951.7328, 722.6211
952.2149, 858.1719
952.6970, 998.9727
953.1791, 1117.223
953.6613, 1151.527
954.1434, 1095.520
954.6255, 1123.660
955.1076, 1264.789
955.5897, 1383.977
956.0718, 1446.668
956.5540, 1498.480
957.0361, 1573.598
957.5182, 1660.441
958.0003, 1725.715
958.4824, 1759.629
958.9645, 1819.535
959.4467, 1928.785
959.9288, 2013.871
960.4109, 2042.023
960.8930, 2057.125
961.3751, 2104.164
961.8572, 2170.312
962.3394, 2198.223
962.8215, 2174.262
963.3036, 2141.852
963.7857, 2103.898
964.2678, 2051.871
964.7499, 1952.797
965.2321, 1862.117
965.7142, 1863.641
966.1963, 1944.238
966.6784, 1949.996
967.1605, 1831.246
967.6426, 1703.068
968.1248, 1532.641
968.6069, 1398.012
969.0890, 1371.494
969.5711, 1376.400
970.0532, 1305.609
970.5353, 1153.066
971.0175, 1030.391
971.4996, 948.7617
971.9817, 895.7676
972.4638, 886.8047
972.9459, 885.9355
973.4280, 891.2539
973.9102, 878.4805
974.3923, 797.4336
974.8744, 630.1133
975.3565, 535.3105
975.8386, 599.6602
976.3207, 657.5391
976.8029, 679.3516
977.2850, 666.1426
977.7671, 596.3320
978.2492, 497.2539
978.7313, 418.8203
979.2134, 362.9355
979.6956, 336.1426
980.1777, 365.8574
980.6598, 392.7656
981.1419, 383.3750
981.6240, 372.5371
982.1061, 411.6406
982.5883, 467.3613
983.0704, 460.7754
983.5525, 362.3945
984.0346, 285.7695
984.5167, 293.4785
984.9988, 297.9609
985.4810, 256.2793
985.9631, 192.9004
986.4452, 107.8770
986.9273, 25.42578
987.4094, 15.22070
987.8915, 114.1328
988.3737, 199.0410
988.8558, 224.8945
989.3379, 222.9219
989.8200, 203.1836
990.3021, 169.9805
990.7842, 124.1445
991.2664, 68.39062
991.7485, 6.029297
992.2306, 68.46680
992.7127, 116.9668
993.1948, 113.5742
993.6769, 96.61914
994.1591, 103.5371
994.6412, 103.7793
995.1233, 47.78906
995.6054, 55.05273
996.0875, 145.0762
996.5696, 203.6445
997.0518, 244.1738
997.5339, 269.9512
998.0160, 282.4941
998.4981, 276.4277
998.9802, 261.1094
999.4623, 247.2852
999.9445, 235.9199
1000.427, 222.1504
1000.909, 194.3105
1001.391, 186.6484
1001.873, 241.9141
1002.355, 296.0625
1002.837, 289.4746
1003.319, 258.8926
1003.801, 260.9492
1004.284, 297.5859
1004.766, 326.0918
1005.248, 327.8828
1005.730, 325.6953
1006.212, 336.8613
1006.694, 342.5605
1007.176, 323.7246
1007.658, 291.6133
1008.140, 257.4141
1008.623, 226.1367
1009.105, 209.9473
1009.587, 222.1680
1010.069, 233.5000
1010.551, 239.2852
1011.033, 230.7305
1011.515, 184.3828
1011.997, 128.4668
1012.479, 98.13086
1012.962, 99.50391
1013.444, 131.8691
1013.926, 221.8223
1014.408, 293.7676
1014.890, 325.8301
1015.372, 318.2227
1015.854, 228.1152
1016.336, 121.8984
1016.819, 109.5605
1017.301, 190.0879
1017.783, 231.5605
1018.265, 156.8438
1018.747, 94.08398
1019.229, 101.6953
1019.711, 126.2441
1020.193, 146.7188
1020.675, 153.2578
1021.158, 126.6582
1021.640, 71.60156
1022.122, 36.74023
1022.604, 65.27734
1023.086, 77.55469
1023.568, 17.64648
1024.050, 31.97852
1024.532, 4.769531
1025.015, 54.33984
1025.497, 88.68359
1025.979, 92.44336
1026.461, 76.83789
1026.943, 13.65039
1027.425, 17.03516
1027.907, 41.81445
1028.389, 95.53320
1028.871, 68.37500
1029.354, 23.20117
1029.836, 47.84961
1030.318, 139.6250
1030.800, 214.5781
1031.282, 254.2617
1031.764, 284.4766
1032.246, 323.7383
1032.728, 337.0605
1033.210, 275.7793
1033.693, 201.7383
1034.175, 193.0449
1034.657, 244.2090
1035.139, 282.7559
1035.621, 311.2832
1036.103, 312.9668
1036.585, 262.7129
1037.067, 215.2695
1037.550, 208.4844
1038.032, 203.3906
1038.514, 132.4512
1038.996, 15.81836
1039.478, 6.912109
1039.960, 154.3359
1040.442, 238.4844
1040.924, 181.1543
1041.406, 140.3613
1041.889, 191.8984
1042.371, 254.9453
1042.853, 244.1758
1043.335, 178.7012
1043.817, 145.5801
1044.299, 153.2578
1044.781, 172.0352
1045.263, 213.7773
1045.745, 244.0254
1046.228, 256.9922
1046.710, 246.6523
1047.192, 198.2500
1047.674, 126.9551
1048.156, 83.92383
1048.638, 79.47461
1049.120, 53.52930
1049.602, 15.22852
1050.085, 39.94336
1050.567, 21.18555
1051.049, 95.62305
1051.531, 126.7656
1052.013, 125.6699
1052.495, 126.6836
1052.977, 135.4355
1053.459, 106.6719
1053.942, 20.65430
1054.424, 17.48438
1054.906, 147.3984
1055.388, 242.1758
1055.870, 177.2266
1056.352, 46.79102
1056.834, 34.52539
1057.316, 127.7832
1057.798, 178.0449
1058.281, 185.4492
1058.763, 142.4785
1059.245, 47.49805
1059.727, 7.353516
1060.209, 88.52930
1060.691, 198.7598
1061.173, 198.9023
1061.655, 120.5488
1062.137, 76.45703
1062.620, 60.72266
1063.102, 37.97656
1063.584, 5.775391
1064.066, 11.20312
1064.548, 1.884766
1065.030, 12.63281
1065.512, 6.919922
1065.994, 6.308594
1066.477, 5.509766
1066.959, 8.750000
1067.441, 43.55859
1067.923, 91.02344
1068.405, 123.0312
1068.887, 129.9219
1069.369, 122.1973
1069.851, 101.1973
1070.333, 80.89844
1070.816, 77.80664
1071.298, 86.48047
1071.780, 104.0762
1072.262, 125.2812
1072.744, 146.2148
1073.226, 162.2637
1073.708, 149.6016
1074.190, 69.00000
1074.672, 14.95508
1075.155, 100.8125
1075.637, 204.3945
1076.119, 208.6719
1076.601, 154.2441
1077.083, 106.3965
1077.565, 74.89453
1078.047, 38.16797
1078.530, 27.75000
1079.012, 52.21875
1079.494, 40.47461
1079.976, 128.4062
1080.458, 133.3223
1080.940, 103.2227
1081.422, 87.49805
1081.904, 81.31641
1082.386, 62.01953
1082.869, 16.28516
1083.351, 7.367188
1083.833, 21.32227
1084.315, 40.06836
1084.797, 8.613281
1085.279, 19.83203
1085.761, 17.39648
1086.243, 81.84375
1086.725, 86.30078
1087.208, 15.22070
1087.690, 0.7187500
1088.172, 81.19727
1088.654, 128.1484
1089.136, 106.9980
1089.618, 74.00586
1090.100, 53.09766
1090.582, 43.97852
1091.065, 47.30859
1091.547, 62.02148
1092.029, 80.71680
1092.511, 106.4453
1092.993, 110.5176
1093.475, 83.87695
1093.957, 74.81250
1094.439, 103.5410
1094.922, 153.7578
1095.404, 216.1719
1095.886, 273.1836
1096.368, 263.5078
1096.850, 194.7793
1097.332, 138.4062
1097.814, 102.3984
1098.296, 91.07812
1098.778, 104.9941
1099.260, 124.3496
1099.743, 135.9570
1100.225, 141.6426
1100.707, 135.7988
1101.189, 130.3145
1101.671, 174.8262
1102.153, 235.2227
1102.635, 203.0391
1103.117, 87.11523
1103.600, 1.923828
1104.082, 13.86328
1104.564, 14.00781
1105.046, 93.33789
1105.528, 153.4746
1106.010, 86.72461
1106.492, 12.03516
1106.974, 10.30273
1107.457, 54.96484
1107.939, 70.84961
1108.421, 18.88867
1108.903, 6.628906
1109.385, 69.30078
1109.867, 134.4922
1110.349, 140.3594
1110.831, 121.6035
1111.313, 65.98828
1111.796, 21.66992
1112.278, 79.52734
1112.760, 222.0488
1113.242, 279.2754
1113.724, 154.8750
1114.206, 94.13477
1114.688, 168.7539
1115.170, 233.0781
1115.652, 249.2168
1116.135, 237.6895
1116.617, 201.1641
1117.099, 157.5762
1117.581, 160.4727
1118.063, 224.1055
1118.545, 213.1152
1119.027, 97.67578
1119.509, 40.27734
1119.992, 77.50781
1120.474, 146.9160
1120.956, 221.8223
1121.438, 276.2734
1121.920, 260.9219
1122.402, 204.1367
1122.884, 230.4297
1123.366, 327.4492
1123.849, 409.5605
1124.331, 467.8203
1124.813, 503.5234
1125.295, 518.2539
1125.777, 530.9492
1126.259, 555.7285
1126.741, 589.7012
1127.223, 652.5117
1127.705, 705.9473
1128.188, 661.3066
1128.670, 563.7930
1129.152, 524.8770
1129.634, 545.7012
1130.116, 536.9531
1130.598, 456.4277
1131.080, 376.8867
1131.562, 356.0781
1132.044, 341.0957
1132.527, 299.8574
1133.009, 244.1953
1133.491, 176.6504
1133.973, 108.0742
1134.455, 54.03711
1134.937, 17.34180
1135.419, 0.3828130
1135.901, 24.67188
1136.384, 35.07812
1136.866, 5.837891
1137.348, 21.75586
1137.830, 35.11523
1138.312, 108.5547
1138.794, 147.0664
1139.276, 150.8887
1139.758, 114.1875
1140.240, 11.94531
1140.723, 20.37500
1141.205, 38.10547
1141.687, 64.08203
1142.169, 19.08984
1142.651, 11.69727
1143.133, 30.78320
1143.615, 102.9551
1144.097, 134.1641
1144.579, 131.5957
1145.062, 119.3770
1145.544, 100.4707
1146.026, 89.12891
1146.508, 85.28906
1146.990, 79.53906
1147.472, 69.57812
1147.954, 74.14258
1148.436, 119.3086
1148.919, 158.4277
1149.401, 121.2559
1149.883, 69.18555
1150.365, 70.65234
1150.847, 100.6152
1151.329, 117.0527
1151.811, 115.0234
1152.293, 113.6855
1152.776, 124.4727
1153.258, 122.6387
1153.740, 73.70508
1154.222, 43.31445
1154.704, 67.63672
1155.186, 112.4590
1155.668, 173.0879
1156.150, 225.9590
1156.632, 222.8359
1157.115, 163.6035
1157.597, 115.2305
1158.079, 66.92383
1158.561, 59.95508
1159.043, 116.1270
1159.525, 157.7891
1160.007, 155.0918
1160.489, 136.7578
1160.971, 125.7422
1161.454, 121.7871
1161.936, 127.3516
1162.418, 141.3887
1162.900, 143.5469
1163.382, 136.0137
1163.864, 136.2051
1164.346, 145.4297
1164.828, 151.5352
1165.311, 149.3223
1165.793, 143.7949
1166.275, 140.8965
1166.757, 136.4160
1167.239, 118.8730
1167.721, 102.1230
1168.203, 101.6523
1168.685, 118.3711
1169.167, 162.2695
1169.650, 224.4219
1170.132, 260.8105
1170.614, 253.3398
1171.096, 227.4062
1171.578, 166.2754
1172.060, 121.9570
1172.542, 130.6543
1173.024, 149.8652
1173.506, 145.5547
1173.989, 127.7734
1174.471, 111.4824
1174.953, 96.49219
1175.435, 111.8145
1175.917, 171.2031
1176.399, 212.6230
1176.881, 231.3516
1177.363, 227.7285
1177.846, 197.8105
1178.328, 170.4863
1178.810, 171.2871
1179.292, 187.5723
1179.774, 200.5371
1180.256, 205.5137
1180.738, 171.1113
1181.220, 115.2578
1181.703, 101.9609
1182.185, 133.2422
1182.667, 174.2988
1183.149, 210.2168
1183.631, 226.7539
1184.113, 203.5762
1184.595, 172.7051
1185.077, 155.2246
1185.559, 144.8613
1186.042, 136.4121
1186.524, 131.1914
1187.006, 123.8281
1187.488, 120.7754
1187.970, 155.1230
1188.452, 258.0547
1188.934, 311.7090
1189.416, 284.9805
1189.898, 243.5391
1190.381, 175.2012
1190.863, 139.0391
1191.345, 179.5312
1191.827, 246.5254
1192.309, 278.2871
1192.791, 274.4023
1193.273, 214.4492
1193.755, 105.3496
1194.238, 77.77344
1194.720, 129.7363
1195.202, 180.0430
1195.684, 208.3477
1196.166, 214.3848
1196.648, 198.6777
1197.130, 182.2891
1197.612, 201.0586
1198.094, 231.3145
1198.577, 250.1230
1199.059, 260.3047
1199.541, 256.2500
1200.023, 245.4395
1200.505, 243.6816
1200.987, 252.5195
1201.469, 255.2988
1201.951, 257.2598
1202.433, 232.0566
1202.916, 126.1992
1203.398, 61.12305
1203.880, 102.7383
1204.362, 155.9902
1204.844, 158.3145
1205.326, 130.6680
1205.808, 112.8262
1206.290, 101.0352
1206.773, 37.01367
1207.255, 80.04297
1207.737, 137.7617
1208.219, 127.8125
1208.701, 84.19141
1209.183, 19.89453
1209.665, 39.78906
1210.147, 77.61133
1210.630, 100.5449
1211.112, 111.7598
1211.594, 117.4941
1212.076, 118.6270
1212.558, 124.4375
1213.040, 150.3652
1213.522, 189.8867
1214.004, 236.3145
1214.486, 285.2637
1214.969, 304.2910
1215.451, 243.5781
1215.933, 224.3535
1216.415, 310.3145
1216.897, 376.7715
1217.379, 383.6992
1217.861, 357.8906
1218.343, 301.4824
1218.825, 249.8828
1219.308, 284.3184
1219.790, 387.8848
1220.272, 355.8555
1220.754, 199.8008
1221.236, 180.3770
1221.718, 303.9766
1222.200, 381.7988
1222.682, 360.2734
1223.165, 321.4102
1223.647, 316.8184
1224.129, 334.6543
1224.611, 404.2656
1225.093, 446.8008
1225.575, 331.5957
1226.057, 182.2852
1226.539, 152.4785
1227.021, 204.6406
1227.504, 239.9023
1227.986, 244.4043
1228.468, 250.8516
1228.950, 273.8477
1229.432, 281.0176
1229.914, 251.9980
1230.396, 248.6426
1230.878, 296.8691
1231.360, 352.6621
1231.843, 390.6562
1232.325, 408.7148
1232.807, 399.6055
1233.289, 370.5059
1233.771, 348.0254
1234.253, 331.1387
1234.735, 318.4062
1235.217, 303.4746
1235.700, 251.7871
1236.182, 168.6152
1236.664, 125.7969
1237.146, 164.0742
1237.628, 208.9102
1238.110, 224.5059
1238.592, 211.7520
1239.074, 135.3066
1239.557, 69.56055
1240.039, 84.91602
1240.521, 112.8398
1241.003, 125.2891
1241.485, 145.1094
1241.967, 157.8613
1242.449, 155.7715
1242.931, 147.8906
1243.413, 130.5996
1243.896, 135.8516
1244.378, 171.5996
1244.860, 199.1211
1245.342, 199.3262
1245.824, 193.7676
1246.306, 208.4570
1246.788, 221.1211
1247.270, 183.9453
1247.752, 131.8398
1248.235, 118.1875
1248.717, 127.9141
1249.199, 132.3965
1249.681, 129.9277
1250.163, 133.8086
1250.645, 148.3926
1251.127, 144.7188
1251.609, 90.55664
1252.092, 58.16406
1252.574, 83.61914
1253.056, 86.31445
1253.538, 16.31641
1254.020, 36.03516
1254.502, 13.74805
1254.984, 102.8301
1255.466, 99.71094
1255.948, 27.33984
1256.431, 0.2500000
1256.913, 17.99023
1257.395, 88.81445
1257.877, 185.9531
1258.359, 217.7969
1258.841, 172.6348
1259.323, 143.0469
1259.805, 182.8496
1260.287, 214.1035
1260.770, 176.6543
1261.252, 133.6348
1261.734, 107.2637
1262.216, 99.21094
1262.698, 128.8809
1263.180, 162.5664
1263.662, 120.6992
1264.144, 61.04297
1264.627, 36.94922
1265.109, 41.40820
1265.591, 76.70508
1266.073, 133.3945
1266.555, 191.2500
1267.037, 243.9629
1267.519, 251.8359
1268.001, 198.5254
1268.484, 135.8496
1268.966, 106.3359
1269.448, 87.06641
1269.930, 37.14258
1270.412, 3.517578
1270.894, 16.23438
1271.376, 59.81445
1271.858, 53.52539
1272.340, 29.53125
1272.823, 0.0000000E+00
##END=



