##NAMES=Sinhalite
##RRUFFID=R100132
##IDEAL CHEMISTRY=MgAlBO_4_
##LOCALITY=Ratnapura district, Sri Lanka
##OWNER=RRUFF
##SOURCE=William W. Pinch
##DESCRIPTION=Tan colored water-worn single crystal
##STATUS=The identification of this mineral has been confirmed by single-crystal X-ray diffraction.
##URL=rruff.info/R100132
148.9415, 0.0000000E+00
149.4237, 1.813934
149.9058, 2.342834
150.3879, 0.8085020
150.8700, 2.4170000E-02
151.3521, 1.056793
151.8342, 1.928314
152.3164, 1.793243
152.7985, 0.8356930
153.2806, 1.4038000E-02
153.7627, 3.2958999E-02
154.2448, 0.9460140
154.7269, 1.688873
155.2091, 2.140594
155.6912, 2.350616
156.1733, 2.164703
156.6554, 1.637726
157.1375, 1.165985
157.6196, 1.460205
158.1018, 2.473480
158.5839, 3.198975
159.0660, 3.474976
159.5481, 3.657654
160.0302, 4.120880
160.5123, 4.924988
160.9945, 5.697937
161.4766, 5.676422
161.9587, 3.900360
162.4408, 2.746979
162.9229, 2.642975
163.4050, 2.923523
163.8871, 3.043671
164.3693, 2.775360
164.8514, 2.194855
165.3335, 1.544800
165.8156, 0.3842160
166.2977, 0.1541140
166.7798, 0.3852840
167.2620, 1.450409
167.7441, 2.141083
168.2262, 2.132202
168.7083, 1.480316
169.1904, 1.244202
169.6725, 1.518524
170.1547, 1.895233
170.6368, 2.672638
171.1189, 3.670715
171.6010, 4.129395
172.0831, 3.487793
172.5652, 2.586609
173.0474, 1.982056
173.5295, 2.143219
174.0116, 2.854919
174.4937, 3.518036
174.9758, 4.186615
175.4579, 4.542053
175.9401, 4.174286
176.4222, 3.500732
176.9043, 2.964752
177.3864, 2.661804
177.8685, 2.468323
178.3506, 2.139832
178.8328, 1.533600
179.3149, 1.323242
179.7970, 1.981201
180.2791, 3.006195
180.7612, 4.168427
181.2433, 5.492096
181.7255, 6.521759
182.2076, 6.052551
182.6897, 2.733521
183.1718, 0.4115600
183.6539, 0.2031250
184.1360, 1.067719
184.6181, 2.114258
185.1003, 2.947693
185.5824, 3.465240
186.0645, 3.259094
186.5466, 1.156342
187.0287, 0.2426150
187.5108, 9.0332001E-02
187.9930, 0.8143010
188.4751, 1.417206
188.9572, 1.107117
189.4393, 0.1054080
189.9214, 0.3450620
190.4035, 0.1010740
190.8857, 0.7155460
191.3678, 1.567627
191.8499, 2.486176
192.3320, 3.244385
192.8141, 3.728577
193.2962, 3.917542
193.7784, 3.589905
194.2605, 2.369995
194.7426, 1.168640
195.2247, 3.3569001E-02
195.7068, 0.8839720
196.1889, 1.079987
196.6711, 1.1047000E-02
197.1532, 1.971680
197.6353, 2.711395
198.1174, 1.130676
198.5995, 0.5312500
199.0816, 1.057312
199.5638, 0.5516660
200.0459, 0.3032840
200.5280, 1.298492
201.0101, 2.309753
201.4922, 2.991425
201.9743, 3.285706
202.4565, 3.312836
202.9386, 3.015442
203.4207, 2.374908
203.9028, 1.959320
204.3849, 2.249054
204.8670, 2.920380
205.3492, 3.556854
205.8313, 4.159515
206.3134, 4.574554
206.7955, 4.531494
207.2776, 3.864166
207.7597, 3.258545
208.2419, 3.142120
208.7240, 3.200287
209.2061, 3.112579
209.6882, 2.657349
210.1703, 2.206146
210.6524, 2.549072
211.1346, 4.119690
211.6167, 5.343658
212.0988, 5.527374
212.5809, 5.249634
213.0630, 5.051025
213.5451, 5.158142
214.0273, 5.408875
214.5094, 5.396362
214.9915, 4.825867
215.4736, 4.536835
215.9557, 4.777924
216.4378, 5.288849
216.9200, 5.817139
217.4021, 6.248230
217.8842, 6.648651
218.3663, 7.203827
218.8484, 8.025055
219.3305, 8.856384
219.8127, 9.948883
220.2948, 10.93561
220.7769, 11.33313
221.2590, 10.85858
221.7411, 9.894287
222.2232, 9.560394
222.7054, 10.32895
223.1875, 11.24460
223.6696, 12.37808
224.1517, 13.56946
224.6338, 14.74734
225.1159, 15.86542
225.5980, 16.81546
226.0802, 17.27908
226.5623, 16.76840
227.0444, 16.33731
227.5265, 16.37311
228.0086, 16.42783
228.4907, 15.76416
228.9729, 14.02594
229.4550, 11.80176
229.9371, 10.69763
230.4192, 11.63239
230.9013, 12.16907
231.3834, 11.79184
231.8656, 10.82901
232.3477, 9.638458
232.8298, 8.288208
233.3119, 7.028198
233.7940, 6.515289
234.2761, 6.966705
234.7583, 7.424805
235.2404, 7.802277
235.7225, 8.004913
236.2046, 7.682068
236.6867, 6.511810
237.1688, 5.294250
237.6510, 5.717316
238.1331, 8.030029
238.6152, 9.954559
239.0973, 10.75681
239.5794, 10.63333
240.0615, 9.798340
240.5437, 7.988342
241.0258, 6.135803
241.5079, 5.726074
241.9900, 6.743683
242.4721, 7.522430
242.9542, 6.958466
243.4364, 5.622284
243.9185, 5.029602
244.4006, 5.652527
244.8827, 6.736023
245.3648, 7.848999
245.8469, 8.952637
246.3290, 9.420715
246.8112, 8.415802
247.2933, 6.483643
247.7754, 5.365265
248.2575, 5.717194
248.7396, 6.295197
249.2217, 6.057678
249.7039, 5.213257
250.1860, 4.467621
250.6681, 4.491089
251.1502, 4.968231
251.6323, 4.530884
252.1144, 2.288940
252.5966, 0.5334470
253.0787, 0.9203800
253.5608, 2.736176
254.0429, 4.498199
254.5250, 5.571655
255.0071, 5.964478
255.4893, 5.475769
255.9714, 3.381958
256.4535, 1.539520
256.9356, 0.7313840
257.4177, 0.7586980
257.8998, 1.251404
258.3820, 2.142975
258.8641, 3.247253
259.3462, 3.905701
259.8283, 4.089935
260.3104, 3.807587
260.7925, 2.364258
261.2747, 0.7225950
261.7568, 0.3316650
262.2389, 2.148224
262.7210, 5.210358
263.2031, 6.670471
263.6852, 5.650757
264.1674, 4.414276
264.6495, 3.322449
265.1316, 2.407440
265.6137, 1.688354
266.0958, 1.174194
266.5779, 0.8910220
267.0601, 0.9206540
267.5422, 1.368958
268.0243, 1.983368
268.5064, 2.870697
268.9885, 3.800842
269.4706, 4.650543
269.9528, 5.364227
270.4349, 5.808411
270.9170, 5.630615
271.3991, 4.245117
271.8812, 3.408783
272.3633, 3.449585
272.8455, 3.857117
273.3276, 4.446655
273.8097, 5.100403
274.2918, 5.577332
274.7739, 5.203064
275.2560, 3.314667
275.7382, 2.031097
276.2202, 1.707794
276.7024, 1.592560
277.1845, 1.027161
277.6666, 5.4138001E-02
278.1487, 0.6624450
278.6308, 0.2509770
279.1129, 1.840973
279.5951, 3.316833
280.0772, 3.999542
280.5593, 4.377472
281.0414, 4.567566
281.5235, 4.626099
282.0056, 4.675476
282.4878, 5.017731
282.9699, 5.843811
283.4520, 5.590546
283.9341, 2.724640
284.4162, 0.4128110
284.8983, 0.4141240
285.3805, 2.142883
285.8626, 3.756653
286.3447, 3.759186
286.8268, 2.192139
287.3089, 1.847687
287.7910, 4.670837
288.2732, 6.633057
288.7553, 5.853882
289.2374, 3.403839
289.7195, 1.440399
290.2016, 1.307037
290.6837, 2.612610
291.1659, 3.191071
291.6480, 2.182098
292.1301, 1.368408
292.6122, 1.086029
293.0943, 1.191498
293.5764, 1.518860
294.0586, 2.001892
294.5407, 2.545013
295.0228, 2.889648
295.5049, 2.832306
295.9870, 2.815308
296.4691, 2.792938
296.9513, 2.845337
297.4334, 3.184998
297.9155, 3.859253
298.3976, 4.507263
298.8797, 4.497925
299.3618, 3.297821
299.8440, 2.400055
300.3261, 1.762756
300.8082, 1.449188
301.2903, 1.726379
301.7724, 2.556702
302.2545, 3.340912
302.7367, 3.334595
303.2188, 2.245178
303.7009, 1.440948
304.1830, 0.9210210
304.6651, 0.6459350
305.1472, 0.6607970
305.6294, 0.9240110
306.1115, 1.299042
306.5936, 1.697083
307.0757, 2.126862
307.5578, 2.338409
308.0399, 2.362701
308.5221, 2.186981
309.0042, 1.708984
309.4863, 1.015778
309.9684, 0.2586980
310.4505, 0.5235600
310.9326, 1.243256
311.4148, 1.253098
311.8969, 0.1832580
312.3790, 1.360031
312.8611, 1.791122
313.3432, 1.712524
313.8253, 1.433182
314.3075, 1.066666
314.7896, 0.7591710
315.2717, 0.9233250
315.7538, 2.275681
316.2359, 3.065338
316.7180, 2.807281
317.2001, 2.071304
317.6823, 1.427444
318.1644, 1.045029
318.6465, 0.8334200
319.1286, 0.6482850
319.6107, 0.4431760
320.0928, 0.4246520
320.5750, 0.6400450
321.0571, 0.9899440
321.5392, 1.551620
322.0213, 2.255936
322.5034, 2.715408
322.9855, 2.452393
323.4677, 1.276184
323.9498, 0.8230740
324.4319, 1.630203
324.9140, 2.540009
325.3961, 2.990662
325.8782, 3.038544
326.3604, 3.047562
326.8425, 3.305893
327.3246, 3.753952
327.8067, 3.680496
328.2888, 2.152283
328.7709, 1.234451
329.2531, 2.251572
329.7352, 4.091614
330.2173, 4.776962
330.6994, 3.317261
331.1815, 0.6016240
331.6636, 0.9785610
332.1458, 0.3977660
332.6279, 0.1266020
333.1100, 0.6816560
333.5921, 1.076492
334.0742, 0.9944610
334.5563, 0.3851780
335.0385, 0.3424840
335.5206, 0.5587620
336.0027, 5.8807001E-02
336.4848, 0.3172910
336.9669, 9.0286002E-02
337.4490, 0.6003570
337.9312, 0.9916380
338.4133, 1.163956
338.8954, 0.9003140
339.3775, 0.1154790
339.8596, 2.023972
340.3417, 2.909546
340.8239, 1.829300
341.3060, 0.8494720
341.7881, 0.9257660
342.2702, 1.646179
342.7523, 1.994019
343.2344, 1.277847
343.7166, 0.1388090
344.1987, 0.4392550
344.6808, 2.152832
345.1629, 3.868896
345.6450, 3.944809
346.1271, 3.142624
346.6093, 2.208206
347.0914, 1.444260
347.5735, 0.8402860
348.0556, 0.3684840
348.5377, 0.2134400
349.0198, 0.1519930
349.5020, 1.126053
349.9841, 2.526443
350.4662, 3.287598
350.9483, 3.347656
351.4304, 3.136292
351.9125, 3.082596
352.3947, 3.187836
352.8768, 3.438293
353.3589, 3.904129
353.8410, 4.442123
354.3231, 4.882614
354.8052, 5.357468
355.2874, 6.221100
355.7695, 7.805908
356.2516, 9.876816
356.7337, 11.10388
357.2158, 10.88875
357.6979, 10.57370
358.1800, 9.971527
358.6621, 9.581177
359.1443, 10.12914
359.6264, 11.88927
360.1085, 14.09250
360.5906, 15.30470
361.0727, 15.08171
361.5548, 15.01219
362.0370, 15.12018
362.5191, 15.52197
363.0012, 16.35011
363.4833, 17.59311
363.9654, 19.07063
364.4475, 20.57344
364.9297, 22.12572
365.4118, 24.00800
365.8939, 26.07004
366.3760, 28.66020
366.8581, 31.73814
367.3402, 35.40504
367.8224, 39.86575
368.3045, 45.22653
368.7866, 51.36377
369.2687, 57.91777
369.7508, 64.59250
370.2329, 72.59129
370.7151, 83.75464
371.1972, 95.67880
371.6793, 106.5340
372.1614, 115.8805
372.6435, 123.1367
373.1256, 128.0118
373.6078, 130.7359
374.0899, 129.0089
374.5720, 120.5162
375.0541, 108.6120
375.5362, 94.53769
376.0183, 78.77185
376.5005, 64.50778
376.9826, 54.01514
377.4647, 46.78166
377.9468, 40.70436
378.4289, 35.78278
378.9110, 31.86426
379.3932, 29.21407
379.8753, 27.40092
380.3574, 25.54488
380.8395, 23.14320
381.3216, 20.77437
381.8037, 19.13007
382.2859, 18.21823
382.7680, 17.73734
383.2501, 17.86684
383.7322, 18.15500
384.2143, 17.79808
384.6964, 16.55325
385.1786, 15.49388
385.6607, 15.46097
386.1428, 16.09464
386.6249, 16.42928
387.1070, 16.21831
387.5891, 15.79970
388.0713, 15.45700
388.5534, 15.24457
389.0355, 15.54761
389.5176, 16.63112
389.9997, 18.18547
390.4818, 19.67125
390.9640, 21.10832
391.4461, 22.92558
391.9282, 25.39465
392.4103, 28.52115
392.8924, 32.09729
393.3745, 36.60555
393.8567, 41.08218
394.3388, 44.87329
394.8209, 48.31665
395.3030, 52.31049
395.7851, 57.36632
396.2672, 62.37564
396.7494, 65.48802
397.2315, 66.60054
397.7136, 65.83212
398.1957, 62.82043
398.6778, 58.13942
399.1599, 51.22455
399.6420, 42.60756
400.1241, 34.80652
400.6063, 30.14923
401.0884, 28.70642
401.5705, 27.35146
402.0526, 25.79691
402.5347, 24.70178
403.0168, 23.97847
403.4990, 23.83659
403.9811, 24.82021
404.4632, 27.20624
404.9453, 30.29121
405.4274, 32.37192
405.9095, 33.03003
406.3917, 33.25702
406.8738, 33.06114
407.3559, 32.59064
407.8380, 32.06992
408.3201, 31.42209
408.8022, 30.19667
409.2844, 27.79750
409.7665, 24.14349
410.2486, 20.69620
410.7307, 16.75113
411.2128, 13.87109
411.6949, 13.34712
412.1771, 14.01268
412.6592, 13.93169
413.1413, 12.04884
413.6234, 9.251923
414.1055, 7.503876
414.5876, 7.153946
415.0698, 6.769760
415.5519, 5.774216
416.0340, 4.794815
416.5161, 4.372070
416.9982, 4.533020
417.4803, 4.706757
417.9625, 4.195282
418.4446, 3.170029
418.9267, 2.937149
419.4088, 4.113708
419.8909, 5.126053
420.3730, 4.856384
420.8552, 3.713272
421.3373, 2.421555
421.8194, 0.8540950
422.3015, 0.3773040
422.7836, 0.2402340
423.2657, 1.245117
423.7479, 2.479324
424.2300, 2.757568
424.7121, 2.496201
425.1942, 2.372498
425.6763, 2.402817
426.1584, 2.481293
426.6406, 2.725281
427.1227, 2.943649
427.6048, 2.764511
428.0869, 2.108368
428.5690, 1.257980
429.0511, 0.2884670
429.5333, 0.7406920
430.0154, 0.9283600
430.4975, 0.6372220
430.9796, 2.190155
431.4617, 2.636566
431.9438, 2.267349
432.4260, 1.989731
432.9081, 2.284058
433.3902, 2.693695
433.8723, 2.066132
434.3544, 1.143219
434.8365, 2.791702
435.3187, 1.378586
435.8008, 0.7348180
436.2829, 1.489899
436.7650, 0.7554780
437.2471, 0.1942440
437.7292, 0.1448360
438.2114, 0.9370880
438.6935, 1.700882
439.1756, 2.125504
439.6577, 2.247925
440.1398, 1.745865
440.6219, 1.049820
441.1040, 0.8047490
441.5862, 1.280777
442.0683, 2.032578
442.5504, 2.244324
443.0325, 1.787537
443.5146, 1.186478
443.9967, 6.0364000E-02
444.4789, 0.9786990
444.9610, 0.7277530
445.4431, 0.4173130
445.9252, 1.343292
446.4073, 1.018387
446.8894, 0.1278840
447.3716, 0.3454280
447.8537, 0.7360840
448.3358, 1.820343
448.8179, 2.377579
449.3000, 2.620651
449.7821, 2.724594
450.2643, 2.704605
450.7464, 2.639618
451.2285, 2.500732
451.7106, 2.341919
452.1927, 2.496017
452.6748, 3.143463
453.1570, 3.878265
453.6391, 4.384186
454.1212, 4.671722
454.6033, 4.614883
455.0854, 3.678818
455.5675, 2.753418
456.0497, 2.834457
456.5318, 3.765366
457.0139, 4.411224
457.4960, 4.018356
457.9781, 3.271027
458.4602, 3.934891
458.9424, 7.169022
459.4245, 9.221573
459.9066, 8.522888
460.3887, 6.831146
460.8708, 5.934204
461.3529, 6.052139
461.8351, 6.437759
462.3172, 6.354660
462.7993, 5.830399
463.2814, 6.079147
463.7635, 7.746552
464.2456, 9.211884
464.7278, 10.24661
465.2099, 10.76335
465.6920, 10.41072
466.1741, 9.064240
466.6562, 7.599991
467.1383, 7.604614
467.6205, 9.707870
468.1026, 11.32242
468.5847, 12.09840
469.0668, 12.60577
469.5489, 13.07404
470.0310, 13.47522
470.5132, 13.66486
470.9953, 13.51387
471.4774, 13.13167
471.9595, 12.77690
472.4416, 12.44174
472.9237, 12.16225
473.4059, 11.73083
473.8880, 11.51469
474.3701, 12.01595
474.8522, 13.31558
475.3343, 14.53410
475.8164, 14.84969
476.2986, 14.68097
476.7807, 15.04744
477.2628, 16.07152
477.7449, 17.58258
478.2270, 19.74463
478.7091, 22.32448
479.1913, 24.33063
479.6734, 25.42290
480.1555, 26.20010
480.6376, 27.34935
481.1197, 28.47513
481.6018, 28.39551
482.0839, 26.66768
482.5660, 24.50406
483.0482, 23.67938
483.5303, 24.82057
484.0124, 25.01480
484.4945, 23.80566
484.9766, 22.14482
485.4587, 20.09201
485.9409, 18.00500
486.4230, 16.61429
486.9051, 16.34741
487.3872, 16.77563
487.8693, 16.87830
488.3514, 16.69855
488.8336, 16.27502
489.3157, 15.37544
489.7978, 14.46111
490.2799, 13.76201
490.7620, 13.33466
491.2441, 13.24365
491.7263, 13.78592
492.2084, 14.59897
492.6905, 14.23767
493.1726, 12.38113
493.6547, 10.80229
494.1368, 10.27519
494.6190, 10.21033
495.1011, 10.08228
495.5832, 9.864258
496.0653, 9.479675
496.5474, 8.699020
497.0295, 7.654999
497.5117, 6.802658
497.9938, 6.260529
498.4759, 5.672821
498.9580, 4.623718
499.4401, 3.240326
499.9222, 2.204544
500.4044, 1.295486
500.8865, 1.004227
501.3686, 2.156128
501.8507, 4.009705
502.3328, 5.053345
502.8149, 4.846970
503.2971, 3.958496
503.7792, 2.965454
504.2613, 1.626663
504.7434, 1.086655
505.2255, 2.160828
505.7076, 3.215790
506.1898, 3.293671
506.6719, 2.709198
507.1540, 2.249573
507.6361, 2.339798
508.1182, 2.654282
508.6003, 2.364395
509.0825, 1.106094
509.5646, 0.2210240
510.0467, 0.1004030
510.5288, 0.1612400
511.0109, 7.5638004E-02
511.4930, 0.1177220
511.9752, 0.1754460
512.4573, 0.1174010
512.9394, 0.6071010
513.4215, 1.035263
513.9036, 1.462021
514.3857, 1.378586
514.8679, 0.2058110
515.3500, 1.784485
515.8321, 0.9874880
516.3142, 2.608139
516.7963, 5.078430
517.2784, 3.686981
517.7606, 0.6720890
518.2427, 0.7375950
518.7248, 0.3125920
519.2069, 0.1726680
519.6890, 0.6058040
520.1711, 2.228195
520.6533, 2.534912
521.1354, 6.9626004E-02
521.6175, 1.558212
522.0996, 0.9754940
522.5817, 0.2722470
523.0638, 0.6176910
523.5460, 0.1637420
524.0281, 1.360229
524.5102, 2.396118
524.9923, 3.254333
525.4744, 3.253937
525.9565, 1.287201
526.4387, 9.0178996E-02
526.9208, 0.1130070
527.4029, 0.5405120
527.8850, 1.266937
528.3671, 1.887939
528.8492, 2.342453
529.3314, 2.556046
529.8135, 2.538635
530.2956, 2.315155
530.7777, 1.694763
531.2598, 1.272171
531.7419, 1.739731
532.2241, 2.582336
532.7062, 2.945908
533.1883, 2.525879
533.6704, 1.909744
534.1525, 1.178650
534.6346, 0.5779110
535.1168, 0.8710330
535.5989, 2.300644
536.0810, 3.876617
536.5631, 4.581253
537.0452, 4.365158
537.5273, 4.289856
538.0095, 4.198044
538.4916, 4.405655
538.9737, 5.311920
539.4558, 6.498108
539.9379, 7.240784
540.4200, 7.339233
540.9022, 7.380280
541.3843, 8.255920
541.8664, 10.18906
542.3485, 11.70380
542.8306, 12.53839
543.3127, 13.20366
543.7948, 13.50110
544.2769, 13.83449
544.7590, 14.87312
545.2411, 16.92355
545.7233, 19.29939
546.2054, 20.76149
546.6875, 21.45876
547.1696, 23.70486
547.6517, 28.41843
548.1339, 33.63777
548.6160, 37.39319
549.0981, 40.28235
549.5802, 44.14191
550.0623, 50.23364
550.5444, 56.37437
551.0266, 61.54208
551.5087, 65.68286
551.9908, 68.87851
552.4729, 71.18283
552.9550, 71.96286
553.4371, 70.39151
553.9193, 66.25522
554.4014, 60.75752
554.8835, 52.61761
555.3656, 44.74681
555.8477, 37.98419
556.3298, 32.18462
556.8120, 27.17932
557.2941, 22.86060
557.7762, 19.12672
558.2583, 15.73477
558.7404, 12.64244
559.2225, 10.38930
559.7047, 9.218704
560.1868, 8.676636
560.6689, 9.052979
561.1510, 9.712662
561.6331, 9.475845
562.1152, 7.728180
562.5974, 5.744385
563.0795, 4.759979
563.5616, 4.528244
564.0437, 4.145721
564.5258, 3.408829
565.0079, 2.600357
565.4901, 1.911423
565.9722, 1.369461
566.4543, 1.121246
566.9364, 1.277847
567.4185, 1.598053
567.9006, 2.165451
568.3828, 2.775681
568.8649, 3.222748
569.3470, 3.421677
569.8291, 3.232330
570.3112, 2.372238
570.7933, 0.7534330
571.2755, 6.6390999E-02
571.7576, 0.6617740
572.2397, 1.270111
572.7218, 1.066284
573.2039, 0.6065520
573.6860, 0.8878630
574.1682, 2.097244
574.6503, 3.188828
575.1324, 2.942307
575.6145, 1.712524
576.0966, 1.053299
576.5787, 1.144333
577.0609, 1.688995
577.5430, 2.834213
578.0251, 4.113159
578.5072, 4.625748
578.9893, 4.195343
579.4714, 3.684891
579.9536, 3.445023
580.4357, 3.334381
580.9178, 3.136673
581.3999, 2.883133
581.8820, 2.792343
582.3641, 3.090836
582.8463, 3.668686
583.3284, 3.872513
583.8105, 3.143600
584.2926, 2.865326
584.7747, 3.454880
585.2568, 4.347794
585.7390, 4.906982
586.2211, 5.150345
586.7032, 5.668503
587.1853, 7.167633
587.6674, 9.147690
588.1495, 10.15675
588.6317, 10.07738
589.1138, 9.768738
589.5959, 9.046997
590.0780, 8.658768
590.5601, 9.692871
591.0422, 12.18567
591.5244, 14.19423
592.0065, 14.84282
592.4886, 15.03802
592.9707, 15.54173
593.4528, 16.26854
593.9349, 16.73770
594.4171, 16.70189
594.8992, 16.56345
595.3813, 17.01784
595.8634, 18.15108
596.3455, 19.70766
596.8276, 22.59746
597.3098, 24.87383
597.7919, 25.21678
598.2740, 24.52274
598.7561, 24.32466
599.2382, 25.24948
599.7203, 26.75276
600.2025, 28.16837
600.6846, 29.51086
601.1667, 30.98639
601.6488, 32.67186
602.1309, 34.37547
602.6130, 35.89912
603.0952, 37.41467
603.5773, 39.30737
604.0594, 42.20676
604.5415, 44.44055
605.0236, 44.73442
605.5057, 43.98518
605.9879, 43.66934
606.4700, 44.00375
606.9521, 44.03653
607.4342, 43.03662
607.9163, 41.19202
608.3984, 39.73567
608.8806, 39.34671
609.3627, 38.17717
609.8448, 35.47404
610.3269, 32.54166
610.8090, 30.46234
611.2911, 29.21808
611.7733, 27.95462
612.2554, 25.98244
612.7375, 23.57646
613.2196, 21.50554
613.7017, 19.86871
614.1838, 17.90282
614.6660, 14.86938
615.1481, 11.92549
615.6302, 10.62965
616.1123, 10.84164
616.5944, 10.94849
617.0765, 10.66295
617.5587, 10.18921
618.0408, 9.593124
618.5229, 8.920609
619.0050, 8.204239
619.4871, 7.460327
619.9692, 6.827469
620.4514, 6.493439
620.9335, 6.475082
621.4156, 6.643036
621.8977, 7.395050
622.3798, 7.874100
622.8619, 7.843323
623.3441, 7.467728
623.8262, 6.850571
624.3083, 6.046478
624.7904, 5.301575
625.2725, 4.797302
625.7546, 4.499237
626.2367, 4.366577
626.7188, 4.416153
627.2009, 4.418747
627.6830, 4.265274
628.1652, 3.982819
628.6473, 3.562454
629.1294, 2.851669
629.6115, 2.498917
630.0936, 2.922882
630.5757, 3.454956
631.0579, 3.673782
631.5400, 3.581558
632.0221, 3.219452
632.5042, 2.595123
632.9863, 2.010986
633.4684, 2.192947
633.9506, 3.431381
634.4327, 3.961349
634.9148, 3.133926
635.3969, 2.287552
635.8790, 2.032608
636.3611, 2.217163
636.8433, 2.665344
637.3254, 3.486465
637.8075, 4.061554
638.2896, 3.762573
638.7717, 2.953842
639.2538, 2.208405
639.7360, 1.627518
640.2181, 1.540985
640.7002, 2.380081
641.1823, 3.724548
641.6644, 3.851807
642.1465, 1.101624
642.6287, 0.5858310
643.1108, 0.8612060
643.5929, 0.3296050
644.0750, 1.307632
644.5571, 3.406586
645.0392, 4.348999
645.5214, 2.998566
646.0035, 0.8430790
646.4856, 0.7593540
646.9677, 2.734650
647.4498, 3.385498
647.9319, 1.438492
648.4141, 0.5162810
648.8962, 4.3330002E-03
649.3783, 2.334351
649.8604, 3.945892
650.3425, 4.374893
650.8246, 4.423538
651.3068, 4.407532
651.7889, 4.176865
652.2710, 3.318939
652.7531, 1.933075
653.2352, 0.8042300
653.7173, 0.5769200
654.1995, 1.043472
654.6816, 1.353088
655.1637, 1.477493
655.6458, 1.509415
656.1279, 1.222427
656.6100, 1.052231
657.0922, 1.394272
657.5743, 2.093201
658.0564, 2.626083
658.5385, 2.954224
659.0206, 2.815170
659.5027, 1.397781
659.9849, 0.6806950
660.4670, 1.522949
660.9491, 0.6656340
661.4312, 0.7020720
661.9133, 1.614853
662.3954, 2.066849
662.8776, 1.959930
663.3597, 0.3279720
663.8418, 0.5884860
664.3239, 0.2308200
664.8060, 1.239838
665.2881, 0.8004460
665.7703, 0.7735290
666.2524, 1.592682
666.7345, 9.3047999E-02
667.2166, 2.281891
667.6987, 2.702057
668.1808, 1.224075
668.6630, 0.1048280
669.1451, 0.8879390
669.6272, 1.188202
670.1093, 0.8087620
670.5914, 0.1505280
671.0735, 0.4749300
671.5557, 0.5572360
672.0378, 1.368546
672.5199, 1.409729
673.0020, 0.9955140
673.4841, 0.3984380
673.9662, 0.2963870
674.4484, 1.035492
674.9305, 1.776413
675.4126, 2.541382
675.8947, 3.618225
676.3768, 5.340210
676.8589, 5.809860
677.3411, 3.622803
677.8232, 1.215881
678.3053, 0.8326260
678.7874, 1.906464
679.2695, 2.352859
679.7516, 1.083115
680.2338, 0.1467440
680.7159, 0.3478700
681.1980, 0.1753230
681.6801, 1.197342
682.1622, 2.550247
682.6443, 3.570618
683.1265, 3.658295
683.6086, 3.030060
684.0907, 2.743942
684.5728, 2.908798
685.0549, 3.174255
685.5370, 3.699310
686.0192, 4.126083
686.5013, 4.079926
686.9834, 3.755005
687.4655, 3.791565
687.9476, 4.781067
688.4297, 5.558578
688.9119, 4.514175
689.3940, 2.565125
689.8761, 1.943069
690.3582, 3.024338
690.8403, 4.686447
691.3224, 6.144257
691.8046, 7.408798
692.2867, 8.555161
692.7688, 9.627167
693.2509, 10.50529
693.7330, 10.99289
694.2151, 11.47620
694.6973, 12.19196
695.1794, 13.09634
695.6615, 14.05098
696.1436, 15.02296
696.6257, 15.93471
697.1078, 16.57108
697.5900, 17.06650
698.0721, 17.93440
698.5542, 19.25354
699.0363, 20.77246
699.5184, 22.31235
700.0005, 23.92227
700.4827, 25.72243
700.9648, 27.85907
701.4469, 30.12613
701.9290, 32.41161
702.4111, 34.91898
702.8932, 37.90955
703.3754, 41.20891
703.8575, 44.57077
704.3396, 47.91112
704.8217, 50.97311
705.3038, 53.59457
705.7859, 55.64349
706.2681, 56.33841
706.7502, 55.62903
707.2323, 54.31961
707.7144, 52.77800
708.1965, 50.89418
708.6786, 48.31070
709.1607, 44.68793
709.6428, 41.39885
710.1249, 38.92218
710.6071, 36.39055
711.0892, 33.48608
711.5713, 30.13005
712.0534, 25.70096
712.5355, 20.09454
713.0176, 15.53685
713.4998, 15.49541
713.9819, 18.90176
714.4640, 19.73096
714.9461, 17.55104
715.4282, 15.17177
715.9103, 13.69801
716.3925, 12.72861
716.8746, 11.49210
717.3567, 9.844925
717.8388, 9.084961
718.3209, 10.18925
718.8030, 11.45891
719.2852, 12.59761
719.7673, 13.08820
720.2494, 11.81026
720.7315, 8.898041
721.2136, 6.453781
721.6957, 6.616714
722.1779, 8.674088
722.6600, 9.900772
723.1421, 10.21373
723.6242, 9.964462
724.1063, 8.886536
724.5884, 8.111938
725.0706, 8.870407
725.5527, 10.99257
726.0348, 12.74205
726.5169, 14.00970
726.9990, 14.83290
727.4811, 14.94017
727.9633, 14.88553
728.4454, 15.21558
728.9275, 15.93431
729.4096, 16.75369
729.8917, 17.52698
730.3738, 18.37540
730.8560, 19.55356
731.3381, 21.08284
731.8202, 22.50946
732.3023, 23.66736
732.7844, 24.86603
733.2665, 26.45111
733.7487, 28.25333
734.2308, 29.63660
734.7129, 30.33798
735.1950, 31.10814
735.6771, 32.04892
736.1592, 33.15236
736.6414, 34.33174
737.1235, 35.69290
737.6056, 37.62732
738.0877, 40.30560
738.5698, 43.03586
739.0519, 44.76251
739.5341, 45.60062
740.0162, 46.75200
740.4983, 48.42877
740.9804, 49.63135
741.4625, 49.66324
741.9446, 49.10661
742.4268, 49.11719
742.9089, 49.90739
743.3910, 50.12437
743.8731, 49.19908
744.3552, 48.17413
744.8373, 47.74771
745.3195, 47.44748
745.8016, 46.46497
746.2837, 44.69135
746.7658, 42.89693
747.2479, 42.14574
747.7300, 41.69678
748.2122, 39.02000
748.6943, 34.06357
749.1764, 30.27109
749.6585, 28.86914
750.1406, 28.25287
750.6227, 26.75313
751.1049, 24.41628
751.5870, 22.69209
752.0691, 21.86717
752.5512, 21.21472
753.0333, 20.81696
753.5154, 20.37128
753.9976, 19.60118
754.4797, 18.55087
754.9618, 17.46565
755.4439, 16.50372
755.9260, 15.41621
756.4081, 13.58339
756.8903, 11.30188
757.3724, 9.990768
757.8545, 9.870712
758.3366, 9.739166
758.8187, 8.743256
759.3008, 7.400131
759.7830, 7.088730
760.2651, 8.808060
760.7472, 9.172531
761.2293, 6.771103
761.7114, 4.687576
762.1935, 4.459427
762.6757, 5.172028
763.1578, 5.671280
763.6399, 5.664078
764.1220, 5.146835
764.6041, 3.646744
765.0862, 1.901184
765.5684, 1.153687
766.0505, 1.228546
766.5326, 1.189255
767.0147, 0.7279210
767.4968, 0.1887660
767.9789, 4.9423002E-02
768.4611, 9.3099999E-04
768.9432, 0.1057280
769.4253, 0.3458860
769.9074, 0.4969330
770.3895, 0.2701260
770.8716, 0.1667790
771.3538, 0.8514560
771.8359, 1.963837
772.3180, 2.286240
772.8001, 1.029556
773.2822, 0.2732240
773.7643, 0.5275730
774.2465, 0.2029270
774.7286, 0.2539520
775.2107, 0.6526790
775.6928, 0.4018550
776.1749, 0.8897400
776.6570, 2.449982
777.1392, 2.618179
777.6213, 1.111877
778.1034, 0.3443300
778.5855, 0.8887180
779.0676, 1.077408
779.5497, 0.3334350
780.0319, 2.189438
780.5140, 2.984787
780.9961, 2.640854
781.4782, 2.054520
781.9603, 1.073288
782.4424, 0.3002320
782.9246, 0.1464230
783.4067, 0.3912810
783.8888, 0.8251340
784.3709, 1.326096
784.8530, 1.608032
785.3351, 1.340607
785.8173, 0.8551480
786.2994, 1.092682
786.7815, 2.054428
787.2636, 2.743179
787.7457, 2.939438
788.2278, 2.965561
788.7100, 3.040298
789.1921, 3.142487
789.6742, 3.182968
790.1563, 3.109238
790.6384, 3.077026
791.1205, 3.039871
791.6026, 3.106186
792.0847, 3.469070
792.5668, 3.932297
793.0490, 4.085968
793.5311, 3.821426
794.0132, 3.709457
794.4953, 4.473343
794.9774, 5.575500
795.4595, 6.080139
795.9417, 6.019547
796.4238, 5.693985
796.9059, 5.195282
797.3880, 4.481354
797.8701, 3.365143
798.3522, 1.933365
798.8344, 1.823257
799.3165, 4.224091
799.7986, 5.646973
800.2807, 4.711823
800.7628, 3.373154
801.2449, 2.732361
801.7271, 2.604355
802.2092, 2.386551
802.6913, 1.899292
803.1734, 1.412918
803.6555, 0.8636630
804.1376, 0.5374910
804.6198, 0.9555660
805.1019, 1.875717
805.5840, 2.605225
806.0661, 2.839188
806.5482, 2.715118
807.0303, 2.252914
807.5125, 1.534348
807.9946, 1.426147
808.4767, 2.054413
808.9588, 2.579849
809.4409, 2.665741
809.9230, 2.637100
810.4052, 2.943298
810.8873, 3.577759
811.3694, 3.731598
811.8515, 2.912796
812.3336, 2.287735
812.8157, 2.333038
813.2979, 2.450073
813.7800, 1.839890
814.2621, 0.9005740
814.7442, 0.9451750
815.2263, 2.732376
815.7084, 4.534088
816.1906, 4.508957
816.6727, 3.328598
817.1548, 2.204849
817.6369, 1.263382
818.1190, 0.6028140
818.6011, 0.2774350
819.0833, 0.1373900
819.5654, 5.0719999E-02
820.0475, 0.2990110
820.5296, 0.2627260
821.0117, 0.1251530
821.4938, 0.6603550
821.9760, 1.358109
822.4581, 2.125992
822.9402, 3.085678
823.4223, 4.096039
823.9044, 4.486420
824.3865, 3.698929
824.8687, 2.926956
825.3508, 2.498917
825.8329, 2.395920
826.3150, 2.851761
826.7971, 3.606094
827.2792, 3.945648
827.7614, 3.550415
828.2435, 3.037521
828.7256, 3.237701
829.2077, 3.954147
829.6898, 4.476471
830.1719, 4.782516
830.6541, 4.875366
831.1362, 4.743774
831.6183, 4.377823
832.1004, 3.653122
832.5825, 2.582611
833.0646, 2.359100
833.5468, 3.424088
834.0289, 4.649002
834.5110, 6.627930
834.9931, 8.012238
835.4752, 7.330353
835.9573, 5.452911
836.4395, 4.763733
836.9216, 6.164246
837.4037, 7.895126
837.8858, 9.152283
838.3679, 10.11424
838.8500, 11.18481
839.3322, 12.09879
839.8143, 11.90413
840.2964, 10.30569
840.7785, 8.910538
841.2606, 9.470856
841.7427, 11.52443
842.2249, 13.75992
842.7070, 16.06833
843.1891, 18.11035
843.6712, 19.87758
844.1533, 21.13606
844.6354, 21.22975
845.1176, 20.44093
845.5997, 20.79332
846.0818, 23.14326
846.5639, 25.40224
847.0460, 27.28448
847.5281, 29.39774
848.0103, 32.49754
848.4924, 35.88232
848.9745, 38.30457
849.4566, 39.32278
849.9387, 40.36072
850.4208, 42.02943
850.9030, 44.28781
851.3851, 47.33321
851.8672, 50.87563
852.3493, 54.15491
852.8314, 57.16525
853.3135, 61.05067
853.7957, 66.77728
854.2778, 73.48199
854.7599, 79.09134
855.2420, 83.65265
855.7241, 88.47116
856.2062, 93.61868
856.6884, 99.20213
857.1705, 105.5045
857.6526, 111.9320
858.1347, 117.5474
858.6168, 122.5114
859.0989, 125.8423
859.5811, 126.8477
860.0632, 127.1492
860.5453, 128.0694
861.0274, 127.7140
861.5095, 123.7672
861.9916, 116.8130
862.4738, 109.9557
862.9559, 104.4063
863.4380, 98.83568
863.9201, 92.56107
864.4022, 85.69312
864.8843, 77.79214
865.3665, 69.42987
865.8486, 62.42496
866.3307, 57.52956
866.8128, 53.75931
867.2949, 50.16507
867.7770, 46.70117
868.2592, 42.98270
868.7413, 39.00571
869.2234, 35.65411
869.7055, 33.23213
870.1876, 31.19339
870.6697, 29.04073
871.1519, 26.84975
871.6340, 25.06091
872.1161, 23.60040
872.5981, 22.68236
873.0803, 23.31427
873.5624, 23.41383
874.0445, 21.68799
874.5266, 19.09459
875.0087, 16.92433
875.4908, 15.35544
875.9730, 14.09970
876.4551, 13.29900
876.9372, 12.53241
877.4193, 11.28798
877.9014, 10.05624
878.3835, 9.687424
878.8657, 10.08934
879.3478, 10.34723
879.8299, 9.914749
880.3120, 9.123993
880.7941, 8.257126
881.2762, 7.423676
881.7584, 7.174500
882.2405, 7.474091
882.7226, 7.219131
883.2047, 5.838165
883.6868, 4.382080
884.1689, 4.403442
884.6511, 5.834564
885.1332, 6.450027
885.6153, 5.946152
886.0974, 5.445908
886.5795, 5.091644
887.0616, 4.898682
887.5438, 5.108597
888.0259, 5.472229
888.5080, 5.194580
888.9901, 3.882828
889.4722, 2.827042
889.9543, 1.994019
890.4365, 1.686417
890.9186, 2.798630
891.4007, 4.148270
891.8828, 3.771820
892.3649, 1.653366
892.8470, 0.2094730
893.3292, 1.371414
893.8113, 3.067093
894.2934, 3.297089
894.7755, 2.682510
895.2576, 2.310638
895.7397, 2.235153
896.2219, 1.782257
896.7040, 0.5828700
897.1861, 0.6063390
897.6682, 0.3316500
898.1503, 0.9681400
898.6324, 1.275513
899.1146, 0.4960170
899.5967, 1.186234
900.0788, 9.8053001E-02
900.5609, 1.448761
901.0430, 0.8157200
901.5251, 1.353043
902.0073, 2.223892
902.4894, 1.110565
902.9715, 0.1126710
903.4536, 0.6337740
903.9357, 1.291611
904.4178, 2.398590
904.9000, 3.229218
905.3821, 2.304398
905.8642, 0.6258390
906.3463, 2.210846
906.8284, 0.7162170
907.3105, 1.175430
907.7927, 2.764801
908.2748, 3.751816
908.7569, 3.497070
909.2390, 2.386810
909.7211, 1.649307
910.2032, 1.864914
910.6854, 2.371841
911.1675, 2.857285
911.6496, 3.074570
912.1317, 2.110565
912.6138, 0.4888760
913.0959, 0.3329160
913.5781, 2.162888
914.0602, 3.956879
914.5423, 3.839706
915.0244, 2.354095
915.5065, 1.373276
915.9886, 0.9380650
916.4708, 0.8431090
916.9529, 1.076736
917.4350, 1.648453
917.9171, 2.716736
918.3992, 3.851013
918.8813, 4.243240
919.3635, 3.753647
919.8456, 3.596832
920.3277, 4.240219
920.8098, 4.449768
921.2919, 3.215668
921.7740, 2.140549
922.2562, 2.587280
922.7383, 4.088303
923.2204, 5.318008
923.7025, 6.219025
924.1846, 6.523376
924.6667, 5.074509
925.1489, 4.045471
925.6310, 5.406708
926.1131, 7.758881
926.5952, 9.171814
927.0773, 9.364120
927.5594, 9.175873
928.0416, 8.936111
928.5237, 8.706589
929.0058, 8.225510
929.4879, 7.954742
929.9700, 8.959900
930.4521, 10.93010
930.9343, 12.35175
931.4164, 12.60881
931.8985, 12.72513
932.3806, 14.03606
932.8627, 16.11653
933.3448, 17.56110
933.8270, 18.35431
934.3091, 18.91399
934.7912, 19.31332
935.2733, 19.61261
935.7554, 19.73865
936.2375, 20.02115
936.7197, 21.49699
937.2018, 24.55493
937.6839, 26.63820
938.1660, 27.39877
938.6481, 27.89299
939.1302, 28.17862
939.6124, 28.73584
940.0945, 30.25336
940.5766, 32.58562
941.0587, 34.36795
941.5408, 36.02373
942.0229, 36.44180
942.5051, 34.44957
942.9872, 32.43863
943.4693, 31.42400
943.9514, 31.16713
944.4335, 31.62816
944.9156, 32.71925
945.3978, 32.95885
945.8799, 31.24362
946.3620, 29.29070
946.8441, 28.06805
947.3262, 26.97766
947.8083, 25.33838
948.2905, 23.29424
948.7726, 21.29018
949.2547, 19.48499
949.7368, 18.09052
950.2189, 17.49667
950.7010, 17.07846
951.1832, 15.68187
951.6653, 13.79706
952.1474, 12.82570
952.6295, 12.87071
953.1116, 12.74197
953.5938, 11.65466
954.0759, 10.11406
954.5580, 8.768921
955.0400, 7.630020
955.5222, 7.418564
956.0043, 8.058975
956.4864, 7.797394
956.9685, 6.023605
957.4506, 4.123657
957.9327, 3.683716
958.4149, 4.331482
958.8970, 4.733475
959.3791, 4.751053
959.8612, 4.634903
960.3433, 4.506134
960.8254, 4.409897
961.3076, 4.364273
961.7897, 4.276718
962.2718, 3.971771
962.7539, 3.438934
963.2360, 3.397079
963.7181, 4.646729
964.2003, 4.928635
964.6824, 3.066055
965.1645, 1.615723
965.6466, 2.322128
966.1287, 4.096466
966.6108, 5.081909
967.0930, 5.066742
967.5751, 4.796295
968.0572, 4.308578
968.5393, 3.741150
969.0214, 2.879349
969.5035, 2.183258
969.9857, 2.518082
970.4678, 3.310196
970.9499, 2.859940
971.4320, 0.4410860
971.9141, 1.496033
972.3962, 1.233383
972.8784, 0.1377870
973.3605, 0.7965550
973.8426, 1.643860
974.3247, 2.942108
974.8068, 4.453979
975.2889, 4.781784
975.7711, 2.905472
976.2532, 0.9420780
976.7353, 1.781860
977.2174, 3.894852
977.6995, 4.538666
978.1816, 3.870682
978.6638, 2.733124
979.1459, 1.459671
979.6280, 0.7105560
980.1101, 1.149109
980.5922, 0.1427460
981.0743, 1.423355
981.5565, 0.2658390
982.0386, 0.8129730
982.5207, 8.4030002E-02
983.0028, 0.7452700
983.4849, 1.240128
983.9670, 1.456390
984.4492, 1.373657
984.9313, 1.141541
985.4134, 1.683426
985.8955, 3.240234
986.3776, 3.571350
986.8597, 2.104095
987.3419, 0.7135470
987.8240, 0.2817690
988.3061, 0.4461060
988.7882, 0.8018950
989.2703, 1.343872
989.7524, 1.322983
990.2346, 0.1892850
990.7167, 0.2443240
991.1988, 0.8780670
991.6809, 1.831879
992.1630, 1.347488
992.6451, 0.2357180
993.1273, 6.2164001E-02
993.6094, 1.041077
994.0915, 1.390976
994.5736, 0.3612210
995.0557, 0.2830810
995.5378, 7.6522999E-02
996.0200, 0.4863740
996.5021, 1.494247
996.9842, 2.490143
997.4663, 2.385147
997.9484, 0.7912750
998.4305, 4.4388000E-02
998.9127, 1.288788
999.3948, 2.426315
999.8769, 1.833176
1000.359, 1.011490
1000.841, 1.722702
1001.323, 3.386353
1001.805, 4.148636
1002.287, 3.390747
1002.770, 2.396408
1003.252, 1.483383
1003.734, 0.9349980
1004.216, 1.073166
1004.698, 1.626877
1005.180, 2.642532
1005.662, 3.727997
1006.144, 3.552109
1006.627, 1.306290
1007.109, 0.5166020
1007.591, 0.9727940
1008.073, 3.288177
1008.555, 3.594803
1009.037, 2.620270
1009.519, 1.913559
1010.001, 1.739090
1010.483, 1.593918
1010.966, 1.186676
1011.448, 0.7491000
1011.930, 0.5945740
1012.412, 0.5709840
1012.894, 0.5051880
1013.376, 0.3973850
1013.858, 0.1885990
1014.340, 8.6471997E-02
1014.823, 6.3019000E-02
1015.305, 0.5551300
1015.787, 1.384476
1016.269, 1.842377
1016.751, 1.951675
1017.233, 1.729874
1017.715, 1.278519
1018.197, 1.535950
1018.679, 2.736847
1019.162, 3.477600
1019.644, 2.490112
1020.126, 0.7225950
1020.608, 0.4590910
1021.090, 1.563416
1021.572, 2.141769
1022.054, 2.134979
1022.536, 1.938370
1023.018, 1.616852
1023.501, 1.582977
1023.983, 2.231766
1024.465, 3.323593
1024.947, 4.167709
1025.429, 4.775360
1025.911, 4.851563
1026.393, 4.242950
1026.875, 3.931595
1027.358, 4.395508
1027.840, 4.792267
1028.322, 4.256058
1028.804, 3.019394
1029.286, 1.942276
1029.768, 0.7188870
1030.250, 0.7216340
1030.732, 2.743134
1031.214, 3.969955
1031.697, 3.049026
1032.179, 1.522598
1032.661, 0.7902680
1033.143, 0.8208160
1033.625, 1.488434
1034.107, 3.032257
1034.589, 4.675735
1035.071, 6.888336
1035.553, 8.297302
1036.036, 7.923660
1036.518, 7.102112
1037.000, 7.270966
1037.482, 8.216431
1037.964, 8.577240
1038.446, 7.572708
1038.928, 7.299927
1039.410, 7.539368
1039.893, 8.689285
1040.375, 12.58031
1040.857, 16.21712
1041.339, 16.05991
1041.821, 12.88780
1042.303, 10.94435
1042.785, 10.72163
1043.267, 10.89897
1043.750, 11.73470
1044.232, 12.57045
1044.714, 13.38173
1045.196, 13.92003
1045.678, 13.76872
1046.160, 13.13576
1046.642, 12.83246
1047.124, 13.42105
1047.606, 13.30637
1048.089, 11.54071
1048.571, 9.905075
1049.053, 9.011505
1049.535, 8.749680
1050.017, 9.452286
1050.499, 10.67508
1050.981, 10.70938
1051.463, 8.872498
1051.945, 7.027695
1052.428, 5.221924
1052.910, 3.869461
1053.392, 3.401627
1053.874, 3.369171
1054.356, 3.425323
1054.838, 3.493881
1055.320, 3.441986
1055.802, 3.090179
1056.285, 3.122803
1056.767, 4.437149
1057.249, 5.394852
1057.731, 4.972763
1058.213, 3.996719
1058.695, 3.142807
1059.177, 2.508270
1059.659, 2.148132
1060.141, 2.154877
1060.624, 2.049423
1061.106, 1.102432
1061.588, 0.6769560
1062.070, 2.246201
1062.552, 4.052765
1063.034, 4.341339
1063.516, 3.351349
1063.998, 1.916580
1064.480, 4.6859998E-02
1064.963, 0.7901610
1065.445, 1.121246
1065.927, 3.010101
1066.409, 3.452087
1066.891, 3.175400
1067.373, 2.794434
1067.855, 2.368835
1068.337, 1.561508
1068.820, 0.2875060
1069.302, 0.4331360
1069.784, 0.1757350
1070.266, 1.023270
1070.748, 1.796005
1071.230, 2.320328
1071.712, 2.456726
1072.194, 2.223862
1072.677, 1.500137
1073.159, 0.2975620
1073.641, 0.2986150
1074.123, 0.6997070
1074.605, 1.756516
1075.087, 2.086060
1075.569, 2.195297
1076.051, 2.388992
1076.533, 2.650330
1077.016, 3.096893
1077.498, 3.663132
1077.980, 3.504700
1078.462, 1.552948
1078.944, 0.1546480
1079.426, 0.7664950
1079.908, 0.6318050
1080.390, 0.3565220
1080.872, 1.693268
1081.354, 2.772690
1081.837, 3.455246
1082.319, 3.677155
1082.801, 3.170303
1083.283, 2.682419
1083.765, 2.670105
1084.247, 2.692352
1084.729, 2.220062
1085.211, 1.706726
1085.694, 1.974152
1086.176, 2.887024
1086.658, 3.338577
1087.140, 2.804611
1087.622, 2.227341
1088.104, 1.785782
1088.586, 1.672623
1089.068, 2.401276
1089.551, 3.240784
1090.033, 3.235046
1090.515, 2.549881
1090.997, 2.077560
1091.479, 2.112823
1091.961, 2.101776
1092.443, 1.652588
1092.925, 1.328278
1093.407, 1.834213
1093.890, 2.267944
1094.372, 1.287628
1094.854, 0.4015200
1095.336, 0.8367610
1095.818, 0.5227050
1096.300, 1.735245
1096.782, 2.333862
1097.264, 2.480820
1097.746, 1.886887
1098.229, 1.207565
1098.711, 0.8666690
1099.193, 0.8548580
1099.675, 1.147736
1100.157, 1.739090
1100.639, 2.254929
1101.121, 2.787033
1101.603, 2.964951
1102.086, 2.591141
1102.568, 1.935425
1103.050, 0.6543730
1103.532, 0.4389650
1104.014, 0.1347660
1104.496, 2.234802
1104.978, 3.402603
1105.460, 2.785400
1105.943, 1.960938
1106.425, 0.4383850
1106.907, 0.3569640
1107.389, 0.9374690
1107.871, 2.728409
1108.353, 3.263153
1108.835, 2.750854
1109.317, 2.495743
1109.799, 2.846222
1110.281, 2.827316
1110.764, 2.038055
1111.246, 1.313599
1111.728, 0.8500520
1112.210, 0.5730740
1112.692, 0.5156560
1113.174, 0.5828400
1113.656, 0.4530180
1114.138, 6.1050002E-02
1114.621, 9.5215000E-02
1115.103, 1.656448
1115.585, 2.681778
1116.067, 2.697296
1116.549, 2.327576
1117.031, 1.871841
1117.513, 1.285141
1117.995, 0.3385160
1118.478, 0.2885440
1118.960, 0.2447970
1119.442, 6.8053998E-02
1119.924, 0.6932370
1120.406, 0.5104830
1120.888, 0.4474030
1121.370, 1.178299
1121.852, 1.864258
1122.334, 1.345306
1122.817, 5.8472000E-02
1123.299, 0.1204830
1123.781, 1.724228
1124.263, 2.137619
1124.745, 0.4621280
1125.227, 0.4996190
1125.709, 0.2429200
1126.191, 1.534698
1126.673, 2.525345
1127.156, 3.169113
1127.638, 3.380829
1128.120, 3.717941
1128.602, 3.718460
1129.084, 3.436829
1129.566, 3.288727
1130.048, 2.449799
1130.530, 1.820618
1131.013, 1.992706
1131.495, 2.225342
1131.977, 1.315598
1132.459, 0.3719940
1132.941, 0.9682620
1133.423, 0.5253300
1133.905, 0.5338290
1134.387, 2.098282
1134.870, 2.935532
1135.352, 2.559891
1135.834, 1.811752
1136.316, 1.472519
1136.798, 1.352814
1137.280, 0.9799040
1137.762, 0.5253140
1138.244, 0.5859380
1138.726, 1.013977
1139.208, 1.047897
1139.691, 0.5839230
1140.173, 0.4358370
1140.655, 1.162201
1141.137, 1.960236
1141.619, 1.610107
1142.101, 0.7781830
1142.583, 0.6120450
1143.065, 0.9270170
1143.548, 1.381424
1144.030, 1.843903
1144.512, 2.140106
1144.994, 2.203400
1145.476, 2.080475
1145.958, 1.681564
1146.440, 1.280243
1146.922, 0.8646090
1147.405, 0.8304440
1147.887, 2.178391
1148.369, 4.131027
1148.851, 5.036377
1149.333, 4.675064
1149.815, 4.056946
1150.297, 3.506424
1150.779, 3.194748
1151.261, 3.441208
1151.744, 3.721848
1152.226, 3.632889
1152.708, 3.349411
1153.190, 3.074234
1153.672, 2.918945
1154.154, 2.777161
1154.636, 2.576355
1155.118, 2.804642
1155.600, 4.272018
1156.083, 5.283127
1156.565, 5.055649
1157.047, 4.386185
1157.529, 3.812454
1158.011, 3.193420
1158.493, 1.990189
1158.975, 0.2083280
1159.457, 0.4570620
1159.940, 6.1996002E-02
1160.422, 1.813644
1160.904, 7.016937
1161.386, 10.15797
1161.868, 8.271942
1162.350, 4.936264
1162.832, 3.116547
1163.314, 2.538193
1163.796, 2.460526
1164.279, 3.064941
1164.761, 3.065155
1165.243, 2.251892
1165.725, 1.744141
1166.207, 1.817398
1166.689, 1.991211
1167.171, 1.930389
1167.653, 2.033524
1168.135, 2.999725
1168.618, 4.561188
1169.100, 5.254181
1169.582, 5.081787
1170.064, 4.017166
1170.546, 2.101440
1171.028, 1.797119
1171.510, 3.922806
1171.992, 5.759598
1172.474, 5.047302
1172.957, 3.212326
1173.439, 2.786865
1173.921, 3.225204
1174.403, 2.905457
1174.885, 2.045547
1175.367, 1.331848
1175.849, 1.021881
1176.331, 1.582947
1176.814, 3.139130
1177.296, 4.563217
1177.778, 4.856140
1178.260, 4.548828
1178.742, 3.883041
1179.224, 3.256393
1179.706, 3.545242
1180.188, 4.173706
1180.671, 3.619446
1181.153, 1.944870
1181.635, 1.055054
1182.117, 1.962952
1182.599, 3.030579
1183.081, 3.444366
1183.563, 3.662506
1184.045, 3.926697
1184.527, 4.077438
1185.010, 3.867081
1185.492, 3.433640
1185.974, 3.128189
1186.456, 3.009445
1186.938, 2.791885
1187.420, 2.003067
1187.902, 1.765533
1188.384, 2.836609
1188.866, 3.778519
1189.349, 3.864075
1189.831, 3.630646
1190.313, 3.606140
1190.795, 3.685638
1191.277, 3.543533
1191.759, 3.017258
1192.241, 3.063873
1192.723, 4.015274
1193.206, 4.199799
1193.688, 2.947723
1194.170, 2.310181
1194.652, 3.706589
1195.134, 5.484406
1195.616, 5.183243
1196.098, 3.421417
1196.580, 2.685730
1197.063, 2.910767
1197.545, 3.642548
1198.027, 4.718781
1198.509, 4.883087
1198.991, 3.867828
1199.473, 3.143295
1199.955, 3.765793
1200.437, 4.790009
1200.919, 5.192047
1201.401, 5.013000
1201.884, 3.930466
1202.366, 2.526352
1202.848, 1.800552
1203.330, 1.842407
1203.812, 2.705734
1204.294, 4.268402
1204.776, 5.323929
1205.258, 4.931610
1205.741, 4.309143
1206.223, 4.005508
1206.705, 4.015945
1207.187, 4.664871
1207.669, 5.366943
1208.151, 5.381958
1208.633, 4.823502
1209.115, 4.259888
1209.598, 3.801529
1210.080, 3.324158
1210.562, 2.614853
1211.044, 2.211975
1211.526, 2.765366
1212.008, 2.940231
1212.490, 1.578705
1212.972, 0.1254270
1213.454, 0.4912260
1213.937, 0.2731170
1214.419, 0.6481020
1214.901, 1.851532
1215.383, 2.035049
1215.865, 3.683350
1216.347, 4.137955
1216.829, 2.633163
1217.311, 1.413940
1217.793, 1.894943
1218.276, 2.945526
1218.758, 3.095612
1219.240, 2.645538
1219.722, 2.348343
1220.204, 2.200729
1220.686, 2.253098
1221.168, 2.444656
1221.650, 2.526596
1222.133, 2.462097
1222.615, 2.440384
1223.097, 2.571671
1223.579, 2.737244
1224.061, 3.061447
1224.543, 3.120773
1225.025, 1.900864
1225.507, 0.6630550
1225.990, 1.353638
1226.472, 3.033401
1226.954, 3.595932
1227.436, 2.771652
1227.918, 1.942902
1228.400, 1.318695
1228.882, 1.064804
1229.364, 1.482162
1229.846, 1.935165
1230.328, 2.650345
1230.811, 2.806122
1231.293, 1.253281
1231.775, 0.8997040
1232.257, 1.472504
1232.739, 0.4790190
1233.221, 5.7723999E-02
1233.703, 0.4010310
1234.185, 0.4933930
1234.668, 0.2818910
1235.150, 0.3757630
1235.632, 1.570770
1236.114, 2.945297
1236.596, 4.316742
1237.078, 5.203033
1237.560, 4.449158
1238.042, 2.656601
1238.525, 1.637573
1239.007, 1.323563
1239.489, 1.756454
1239.971, 2.658127
1240.453, 3.074951
1240.935, 2.785599
1241.417, 2.541931
1241.899, 2.908661
1242.381, 3.109039
1242.864, 2.179382
1243.346, 1.204910
1243.828, 1.148071
1244.310, 1.500290
1244.792, 1.696442
1245.274, 1.784073
1245.756, 1.966934
1246.238, 2.276810
1246.720, 2.801056
1247.203, 4.088028
1247.685, 4.702728
1248.167, 4.229675
1248.649, 3.529785
1249.131, 2.566132
1249.613, 1.952393
1250.095, 2.327164
1250.577, 3.121796
1251.059, 3.230682
1251.542, 2.699890
1252.024, 1.988037
1252.506, 1.095840
1252.988, 0.3887180
1253.470, 7.7682003E-02
1253.952, 0.2010350
1254.434, 1.311508
1254.916, 2.110474
1255.399, 1.730469
1255.881, 1.222656
1256.363, 2.039780
1256.845, 3.396774
1257.327, 4.496231
1257.809, 5.122284
1258.291, 4.570862
1258.773, 3.047607
1259.255, 2.597977
1259.738, 3.061569
1260.220, 3.381256
1260.702, 3.054947
1261.184, 2.591171
1261.666, 2.090897
1262.148, 1.608673
1262.630, 1.131516
1263.112, 0.7158810
1263.594, 0.2968440
1264.077, 5.2627999E-02
1264.559, 0.3633270
1265.041, 1.123734
1265.523, 1.323303
1266.005, 0.8498990
1266.487, 0.3524480
1266.969, 0.2263180
1267.451, 0.1062620
1267.934, 1.617920
1268.416, 2.827744
1268.898, 2.895828
1269.380, 2.297287
1269.862, 1.836090
1270.344, 1.568466
1270.826, 1.601883
1271.308, 1.853928
1271.791, 2.386612
1272.273, 2.898560
1272.755, 2.614777
1273.237, 1.635025
1273.719, 0.7656100
1274.201, 0.2533420
1274.683, 0.1212920
1275.165, 0.8700410
1275.647, 1.539597
1276.130, 1.690704
1276.612, 1.666901
1277.094, 1.180084
1277.576, 0.6279450
1278.058, 0.4749300
1278.540, 0.5872800
1279.022, 0.6026460
1279.504, 0.5152890
1279.986, 0.3767240
1280.469, 0.2296600
1280.951, 0.2893980
1281.433, 0.5853270
1281.915, 0.8655850
1282.397, 1.044861
1282.879, 0.9887080
1283.361, 0.5428770
1283.843, 6.8328999E-02
1284.326, 6.6680000E-03
1284.808, 0.0000000E+00
##END=



