##NAMES=Smithsonite
##RRUFFID=R040035
##IDEAL CHEMISTRY=ZnCO_3_
##LOCALITY=Mazapil, Zacatecas, Mexico
##OWNER=RRUFF
##SOURCE=University of Arizona Mineral Museum
##DESCRIPTION=Pale green-blue fine-grained massive
##STATUS=The identification of this mineral has been confirmed by X-ray diffraction and chemical analysis
##URL=rruff.info/R040035
##MEASURED CHEMISTRY=(Zn_0.97_Ca_0.02_Pb_0.01_)_Î£=1_C_1.00_O_3_; CO_2_ estimated by difference
137.2789, 0.0000000E+00
137.7610, 0.7139890
138.2431, 2.134201
138.7252, 2.882370
139.2073, 3.448814
139.6894, 3.127441
140.1716, 2.040321
140.6537, 0.4384380
141.1358, 0.4139180
141.6179, 0.3255230
142.1000, 0.2892150
142.5821, 0.6504590
143.0643, 0.6534040
143.5464, 0.6141360
144.0285, 0.6420440
144.5106, 0.6887890
144.9927, 0.9474410
145.4748, 1.632912
145.9570, 2.484413
146.4391, 2.648689
146.9212, 1.552467
147.4033, 0.4656750
147.8854, 2.5688000E-02
148.3675, 0.4077070
148.8497, 0.9277800
149.3318, 1.608498
149.8139, 2.384789
150.2960, 2.920059
150.7781, 2.836220
151.2602, 2.775810
151.7424, 3.082588
152.2245, 3.711517
152.7066, 4.736519
153.1887, 6.450081
153.6708, 8.750122
154.1529, 10.58335
154.6351, 12.09811
155.1172, 13.02621
155.5993, 13.19670
156.0814, 11.30171
156.5635, 9.970901
157.0456, 9.945496
157.5278, 11.23299
158.0099, 12.44077
158.4920, 13.12298
158.9741, 13.70650
159.4562, 14.57063
159.9383, 16.11616
160.4205, 17.67860
160.9026, 18.91058
161.3847, 19.76018
161.8668, 20.90257
162.3489, 22.92296
162.8310, 25.24667
163.3132, 27.20691
163.7953, 28.06142
164.2774, 28.89906
164.7595, 30.25751
165.2416, 32.21393
165.7237, 34.47287
166.2059, 36.98648
166.6880, 39.70612
167.1701, 42.55865
167.6522, 45.02808
168.1343, 47.92054
168.6164, 52.01357
169.0985, 57.63809
169.5807, 63.38733
170.0628, 68.20308
170.5449, 72.48043
171.0270, 76.95039
171.5091, 81.26609
171.9912, 86.29184
172.4734, 93.15746
172.9555, 102.4690
173.4376, 112.2129
173.9197, 120.1613
174.4018, 127.0882
174.8839, 135.0558
175.3661, 146.2283
175.8482, 158.7293
176.3303, 169.9402
176.8124, 179.1534
177.2945, 187.8505
177.7766, 197.7370
178.2588, 208.6275
178.7409, 219.3242
179.2230, 228.3941
179.7051, 236.9845
180.1872, 247.4032
180.6693, 260.9228
181.1515, 275.1499
181.6336, 287.3159
182.1157, 298.0494
182.5978, 309.2656
183.0799, 321.4796
183.5620, 334.7947
184.0442, 349.7636
184.5263, 367.0803
185.0084, 385.5736
185.4905, 403.9832
185.9726, 422.3694
186.4547, 441.2877
186.9369, 461.4391
187.4190, 483.0305
187.9011, 506.1417
188.3832, 531.4911
188.8653, 558.5642
189.3474, 586.1250
189.8296, 614.3981
190.3117, 643.7733
190.7938, 675.9523
191.2759, 710.3575
191.7580, 742.6104
192.2401, 773.2451
192.7223, 800.6176
193.2044, 820.8491
193.6865, 834.2286
194.1686, 839.7119
194.6507, 837.0325
195.1328, 826.2364
195.6150, 804.9799
196.0971, 771.4532
196.5792, 727.4037
197.0613, 678.3647
197.5434, 623.8918
198.0255, 567.1803
198.5077, 511.2739
198.9898, 455.7352
199.4719, 404.6595
199.9540, 359.0580
200.4361, 318.8495
200.9182, 282.5114
201.4004, 250.2242
201.8825, 221.9598
202.3646, 198.2340
202.8467, 179.6002
203.3288, 162.6110
203.8109, 146.5629
204.2931, 131.4848
204.7752, 117.5237
205.2573, 104.5215
205.7394, 92.99930
206.2215, 83.74998
206.7036, 77.17824
207.1858, 71.16101
207.6679, 65.16933
208.1500, 59.24506
208.6321, 54.16692
209.1142, 50.18065
209.5963, 46.57605
210.0785, 42.49100
210.5606, 37.72057
211.0427, 33.33934
211.5248, 29.61309
212.0069, 26.53061
212.4890, 23.59010
212.9712, 20.71023
213.4533, 18.08764
213.9354, 16.06247
214.4175, 14.84058
214.8996, 13.51012
215.3817, 11.64771
215.8639, 9.263741
216.3460, 7.943405
216.8281, 8.193451
217.3102, 8.830498
217.7923, 8.480492
218.2744, 6.760422
218.7565, 5.011826
219.2387, 3.496841
219.7208, 2.195129
220.2029, 1.310654
220.6850, 0.9965290
221.1671, 0.9265290
221.6492, 0.8070980
222.1314, 0.7664490
222.6135, 0.3406910
223.0956, 0.8345030
223.5777, 2.847580
224.0598, 3.650261
224.5419, 2.639732
225.0241, 1.094398
225.5062, 0.3527070
225.9883, 0.6606520
226.4704, 1.294083
226.9525, 2.252029
227.4346, 3.583481
227.9168, 4.331429
228.3989, 4.297134
228.8810, 3.893463
229.3631, 3.511017
229.8452, 3.070885
230.3273, 2.811325
230.8095, 2.873474
231.2916, 3.279930
231.7737, 3.328064
232.2558, 2.732780
232.7379, 2.073845
233.2200, 2.030052
233.7022, 3.153297
234.1843, 3.782127
234.6664, 3.334465
235.1485, 1.790382
235.6306, 1.096321
236.1127, 1.797516
236.5949, 2.783409
237.0770, 2.995850
237.5591, 2.111893
238.0412, 1.066406
238.5233, 0.1159740
239.0054, 1.439514
239.4876, 2.135269
239.9697, 1.649239
240.4518, 1.139374
240.9339, 1.767212
241.4160, 4.473198
241.8981, 6.430969
242.3803, 6.843849
242.8624, 5.778206
243.3445, 5.555290
243.8266, 6.414253
244.3087, 7.837082
244.7908, 9.555290
245.2730, 12.22460
245.7551, 13.81660
246.2372, 13.59695
246.7193, 11.75437
247.2014, 10.87787
247.6835, 11.07853
248.1657, 12.11857
248.6478, 14.00039
249.1299, 17.52251
249.6120, 20.13362
250.0941, 21.19975
250.5762, 20.95794
251.0584, 21.33397
251.5405, 22.55941
252.0226, 24.09068
252.5047, 25.61305
252.9868, 27.34555
253.4689, 28.51424
253.9511, 28.58621
254.4332, 27.94546
254.9153, 28.92063
255.3974, 32.37390
255.8795, 36.10846
256.3616, 38.56531
256.8438, 38.94665
257.3259, 40.24825
257.8080, 43.10962
258.2901, 47.02126
258.7722, 50.02506
259.2543, 51.69834
259.7365, 53.18599
260.2186, 55.11732
260.7007, 57.49255
261.1828, 60.21071
261.6649, 63.14438
262.1470, 66.44328
262.6292, 70.92462
263.1113, 77.33083
263.5934, 83.34227
264.0755, 87.49602
264.5576, 89.02899
265.0397, 91.58913
265.5219, 95.51286
266.0040, 100.3580
266.4861, 105.2740
266.9682, 110.2371
267.4503, 115.2535
267.9324, 120.0926
268.4146, 124.6326
268.8967, 129.9070
269.3788, 135.9462
269.8609, 142.6948
270.3430, 149.9934
270.8251, 157.8978
271.3073, 166.1228
271.7894, 174.2764
272.2715, 182.2638
272.7536, 191.2419
273.2357, 201.3071
273.7178, 212.0843
274.2000, 222.9882
274.6821, 233.7326
275.1642, 245.6353
275.6463, 259.2163
276.1284, 274.4728
276.6105, 290.5682
277.0927, 307.4313
277.5748, 325.2723
278.0569, 344.4391
278.5390, 364.9016
279.0211, 386.2265
279.5032, 407.9418
279.9854, 430.0558
280.4675, 454.3050
280.9496, 480.6493
281.4317, 509.0240
281.9138, 539.6039
282.3959, 572.5134
282.8781, 607.2875
283.3602, 644.0751
283.8423, 682.6559
284.3244, 720.8942
284.8065, 758.6626
285.2886, 797.8809
285.7708, 840.7975
286.2529, 887.2964
286.7350, 934.4194
287.2171, 981.5875
287.6992, 1029.141
288.1813, 1076.318
288.6635, 1123.148
289.1456, 1172.196
289.6277, 1226.899
290.1098, 1286.592
290.5919, 1344.209
291.0740, 1398.052
291.5562, 1450.969
292.0383, 1507.049
292.5204, 1566.812
293.0025, 1629.786
293.4846, 1698.005
293.9667, 1769.864
294.4489, 1840.120
294.9310, 1907.273
295.4131, 1973.341
295.8952, 2041.907
296.3773, 2112.121
296.8594, 2179.931
297.3416, 2244.964
297.8237, 2306.555
298.3058, 2361.532
298.7879, 2409.569
299.2700, 2453.852
299.7521, 2500.534
300.2343, 2546.907
300.7164, 2581.892
301.1985, 2600.360
301.6806, 2604.524
302.1627, 2598.141
302.6448, 2581.406
303.1270, 2552.032
303.6091, 2507.958
304.0912, 2449.827
304.5733, 2376.852
305.0554, 2284.379
305.5375, 2179.739
306.0197, 2069.663
306.5018, 1954.906
306.9839, 1839.308
307.4660, 1725.475
307.9481, 1613.867
308.4302, 1505.414
308.9124, 1397.262
309.3945, 1293.975
309.8766, 1198.898
310.3587, 1111.086
310.8408, 1030.296
311.3229, 957.8858
311.8051, 891.0519
312.2872, 828.8762
312.7693, 770.8631
313.2514, 716.9539
313.7335, 667.0020
314.2156, 620.8748
314.6978, 577.5044
315.1799, 536.3204
315.6620, 497.5091
316.1441, 462.1253
316.6262, 430.2361
317.1083, 401.1728
317.5905, 375.4580
318.0726, 352.4053
318.5547, 330.4205
319.0368, 309.6540
319.5189, 289.4466
320.0010, 269.3318
320.4832, 248.7479
320.9653, 230.1958
321.4474, 215.0769
321.9295, 202.1153
322.4116, 189.8344
322.8937, 177.9117
323.3759, 166.6774
323.8580, 156.1366
324.3401, 146.3834
324.8222, 137.5413
325.3043, 130.1102
325.7864, 123.3019
326.2686, 116.5130
326.7507, 109.3885
327.2328, 102.7289
327.7149, 96.68982
328.1970, 91.22794
328.6791, 85.83805
329.1613, 80.09650
329.6434, 74.84783
330.1255, 70.53947
330.6076, 67.61166
331.0897, 65.02349
331.5718, 63.16756
332.0540, 61.64848
332.5361, 59.20938
333.0182, 55.02012
333.5003, 50.88569
333.9824, 47.58126
334.4645, 45.33058
334.9467, 43.01834
335.4288, 40.64711
335.9109, 38.33043
336.3930, 36.24476
336.8751, 34.36609
337.3572, 32.67664
337.8394, 31.20303
338.3215, 29.96559
338.8036, 28.54475
339.2857, 26.84536
339.7678, 25.15450
340.2499, 23.76498
340.7320, 22.75379
341.2141, 21.77604
341.6963, 20.73169
342.1784, 19.70800
342.6605, 19.02144
343.1426, 18.67744
343.6247, 18.47044
344.1068, 18.51032
344.5890, 18.74850
345.0711, 18.13565
345.5532, 16.29029
346.0353, 13.90243
346.5174, 12.41376
346.9995, 11.80994
347.4817, 11.60442
347.9638, 11.53829
348.4459, 11.56434
348.9280, 11.75580
349.4101, 12.21441
349.8922, 12.65510
350.3744, 12.56521
350.8565, 11.98644
351.3386, 11.28372
351.8207, 10.60746
352.3028, 10.01818
352.7849, 9.579651
353.2671, 9.279762
353.7492, 9.064346
354.2313, 8.956207
354.7134, 8.909416
355.1955, 8.832443
355.6776, 8.765923
356.1598, 8.564323
356.6419, 7.998268
357.1240, 7.131744
357.6061, 6.310616
358.0882, 5.712585
358.5703, 5.290802
359.0525, 4.994148
359.5346, 4.708908
360.0167, 4.641411
360.4988, 5.341942
360.9809, 6.386147
361.4630, 6.812248
361.9452, 5.534142
362.4273, 4.018723
362.9094, 3.071609
363.3915, 2.846176
363.8736, 2.925804
364.3557, 3.565628
364.8379, 4.294678
365.3200, 4.570557
365.8021, 3.725502
366.2842, 2.955482
366.7663, 2.737297
367.2484, 3.080772
367.7306, 3.113869
368.2127, 2.321976
368.6948, 1.447639
369.1769, 0.9750210
369.6590, 1.384575
370.1411, 1.632362
370.6233, 1.643570
371.1054, 1.449768
371.5875, 1.161659
372.0696, 0.5944750
372.5517, 0.1669010
373.0338, 0.1157070
373.5160, 0.7185670
373.9981, 0.8809050
374.4802, 0.4300000
374.9623, 0.3291240
375.4444, 0.9010850
375.9265, 1.244553
376.4087, 1.551735
376.8908, 1.932869
377.3729, 2.379333
377.8550, 2.472229
378.3371, 2.159683
378.8192, 1.623657
379.3014, 0.9223180
379.7835, 3.0685000E-02
380.2656, 0.5464550
380.7477, 0.6964650
381.2298, 0.4917450
381.7119, 5.3771999E-02
382.1941, 0.9446410
382.6762, 1.655876
383.1583, 1.598618
383.6404, 1.015190
384.1225, 0.9650730
384.6046, 1.684578
385.0868, 2.471214
385.5689, 2.291954
386.0510, 1.376259
386.5331, 0.5908280
387.0152, 0.3838880
387.4973, 0.5282360
387.9795, 0.7213670
388.4616, 0.9581380
388.9437, 1.265373
389.4258, 1.846066
389.9079, 2.466145
390.3900, 2.776863
390.8722, 2.626102
391.3543, 2.189537
391.8364, 1.323277
392.3185, 0.2019810
392.8006, 0.5489920
393.2827, 0.3142430
393.7649, 0.1962850
394.2470, 0.5069160
394.7291, 0.5092510
395.2112, 0.3909720
395.6933, 0.1121220
396.1754, 0.2226870
396.6576, 0.4573440
397.1397, 0.5476990
397.6218, 0.5374340
398.1039, 0.4420510
398.5860, 0.2636830
399.0681, 1.7123999E-02
399.5503, 0.7321320
400.0324, 1.356251
400.5145, 1.499470
400.9966, 0.9388540
401.4787, 0.1940310
401.9608, 0.9800490
402.4430, 2.344933
402.9251, 2.923840
403.4072, 2.340061
403.8893, 1.541332
404.3714, 0.8735080
404.8535, 0.2572670
405.3357, 0.1780430
405.8178, 0.9387700
406.2999, 1.837772
406.7820, 1.658855
407.2641, 0.1392900
407.7462, 0.9158670
408.2284, 0.8305890
408.7105, 0.1541180
409.1926, 0.8149490
409.6747, 1.118118
410.1568, 1.353203
410.6389, 1.868320
411.1211, 2.574772
411.6032, 2.913509
412.0853, 2.664249
412.5674, 2.270206
413.0495, 2.396778
413.5316, 2.979805
414.0138, 3.685650
414.4959, 4.747608
414.9780, 5.673187
415.4601, 5.390781
415.9422, 3.754887
416.4243, 2.332157
416.9065, 2.788292
417.3886, 4.188072
417.8707, 5.128395
418.3528, 4.577324
418.8349, 3.938671
419.3170, 4.326275
419.7992, 5.487804
420.2813, 6.231575
420.7634, 5.515263
421.2455, 4.560291
421.7276, 4.217785
422.2097, 4.879887
422.6919, 5.517883
423.1740, 5.696201
423.6561, 5.734978
424.1382, 6.127327
424.6203, 7.679508
425.1024, 8.850815
425.5846, 9.137653
426.0667, 8.485226
426.5488, 7.930603
427.0309, 7.284847
427.5130, 6.899433
427.9951, 7.088535
428.4773, 8.320724
428.9594, 9.102005
429.4415, 9.243843
429.9236, 8.916580
430.4057, 8.483616
430.8878, 7.870224
431.3700, 7.393974
431.8521, 7.187717
432.3342, 7.251534
432.8163, 7.541870
433.2984, 8.108452
433.7805, 8.692726
434.2627, 8.993382
434.7448, 9.021286
435.2269, 8.951801
435.7090, 8.824772
436.1911, 8.701977
436.6732, 8.657017
437.1554, 8.695477
437.6375, 8.819542
438.1196, 9.156994
438.6017, 9.519417
439.0838, 9.573402
439.5659, 9.245117
440.0480, 8.743717
440.5302, 8.030903
441.0123, 7.357746
441.4944, 7.097897
441.9765, 7.785664
442.4586, 8.491718
442.9407, 8.685211
443.4229, 8.452229
443.9050, 8.139271
444.3871, 7.731064
444.8692, 7.328167
445.3513, 6.996742
445.8334, 6.751698
446.3156, 6.565868
446.7977, 6.356438
447.2798, 6.194324
447.7619, 6.241108
448.2440, 6.910358
448.7261, 7.422379
449.2083, 7.614639
449.6904, 7.506081
450.1725, 7.220867
450.6546, 6.329720
451.1367, 5.690163
451.6188, 6.207325
452.1010, 8.547733
452.5831, 9.764244
453.0652, 9.305000
453.5473, 7.916454
454.0294, 7.324261
454.5115, 7.627464
454.9937, 7.803696
455.4758, 7.230301
455.9579, 6.084332
456.4400, 5.376503
456.9221, 5.113441
457.4042, 5.060455
457.8864, 5.076488
458.3685, 5.174198
458.8506, 5.400562
459.3327, 5.907482
459.8148, 6.349083
460.2969, 5.969383
460.7791, 4.977921
461.2612, 4.290993
461.7433, 4.760662
462.2254, 5.587528
462.7075, 6.168140
463.1896, 6.489349
463.6718, 6.489262
464.1539, 5.709660
464.6360, 4.720123
465.1181, 4.071712
465.6002, 4.185486
466.0823, 4.425488
466.5645, 4.829048
467.0466, 5.291714
467.5287, 5.500446
468.0108, 5.083729
468.4929, 4.714321
468.9750, 4.668190
469.4572, 5.077034
469.9393, 5.246021
470.4214, 4.979782
470.9035, 4.652824
471.3856, 4.732983
471.8677, 5.429688
472.3499, 5.854069
472.8320, 5.786961
473.3141, 5.359570
473.7962, 5.017525
474.2783, 4.755028
474.7604, 4.571350
475.2426, 4.398060
475.7247, 4.251984
476.2068, 4.399452
476.6889, 4.882069
477.1710, 5.451435
477.6531, 5.879189
478.1353, 6.167332
478.6174, 6.334366
479.0995, 6.363426
479.5816, 6.301155
480.0637, 6.198841
480.5458, 6.051941
481.0280, 5.848545
481.5101, 5.572601
481.9922, 5.244949
482.4743, 4.889515
482.9564, 4.501461
483.4385, 4.068996
483.9207, 3.376556
484.4028, 2.728901
484.8849, 2.452549
485.3670, 2.948288
485.8491, 3.438877
486.3312, 3.859856
486.8134, 4.186325
487.2955, 4.315865
487.7776, 4.058926
488.2597, 3.834229
488.7418, 3.837971
489.2239, 4.151054
489.7061, 4.302547
490.1882, 4.273579
490.6703, 4.111805
491.1524, 3.772095
491.6345, 3.187073
492.1166, 2.971798
492.5988, 3.381954
493.0809, 4.095352
493.5630, 4.261936
494.0451, 3.894985
494.5272, 3.409637
495.0093, 2.925442
495.4915, 2.512299
495.9736, 2.338211
496.4557, 2.414467
496.9378, 2.654255
497.4199, 3.209282
497.9020, 3.820751
498.3842, 4.056843
498.8663, 3.564873
499.3484, 2.987610
499.8305, 2.748970
500.3126, 2.744587
500.7947, 2.713734
501.2769, 2.443855
501.7590, 2.225868
502.2411, 2.237751
502.7232, 2.534412
503.2053, 2.736244
503.6874, 2.847023
504.1696, 2.807941
504.6517, 2.556484
505.1338, 1.870117
505.6159, 1.353127
506.0980, 0.9975050
506.5801, 0.8517720
507.0623, 1.124340
507.5444, 2.000751
508.0265, 2.712139
508.5086, 2.983013
508.9907, 2.841736
509.4728, 2.480812
509.9550, 1.874222
510.4371, 1.249977
510.9192, 0.7222710
511.4013, 0.3328970
511.8834, 0.3100590
512.3655, 0.7666130
512.8477, 1.326572
513.3298, 1.640770
513.8119, 1.723785
514.2940, 1.606853
514.7761, 1.121685
515.2582, 0.5884400
515.7404, 0.2714920
516.2225, 0.1449200
516.7046, 9.4109997E-03
517.1867, 0.6590580
517.6688, 1.114151
518.1509, 0.7896610
518.6331, 0.9658780
519.1152, 2.091351
519.5973, 1.726700
520.0794, 0.7557030
520.5615, 0.3158680
521.0436, 0.9062080
521.5258, 1.217724
522.0079, 0.8108370
522.4900, 5.8014002E-02
522.9721, 3.5740000E-03
523.4542, 1.318111
523.9363, 2.622761
524.4185, 3.233913
524.9006, 3.156212
525.3827, 3.079113
525.8648, 3.016834
526.3469, 2.886787
526.8290, 2.526566
527.3112, 2.007675
527.7933, 1.613365
528.2754, 1.461658
528.7575, 1.367981
529.2396, 1.044415
529.7217, 0.5811420
530.2039, 0.2489430
530.6860, 0.3210910
531.1681, 0.4703060
531.6502, 0.3091850
532.1323, 0.1614300
532.6144, 0.1976620
533.0966, 1.260521
533.5787, 2.763535
534.0608, 3.245110
534.5429, 1.522736
535.0250, 0.4298020
535.5071, 0.6702350
535.9893, 1.489094
536.4714, 1.777851
536.9535, 1.169800
537.4356, 0.7472190
537.9177, 0.7992400
538.3998, 1.241844
538.8820, 1.563759
539.3641, 1.749649
539.8462, 1.874260
540.3283, 2.089943
540.8104, 2.332306
541.2925, 1.965004
541.7747, 0.8610650
542.2568, 0.1735040
542.7389, 0.2465480
543.2210, 0.4205130
543.7031, 1.387482
544.1852, 2.878403
544.6674, 4.055401
545.1495, 3.882111
545.6316, 2.765202
546.1137, 1.719952
546.5958, 1.013470
547.0779, 0.6627430
547.5601, 0.8610270
548.0422, 1.631706
548.5243, 2.108429
549.0064, 1.953369
549.4885, 1.552944
549.9706, 1.131145
550.4528, 0.5961690
550.9349, 0.2173000
551.4170, 3.8029000E-02
551.8991, 0.1206320
552.3812, 0.1299710
552.8633, 0.8633000
553.3455, 1.279945
553.8276, 1.021294
554.3097, 0.4053150
554.7918, 0.6177440
555.2739, 1.657337
555.7560, 2.570831
556.2382, 2.658615
556.7203, 2.227154
557.2024, 1.926208
557.6845, 1.787083
558.1666, 1.707428
558.6487, 1.634140
559.1309, 1.581478
559.6130, 1.475739
560.0951, 1.176617
560.5772, 1.135193
561.0593, 1.905823
561.5414, 3.030281
562.0236, 3.687290
562.5057, 3.347401
562.9878, 2.870388
563.4699, 2.366917
563.9520, 1.869144
564.4341, 1.710144
564.9163, 2.195126
565.3984, 2.643997
565.8805, 2.633411
566.3626, 2.082745
566.8447, 1.965317
567.3268, 2.438828
567.8090, 2.901558
568.2911, 2.473560
568.7732, 1.282578
569.2553, 0.5288850
569.7374, 0.5634840
570.2195, 0.9448970
570.7017, 1.215988
571.1838, 1.403877
571.6659, 1.540909
572.1480, 1.652962
572.6301, 1.728550
573.1122, 1.768608
573.5944, 1.785984
574.0765, 1.707932
574.5586, 1.185104
575.0407, 0.7682270
575.5228, 0.8979800
576.0049, 2.042858
576.4871, 2.747990
576.9692, 2.562397
577.4513, 2.058064
577.9334, 1.789867
578.4155, 1.742905
578.8976, 1.845097
579.3798, 2.233940
579.8619, 2.728374
580.3440, 2.762081
580.8261, 2.257820
581.3082, 1.779842
581.7903, 1.688244
582.2725, 1.831970
582.7546, 1.747250
583.2367, 1.450832
583.7188, 1.141529
584.2009, 0.7388920
584.6830, 0.4880490
585.1652, 0.9337080
585.6473, 2.294086
586.1294, 3.406433
586.6115, 3.402191
587.0936, 2.877346
587.5757, 2.483452
588.0578, 2.640503
588.5399, 2.645317
589.0220, 2.201508
589.5042, 1.530731
589.9863, 1.143475
590.4684, 1.136219
590.9505, 1.310390
591.4326, 1.678314
591.9147, 2.159008
592.3969, 2.280365
592.8790, 1.943390
593.3611, 1.680687
593.8432, 2.022144
594.3253, 2.790642
594.8074, 2.960163
595.2896, 2.462818
595.7717, 1.815804
596.2538, 1.540092
596.7359, 1.545315
597.2180, 1.695625
597.7001, 2.036701
598.1823, 2.337189
598.6644, 2.454872
599.1465, 2.424427
599.6286, 2.303497
600.1107, 1.974789
600.5928, 1.691071
601.0750, 1.563637
601.5571, 1.570747
602.0392, 1.532066
602.5213, 1.365990
603.0034, 1.263859
603.4855, 1.365646
603.9677, 1.703968
604.4498, 1.678699
604.9319, 1.182720
605.4140, 0.6570130
605.8961, 0.5338400
606.3782, 0.7598500
606.8604, 1.036919
607.3425, 1.344387
607.8246, 1.578304
608.3067, 1.656151
608.7888, 1.609386
609.2709, 1.500637
609.7531, 1.324356
610.2352, 1.134159
610.7173, 0.8358230
611.1994, 0.5357400
611.6815, 0.5241200
612.1636, 1.351265
612.6458, 2.043575
613.1279, 2.122459
613.6100, 1.546745
614.0921, 1.271053
614.5742, 1.594818
615.0563, 1.819481
615.5385, 1.418526
616.0206, 0.1513140
616.5027, 0.2451290
616.9848, 0.4301110
617.4669, 1.368893
617.9490, 1.583767
618.4312, 1.214340
618.9133, 0.9802440
619.3954, 1.057076
619.8775, 1.229053
620.3596, 1.392422
620.8417, 1.448330
621.3239, 1.180557
621.8060, 0.1194340
622.2881, 1.204746
622.7702, 1.137039
623.2523, 0.1872220
623.7344, 0.5133510
624.2166, 0.4358900
624.6987, 0.2796520
625.1808, 0.3744810
625.6629, 0.7609520
626.1450, 0.7747270
626.6271, 0.1156120
627.1093, 0.4312860
627.5914, 0.1095890
628.0735, 1.193153
628.5556, 1.593586
629.0377, 0.8284110
629.5198, 0.1771770
630.0020, 0.2400210
630.4841, 0.3645100
630.9662, 0.7531320
631.4483, 0.6232150
631.9304, 0.3772620
632.4125, 0.4108120
632.8947, 0.6164590
633.3768, 0.7795520
633.8589, 0.9893490
634.3410, 0.9625400
634.8231, 0.2957920
635.3052, 0.8313140
635.7874, 1.347744
636.2695, 0.4869650
636.7516, 0.2629050
637.2337, 0.2615280
637.7158, 0.5529370
638.1979, 0.5946920
638.6801, 0.3981590
639.1622, 1.411400
639.6443, 1.575260
640.1264, 0.9856760
640.6085, 0.4470560
641.0906, 1.4650000E-03
641.5728, 0.2534790
642.0549, 4.0690999E-02
642.5370, 0.4001460
643.0191, 0.5947380
643.5012, 0.2437480
643.9833, 4.0282998E-02
644.4655, 0.2311860
644.9476, 0.8123090
645.4297, 1.294388
645.9118, 1.698345
646.3939, 1.842106
646.8760, 1.537613
647.3582, 0.9114910
647.8403, 0.3942870
648.3224, 0.1698340
648.8045, 0.3036540
649.2866, 0.3335150
649.7687, 1.626049
650.2509, 2.494766
650.7330, 2.954159
651.2151, 2.910194
651.6972, 1.775528
652.1793, 0.1560970
652.6614, 0.3123320
653.1436, 0.5276640
653.6257, 1.555809
654.1078, 2.070129
654.5899, 2.213615
655.0720, 2.111942
655.5541, 1.664417
656.0363, 1.245594
656.5184, 0.9326480
657.0005, 0.7306790
657.4826, 0.6460990
657.9647, 0.6770440
658.4468, 0.8480260
658.9290, 1.295322
659.4111, 1.808952
659.8932, 1.761627
660.3753, 1.061218
660.8574, 0.5852930
661.3395, 0.7425990
661.8217, 1.286495
662.3038, 1.763988
662.7859, 2.136349
663.2680, 2.140209
663.7501, 1.077507
664.2322, 8.3557002E-02
664.7144, 0.2278330
665.1965, 0.6579400
665.6786, 1.375504
666.1607, 1.312115
666.6428, 0.9937550
667.1249, 0.7239460
667.6071, 0.5130880
668.0892, 0.4048310
668.5713, 0.3669200
669.0534, 0.4655720
669.5355, 0.8393550
670.0176, 1.575047
670.4998, 2.014191
670.9819, 2.073574
671.4640, 1.882397
671.9461, 1.462967
672.4282, 0.9213750
672.9103, 0.6732900
673.3925, 0.9897000
673.8746, 1.396614
674.3567, 1.370461
674.8388, 1.100658
675.3209, 0.8879320
675.8030, 0.7969630
676.2852, 0.8470040
676.7673, 1.128910
677.2494, 1.594677
677.7315, 1.945206
678.2136, 2.230408
678.6957, 2.308445
679.1779, 2.029003
679.6600, 1.401371
680.1421, 1.128658
680.6242, 1.344833
681.1063, 1.664295
681.5884, 1.710335
682.0706, 1.557465
682.5527, 1.490299
683.0348, 1.524002
683.5169, 1.653435
683.9990, 2.055191
684.4811, 2.455448
684.9633, 2.441715
685.4454, 1.784863
685.9275, 1.440491
686.4096, 2.134659
686.8917, 3.088001
687.3738, 3.411316
687.8560, 2.594219
688.3381, 2.093609
688.8202, 2.080639
689.3023, 2.279942
689.7844, 2.192410
690.2665, 1.786953
690.7487, 1.537750
691.2308, 1.618408
691.7129, 1.840546
692.1950, 1.744419
692.6771, 1.469299
693.1592, 1.470329
693.6414, 2.554104
694.1235, 3.686607
694.6056, 3.800983
695.0877, 3.098770
695.5698, 2.582878
696.0519, 2.660004
696.5341, 3.036961
697.0162, 3.678535
697.4983, 4.567558
697.9804, 5.098858
698.4625, 5.184376
698.9446, 5.084351
699.4268, 4.823227
699.9089, 4.453579
700.3910, 4.532055
700.8731, 5.072063
701.3552, 5.759949
701.8373, 6.378933
702.3195, 6.953876
702.8016, 7.569534
703.2837, 8.298256
703.7658, 8.636337
704.2479, 7.548244
704.7300, 6.304047
705.2122, 6.156933
705.6943, 8.270897
706.1764, 9.938881
706.6585, 10.76429
707.1406, 11.24982
707.6227, 11.90219
708.1049, 12.71564
708.5870, 13.70887
709.0691, 14.88108
709.5512, 16.22426
710.0333, 17.81666
710.5154, 19.56804
710.9976, 21.17358
711.4797, 22.30474
711.9618, 23.44765
712.4439, 24.91052
712.9260, 26.77044
713.4081, 29.24817
713.8903, 32.95321
714.3724, 36.76578
714.8545, 40.26976
715.3366, 43.54156
715.8187, 47.04058
716.3008, 50.94601
716.7830, 54.84598
717.2651, 58.73479
717.7472, 62.54473
718.2293, 65.51230
718.7114, 67.56221
719.1935, 70.01023
719.6757, 73.83475
720.1578, 78.60324
720.6399, 83.50729
721.1220, 88.51454
721.6041, 94.26041
722.0862, 101.1061
722.5684, 108.7003
723.0505, 116.6951
723.5326, 124.7137
724.0147, 134.3979
724.4968, 146.4747
724.9789, 159.7015
725.4611, 173.7077
725.9432, 188.7205
726.4253, 203.4034
726.9074, 217.6899
727.3895, 232.2793
727.8716, 249.2305
728.3538, 267.5677
728.8359, 283.3976
729.3180, 296.7790
729.8001, 304.5764
730.2822, 305.3609
730.7643, 298.4724
731.2465, 282.6067
731.7286, 252.5887
732.2107, 221.0938
732.6928, 189.1482
733.1749, 158.5302
733.6570, 132.0200
734.1392, 110.0065
734.6213, 91.99551
735.1034, 78.37259
735.5855, 68.17151
736.0676, 59.86889
736.5497, 53.44986
737.0319, 48.34684
737.5140, 44.65839
737.9961, 41.78136
738.4782, 39.00990
738.9603, 36.40805
739.4424, 34.15572
739.9246, 32.45179
740.4067, 30.93764
740.8888, 29.54924
741.3709, 28.24680
741.8530, 26.79697
742.3351, 24.77318
742.8173, 23.15845
743.2994, 22.40693
743.7815, 22.30091
744.2636, 21.64735
744.7457, 20.42147
745.2278, 18.98092
745.7100, 17.39981
746.1921, 15.80184
746.6742, 14.51271
747.1563, 13.47319
747.6384, 12.41921
748.1205, 10.91560
748.6027, 9.539223
749.0848, 8.870342
749.5669, 8.976738
750.0490, 8.620564
750.5311, 7.173241
751.0132, 5.765469
751.4954, 4.921337
751.9775, 4.679962
752.4596, 4.417404
752.9417, 4.113613
753.4238, 3.900444
753.9059, 4.052998
754.3881, 4.334343
754.8702, 3.969067
755.3523, 2.893414
755.8344, 1.921459
756.3165, 1.773357
756.7986, 1.933464
757.2808, 1.945072
757.7629, 1.692898
758.2450, 1.471169
758.7271, 1.229889
759.2092, 1.115757
759.6913, 1.302586
760.1735, 1.961781
760.6556, 2.154819
761.1377, 1.766361
761.6198, 1.204502
762.1019, 0.8250390
762.5840, 0.6368900
763.0662, 0.7653430
763.5483, 1.304550
764.0304, 1.756733
764.5125, 1.628666
764.9946, 1.207088
765.4767, 0.8130260
765.9589, 0.4871900
766.4410, 0.2425770
766.9231, 3.8077999E-02
767.4052, 0.1623690
767.8873, 0.2030560
768.3694, 1.334961
768.8516, 1.757980
769.3337, 1.116566
769.8158, 0.1797710
770.2979, 0.2405130
770.7800, 0.9993520
771.2621, 1.318687
771.7443, 0.7284850
772.2264, 4.1924000E-02
772.7085, 1.1292000E-02
773.1906, 0.3141590
773.6727, 0.4696040
774.1548, 7.1021996E-02
774.6370, 0.2494510
775.1191, 0.4426650
775.6012, 1.443527
776.0833, 1.828465
776.5654, 1.443035
777.0475, 1.095394
777.5297, 0.9328310
778.0118, 0.8820530
778.4939, 0.8087010
778.9760, 0.7318880
779.4581, 0.7457430
779.9402, 1.042633
780.4224, 1.207623
780.9045, 0.6412120
781.3866, 0.2555620
781.8687, 0.7236060
782.3508, 9.0384997E-02
782.8329, 0.5527080
783.3151, 9.8453999E-02
783.7972, 0.7964990
784.2793, 0.9995670
784.7614, 0.3554760
785.2435, 0.1348380
785.7256, 0.1649250
786.2077, 6.6413999E-02
786.6898, 0.2418400
787.1719, 0.3471640
787.6541, 0.3229370
788.1362, 6.1953999E-02
788.6183, 0.3861200
789.1004, 0.2265630
789.5825, 0.2124900
790.0646, 0.4161150
790.5468, 0.1246110
791.0289, 0.4124830
791.5110, 0.1178280
791.9931, 0.5218350
792.4752, 0.7167190
792.9573, 0.4129410
793.4395, 0.1909830
793.9216, 0.3807450
794.4037, 0.6370220
794.8858, 3.8601000E-02
795.3679, 1.098854
795.8500, 1.743874
796.3322, 0.6692960
796.8143, 0.3264010
797.2964, 0.1460690
797.7785, 1.581913
798.2606, 2.083813
798.7427, 0.5516820
799.2249, 0.5013280
799.7070, 0.3095280
800.1891, 0.6953320
800.6712, 1.056721
801.1533, 0.7651410
801.6354, 0.3626860
802.1176, 1.3985000E-02
802.5997, 0.2548520
803.0818, 0.4227520
803.5639, 0.4804800
804.0460, 0.4000590
804.5281, 6.0620001E-03
805.0103, 0.3733020
805.4924, 0.5359760
805.9745, 0.5215420
806.4566, 0.4913290
806.9387, 0.4100490
807.4208, 0.4030690
807.9030, 0.5583500
808.3851, 0.7765920
808.8672, 0.7213940
809.3493, 0.4197120
809.8314, 0.1137920
810.3135, 0.1874240
810.7957, 0.3383260
811.2778, 3.1086000E-02
811.7599, 0.5614430
812.2420, 0.9543950
812.7241, 0.6407700
813.2062, 0.4784320
813.6884, 0.8905490
814.1705, 1.645016
814.6526, 1.998981
815.1347, 1.893875
815.6168, 1.599590
816.0989, 1.047081
816.5811, 0.5200500
817.0632, 0.9187770
817.5453, 1.980629
818.0274, 2.629101
818.5095, 1.810844
818.9916, 0.9134180
819.4738, 0.9754910
819.9559, 1.669819
820.4380, 2.116432
820.9201, 1.861725
821.4022, 1.717083
821.8843, 1.875935
822.3665, 2.202175
822.8486, 2.340927
823.3307, 2.287220
823.8128, 2.156887
824.2949, 1.914505
824.7770, 1.720371
825.2592, 1.890530
825.7413, 2.305096
826.2234, 2.646755
826.7055, 2.723034
827.1876, 2.767551
827.6697, 2.932941
828.1519, 3.116531
828.6340, 3.071037
829.1161, 2.637814
829.5982, 2.353279
830.0803, 2.342117
830.5624, 2.486912
831.0446, 2.610790
831.5267, 2.698753
832.0088, 2.639042
832.4909, 2.241787
832.9730, 1.990112
833.4551, 2.411583
833.9373, 3.214363
834.4194, 3.926342
834.9015, 4.602730
835.3836, 4.924953
835.8657, 4.655117
836.3478, 4.177547
836.8300, 4.157921
837.3121, 4.676506
837.7942, 4.834362
838.2763, 4.418179
838.7584, 3.771877
839.2405, 3.130257
839.7227, 2.616196
840.2048, 2.647610
840.6869, 3.569275
841.1690, 4.364071
841.6511, 4.443554
842.1332, 4.157509
842.6154, 3.930492
843.0975, 3.750206
843.5796, 3.609680
844.0617, 3.500179
844.5438, 3.433262
845.0259, 3.418503
845.5081, 3.470539
845.9902, 3.702175
846.4723, 4.159927
846.9544, 4.480438
847.4365, 4.165298
847.9186, 3.622204
848.4008, 3.347797
848.8829, 3.502254
849.3650, 3.633698
849.8471, 3.696274
850.3292, 3.669571
850.8113, 3.518780
851.2935, 3.210426
851.7756, 3.025131
852.2577, 2.967514
852.7398, 3.080189
853.2219, 3.453907
853.7040, 3.909733
854.1862, 4.041126
854.6683, 3.758877
855.1504, 3.871845
855.6325, 5.246872
856.1146, 6.705830
856.5967, 7.514908
857.0789, 7.618542
857.5610, 7.273468
858.0431, 6.238815
858.5252, 5.497234
859.0073, 5.899666
859.4894, 7.122868
859.9716, 8.232136
860.4537, 9.172634
860.9358, 9.485302
861.4179, 8.114292
861.9000, 6.676819
862.3821, 6.460205
862.8643, 7.439037
863.3464, 8.091969
863.8285, 8.157768
864.3106, 8.114647
864.7927, 8.143085
865.2748, 8.192406
865.7570, 8.016495
866.2391, 7.620667
866.7212, 7.116581
867.2033, 6.511364
867.6854, 5.858009
868.1675, 5.026440
868.6497, 4.164585
869.1318, 3.745441
869.6139, 4.512234
870.0960, 4.998867
870.5781, 4.737164
871.0602, 3.999996
871.5424, 3.399879
872.0245, 2.919003
872.5066, 2.789505
872.9887, 3.215206
873.4708, 3.746635
873.9529, 3.528397
874.4351, 2.900639
874.9172, 2.644848
875.3993, 3.452381
875.8814, 4.020020
876.3635, 3.625999
876.8456, 2.819134
877.3278, 2.352871
877.8099, 2.303680
878.2920, 2.372162
878.7741, 2.609604
879.2562, 2.802280
879.7383, 2.519764
880.2205, 1.956844
880.7026, 1.720928
881.1847, 1.965073
881.6668, 2.212730
882.1489, 2.074242
882.6310, 1.848232
883.1132, 1.786564
883.5953, 1.909260
884.0774, 2.297039
884.5595, 3.189964
885.0416, 3.913406
885.5237, 3.684364
886.0059, 2.729759
886.4880, 2.671795
886.9701, 3.534019
887.4522, 4.303162
887.9343, 3.938122
888.4164, 3.391251
888.8986, 3.642471
889.3807, 4.734024
889.8628, 5.281635
890.3449, 4.725285
890.8270, 4.111996
891.3091, 3.808666
891.7913, 3.778114
892.2734, 3.847290
892.7555, 4.013916
893.2376, 4.183777
893.7197, 4.189022
894.2018, 4.256493
894.6840, 4.901402
895.1661, 5.831387
895.6482, 6.202545
896.1303, 5.144436
896.6124, 4.234890
897.0945, 3.790855
897.5767, 3.698036
898.0588, 3.720654
898.5409, 3.859432
899.0230, 4.183865
899.5051, 4.773323
899.9872, 5.393036
900.4694, 5.872173
900.9515, 6.151321
901.4336, 6.105785
901.9157, 5.550369
902.3978, 4.983192
902.8799, 4.520325
903.3621, 4.130806
903.8442, 3.775959
904.3263, 3.446266
904.8084, 3.177544
905.2905, 2.952644
905.7726, 2.890461
906.2548, 3.204884
906.7369, 3.717106
907.2190, 4.207119
907.7011, 4.660175
908.1832, 4.823826
908.6653, 4.335934
909.1475, 3.796589
909.6296, 3.533878
910.1117, 3.522781
910.5938, 3.420940
911.0759, 3.217365
911.5580, 3.074257
912.0402, 3.083065
912.5223, 3.214481
913.0044, 3.505508
913.4865, 3.899883
913.9686, 4.128471
914.4507, 3.969303
914.9329, 3.721947
915.4150, 3.400753
915.8971, 3.098755
916.3792, 3.070129
916.8613, 3.390839
917.3434, 3.707577
917.8256, 3.951057
918.3077, 4.089966
918.7898, 4.089607
919.2719, 3.973881
919.7540, 3.755138
920.2361, 3.417725
920.7183, 3.196339
921.2004, 3.254120
921.6825, 3.369915
922.1646, 3.315147
922.6467, 3.060501
923.1288, 2.878101
923.6110, 2.769100
924.0931, 2.771626
924.5752, 3.027851
925.0573, 3.393440
925.5394, 3.527336
926.0215, 3.384190
926.5037, 3.125217
926.9858, 2.746216
927.4679, 2.470360
927.9500, 2.482708
928.4321, 2.785263
928.9142, 3.169170
929.3964, 3.665051
929.8785, 3.877869
930.3606, 3.506706
930.8427, 2.899670
931.3248, 2.836452
931.8069, 3.185299
932.2891, 3.511307
932.7712, 3.721962
933.2533, 3.754425
933.7354, 3.293781
934.2175, 2.713562
934.6996, 2.831490
935.1818, 4.037819
935.6639, 4.413857
936.1460, 3.547436
936.6281, 2.272297
937.1102, 1.512550
937.5923, 1.256142
938.0745, 1.560596
938.5566, 2.545441
939.0387, 3.477463
939.5208, 4.022953
940.0029, 4.334293
940.4850, 4.527519
940.9672, 4.613308
941.4493, 4.331066
941.9314, 3.596428
942.4135, 2.996067
942.8956, 3.004173
943.3777, 3.384029
943.8599, 3.813545
944.3420, 4.217724
944.8241, 4.305874
945.3062, 3.679771
945.7883, 2.980759
946.2704, 2.335037
946.7526, 1.855595
947.2347, 1.945545
947.7168, 2.710728
948.1989, 3.255222
948.6810, 3.331432
949.1631, 3.131027
949.6453, 2.793213
950.1274, 2.421547
950.6095, 2.233971
951.0916, 2.425255
951.5737, 2.497391
952.0558, 1.965557
952.5380, 1.514408
953.0201, 1.767265
953.5022, 2.857239
953.9843, 3.654305
954.4664, 4.133823
954.9485, 4.320778
955.4307, 4.098625
955.9128, 3.672546
956.3949, 3.280659
956.8770, 2.937382
957.3591, 2.608784
957.8412, 2.049938
958.3234, 1.806458
958.8055, 2.200371
959.2876, 2.988613
959.7697, 3.183708
960.2518, 2.799545
960.7339, 2.485683
961.2161, 2.489662
961.6982, 2.630924
962.1803, 2.822536
962.6624, 2.987076
963.1445, 3.005848
963.6266, 2.609703
964.1088, 2.455841
964.5909, 2.803577
965.0730, 3.101643
965.5551, 2.668205
966.0372, 1.602005
966.5193, 0.6774940
967.0015, 5.1144000E-02
967.4836, 0.3336110
967.9657, 0.5152020
968.4478, 1.527691
968.9299, 1.777733
969.4120, 1.213493
969.8942, 1.072823
970.3763, 1.692638
970.8584, 2.133228
971.3405, 1.982521
971.8226, 1.492931
972.3047, 1.421356
972.7869, 1.646000
973.2690, 1.652283
973.7511, 0.9870910
974.2332, 0.4031790
974.7153, 0.2908400
975.1974, 0.5257990
975.6796, 1.008965
976.1617, 2.112926
976.6438, 2.239552
977.1259, 1.100475
977.6080, 0.2702940
978.0901, 0.9219210
978.5723, 0.9832340
979.0544, 0.5156060
979.5365, 0.4573360
980.0186, 1.153931
980.5007, 1.020935
980.9828, 0.6611330
981.4650, 0.3137550
981.9471, 4.4860002E-03
982.4291, 0.2680400
982.9113, 0.5018810
983.3934, 0.3345450
983.8755, 0.6795620
984.3576, 1.721466
984.8397, 1.628490
985.3218, 0.7859730
985.8040, 9.9068001E-02
986.2861, 1.224846
986.7682, 1.715889
987.2503, 1.129204
987.7324, 0.2925070
988.2145, 7.4588999E-02
988.6967, 0.4439390
989.1788, 0.8075940
989.6609, 1.126598
990.1430, 1.428959
990.6251, 1.781349
991.1072, 2.096310
991.5894, 2.350323
992.0715, 2.529621
992.5536, 2.424553
993.0357, 1.914467
993.5178, 1.322575
993.9999, 0.6499750
994.4821, 9.9701002E-02
994.9642, 0.2718240
995.4463, 0.9821240
995.9284, 1.620480
996.4105, 1.969303
996.8926, 2.182690
997.3748, 2.373871
997.8569, 2.456486
998.3390, 2.308498
998.8211, 1.798603
999.3032, 1.551769
999.7853, 1.621349
1000.267, 1.778507
1000.750, 1.885948
1001.232, 1.906990
1001.714, 1.759502
1002.196, 1.461628
1002.678, 1.153389
1003.160, 0.7479060
1003.642, 0.5595820
1004.124, 0.7974550
1004.607, 1.256275
1005.089, 1.359005
1005.571, 1.094852
1006.053, 0.6227040
1006.535, 0.1118890
1007.017, 0.7300190
1007.499, 0.7026290
1007.981, 0.4561770
1008.463, 0.5319900
1008.946, 1.269756
1009.428, 1.674587
1009.910, 1.496120
1010.392, 1.444878
1010.874, 2.309586
1011.356, 3.737976
1011.838, 4.233536
1012.320, 3.905483
1012.802, 3.453094
1013.285, 2.938549
1013.767, 2.731998
1014.249, 3.104557
1014.731, 3.901108
1015.213, 4.941174
1015.695, 6.380062
1016.177, 6.885090
1016.659, 6.017200
1017.142, 5.134052
1017.624, 6.248913
1018.106, 8.175896
1018.588, 9.205444
1019.070, 8.911949
1019.552, 8.764565
1020.034, 9.024696
1020.516, 9.559120
1020.998, 10.40992
1021.481, 11.48300
1021.963, 12.26151
1022.445, 12.78271
1022.927, 13.21810
1023.409, 13.46313
1023.891, 13.85012
1024.373, 14.78450
1024.855, 15.94429
1025.338, 16.76222
1025.820, 17.04554
1026.302, 17.73250
1026.784, 18.92807
1027.266, 20.18671
1027.748, 20.90797
1028.230, 21.48286
1028.712, 22.76244
1029.194, 24.74428
1029.677, 26.44698
1030.159, 27.12921
1030.641, 27.86885
1031.123, 29.06729
1031.605, 30.59208
1032.087, 32.12355
1032.569, 33.65844
1033.051, 35.03471
1033.534, 36.18262
1034.016, 37.16122
1034.498, 37.96894
1034.980, 38.66839
1035.462, 39.18464
1035.944, 39.19048
1036.426, 40.26232
1036.908, 42.74230
1037.391, 45.47640
1037.873, 47.75164
1038.355, 49.53480
1038.837, 50.34471
1039.319, 50.46325
1039.801, 51.11803
1040.283, 53.43391
1040.765, 55.73972
1041.247, 57.66764
1041.729, 59.25048
1042.212, 60.32226
1042.694, 60.86449
1043.176, 61.67910
1043.658, 62.87166
1044.140, 64.21466
1044.622, 65.56387
1045.104, 67.11835
1045.586, 69.22675
1046.069, 71.95536
1046.551, 73.74094
1047.033, 74.02699
1047.515, 74.70193
1047.997, 76.72149
1048.479, 79.31099
1048.961, 80.74896
1049.443, 81.38360
1049.926, 82.13216
1050.408, 83.50734
1050.890, 84.74316
1051.372, 84.90836
1051.854, 85.36366
1052.336, 87.52960
1052.818, 91.55352
1053.300, 93.75981
1053.782, 94.10369
1054.265, 94.63138
1054.747, 97.17411
1055.229, 100.2079
1055.711, 102.4038
1056.193, 104.0194
1056.675, 106.1091
1057.157, 108.6687
1057.639, 111.8797
1058.121, 116.0135
1058.604, 120.1849
1059.086, 122.6631
1059.568, 124.4232
1060.050, 127.4810
1060.532, 132.2025
1061.014, 137.5263
1061.496, 143.3316
1061.978, 149.2480
1062.461, 155.0058
1062.943, 160.7321
1063.425, 167.3169
1063.907, 174.7347
1064.389, 182.2877
1064.871, 189.4326
1065.353, 197.2334
1065.835, 206.5134
1066.318, 216.8947
1066.800, 228.1889
1067.282, 240.2771
1067.764, 253.5883
1068.246, 268.2499
1068.728, 282.9980
1069.210, 295.6852
1069.692, 308.4856
1070.174, 325.0895
1070.656, 344.9567
1071.139, 366.0307
1071.621, 386.7914
1072.103, 409.9907
1072.585, 436.1252
1073.067, 464.9283
1073.549, 495.7616
1074.031, 528.9153
1074.513, 568.4081
1074.996, 614.5078
1075.478, 665.2832
1075.960, 717.8849
1076.442, 775.7388
1076.924, 839.9260
1077.406, 911.1372
1077.888, 990.5153
1078.370, 1078.154
1078.853, 1171.217
1079.335, 1267.312
1079.817, 1369.635
1080.299, 1484.135
1080.781, 1607.711
1081.263, 1734.625
1081.745, 1864.978
1082.227, 2001.911
1082.709, 2144.769
1083.192, 2295.048
1083.674, 2456.698
1084.156, 2626.871
1084.638, 2797.063
1085.120, 2969.569
1085.602, 3156.629
1086.084, 3367.710
1086.566, 3591.682
1087.048, 3827.777
1087.531, 4073.120
1088.013, 4325.166
1088.495, 4584.822
1088.977, 4854.492
1089.459, 5135.305
1089.941, 5403.767
1090.423, 5667.973
1090.905, 5891.335
1091.387, 6054.862
1091.870, 6155.383
1092.352, 6186.880
1092.834, 6151.690
1093.316, 6032.084
1093.798, 5820.347
1094.280, 5536.598
1094.762, 5178.136
1095.244, 4775.812
1095.727, 4358.491
1096.209, 3928.986
1096.691, 3521.440
1097.173, 3137.169
1097.655, 2783.553
1098.137, 2463.931
1098.619, 2178.073
1099.101, 1927.019
1099.583, 1711.229
1100.066, 1520.205
1100.548, 1354.332
1101.030, 1207.259
1101.512, 1081.220
1101.994, 970.8126
1102.476, 874.2409
1102.958, 791.7795
1103.440, 716.3319
1103.922, 648.2139
1104.405, 587.2780
1104.887, 533.9028
1105.369, 486.3280
1105.851, 443.8534
1106.333, 406.0636
1106.815, 372.5833
1107.297, 343.7827
1107.779, 316.4565
1108.262, 290.0137
1108.744, 265.8123
1109.226, 245.1268
1109.708, 226.8735
1110.190, 209.9091
1110.672, 194.2333
1111.154, 179.5175
1111.636, 165.4941
1112.119, 153.0867
1112.601, 142.6589
1113.083, 133.3748
1113.565, 123.5496
1114.047, 113.8790
1114.529, 105.8417
1115.011, 99.77181
1115.493, 93.97319
1115.975, 88.10977
1116.458, 82.35931
1116.940, 76.57404
1117.422, 71.02773
1117.904, 66.85425
1118.386, 63.68847
1118.868, 59.88591
1119.350, 54.06402
1119.832, 49.16413
1120.314, 47.37483
1120.797, 46.24104
1121.279, 43.84429
1121.761, 40.19740
1122.243, 36.94046
1122.725, 34.07675
1123.207, 31.67953
1123.689, 30.21448
1124.171, 28.79595
1124.654, 26.51383
1125.136, 24.02418
1125.618, 22.64958
1126.100, 22.80478
1126.582, 21.70856
1127.064, 19.06025
1127.546, 16.40834
1128.028, 15.17934
1128.510, 14.55873
1128.993, 13.81551
1129.475, 12.93758
1129.957, 11.99396
1130.439, 10.90414
1130.921, 10.02055
1131.403, 9.447628
1131.885, 8.959396
1132.367, 8.245716
1132.849, 7.434193
1133.332, 6.690895
1133.814, 6.037460
1134.296, 5.407330
1134.778, 4.740868
1135.260, 4.186382
1135.742, 3.810699
1136.224, 3.561146
1136.706, 3.308479
1137.189, 3.073536
1137.671, 2.937073
1138.153, 2.989063
1138.635, 2.830048
1139.117, 2.091499
1139.599, 1.333138
1140.081, 0.8590430
1140.563, 0.5890390
1141.046, 1.0830000E-03
1141.528, 0.8187790
1142.010, 1.478951
1142.492, 1.884998
1142.974, 1.961044
1143.456, 1.199223
1143.938, 0.4430120
1144.420, 0.5352480
1144.902, 1.529797
1145.385, 2.025589
1145.867, 2.039177
1146.349, 1.934620
1146.831, 1.896168
1147.313, 1.851089
1147.795, 1.638763
1148.277, 1.433468
1148.759, 1.584167
1149.241, 2.250286
1149.724, 2.317451
1150.206, 1.674454
1150.688, 1.145271
1151.170, 1.678810
1151.652, 2.432808
1152.134, 2.685028
1152.616, 2.467766
1153.098, 1.942554
1153.581, 0.8307000
1154.063, 0.5356330
1154.545, 1.401791
1155.027, 2.397167
1155.509, 2.322487
1155.991, 1.717056
1156.473, 1.057953
1156.955, 0.4111600
1157.438, 0.2731130
1157.920, 0.9710690
1158.402, 1.429138
1158.884, 1.383774
1159.366, 1.023640
1159.848, 0.3119430
1160.330, 0.4077150
1160.812, 0.3955570
1161.294, 0.5665250
1161.776, 1.076984
1162.259, 0.5854070
1162.741, 0.1534810
1163.223, 0.2261580
1163.705, 0.4963040
1164.187, 0.1480330
1164.669, 0.5320740
1165.151, 0.8309750
1165.633, 0.4384190
1166.116, 0.1179960
1166.598, 9.1872998E-02
1167.080, 0.1480450
1167.562, 0.1502800
1168.044, 0.1729850
1168.526, 0.5977900
1169.008, 1.284382
1169.490, 1.737099
1169.973, 1.657944
1170.455, 1.566078
1170.937, 1.626762
1171.419, 1.755833
1171.901, 1.924984
1172.383, 2.119503
1172.865, 2.194237
1173.347, 2.190647
1173.829, 2.327805
1174.312, 3.078461
1174.794, 3.546440
1175.276, 2.991154
1175.758, 2.273800
1176.240, 2.328148
1176.722, 3.109966
1177.204, 3.273609
1177.686, 2.842728
1178.168, 2.469715
1178.651, 2.547672
1179.133, 2.822159
1179.615, 3.129669
1180.097, 3.546021
1180.579, 4.362743
1181.061, 5.584614
1181.543, 6.148838
1182.025, 5.976635
1182.508, 5.726028
1182.990, 5.978092
1183.472, 6.224251
1183.954, 6.106373
1184.436, 5.740509
1184.918, 5.298592
1185.400, 4.759064
1185.882, 4.725033
1186.365, 5.317619
1186.847, 5.869408
1187.329, 5.782963
1187.811, 5.480812
1188.293, 5.182240
1188.775, 4.954842
1189.257, 5.038185
1189.739, 5.461380
1190.221, 5.812553
1190.703, 6.005692
1191.186, 6.154697
1191.668, 6.618778
1192.150, 6.880310
1192.632, 6.163406
1193.114, 4.658966
1193.596, 4.263786
1194.078, 5.123375
1194.560, 5.654667
1195.043, 5.333462
1195.525, 4.854572
1196.007, 4.867916
1196.489, 5.122520
1196.971, 5.401142
1197.453, 5.684052
1197.935, 5.915730
1198.417, 6.089542
1198.900, 6.288677
1199.382, 6.575203
1199.864, 6.763481
1200.346, 6.696457
1200.828, 6.418522
1201.310, 5.884590
1201.792, 5.014198
1202.274, 4.710835
1202.756, 4.979053
1203.239, 5.427116
1203.721, 6.058159
1204.203, 6.533562
1204.685, 6.354099
1205.167, 5.835415
1205.649, 5.376812
1206.131, 4.979813
1206.613, 4.853634
1207.095, 5.005043
1207.578, 5.075394
1208.060, 4.671124
1208.542, 4.403301
1209.024, 5.236546
1209.506, 6.449276
1209.988, 6.876602
1210.470, 6.281887
1210.952, 5.887798
1211.435, 5.780907
1211.917, 5.406071
1212.399, 3.795666
1212.881, 2.223385
1213.363, 2.439117
1213.845, 3.632565
1214.327, 4.235893
1214.809, 3.954113
1215.292, 3.676182
1215.774, 3.335552
1216.256, 3.184238
1216.738, 3.734566
1217.220, 4.380405
1217.702, 4.374794
1218.184, 3.974297
1218.666, 3.645363
1219.148, 3.368183
1219.630, 3.094391
1220.113, 2.881176
1220.595, 2.770393
1221.077, 2.862209
1221.559, 2.944660
1222.041, 2.835800
1222.523, 2.637074
1223.005, 2.533802
1223.487, 2.506794
1223.970, 2.563309
1224.452, 2.740208
1224.934, 2.801666
1225.416, 2.358101
1225.898, 1.890587
1226.380, 1.871643
1226.862, 2.206146
1227.344, 2.530201
1227.827, 2.912247
1228.309, 2.885784
1228.791, 2.369038
1229.273, 1.899105
1229.755, 1.937889
1230.237, 2.099495
1230.719, 2.021694
1231.201, 1.798016
1231.683, 1.945824
1232.166, 2.540268
1232.648, 2.549751
1233.130, 1.821125
1233.612, 1.156189
1234.094, 1.242672
1234.576, 1.595768
1235.058, 2.090523
1235.540, 2.518600
1236.022, 2.206745
1236.505, 1.130386
1236.987, 1.059788
1237.469, 2.290356
1237.951, 3.283138
1238.433, 2.392147
1238.915, 1.306255
1239.397, 1.246449
1239.879, 1.773319
1240.362, 2.039955
1240.844, 2.057484
1241.326, 1.982468
1241.808, 1.832115
1242.290, 1.714497
1242.772, 1.707500
1243.254, 1.719730
1243.736, 1.687897
1244.219, 1.688301
1244.701, 2.116718
1245.183, 2.833942
1245.665, 2.924095
1246.147, 2.178131
1246.629, 1.405781
1247.111, 0.9433670
1247.593, 0.6592480
1248.075, 0.4548570
1248.557, 0.3228380
1249.040, 0.5809060
1249.522, 1.063942
1250.004, 1.339912
1250.486, 1.354923
1250.968, 1.248756
1251.450, 0.8410380
1251.932, 0.6477580
1252.414, 0.9065860
1252.897, 1.417435
1253.379, 1.771873
1253.861, 2.005192
1254.343, 2.260868
1254.825, 2.559971
1255.307, 2.566952
1255.789, 1.982578
1256.271, 1.337570
1256.754, 0.6353340
1257.236, 0.1836850
1257.718, 0.8206860
1258.200, 2.001785
1258.682, 2.585796
1259.164, 2.409203
1259.646, 2.061241
1260.128, 1.376411
1260.610, 0.9850690
1261.093, 1.178696
1261.575, 1.546745
1262.057, 1.661839
1262.539, 1.658173
1263.021, 1.810066
1263.503, 2.179348
1263.985, 2.235683
1264.467, 1.833897
1264.949, 1.615730
1265.432, 1.786087
1265.914, 2.064941
1266.396, 2.234459
1266.878, 2.344154
1267.360, 2.318752
1267.842, 2.123432
1268.324, 1.895145
1268.806, 1.594246
1269.289, 1.601334
1269.771, 2.154240
1270.253, 2.563011
1270.735, 1.938862
1271.217, 1.109871
1271.699, 0.7280500
1272.181, 0.7443580
1272.663, 0.9475670
1273.146, 1.325607
1273.628, 1.175957
1274.110, 0.1304890
1274.592, 0.6119650
1275.074, 3.7620999E-02
1275.556, 1.163883
1276.038, 2.370056
1276.520, 3.458065
1277.002, 3.611031
1277.484, 2.960560
1277.967, 2.158894
1278.449, 1.346794
1278.931, 0.7753450
1279.413, 0.1112290
1279.895, 0.3680500
1280.377, 0.7364080
1280.859, 1.147285
1281.341, 1.592503
1281.823, 2.023594
1282.306, 1.837944
1282.788, 0.7901880
1283.270, 0.0000000E+00
##END=



