##NAMES=Sodalite
##RRUFFID=R040141
##IDEAL CHEMISTRY=Na_4_Si_3_Al_3_O_12_Cl
##LOCALITY=Princess Sodalite mine, Bancroft, Ontario, Canada
##OWNER=RRUFF
##SOURCE=University of Arizona Mineral Museum
##DESCRIPTION=Blue grains in a coarsely crystalline rock
##STATUS=The identification of this mineral has been confirmed by X-ray diffraction and chemical analysis
##URL=rruff.info/R040141
##MEASURED CHEMISTRY=Na_7.86_Al_6.00_Si_6.03_O_24_Cl_2.02_
148.0179, 0.0000000E+00
148.5001, 1.765503
148.9822, 6.535278
149.4643, 20.17346
149.9464, 35.29138
150.4285, 53.76660
150.9106, 79.06128
151.3928, 109.1738
151.8749, 135.4141
152.3570, 158.0439
152.8391, 175.1165
153.3212, 182.1025
153.8033, 178.0632
154.2855, 174.6284
154.7676, 184.3081
155.2497, 203.0725
155.7318, 213.4673
156.2139, 207.2305
156.6960, 193.8962
157.1782, 182.9878
157.6603, 174.6450
158.1424, 169.9814
158.6245, 168.5037
159.1066, 171.2173
159.5887, 182.3186
160.0709, 205.8118
160.5530, 237.1074
161.0351, 266.9949
161.5172, 292.0376
161.9993, 327.1194
162.4814, 389.1416
162.9636, 468.2656
163.4457, 550.3579
163.9278, 639.3979
164.4099, 725.5994
164.8920, 788.8647
165.3741, 824.5706
165.8563, 848.9075
166.3384, 874.1372
166.8205, 895.4858
167.3026, 903.0095
167.7847, 889.3457
168.2668, 860.4197
168.7490, 829.1736
169.2311, 796.7810
169.7132, 758.6926
170.1953, 708.4377
170.6774, 651.9839
171.1595, 597.8701
171.6417, 546.3054
172.1238, 501.0957
172.6059, 474.6777
173.0880, 477.2136
173.5701, 478.4363
174.0522, 461.6743
174.5344, 435.7729
175.0165, 413.6243
175.4986, 402.8162
175.9807, 398.9294
176.4628, 389.9182
176.9449, 374.6702
177.4271, 355.6362
177.9092, 331.3765
178.3913, 305.1758
178.8734, 281.4495
179.3555, 263.2000
179.8376, 249.3916
180.3197, 236.6501
180.8019, 227.0276
181.2840, 221.5789
181.7661, 221.4382
182.2482, 218.0078
182.7303, 203.1650
183.2124, 168.7317
183.6946, 124.4375
184.1767, 97.84424
184.6588, 99.32812
185.1409, 102.3203
185.6230, 99.91016
186.1051, 94.62451
186.5873, 89.14771
187.0694, 84.56494
187.5515, 80.93677
188.0336, 79.39844
188.5157, 84.69141
188.9978, 83.17090
189.4800, 64.66626
189.9621, 41.97803
190.4442, 28.60840
190.9263, 30.85742
191.4084, 43.73828
191.8905, 55.98584
192.3727, 69.89966
192.8548, 78.66943
193.3369, 80.22559
193.8190, 77.60425
194.3011, 72.67871
194.7832, 66.11377
195.2654, 59.78101
195.7475, 58.14600
196.2296, 64.89478
196.7117, 69.59741
197.1938, 73.10840
197.6759, 73.29663
198.1581, 66.07739
198.6402, 50.40820
199.1223, 32.60400
199.6044, 25.22705
200.0865, 35.31909
200.5686, 42.08936
201.0508, 39.99854
201.5329, 36.76611
202.0150, 40.10864
202.4971, 51.62231
202.9792, 64.11035
203.4613, 64.74878
203.9435, 45.22510
204.4256, 32.50586
204.9077, 32.47632
205.3898, 35.32202
205.8719, 30.80933
206.3540, 20.83252
206.8362, 10.70703
207.3183, 8.707031
207.8004, 20.17285
208.2825, 25.74268
208.7646, 24.09839
209.2467, 18.34644
209.7289, 7.369385
210.2110, 7.416504
210.6931, 20.64502
211.1752, 25.15942
211.6573, 17.72974
212.1395, 13.53662
212.6216, 11.21143
213.1037, 12.99268
213.5858, 24.45264
214.0679, 42.77954
214.5500, 57.83716
215.0322, 58.27637
215.5143, 41.13745
215.9964, 29.20288
216.4785, 26.89185
216.9606, 25.51221
217.4427, 21.73535
217.9249, 15.96655
218.4070, 10.48999
218.8891, 7.605469
219.3712, 7.466064
219.8533, 4.215088
220.3354, 5.120361
220.8176, 14.87183
221.2997, 23.92480
221.7818, 32.22437
222.2639, 39.95044
222.7460, 46.99072
223.2281, 53.58618
223.7103, 61.07056
224.1924, 73.22681
224.6745, 81.98438
225.1566, 79.67920
225.6387, 74.10498
226.1208, 78.74219
226.6030, 102.8940
227.0851, 139.4124
227.5672, 157.7136
228.0493, 143.3901
228.5314, 128.9685
229.0135, 115.2119
229.4957, 106.0696
229.9778, 106.0845
230.4599, 117.3977
230.9420, 137.5315
231.4241, 162.3474
231.9062, 202.3445
232.3884, 227.6011
232.8705, 228.7952
233.3526, 219.0828
233.8347, 208.0427
234.3168, 199.1340
234.7989, 193.1487
235.2811, 192.7893
235.7632, 203.3164
236.2453, 206.7390
236.7274, 195.4587
237.2095, 181.8013
237.6916, 174.5208
238.1738, 175.0015
238.6559, 177.8125
239.1380, 173.3899
239.6201, 155.4612
240.1022, 154.1687
240.5843, 189.5596
241.0665, 226.2371
241.5486, 245.1465
242.0307, 247.3423
242.5128, 247.7749
242.9949, 262.0942
243.4770, 291.9456
243.9592, 316.2427
244.4413, 329.0830
244.9234, 341.9001
245.4055, 358.5615
245.8876, 378.7322
246.3697, 400.6938
246.8519, 424.5256
247.3340, 449.6819
247.8161, 468.9644
248.2982, 475.5640
248.7803, 485.5459
249.2624, 504.5386
249.7446, 530.3062
250.2267, 559.5413
250.7088, 591.9304
251.1909, 625.3569
251.6730, 651.7168
252.1551, 662.2461
252.6373, 684.4370
253.1194, 734.5410
253.6015, 796.2390
254.0836, 853.0852
254.5657, 899.4194
255.0478, 937.7466
255.5300, 968.7168
256.0121, 987.4604
256.4942, 1017.208
256.9763, 1071.698
257.4584, 1135.865
257.9406, 1203.232
258.4227, 1272.719
258.9048, 1337.116
259.3869, 1389.401
259.8690, 1429.455
260.3511, 1461.345
260.8333, 1478.800
261.3154, 1494.301
261.7975, 1519.574
262.2796, 1554.176
262.7617, 1585.994
263.2438, 1610.345
263.7260, 1626.194
264.2081, 1625.692
264.6902, 1602.409
265.1723, 1569.582
265.6544, 1536.772
266.1365, 1503.723
266.6187, 1468.854
267.1008, 1432.016
267.5829, 1392.407
268.0650, 1349.602
268.5471, 1304.839
269.0292, 1251.395
269.5114, 1171.497
269.9935, 1081.611
270.4756, 1011.228
270.9577, 979.6382
271.4398, 962.5205
271.9219, 929.6973
272.4041, 878.6504
272.8862, 829.6201
273.3683, 796.6787
273.8504, 773.9478
274.3325, 748.6841
274.8146, 716.7207
275.2968, 688.7612
275.7789, 676.0947
276.2610, 674.8594
276.7431, 666.8638
277.2252, 641.1904
277.7073, 611.2358
278.1895, 601.7656
278.6716, 616.3389
279.1537, 629.2769
279.6358, 631.2456
280.1179, 625.9355
280.6000, 616.9644
281.0822, 601.9653
281.5643, 591.1655
282.0464, 601.8198
282.5285, 636.1152
283.0106, 666.3398
283.4927, 688.1074
283.9749, 705.6729
284.4570, 719.6753
284.9391, 731.0781
285.4212, 748.4751
285.9033, 781.0854
286.3854, 828.9810
286.8676, 867.9653
287.3497, 885.5728
287.8318, 905.0020
288.3139, 935.4253
288.7960, 977.1567
289.2781, 1031.104
289.7603, 1100.034
290.2424, 1179.039
290.7245, 1243.375
291.2066, 1286.056
291.6887, 1322.549
292.1708, 1357.399
292.6530, 1385.164
293.1351, 1401.604
293.6172, 1404.711
294.0993, 1391.504
294.5814, 1355.922
295.0635, 1289.372
295.5457, 1213.068
296.0278, 1121.951
296.5099, 1026.039
296.9920, 928.6440
297.4741, 832.2495
297.9562, 744.4683
298.4384, 673.6650
298.9205, 623.5698
299.4026, 565.1499
299.8847, 478.7280
300.3668, 403.8374
300.8489, 357.4985
301.3311, 333.3096
301.8131, 316.8960
302.2953, 299.7324
302.7774, 281.6226
303.2595, 261.4668
303.7416, 238.0317
304.2237, 214.2837
304.7058, 187.0845
305.1880, 161.4766
305.6701, 142.8794
306.1522, 133.3682
306.6343, 130.7686
307.1164, 133.5151
307.5985, 144.4014
308.0807, 149.8398
308.5628, 139.8433
309.0449, 128.4551
309.5270, 124.2144
310.0091, 127.8823
310.4912, 134.5791
310.9734, 143.9111
311.4555, 154.7817
311.9376, 152.7676
312.4197, 126.9521
312.9018, 102.4209
313.3839, 99.63672
313.8661, 110.6167
314.3482, 114.3154
314.8303, 95.64600
315.3124, 66.37305
315.7945, 47.72705
316.2766, 41.28809
316.7588, 36.17822
317.2409, 24.49268
317.7230, 11.39746
318.2051, 6.159180
318.6872, 14.12402
319.1693, 22.59766
319.6515, 21.25391
320.1336, 12.04102
320.6157, 3.080078
321.0978, 3.493164
321.5799, 7.329590
322.0620, 7.044434
322.5442, 1.722168
323.0263, 1.598633
323.5084, 0.9550780
323.9905, 5.734863
324.4726, 8.565430
324.9547, 8.725098
325.4369, 6.081055
325.9190, 0.6787110
326.4011, 12.15479
326.8832, 17.02246
327.3653, 13.63477
327.8474, 5.360840
328.3296, 15.09473
328.8117, 40.12598
329.2938, 47.21729
329.7759, 21.02783
330.2580, 30.37402
330.7401, 67.90186
331.2223, 93.31592
331.7044, 103.1304
332.1865, 86.59521
332.6686, 59.40918
333.1507, 35.90771
333.6328, 20.98193
334.1150, 14.00928
334.5971, 15.14307
335.0792, 27.80908
335.5613, 39.28516
336.0434, 60.33789
336.5255, 71.83350
337.0077, 55.13330
337.4898, 18.05615
337.9719, 14.35596
338.4540, 21.37793
338.9361, 5.718262
339.4182, 8.758301
339.9004, 24.86621
340.3825, 34.90967
340.8646, 33.83105
341.3467, 27.28662
341.8288, 22.80029
342.3109, 23.72363
342.7931, 25.40186
343.2752, 18.73145
343.7573, 1.453613
344.2394, 7.725098
344.7215, 1.895020
345.2036, 16.55273
345.6858, 27.50244
346.1679, 34.04834
346.6500, 33.97070
347.1321, 20.75830
347.6142, 7.5684004E-02
348.0963, 14.37891
348.5785, 21.63965
349.0606, 19.44531
349.5427, 3.764648
350.0248, 39.30029
350.5069, 60.22607
350.9890, 48.78906
351.4712, 31.46875
351.9533, 30.16943
352.4354, 42.57812
352.9175, 57.36670
353.3996, 71.65479
353.8817, 82.23047
354.3639, 77.57422
354.8460, 45.94092
355.3281, 26.68945
355.8102, 40.47168
356.2923, 65.85205
356.7744, 74.84375
357.2566, 62.32227
357.7387, 46.56348
358.2208, 49.50342
358.7029, 77.22070
359.1850, 89.29834
359.6671, 75.14307
360.1493, 58.35156
360.6314, 47.00781
361.1135, 41.41504
361.5956, 40.97607
362.0777, 47.20459
362.5598, 55.52051
363.0420, 56.54736
363.5241, 46.09180
364.0062, 36.10596
364.4883, 24.61523
364.9704, 16.16846
365.4525, 15.44873
365.9347, 23.04834
366.4168, 34.59766
366.8989, 43.80566
367.3810, 50.18018
367.8631, 66.12402
368.3452, 108.7451
368.8274, 140.4795
369.3095, 136.3218
369.7916, 107.6724
370.2737, 81.78223
370.7558, 70.15869
371.2379, 69.56006
371.7201, 79.37061
372.2022, 101.6084
372.6843, 114.1768
373.1664, 102.1670
373.6485, 78.03467
374.1306, 60.86279
374.6128, 52.04834
375.0949, 47.15576
375.5770, 46.48291
376.0591, 47.54004
376.5412, 43.73828
377.0233, 32.52148
377.5055, 24.43262
377.9876, 33.46094
378.4697, 61.81787
378.9518, 75.01074
379.4339, 57.06348
379.9160, 38.23438
380.3982, 40.17090
380.8803, 56.61182
381.3624, 67.66553
381.8445, 62.26514
382.3266, 45.47852
382.8087, 32.43066
383.2909, 25.94873
383.7730, 20.49121
384.2551, 14.32568
384.7372, 9.930176
385.2193, 11.55664
385.7014, 18.42969
386.1836, 22.87402
386.6657, 16.03027
387.1478, 1.893066
387.6299, 11.84424
388.1120, 6.757324
388.5941, 2.711914
389.0763, 4.786133
389.5584, 10.78271
390.0405, 17.98877
390.5226, 26.25977
391.0047, 32.19775
391.4868, 29.80859
391.9690, 18.54053
392.4511, 4.636230
392.9332, 15.60400
393.4153, 33.00586
393.8974, 37.07275
394.3795, 27.96973
394.8617, 20.40039
395.3438, 22.72900
395.8259, 29.01855
396.3080, 33.04785
396.7901, 35.47461
397.2722, 38.26416
397.7544, 44.30176
398.2365, 51.14502
398.7186, 49.53955
399.2007, 24.83936
399.6828, 7.931152
400.1649, 19.54443
400.6471, 44.96338
401.1292, 57.12891
401.6113, 46.70410
402.0934, 29.64502
402.5755, 31.58984
403.0576, 62.61816
403.5398, 81.63867
404.0219, 81.95898
404.5040, 78.09863
404.9861, 77.62793
405.4682, 78.55176
405.9503, 74.43359
406.4325, 60.70166
406.9146, 42.18701
407.3967, 35.30713
407.8788, 42.00049
408.3609, 54.57324
408.8430, 77.41650
409.3252, 101.2554
409.8073, 120.6157
410.2894, 134.4204
410.7715, 141.3389
411.2536, 137.4907
411.7357, 125.0054
412.2179, 116.0112
412.7000, 114.5898
413.1821, 108.3789
413.6642, 81.50928
414.1463, 44.68066
414.6284, 20.42822
415.1106, 17.26074
415.5927, 22.34717
416.0748, 27.83252
416.5569, 34.07715
417.0390, 45.46777
417.5211, 66.26758
418.0033, 81.77979
418.4854, 65.30371
418.9675, 0.6015630
419.4496, 37.72266
419.9317, 24.29492
420.4138, 3.298828
420.8960, 27.02930
421.3781, 43.58398
421.8602, 50.01465
422.3423, 42.81641
422.8244, 27.48145
423.3065, 28.93311
423.7887, 66.59668
424.2708, 91.41064
424.7529, 93.65723
425.2350, 85.22852
425.7171, 70.56104
426.1992, 52.93604
426.6814, 42.05859
427.1635, 50.26172
427.6456, 75.86865
428.1277, 97.54004
428.6098, 114.7993
429.0919, 128.8799
429.5741, 140.0171
430.0562, 148.7432
430.5383, 155.1372
431.0204, 158.0781
431.5025, 161.1719
431.9846, 170.1250
432.4668, 182.1772
432.9489, 185.4775
433.4310, 174.7520
433.9131, 162.3057
434.3952, 162.4712
434.8773, 176.1997
435.3595, 193.3135
435.8416, 224.1230
436.3237, 249.0566
436.8058, 248.8022
437.2879, 232.4771
437.7701, 224.8936
438.2522, 239.4316
438.7343, 267.2148
439.2164, 284.7554
439.6985, 279.6348
440.1806, 286.6284
440.6628, 312.3784
441.1449, 343.9141
441.6270, 374.6265
442.1091, 403.3521
442.5912, 430.3481
443.0733, 452.6304
443.5555, 474.6680
444.0376, 515.1343
444.5197, 579.5684
445.0018, 646.0269
445.4839, 702.9731
445.9660, 761.1626
446.4482, 830.7681
446.9303, 912.8535
447.4124, 1001.672
447.8945, 1098.804
448.3766, 1199.288
448.8587, 1287.662
449.3409, 1361.366
449.8230, 1444.337
450.3051, 1556.278
450.7872, 1695.625
451.2693, 1839.093
451.7514, 1984.201
452.2336, 2135.489
452.7157, 2288.190
453.1978, 2449.860
453.6799, 2625.914
454.1620, 2819.227
454.6441, 3037.640
455.1263, 3295.424
455.6084, 3599.995
456.0905, 3900.025
456.5726, 4159.341
457.0547, 4449.700
457.5368, 4798.886
458.0190, 5192.596
458.5011, 5607.241
458.9832, 6034.351
459.4653, 6475.310
459.9474, 6945.472
460.4295, 7443.792
460.9117, 7927.203
461.3938, 8411.215
461.8759, 8843.296
462.3580, 9190.888
462.8401, 9456.436
463.3222, 9635.940
463.8044, 9756.607
464.2865, 9769.761
464.7686, 9621.356
465.2507, 9324.384
465.7328, 8921.184
466.2149, 8422.380
466.6971, 7854.686
467.1792, 7274.768
467.6613, 6663.493
468.1434, 6078.903
468.6255, 5507.454
469.1076, 4972.668
469.5898, 4499.487
470.0719, 4079.318
470.5540, 3690.528
471.0361, 3315.854
471.5182, 2966.239
472.0003, 2668.449
472.4825, 2434.779
472.9646, 2225.699
473.4467, 2035.776
473.9288, 1866.733
474.4109, 1726.262
474.8930, 1612.793
475.3752, 1509.343
475.8573, 1410.115
476.3394, 1313.333
476.8215, 1211.397
477.3036, 1103.014
477.7857, 1009.160
478.2679, 941.3818
478.7500, 891.6895
479.2321, 842.4912
479.7142, 794.3867
480.1963, 745.7217
480.6784, 694.7432
481.1606, 644.1577
481.6427, 592.6396
482.1248, 542.6260
482.6069, 504.8213
483.0890, 489.1353
483.5711, 489.9404
484.0533, 474.6138
484.5354, 427.6367
485.0175, 389.9497
485.4996, 374.2690
485.9817, 364.2866
486.4638, 347.7666
486.9460, 322.2505
487.4281, 298.1782
487.9102, 286.5049
488.3923, 283.7563
488.8744, 279.8984
489.3565, 275.1724
489.8387, 269.5869
490.3208, 264.2568
490.8029, 257.4189
491.2850, 244.4922
491.7671, 221.0244
492.2492, 204.1709
492.7314, 203.0034
493.2135, 209.6938
493.6956, 218.9302
494.1777, 228.3618
494.6598, 230.2046
495.1419, 216.2178
495.6241, 190.9644
496.1062, 184.9399
496.5883, 219.1255
497.0704, 245.1763
497.5525, 259.8931
498.0346, 263.5254
498.5168, 253.4497
498.9989, 229.5698
499.4810, 197.3101
499.9631, 150.3438
500.4452, 97.59326
500.9273, 80.21045
501.4095, 108.7471
501.8916, 127.3145
502.3737, 102.1191
502.8558, 58.38574
503.3379, 36.29150
503.8200, 40.34326
504.3022, 49.94092
504.7843, 65.20752
505.2664, 77.62354
505.7485, 72.38818
506.2306, 51.17432
506.7127, 32.68066
507.1949, 29.82324
507.6770, 39.22021
508.1591, 45.90430
508.6412, 49.62402
509.1233, 52.25488
509.6054, 55.75244
510.0876, 54.47705
510.5697, 37.84766
511.0518, 10.36426
511.5339, 8.243652
512.0161, 1.999512
512.4982, 22.10840
512.9803, 50.74268
513.4624, 87.65479
513.9445, 102.8071
514.4266, 68.43848
514.9088, 21.84424
515.3909, 15.68799
515.8730, 53.65576
516.3551, 83.42773
516.8372, 82.45508
517.3193, 70.96631
517.8015, 65.65283
518.2836, 67.44580
518.7657, 73.91113
519.2478, 84.25586
519.7299, 93.97510
520.2120, 92.47559
520.6942, 73.66357
521.1763, 58.11328
521.6584, 45.22559
522.1405, 35.95898
522.6226, 29.37549
523.1047, 26.82129
523.5869, 32.75000
524.0690, 52.95166
524.5511, 75.43750
525.0332, 78.84424
525.5153, 63.28223
525.9974, 47.51123
526.4796, 35.01270
526.9617, 25.27100
527.4438, 19.06445
527.9259, 15.88330
528.4080, 11.27002
528.8901, 2.626465
529.3723, 5.657227
529.8544, 15.07861
530.3365, 21.49463
530.8186, 13.32520
531.3007, 12.83838
531.7828, 40.90527
532.2650, 46.95166
532.7471, 25.84375
533.2292, 14.57471
533.7113, 19.43408
534.1934, 27.74609
534.6755, 41.95312
535.1577, 54.88232
535.6398, 54.47461
536.1219, 35.81934
536.6040, 17.37939
537.0861, 17.77051
537.5682, 32.23047
538.0504, 46.11865
538.5325, 57.82861
539.0146, 67.93408
539.4967, 76.67236
539.9788, 83.94482
540.4609, 88.78125
540.9431, 92.21777
541.4252, 92.24121
541.9073, 95.00537
542.3894, 90.10645
542.8715, 58.33008
543.3536, 4.670410
543.8358, 40.10449
544.3179, 50.48730
544.8000, 33.34326
545.2821, 17.98682
545.7642, 4.933105
546.2463, 7.789551
546.7285, 24.86670
547.2106, 38.33545
547.6927, 39.87695
548.1748, 30.31982
548.6569, 21.60010
549.1390, 19.26953
549.6211, 20.07715
550.1032, 22.07715
550.5853, 24.43945
551.0674, 23.04004
551.5496, 15.67871
552.0317, 7.155762
552.5138, 6.222656
552.9959, 18.36426
553.4780, 19.26660
553.9601, 0.5878910
554.4423, 19.66406
554.9244, 39.11377
555.4065, 49.10107
555.8886, 28.81543
556.3707, 30.48535
556.8528, 92.45557
557.3350, 108.3311
557.8171, 84.13232
558.2992, 69.97412
558.7813, 73.27686
559.2634, 77.16553
559.7455, 66.26221
560.2277, 48.29150
560.7098, 48.77051
561.1919, 88.25928
561.6740, 110.2368
562.1561, 78.74609
562.6382, 32.77930
563.1204, 16.19092
563.6025, 30.04395
564.0846, 47.16162
564.5667, 48.45996
565.0488, 36.94922
565.5309, 22.95898
566.0131, 0.5571290
566.4952, 12.53223
566.9773, 2.697754
567.4594, 22.37598
567.9415, 33.90918
568.4236, 37.46143
568.9058, 37.21924
569.3879, 33.38818
569.8700, 28.05566
570.3521, 21.34570
570.8342, 14.38037
571.3163, 12.06885
571.7985, 16.30420
572.2806, 21.47949
572.7627, 20.28760
573.2448, 11.63525
573.7269, 7.200195
574.2090, 13.07910
574.6912, 15.72266
575.1733, 8.048340
575.6554, 2.678223
576.1375, 10.82373
576.6196, 14.12646
577.1017, 7.753906
577.5839, 23.47461
578.0660, 67.49414
578.5481, 79.96387
579.0302, 56.92871
579.5123, 32.18652
579.9944, 17.52148
580.4766, 13.20996
580.9587, 23.42090
581.4408, 52.79980
581.9229, 74.34473
582.4050, 70.91797
582.8871, 70.68262
583.3693, 103.0576
583.8514, 152.6992
584.3335, 182.9521
584.8156, 175.8848
585.2977, 149.6797
585.7798, 130.6006
586.2620, 119.3809
586.7441, 107.6436
587.2262, 93.73438
587.7083, 80.85254
588.1904, 70.60645
588.6725, 63.42578
589.1547, 58.01270
589.6368, 50.83594
590.1189, 52.88574
590.6010, 83.37988
591.0831, 118.4004
591.5652, 124.2373
592.0474, 101.4580
592.5295, 73.01172
593.0116, 53.05371
593.4937, 41.19531
593.9758, 37.66504
594.4579, 49.37109
594.9401, 52.74902
595.4222, 33.87012
595.9043, 17.13867
596.3864, 15.82129
596.8685, 26.45215
597.3506, 38.98438
597.8328, 49.73145
598.3149, 61.33008
598.7970, 79.73926
599.2791, 100.9307
599.7612, 112.3076
600.2433, 110.9814
600.7255, 104.7227
601.2076, 98.85449
601.6897, 91.36523
602.1718, 86.63770
602.6539, 86.26367
603.1360, 90.46191
603.6182, 102.1475
604.1003, 115.9844
604.5824, 128.3809
605.0645, 138.4766
605.5466, 143.9824
606.0287, 143.1318
606.5109, 137.9268
606.9930, 130.5908
607.4751, 121.2705
607.9572, 110.1377
608.4393, 95.81934
608.9214, 86.23535
609.4036, 93.28223
609.8857, 116.2969
610.3678, 119.9180
610.8499, 83.09473
611.3320, 55.44531
611.8141, 53.07227
612.2963, 61.08984
612.7784, 66.34570
613.2605, 68.49512
613.7426, 73.66406
614.2247, 86.11035
614.7068, 100.1318
615.1890, 100.1377
615.6711, 85.48730
616.1532, 76.14453
616.6353, 81.95996
617.1174, 87.15820
617.5995, 68.17676
618.0817, 24.35059
618.5638, 3.380859
619.0459, 27.65527
619.5280, 51.33203
620.0101, 52.95703
620.4922, 45.82715
620.9744, 52.24219
621.4565, 73.46387
621.9386, 84.45898
622.4207, 52.90234
622.9028, 2.696289
623.3849, 0.8017580
623.8671, 77.01953
624.3492, 127.1416
624.8313, 111.0674
625.3134, 71.28223
625.7955, 56.90723
626.2776, 66.32031
626.7598, 78.58105
627.2419, 92.53125
627.7240, 106.6475
628.2061, 124.1816
628.6882, 139.5908
629.1703, 144.0166
629.6525, 136.0303
630.1346, 121.4912
630.6167, 103.9551
631.0988, 85.01562
631.5809, 75.14844
632.0630, 77.55273
632.5452, 78.42871
633.0273, 74.90234
633.5094, 66.06738
633.9915, 45.52734
634.4736, 14.93457
634.9557, 5.049805
635.4379, 40.50000
635.9200, 79.23145
636.4021, 104.8418
636.8842, 115.8262
637.3663, 105.5654
637.8484, 75.48340
638.3306, 45.00000
638.8127, 35.18359
639.2948, 41.66211
639.7769, 36.31934
640.2590, 14.43848
640.7411, 3.274414
641.2233, 14.01465
641.7054, 14.87500
642.1875, 1.487305
642.6696, 33.28223
643.1517, 57.52930
643.6339, 70.03906
644.1160, 73.32910
644.5981, 60.45215
645.0802, 42.50586
645.5623, 38.51758
646.0444, 51.12402
646.5266, 64.37500
647.0087, 62.20312
647.4908, 48.90723
647.9729, 45.84180
648.4550, 56.06445
648.9371, 65.11133
649.4193, 70.20801
649.9014, 72.04395
650.3835, 70.44727
650.8656, 65.84082
651.3477, 61.65625
651.8298, 56.57910
652.3120, 54.34180
652.7941, 59.06641
653.2762, 66.39160
653.7583, 73.29199
654.2404, 77.64844
654.7225, 72.92285
655.2047, 51.38574
655.6868, 19.60840
656.1689, 0.6845700
656.6510, 8.544922
657.1331, 9.686523
657.6152, 1.502930
658.0974, 7.387695
658.5795, 7.073242
659.0616, 0.2382810
659.5437, 1.031250
660.0258, 13.37305
660.5079, 22.31055
660.9901, 8.383789
661.4722, 8.046875
661.9543, 0.4453130
662.4364, 28.26172
662.9185, 52.33984
663.4006, 53.87598
663.8828, 42.74805
664.3649, 42.45020
664.8470, 53.65430
665.3291, 51.58887
665.8112, 26.55273
666.2933, 1.690430
666.7755, 6.499023
667.2576, 0.1191410
667.7397, 10.12988
668.2218, 30.93555
668.7039, 44.66016
669.1860, 49.34570
669.6682, 44.42676
670.1503, 17.32324
670.6324, 19.40234
671.1145, 30.70312
671.5966, 3.517578
672.0787, 49.48145
672.5609, 53.29395
673.0430, 22.71777
673.5251, 16.22949
674.0072, 43.06738
674.4893, 73.01758
674.9714, 90.72852
675.4536, 97.43164
675.9357, 94.79395
676.4178, 74.65234
676.8999, 63.48535
677.3820, 66.36816
677.8641, 73.37988
678.3463, 88.09570
678.8284, 100.4512
679.3105, 87.96875
679.7926, 43.52051
680.2747, 6.787109
680.7568, 26.83789
681.2390, 79.73145
681.7211, 107.5361
682.2032, 107.7266
682.6853, 93.91602
683.1674, 68.88770
683.6495, 42.39258
684.1317, 30.39160
684.6138, 36.04590
685.0959, 39.74512
685.5780, 43.78711
686.0601, 43.29883
686.5422, 29.37988
687.0244, 14.62109
687.5065, 16.18652
687.9886, 34.35449
688.4707, 47.53809
688.9528, 40.22949
689.4349, 24.12402
689.9171, 6.683594
690.3992, 8.043945
690.8813, 5.444336
691.3634, 17.54199
691.8455, 42.36914
692.3276, 50.04297
692.8098, 42.70020
693.2919, 36.58008
693.7740, 29.18945
694.2561, 28.53223
694.7382, 43.93359
695.2203, 59.60254
695.7025, 60.37402
696.1846, 51.56055
696.6667, 54.88379
697.1488, 90.46777
697.6309, 117.0029
698.1130, 105.0381
698.5952, 75.34473
699.0773, 50.16211
699.5594, 34.36816
700.0415, 30.61328
700.5236, 34.49219
701.0057, 41.91602
701.4879, 35.98535
701.9700, 15.03027
702.4521, 18.07227
702.9342, 57.76172
703.4163, 97.50098
703.8984, 120.8457
704.3806, 127.3008
704.8627, 112.7070
705.3448, 63.09863
705.8269, 35.57324
706.3090, 51.56348
706.7911, 74.67285
707.2733, 82.21094
707.7554, 81.58398
708.2375, 89.80859
708.7196, 111.5264
709.2017, 130.7520
709.6838, 130.9678
710.1660, 117.5918
710.6481, 102.8389
711.1302, 87.02832
711.6123, 71.64551
712.0944, 56.61328
712.5765, 45.04297
713.0587, 41.29004
713.5408, 45.65723
714.0229, 48.60449
714.5050, 42.59082
714.9871, 45.24414
715.4692, 73.73047
715.9514, 101.1436
716.4335, 97.42383
716.9156, 69.87012
717.3977, 58.94922
717.8798, 92.81738
718.3619, 132.7959
718.8441, 152.9580
719.3262, 155.8740
719.8083, 138.9912
720.2904, 106.5498
720.7725, 82.55566
721.2546, 84.06055
721.7368, 101.5791
722.2189, 110.0967
722.7010, 106.2080
723.1831, 100.9141
723.6652, 94.03223
724.1473, 87.91016
724.6295, 80.88281
725.1116, 77.17676
725.5937, 83.55078
726.0758, 102.1143
726.5579, 123.2939
727.0400, 148.9512
727.5222, 173.1094
728.0043, 198.1162
728.4864, 216.0703
728.9685, 210.1533
729.4506, 181.4346
729.9327, 160.1309
730.4149, 189.3076
730.8970, 240.1709
731.3791, 238.8115
731.8612, 191.7461
732.3433, 161.6748
732.8254, 167.7637
733.3076, 189.0674
733.7897, 205.9766
734.2718, 218.4160
734.7539, 227.5371
735.2360, 239.5596
735.7181, 237.5869
736.2003, 200.3477
736.6824, 167.0967
737.1645, 169.8711
737.6466, 195.9062
738.1287, 207.7168
738.6108, 190.8896
739.0930, 171.1396
739.5751, 168.7559
740.0572, 167.2305
740.5393, 141.4355
741.0214, 97.82910
741.5035, 62.53516
741.9857, 48.01465
742.4678, 43.03516
742.9499, 26.75879
743.4320, 1.683594
743.9141, 9.856445
744.3962, 60.54883
744.8784, 94.56152
745.3605, 83.08301
745.8426, 53.74219
746.3247, 45.61328
746.8068, 62.74805
747.2889, 62.84082
747.7711, 20.27344
748.2532, 4.498047
748.7353, 7.948242
749.2174, 38.81250
749.6995, 86.35059
750.1816, 139.0049
750.6638, 160.3193
751.1459, 118.3604
751.6280, 66.80469
752.1101, 59.66504
752.5922, 76.84961
753.0743, 79.86621
753.5565, 66.04980
754.0386, 51.62109
754.5207, 46.84375
755.0028, 49.26855
755.4849, 59.38672
755.9670, 80.64941
756.4492, 69.68652
756.9313, 1.728516
757.4134, 35.48633
757.8955, 22.32227
758.3776, 112.1826
758.8597, 129.2812
759.3419, 64.99121
759.8240, 29.94922
760.3061, 61.76172
760.7882, 90.17480
761.2703, 89.73145
761.7524, 71.68262
762.2346, 35.87109
762.7167, 7.364258
763.1988, 21.84766
763.6809, 25.11426
764.1630, 87.40234
764.6451, 114.2930
765.1273, 114.7266
765.6094, 107.0361
766.0915, 95.17676
766.5736, 86.60840
767.0557, 86.42090
767.5378, 90.70508
768.0200, 91.94336
768.5021, 90.75195
768.9842, 84.69238
769.4663, 68.45312
769.9484, 50.29883
770.4305, 28.27051
770.9127, 14.74023
771.3948, 35.32715
771.8769, 94.79785
772.3590, 123.4805
772.8411, 89.51270
773.3232, 51.54004
773.8054, 29.00879
774.2875, 15.85547
774.7696, 3.208008
775.2517, 8.039063
775.7338, 9.396484
776.2159, 3.589844
776.6981, 28.48340
777.1802, 83.82910
777.6623, 143.9697
778.1444, 134.6250
778.6265, 56.89258
779.1086, 10.47559
779.5908, 23.29492
780.0729, 1.982422
780.5550, 19.79492
781.0371, 42.99023
781.5192, 54.66602
782.0013, 48.92285
782.4835, 46.86328
782.9656, 57.83105
783.4477, 75.22266
783.9298, 81.01074
784.4119, 70.96387
784.8940, 105.3672
785.3762, 124.5000
785.8583, 129.3096
786.3404, 76.46484
786.8225, 98.00293
787.3046, 89.62793
787.7867, 80.01270
788.2689, 111.9600
788.7510, 67.30078
789.2331, 98.80859
789.7152, 99.98047
790.1973, 76.00781
790.6794, 70.86035
791.1616, 53.76270
791.6437, 45.78516
792.1258, 56.05664
792.6079, 73.28320
793.0900, 83.81641
793.5721, 87.54297
794.0543, 79.57129
794.5364, 55.65723
795.0185, 51.07812
795.5006, 86.27441
795.9827, 120.6523
796.4648, 108.6250
796.9470, 56.57129
797.4291, 32.11230
797.9112, 68.43750
798.3933, 84.67090
798.8754, 59.90820
799.3575, 31.49121
799.8397, 18.23633
800.3218, 17.48730
800.8039, 24.12793
801.2860, 38.89551
801.7681, 47.18457
802.2502, 31.07910
802.7324, 14.71191
803.2145, 29.54883
803.6966, 57.90820
804.1787, 61.15527
804.6608, 32.25391
805.1429, 0.3613280
805.6251, 12.15723
806.1072, 8.096680
806.5893, 14.40137
807.0714, 51.30762
807.5535, 67.74316
808.0356, 56.48047
808.5178, 47.51562
808.9999, 63.62598
809.4820, 89.42676
809.9641, 81.99414
810.4462, 24.56250
810.9283, 3.530273
811.4105, 7.932617
811.8926, 32.61719
812.3747, 75.66895
812.8568, 116.8408
813.3389, 131.2129
813.8210, 118.6582
814.3032, 101.3613
814.7853, 71.54395
815.2674, 48.89355
815.7495, 45.34082
816.2316, 54.16309
816.7137, 77.14551
817.1959, 108.1592
817.6780, 134.6572
818.1601, 153.8906
818.6422, 157.3516
819.1243, 126.8643
819.6064, 82.23828
820.0886, 47.65820
820.5707, 26.69824
821.0528, 30.74609
821.5349, 65.01270
822.0170, 98.72168
822.4991, 96.00000
822.9813, 67.42188
823.4634, 60.77344
823.9455, 77.51074
824.4276, 87.00781
824.9097, 84.31836
825.3918, 65.93945
825.8740, 21.19629
826.3561, 35.34082
826.8382, 53.30371
827.3203, 16.62891
827.8024, 21.75586
828.2845, 83.55078
828.7667, 119.5479
829.2488, 90.46777
829.7309, 40.07910
830.2130, 21.10938
830.6951, 36.68652
831.1772, 51.09961
831.6594, 59.21387
832.1415, 60.36523
832.6236, 45.43652
833.1057, 29.34375
833.5878, 31.28711
834.0699, 48.29395
834.5521, 62.77734
835.0342, 67.48438
835.5163, 66.53125
835.9984, 54.61035
836.4805, 44.54785
836.9626, 70.54492
837.4448, 118.7637
837.9269, 130.5723
838.4090, 86.46289
838.8911, 34.80957
839.3732, 29.76855
839.8553, 57.16016
840.3375, 56.63281
840.8196, 25.63379
841.3017, 24.55371
841.7838, 73.39844
842.2659, 113.3193
842.7480, 99.67188
843.2302, 56.16113
843.7123, 44.00098
844.1944, 74.78125
844.6765, 99.41211
845.1586, 127.1084
845.6407, 134.3945
846.1229, 84.93945
846.6050, 31.38086
847.0871, 32.55176
847.5692, 84.22266
848.0513, 123.2988
848.5334, 146.2900
849.0156, 148.5254
849.4977, 110.0469
849.9798, 67.57324
850.4619, 52.12207
850.9440, 55.42773
851.4261, 49.14941
851.9083, 23.38867
852.3904, 10.37988
852.8725, 51.57617
853.3546, 99.66406
853.8367, 98.04199
854.3188, 66.29883
854.8010, 46.35645
855.2831, 46.62793
855.7652, 52.45410
856.2473, 53.47559
856.7294, 52.01758
857.2115, 52.84082
857.6937, 54.27734
858.1758, 54.37207
858.6579, 53.38574
859.1400, 51.04688
859.6221, 47.34961
860.1042, 40.70996
860.5864, 27.35254
861.0685, 7.834961
861.5506, 2.9297000E-02
862.0327, 1.356445
862.5148, 27.42969
862.9969, 97.18262
863.4791, 162.4512
863.9612, 188.3799
864.4433, 181.4248
864.9254, 160.7891
865.4075, 111.0850
865.8896, 81.08984
866.3718, 89.03906
866.8539, 89.68555
867.3360, 45.25000
867.8181, 0.5947270
868.3002, 12.61816
868.7823, 82.39355
869.2645, 129.8447
869.7466, 122.2979
870.2287, 104.0918
870.7108, 78.97656
871.1929, 61.62891
871.6750, 69.13184
872.1572, 91.61133
872.6393, 111.2305
873.1214, 121.9502
873.6035, 126.7148
874.0856, 129.4971
874.5677, 127.1338
875.0499, 108.3281
875.5320, 80.87207
876.0141, 68.89941
876.4962, 75.62109
876.9783, 84.45801
877.4604, 83.32129
877.9426, 81.71582
878.4247, 104.1553
878.9068, 139.3779
879.3889, 137.0244
879.8710, 97.45117
880.3531, 69.96289
880.8353, 75.17676
881.3174, 88.84082
881.7995, 77.57031
882.2816, 48.01953
882.7637, 44.91504
883.2458, 74.23828
883.7280, 81.65723
884.2101, 48.24316
884.6922, 15.90820
885.1743, 11.41211
885.6564, 31.04883
886.1385, 73.95020
886.6207, 155.3018
887.1028, 187.2422
887.5849, 136.9893
888.0670, 89.68359
888.5491, 63.12012
889.0313, 51.59375
889.5134, 57.49121
889.9955, 75.49219
890.4776, 80.59277
890.9597, 62.00000
891.4418, 46.60938
891.9240, 39.56934
892.4061, 35.02637
892.8882, 27.28125
893.3703, 21.51953
893.8524, 28.49609
894.3345, 47.86523
894.8167, 59.96094
895.2988, 56.43945
895.7809, 43.77637
896.2630, 16.81348
896.7451, 11.08984
897.2272, 31.51855
897.7094, 39.23242
898.1915, 21.88281
898.6736, 25.04395
899.1557, 71.80469
899.6378, 100.0879
900.1199, 110.5244
900.6021, 96.90137
901.0842, 68.16309
901.5663, 35.53223
902.0484, 6.318359
902.5305, 2.767578
903.0126, 42.42676
903.4948, 91.07520
903.9769, 96.50195
904.4590, 69.99609
904.9411, 37.81152
905.4232, 5.632813
905.9053, 8.267578
906.3875, 56.54297
906.8696, 97.57715
907.3517, 76.26270
907.8338, 15.53223
908.3159, 12.07129
908.7980, 6.409180
909.2802, 23.47656
909.7623, 82.91504
910.2444, 114.3008
910.7265, 82.87793
911.2086, 31.00293
911.6907, 21.14746
912.1729, 52.59082
912.6550, 71.71875
913.1371, 79.89941
913.6192, 69.10645
914.1013, 22.36621
914.5834, 14.24902
915.0656, 8.634766
915.5477, 27.20020
916.0298, 70.99512
916.5119, 136.8281
916.9940, 156.8750
917.4761, 84.53125
917.9583, 32.40137
918.4404, 44.06738
918.9225, 70.18945
919.4046, 73.87207
919.8867, 59.75391
920.3688, 45.22656
920.8510, 27.89258
921.3331, 18.09375
921.8152, 28.43750
922.2973, 33.83301
922.7794, 6.739258
923.2615, 21.14648
923.7437, 0.1875000
924.2258, 63.07031
924.7079, 95.45020
925.1900, 52.04785
925.6721, 11.93066
926.1542, 14.43359
926.6364, 27.69336
927.1185, 29.91895
927.6006, 22.51465
928.0827, 6.981445
928.5648, 14.35254
929.0469, 23.46289
929.5291, 1.067383
930.0112, 26.84375
930.4933, 51.29492
930.9754, 62.96680
931.4575, 35.90039
931.9396, 13.09473
932.4218, 35.04980
932.9039, 12.56641
933.3860, 21.82910
933.8681, 43.49414
934.3502, 58.61914
934.8323, 79.04102
935.3145, 97.41797
935.7966, 94.01367
936.2787, 70.60742
936.7608, 48.55078
937.2429, 39.30469
937.7250, 33.11914
938.2072, 9.544922
938.6893, 16.37500
939.1714, 2.416016
939.6535, 41.19531
940.1356, 71.88477
940.6177, 81.00977
941.0999, 86.24023
941.5820, 100.0703
942.0641, 115.9473
942.5462, 119.6602
943.0283, 114.7656
943.5104, 127.6172
943.9926, 156.0020
944.4747, 145.1152
944.9568, 76.54688
945.4389, 22.21680
945.9210, 53.65234
946.4031, 131.6426
946.8853, 134.8594
947.3674, 63.97461
947.8495, 49.03711
948.3316, 103.5684
948.8137, 154.6953
949.2958, 176.4473
949.7780, 172.0449
950.2601, 138.7715
950.7422, 86.33008
951.2243, 69.09570
951.7064, 92.49609
952.1885, 118.1621
952.6707, 144.0117
953.1528, 163.1387
953.6349, 169.1133
954.1170, 174.5293
954.5991, 199.1504
955.0812, 240.5645
955.5634, 258.6992
956.0455, 245.8965
956.5276, 238.7285
957.0097, 235.4102
957.4918, 248.5605
957.9739, 294.3047
958.4561, 349.3770
958.9382, 373.4199
959.4203, 363.3105
959.9024, 369.6855
960.3845, 393.7598
960.8666, 434.6523
961.3488, 506.3145
961.8309, 572.5078
962.3130, 612.7871
962.7951, 631.7480
963.2772, 631.9121
963.7593, 602.5293
964.2415, 612.9805
964.7236, 707.4980
965.2057, 777.1406
965.6878, 792.6523
966.1699, 789.0156
966.6520, 780.3184
967.1342, 769.5605
967.6163, 770.9883
968.0984, 794.0254
968.5805, 790.4980
969.0626, 724.7324
969.5447, 678.6367
970.0269, 679.0352
970.5090, 695.6016
970.9911, 719.1680
971.4732, 741.0156
971.9553, 735.8633
972.4374, 686.4043
972.9196, 662.4395
973.4017, 692.2852
973.8838, 724.7285
974.3659, 739.6035
974.8480, 756.4141
975.3301, 794.1504
975.8123, 837.6895
976.2944, 844.9199
976.7765, 791.0977
977.2586, 766.4883
977.7407, 780.4082
978.2228, 840.2598
978.7050, 992.8145
979.1871, 1159.189
979.6692, 1252.535
980.1513, 1289.494
980.6334, 1348.625
981.1155, 1445.814
981.5977, 1565.092
982.0798, 1716.752
982.5619, 1868.762
983.0440, 1980.387
983.5261, 2102.385
984.0082, 2333.705
984.4904, 2631.516
984.9725, 2814.309
985.4546, 2807.502
985.9367, 2763.141
986.4188, 2740.201
986.9009, 2689.504
987.3831, 2596.891
987.8652, 2452.219
988.3473, 2212.900
988.8294, 1909.627
989.3115, 1669.014
989.7936, 1554.689
990.2758, 1426.881
990.7579, 1200.078
991.2400, 978.5801
991.7221, 823.5645
992.2042, 716.5410
992.6863, 643.5801
993.1685, 591.8867
993.6506, 523.1758
994.1327, 407.5664
994.6148, 325.6484
995.0969, 362.6816
995.5790, 392.6094
996.0612, 285.6094
996.5433, 148.0977
997.0254, 142.7441
997.5075, 251.2734
997.9896, 309.8516
998.4717, 245.9238
998.9539, 176.7480
999.4360, 155.9453
999.9181, 149.1309
1000.400, 141.3828
1000.882, 127.6348
1001.364, 93.09961
1001.847, 46.70508
1002.329, 28.86719
1002.811, 63.66211
1003.293, 95.91992
1003.775, 93.73633
1004.257, 87.74219
1004.739, 91.13672
1005.221, 107.8145
1005.703, 157.5156
1006.186, 225.3184
1006.668, 251.2871
1007.150, 202.5723
1007.632, 153.2109
1008.114, 142.0977
1008.596, 135.7051
1009.078, 98.06445
1009.560, 62.28711
1010.043, 77.41797
1010.525, 134.1094
1011.007, 180.6973
1011.489, 201.7676
1011.971, 211.3477
1012.453, 214.2344
1012.935, 209.1816
1013.417, 198.7285
1013.899, 177.4473
1014.382, 122.2363
1014.864, 50.84766
1015.346, 24.95312
1015.828, 73.63672
1016.310, 115.0586
1016.792, 123.7734
1017.274, 110.1602
1017.756, 46.85742
1018.239, 10.31055
1018.721, 14.97461
1019.203, 95.17773
1019.685, 133.8477
1020.167, 100.9844
1020.649, 66.89844
1021.131, 53.88672
1021.613, 45.77344
1022.095, 39.57812
1022.578, 31.01562
1023.060, 7.697266
1023.542, 19.33398
1024.024, 22.09375
1024.506, 6.732422
1024.988, 44.92383
1025.470, 125.9141
1025.952, 163.7520
1026.435, 73.88281
1026.917, 23.91992
1027.399, 22.84180
1027.881, 41.50781
1028.363, 85.56445
1028.845, 98.00781
1029.327, 94.65430
1029.809, 60.55273
1030.292, 35.69336
1030.774, 52.54688
1031.256, 60.19922
1031.738, 1.689453
1032.220, 80.85547
1032.702, 110.3262
1033.184, 78.34961
1033.666, 34.58789
1034.148, 36.47461
1034.630, 89.01953
1035.113, 112.6621
1035.595, 119.0371
1036.077, 103.9785
1036.559, 81.19531
1037.041, 67.02344
1037.523, 61.37109
1038.005, 74.28906
1038.487, 144.9570
1038.970, 170.6895
1039.452, 100.2559
1039.934, 43.11914
1040.416, 64.20117
1040.898, 108.4922
1041.380, 104.4375
1041.862, 58.40039
1042.344, 43.89453
1042.826, 84.89258
1043.309, 104.2363
1043.791, 86.82617
1044.273, 70.67383
1044.755, 69.56836
1045.237, 75.84180
1045.719, 81.07812
1046.201, 86.99023
1046.683, 104.4336
1047.166, 142.9785
1047.648, 162.9160
1048.130, 163.0723
1048.612, 140.8672
1049.094, 81.49609
1049.576, 36.64648
1050.058, 53.36523
1050.540, 112.1602
1051.022, 163.2090
1051.505, 206.8594
1051.987, 233.8203
1052.469, 239.4824
1052.951, 261.0000
1053.433, 312.4883
1053.915, 347.7539
1054.397, 332.2598
1054.879, 300.5664
1055.361, 321.1426
1055.844, 384.1680
1056.326, 398.0117
1056.808, 363.7637
1057.290, 354.0059
1057.772, 381.2246
1058.254, 415.7832
1058.736, 443.0859
1059.218, 460.8516
1059.701, 465.1348
1060.183, 457.3887
1060.665, 435.3691
1061.147, 404.7090
1061.629, 405.1211
1062.111, 434.3008
1062.593, 434.5879
1063.075, 385.0742
1063.557, 331.0488
1064.040, 316.6895
1064.522, 323.9375
1065.004, 325.8145
1065.486, 321.1621
1065.968, 301.8027
1066.450, 273.4297
1066.932, 252.4238
1067.414, 243.9609
1067.896, 252.6270
1068.379, 287.3594
1068.861, 319.0098
1069.343, 307.1113
1069.825, 277.9102
1070.307, 271.1348
1070.789, 273.8281
1071.271, 250.5039
1071.753, 204.5195
1072.236, 176.1660
1072.718, 185.3418
1073.200, 198.7832
1073.682, 196.7812
1074.164, 184.8457
1074.646, 148.4160
1075.128, 118.5859
1075.610, 152.0977
1076.093, 221.1992
1076.575, 240.8750
1077.057, 186.4043
1077.539, 146.7754
1078.021, 176.7734
1078.503, 208.0352
1078.985, 207.2734
1079.467, 198.2715
1079.949, 194.8320
1080.432, 198.7383
1080.914, 212.9219
1081.396, 235.8926
1081.878, 255.4062
1082.360, 283.8945
1082.842, 288.1094
1083.324, 234.3711
1083.806, 190.0059
1084.288, 190.0586
1084.771, 209.3535
1085.253, 230.8184
1085.735, 252.7559
1086.217, 258.3613
1086.699, 238.3223
1087.181, 226.5859
1087.663, 229.6562
1088.145, 227.1133
1088.628, 207.1484
1089.110, 192.8262
1089.592, 207.1172
1090.074, 226.7344
1090.556, 212.5723
1091.038, 167.3770
1091.520, 132.1016
1092.002, 107.7656
1092.484, 98.21289
1092.967, 107.4746
1093.449, 109.5020
1093.931, 88.08594
1094.413, 66.43359
1094.895, 80.04883
1095.377, 112.8145
1095.859, 93.90820
1096.341, 33.49023
1096.823, 11.22461
1097.306, 30.39844
1097.788, 56.50781
1098.270, 81.01758
1098.752, 103.0859
1099.234, 127.5391
1099.716, 144.9434
1100.198, 129.5371
1100.680, 98.68359
1101.163, 90.15625
1101.645, 95.50977
1102.127, 85.27734
1102.609, 60.66797
1103.091, 55.52148
1103.573, 87.19336
1104.055, 111.3418
1104.537, 69.91406
1105.020, 27.38867
1105.502, 55.72070
1105.984, 107.5430
1106.466, 123.6191
1106.948, 113.5273
1107.430, 110.3691
1107.912, 122.4844
1108.394, 143.7324
1108.876, 194.7461
1109.359, 218.3574
1109.841, 178.8008
1110.323, 122.2773
1110.805, 65.29102
1111.287, 16.40430
1111.769, 21.89062
1112.251, 48.20117
1112.733, 48.02344
1113.215, 6.908203
1113.698, 32.57812
1114.180, 67.06055
1114.662, 103.4766
1115.144, 156.1484
1115.626, 193.6523
1116.108, 187.7461
1116.590, 159.0273
1117.072, 150.0137
1117.555, 161.1211
1118.037, 151.0273
1118.519, 110.8535
1119.001, 103.4258
1119.483, 141.8457
1119.965, 176.4531
1120.447, 185.3672
1120.929, 186.8047
1121.411, 202.4219
1121.894, 226.0996
1122.376, 248.9062
1122.858, 264.7109
1123.340, 225.3320
1123.822, 145.6895
1124.304, 118.2480
1124.786, 158.7402
1125.268, 214.3086
1125.750, 255.6641
1126.233, 269.4688
1126.715, 218.0469
1127.197, 150.4746
1127.679, 142.1074
1128.161, 160.2109
1128.643, 148.1934
1129.125, 115.2402
1129.607, 103.6895
1130.090, 122.4375
1130.572, 141.9824
1131.054, 152.0566
1131.536, 152.4590
1132.018, 128.5273
1132.500, 110.1055
1132.982, 130.7578
1133.464, 160.4785
1133.947, 158.7227
1134.429, 131.1309
1134.911, 112.8613
1135.393, 107.0645
1135.875, 113.6680
1136.357, 144.4316
1136.839, 170.6660
1137.321, 201.6133
1137.803, 204.1875
1138.286, 140.8359
1138.768, 61.05273
1139.250, 40.53125
1139.732, 72.31250
1140.214, 89.19141
1140.696, 87.89453
1141.178, 102.1133
1141.660, 136.6348
1142.142, 157.3887
1142.625, 153.2949
1143.107, 141.9570
1143.589, 134.3008
1144.071, 123.0391
1144.553, 85.43750
1145.035, 34.66406
1145.517, 9.179688
1145.999, 5.689453
1146.482, 22.96289
1146.964, 51.29297
1147.446, 47.80469
1147.928, 0.5683590
1148.410, 17.54883
1148.892, 81.21680
1149.374, 172.4785
1149.856, 126.5703
1150.339, 41.23242
1150.821, 2.228516
1151.303, 1.988281
1151.785, 30.31250
1152.267, 74.31445
1152.749, 98.68359
1153.231, 89.27734
1153.713, 80.34375
1154.195, 96.83203
1154.677, 90.17383
1155.160, 3.167969
1155.642, 63.48828
1156.124, 31.36719
1156.606, 42.15039
1157.088, 71.88867
1157.570, 61.88281
1158.052, 66.90625
1158.534, 94.42578
1159.017, 95.50195
1159.499, 58.98242
1159.981, 30.89258
1160.463, 40.76758
1160.945, 59.67578
1161.427, 71.19531
1161.909, 73.74219
1162.391, 63.82031
1162.874, 45.09961
1163.356, 25.34180
1163.838, 9.556641
1164.320, 18.05078
1164.802, 44.59766
1165.284, 53.95898
1165.766, 36.38086
1166.248, 24.11523
1166.730, 42.35938
1167.213, 58.49609
1167.695, 42.52539
1168.177, 16.67188
1168.659, 10.63281
1169.141, 27.15039
1169.623, 14.42188
1170.105, 18.76758
1170.587, 46.74219
1171.069, 63.70703
1171.552, 76.57422
1172.034, 97.48828
1172.516, 98.82422
1172.998, 42.03516
1173.480, 11.40039
1173.962, 59.41211
1174.444, 128.7305
1174.926, 160.4492
1175.409, 164.1328
1175.891, 181.2773
1176.373, 215.0859
1176.855, 170.5762
1177.337, 46.40234
1177.819, 6.076172
1178.301, 90.87500
1178.783, 159.4199
1179.266, 143.8066
1179.748, 116.5996
1180.230, 147.4473
1180.712, 201.1816
1181.194, 237.9824
1181.676, 230.7441
1182.158, 151.6543
1182.640, 44.23438
1183.122, 57.76367
1183.604, 177.2090
1184.087, 246.8125
1184.569, 201.6074
1185.051, 163.1758
1185.533, 216.8750
1186.015, 248.9824
1186.497, 175.4551
1186.979, 98.76562
1187.461, 107.9980
1187.944, 143.1348
1188.426, 114.8242
1188.908, 58.03320
1189.390, 57.35547
1189.872, 141.9336
1190.354, 160.6719
1190.836, 101.9746
1191.318, 77.71289
1191.801, 114.3789
1192.283, 163.7793
1192.765, 202.1914
1193.247, 231.9668
1193.729, 234.5703
1194.211, 218.4316
1194.693, 180.1191
1195.175, 132.3301
1195.657, 149.7910
1196.140, 204.2012
1196.622, 218.8750
1197.104, 186.1348
1197.586, 167.2402
1198.068, 191.6270
1198.550, 198.5430
1199.032, 130.8965
1199.514, 58.07031
1199.996, 5.060547
1200.479, 14.93359
1200.961, 40.42383
1201.443, 116.9922
1201.925, 125.9082
1202.407, 75.41211
1202.889, 60.76562
1203.371, 86.20508
1203.853, 95.11719
1204.336, 185.0293
1204.818, 206.9707
1205.300, 115.0820
1205.782, 29.45703
1206.264, 7.8125000E-02
1206.746, 0.0000000E+00
##END=



