##NAMES=Sodalite
##RRUFFID=R060435
##IDEAL CHEMISTRY=Na_4_Si_3_Al_3_O_12_Cl
##LOCALITY=Koksha Valley, Badakshan Province, Afghanistan
##OWNER=RRUFF
##SOURCE=Herb Obodda
##DESCRIPTION=Pale purple fragment
##STATUS=The identification of this mineral has been confirmed by X-ray diffraction and chemical analysis
##URL=rruff.info/R060435
##MEASURED CHEMISTRY=(Na_0.99_K_0.01_)_8_Al_6.00_Si_6.00_O_24_Cl_2_
174.9758, 0.0000000E+00
175.4579, 1.133545
175.9401, 1.600739
176.4222, 1.662842
176.9043, 1.592285
177.3864, 1.274750
177.8685, 0.9419250
178.3506, 1.289337
178.8328, 2.276031
179.3149, 3.224701
179.7970, 3.702881
180.2791, 3.769989
180.7612, 3.842896
181.2433, 5.265045
181.7255, 5.936829
182.2076, 5.494476
182.6897, 4.072052
183.1718, 2.965881
183.6539, 2.749786
184.1360, 3.016785
184.6181, 3.666229
185.1003, 4.815125
185.5824, 5.710968
186.0645, 5.371216
186.5466, 2.145813
187.0287, 0.1462100
187.5108, 0.8147890
187.9930, 0.4541930
188.4751, 0.2819520
188.9572, 1.014771
189.4393, 1.639374
189.9214, 2.457001
190.4035, 4.503021
190.8857, 5.731415
191.3678, 5.156281
191.8499, 3.349762
192.3320, 1.881714
192.8141, 2.251556
193.2962, 3.932495
193.7784, 4.366791
194.2605, 2.605255
194.7426, 1.340942
195.2247, 1.912018
195.7068, 3.784729
196.1889, 5.183014
196.6711, 4.887238
197.1532, 3.176422
197.6353, 1.962494
198.1174, 1.369171
198.5995, 1.111877
199.0816, 1.129578
199.5638, 1.394318
200.0459, 1.734955
200.5280, 2.129730
201.0101, 2.501862
201.4922, 2.624268
201.9743, 2.052917
202.4565, 1.674713
202.9386, 2.646393
203.4207, 5.026886
203.9028, 6.804535
204.3849, 6.450836
204.8670, 4.931793
205.3492, 3.580414
205.8313, 2.625397
206.3134, 1.929657
206.7955, 1.220245
207.2776, 0.3750610
207.7597, 9.2101999E-02
208.2419, 1.749146
208.7240, 3.741150
209.2061, 4.304169
209.6882, 2.564087
210.1703, 0.2025760
210.6524, 1.806580
211.1346, 1.922119
211.6167, 1.646820
212.0988, 1.092224
212.5809, 0.4679570
213.0630, 1.7639000E-02
213.5451, 0.1238100
214.0273, 0.1744380
214.5094, 0.7137150
214.9915, 2.299316
215.4736, 3.336639
215.9557, 3.257782
216.4378, 2.698486
216.9200, 2.217743
217.4021, 2.053986
217.8842, 2.205902
218.3663, 2.707001
218.8484, 4.037415
219.3305, 5.022797
219.8127, 5.400208
220.2948, 5.449738
220.7769, 5.434601
221.2590, 5.474182
221.7411, 5.568237
222.2232, 5.721588
222.7054, 6.141022
223.1875, 6.363953
223.6696, 6.105042
224.1517, 5.728058
224.6338, 5.630585
225.1159, 5.989807
225.5980, 6.730042
226.0802, 7.646362
226.5623, 8.855499
227.0444, 10.10638
227.5265, 11.61160
228.0086, 13.08459
228.4907, 14.04984
228.9729, 14.28647
229.4550, 14.10931
229.9371, 14.32614
230.4192, 15.15750
230.9013, 16.00659
231.3834, 16.86975
231.8656, 17.67590
232.3477, 18.34186
232.8298, 18.96161
233.3119, 19.37811
233.7940, 19.38611
234.2761, 18.65137
234.7583, 18.37894
235.2404, 19.15073
235.7225, 20.53577
236.2046, 21.88315
236.6867, 23.06854
237.1688, 23.93158
237.6510, 23.99982
238.1331, 23.11404
238.6152, 22.54736
239.0973, 22.69052
239.5794, 23.45187
240.0615, 24.72900
240.5437, 26.65802
241.0258, 28.76752
241.5079, 30.45099
241.9900, 31.73926
242.4721, 32.88351
242.9542, 33.69394
243.4364, 34.42953
243.9185, 35.87137
244.4006, 38.46118
244.8827, 41.17404
245.3648, 43.05814
245.8469, 44.26151
246.3290, 45.19330
246.8112, 45.60596
247.2933, 45.81281
247.7754, 46.92130
248.2575, 49.42081
248.7396, 52.27213
249.2217, 54.92966
249.7039, 57.31430
250.1860, 59.06635
250.6681, 59.54306
251.1502, 59.16135
251.6323, 59.47507
252.1144, 60.66806
252.5966, 62.37808
253.0787, 64.47971
253.5608, 66.88339
254.0429, 69.41049
254.5250, 71.99783
255.0071, 74.60965
255.4893, 77.12469
255.9714, 79.36005
256.4535, 81.80960
256.9356, 84.85608
257.4177, 88.20947
257.8998, 91.45056
258.3820, 94.40417
258.8641, 97.01620
259.3462, 98.99417
259.8283, 99.87640
260.3104, 100.8521
260.7925, 102.5192
261.2747, 104.4690
261.7568, 106.2566
262.2389, 107.8033
262.7210, 108.9526
263.2031, 108.9711
263.6852, 107.6882
264.1674, 105.3328
264.6495, 101.2525
265.1316, 96.63589
265.6137, 92.80283
266.0958, 90.36536
266.5779, 88.81375
267.0601, 86.99771
267.5422, 84.81885
268.0243, 82.49103
268.5064, 80.40509
268.9885, 78.03433
269.4706, 74.54376
269.9528, 69.69650
270.4349, 64.49249
270.9170, 60.90820
271.3991, 59.93210
271.8812, 58.65051
272.3633, 56.56754
272.8455, 54.34378
273.3276, 52.22656
273.8097, 50.37048
274.2918, 49.15274
274.7739, 49.43311
275.2560, 52.84122
275.7382, 54.19498
276.2202, 52.43298
276.7024, 49.88974
277.1845, 47.82397
277.6666, 46.48422
278.1487, 45.56662
278.6308, 44.80087
279.1129, 44.11487
279.5951, 43.91983
280.0772, 44.67123
280.5593, 45.43729
281.0414, 45.70703
281.5235, 45.50937
282.0056, 45.10361
282.4878, 44.69122
282.9699, 44.17395
283.4520, 44.51929
283.9341, 46.03583
284.4162, 47.97464
284.8983, 50.57101
285.3805, 53.40784
285.8626, 55.50641
286.3447, 55.99356
286.8268, 54.90897
287.3089, 54.78946
287.7910, 55.79285
288.2732, 57.48697
288.7553, 60.07672
289.2374, 63.25677
289.7195, 66.61209
290.2016, 69.95908
290.6837, 73.13104
291.1659, 75.24289
291.6480, 76.19522
292.1301, 76.23575
292.6122, 74.99945
293.0943, 72.96304
293.5764, 70.86172
294.0586, 69.04190
294.5407, 67.16202
295.0228, 64.24588
295.5049, 59.66754
295.9870, 54.72891
296.4691, 48.87811
296.9513, 42.94586
297.4334, 37.90210
297.9155, 34.06384
298.3976, 30.85098
298.8797, 27.25687
299.3618, 22.42926
299.8440, 18.96805
300.3261, 18.07465
300.8082, 17.78357
301.2903, 16.28571
301.7724, 13.34091
302.2545, 10.23068
302.7367, 8.474701
303.2188, 8.495239
303.7009, 8.426086
304.1830, 8.297211
304.6651, 8.063232
305.1472, 7.690704
305.6294, 7.181702
306.1115, 6.562988
306.5936, 5.857056
307.0757, 5.060394
307.5578, 4.153625
308.0399, 2.627655
308.5221, 1.501984
309.0042, 1.481232
309.4863, 2.257782
309.9684, 3.029968
310.4505, 3.302551
310.9326, 3.122070
311.4148, 2.759491
311.8969, 1.911285
312.3790, 1.261200
312.8611, 1.171082
313.3432, 1.352478
313.8253, 1.285217
314.3075, 0.7114260
314.7896, 0.1051330
315.2717, 0.4818730
315.7538, 8.7738000E-02
316.2359, 0.2956240
316.7180, 0.5417790
317.2001, 0.7582400
317.6823, 1.269806
318.1644, 2.150299
318.6465, 2.779663
319.1286, 2.115265
319.6107, 0.9580690
320.0928, 2.683319
320.5750, 2.212921
321.0571, 1.016937
321.5392, 1.7578000E-02
322.0213, 0.6546940
322.5034, 0.9862060
322.9855, 1.063232
323.4677, 0.7744450
323.9498, 0.9797970
324.4319, 2.359741
324.9140, 3.622253
325.3961, 3.907806
325.8782, 3.391693
326.3604, 2.937225
326.8425, 3.240723
327.3246, 4.184845
327.8067, 4.317230
328.2888, 2.749847
328.7709, 1.477173
329.2531, 1.314728
329.7352, 1.766602
330.2173, 1.958618
330.6994, 1.463745
331.1815, 0.5693050
331.6636, 7.0099004E-02
332.1458, 0.4986270
332.6279, 0.8260800
333.1100, 0.8117370
333.5921, 0.6315610
334.0742, 0.2565000
334.5563, 0.2813420
335.0385, 0.4014890
335.5206, 0.9059750
336.0027, 4.903687
336.4848, 7.003204
336.9669, 6.268494
337.4490, 4.609039
337.9312, 2.792603
338.4133, 1.147034
338.8954, 0.1712650
339.3775, 0.4360660
339.8596, 2.093903
340.3417, 3.003204
340.8239, 2.699524
341.3060, 2.241089
341.7881, 1.907196
342.2702, 1.704437
342.7523, 1.586761
343.2344, 1.533478
343.7166, 1.524017
344.1987, 1.444427
344.6808, 1.123535
345.1629, 0.9241640
345.6450, 0.8411560
346.1271, 0.9161380
346.6093, 1.083527
347.0914, 1.330872
347.5735, 1.913574
348.0556, 3.525604
348.5377, 8.176544
349.0198, 10.09415
349.5020, 6.725861
349.9841, 2.906403
350.4662, 2.109985
350.9483, 4.563019
351.4304, 8.132019
351.9125, 10.66138
352.3947, 12.13010
352.8768, 12.64954
353.3589, 11.09482
353.8410, 9.719940
354.3231, 9.195740
354.8052, 9.466095
355.2874, 10.38858
355.7695, 12.01712
356.2516, 14.06513
356.7337, 14.88489
357.2158, 13.36810
357.6979, 12.05341
358.1800, 11.36023
358.6621, 11.11334
359.1443, 11.23123
359.6264, 11.67999
360.1085, 12.13556
360.5906, 11.93356
361.0727, 10.69522
361.5548, 9.801514
362.0370, 9.341675
362.5191, 9.277435
363.0012, 9.953369
363.4833, 11.21133
363.9654, 12.14572
364.4475, 11.53671
364.9297, 9.233887
365.4118, 7.931244
365.8939, 8.493378
366.3760, 9.153198
366.8581, 8.947693
367.3402, 8.317657
367.8224, 8.268951
368.3045, 9.595245
368.7866, 11.72092
369.2687, 12.98859
369.7508, 13.29697
370.2329, 12.89554
370.7151, 11.15817
371.1972, 9.160156
371.6793, 8.185181
372.1614, 8.731232
372.6435, 9.368164
373.1256, 7.886597
373.6078, 4.075958
374.0899, 1.515442
374.5720, 1.948486
375.0541, 3.027161
375.5362, 2.867371
376.0183, 1.554077
376.5005, 0.4689030
376.9826, 0.9695430
377.4647, 2.453125
377.9468, 2.584015
378.4289, 0.8159180
378.9110, 0.9489140
379.3932, 1.506348
379.8753, 1.245911
380.3574, 0.7286990
380.8395, 0.2200930
381.3216, 1.025146
381.8037, 0.7416990
382.2859, 0.6516720
382.7680, 1.774963
383.2501, 1.939453
383.7322, 1.527344
384.2143, 1.197632
384.6964, 0.9883420
385.1786, 0.7579350
385.6607, 0.3517460
386.1428, 0.1239010
386.6249, 0.4031370
387.1070, 0.4135740
387.5891, 0.2667240
388.0713, 0.1464840
388.5534, 4.3517999E-02
389.0355, 0.4131470
389.5176, 1.883301
389.9997, 3.371460
390.4818, 3.895630
390.9640, 3.417725
391.4461, 2.337036
391.9282, 0.6873780
392.4103, 1.287781
392.8924, 2.501404
393.3745, 2.305481
393.8567, 2.212891
394.3388, 3.270752
394.8209, 4.783020
395.3030, 5.233276
395.7851, 3.979614
396.2672, 1.970154
396.7494, 0.8751220
397.2315, 1.163147
397.7136, 1.396606
398.1957, 1.388733
398.6778, 1.374268
399.1599, 1.651123
399.6420, 2.188965
400.1241, 2.608154
400.6063, 2.529480
401.0884, 1.933044
401.5705, 1.664917
402.0526, 2.162842
402.5347, 2.465637
403.0168, 1.909790
403.4990, 1.047546
403.9811, 0.9049070
404.4632, 1.986389
404.9453, 3.685913
405.4274, 4.469055
405.9095, 3.368958
406.3917, 3.002502
406.8738, 3.804993
407.3559, 4.990967
407.8380, 6.217712
408.3201, 7.324829
408.8022, 8.070740
409.2844, 8.166199
409.7665, 7.552246
410.2486, 6.867371
410.7307, 5.735535
411.2128, 4.952881
411.6949, 5.021790
412.1771, 5.531982
412.6592, 5.772217
413.1413, 5.336304
413.6234, 4.630493
414.1055, 4.658264
414.5876, 5.818054
415.0698, 6.503235
415.5519, 5.798401
416.0340, 4.843628
416.5161, 4.350830
416.9982, 4.420715
417.4803, 4.809021
417.9625, 5.456848
418.4446, 6.304321
418.9267, 6.951416
419.4088, 7.271973
419.8909, 7.557678
420.3730, 8.019104
420.8552, 8.576782
421.3373, 9.068054
421.8194, 9.496094
422.3015, 9.773010
422.7836, 9.516541
423.2657, 8.740479
423.7479, 8.717529
424.2300, 10.40771
424.7121, 12.72235
425.1942, 14.01611
425.6763, 14.20923
426.1584, 13.86798
426.6406, 12.68927
427.1227, 11.28967
427.6048, 10.72327
428.0869, 11.18365
428.5690, 12.26733
429.0511, 13.74329
429.5333, 15.61951
430.0154, 17.28864
430.4975, 19.28162
430.9796, 20.56732
431.4617, 19.59277
431.9438, 17.38141
432.4260, 16.70880
432.9081, 18.99939
433.3902, 23.07306
433.8723, 26.19836
434.3544, 28.20496
434.8365, 29.41718
435.3187, 29.12732
435.8008, 28.50427
436.2829, 28.47150
436.7650, 29.05743
437.2471, 29.85388
437.7292, 30.38879
438.2114, 30.64691
438.6935, 32.19702
439.1756, 36.03961
439.6577, 39.99194
440.1398, 42.44775
440.6219, 44.99707
441.1040, 50.38721
441.5862, 59.74243
442.0683, 70.62067
442.5504, 78.32635
443.0325, 81.79987
443.5146, 85.45239
443.9967, 87.48114
444.4789, 91.60437
444.9610, 101.5206
445.4431, 115.7729
445.9252, 129.0368
446.4073, 136.7032
446.8894, 140.3439
447.3716, 146.1085
447.8537, 154.6734
448.3358, 163.7195
448.8179, 172.4438
449.3000, 181.1602
449.7821, 190.4064
450.2643, 200.4142
450.7464, 210.0478
451.2285, 218.1267
451.7106, 224.9446
452.1927, 231.4386
452.6748, 237.2063
453.1570, 243.7845
453.6391, 252.9113
454.1212, 264.1952
454.6033, 276.6725
455.0854, 290.5067
455.5675, 305.1015
456.0497, 319.6362
456.5318, 334.2748
457.0139, 350.3255
457.4960, 368.3148
457.9781, 388.3475
458.4602, 411.3151
458.9424, 438.9818
459.4245, 465.3726
459.9066, 489.3898
460.3887, 511.5836
460.8708, 533.3774
461.3529, 554.5530
461.8351, 572.5197
462.3172, 585.1730
462.7993, 592.4528
463.2814, 593.4035
463.7635, 588.0641
464.2456, 576.8781
464.7278, 558.6902
465.2099, 534.9988
465.6920, 507.2880
466.1741, 476.1077
466.6562, 442.5938
467.1383, 408.1892
467.6205, 371.6439
468.1026, 337.0967
468.5847, 304.2974
469.0668, 273.9497
469.5489, 246.7288
470.0310, 222.3986
470.5132, 200.5272
470.9953, 180.7603
471.4774, 163.2947
471.9595, 149.0648
472.4416, 138.7878
472.9237, 129.1616
473.4059, 118.8505
473.8880, 108.8863
474.3701, 100.3008
474.8522, 93.27588
475.3343, 86.90466
475.8164, 80.37335
476.2986, 74.12817
476.7807, 69.51154
477.2628, 66.95532
477.7449, 64.57648
478.2270, 60.88782
478.7091, 56.17969
479.1913, 51.81689
479.6734, 47.40851
480.1555, 43.86536
480.6376, 42.04529
481.1197, 41.39972
481.6018, 40.92224
482.0839, 40.31848
482.5660, 39.44568
483.0482, 38.04736
483.5303, 35.92090
484.0124, 33.78949
484.4945, 31.15570
484.9766, 28.79718
485.4587, 27.29858
485.9409, 26.46448
486.4230, 25.77252
486.9051, 25.08667
487.3872, 24.39703
487.8693, 23.68085
488.3514, 23.08105
488.8336, 22.25562
489.3157, 20.70636
489.7978, 19.24048
490.2799, 18.58496
490.7620, 18.59796
491.2441, 18.37683
491.7263, 16.86853
492.2084, 14.54980
492.6905, 13.90833
493.1726, 15.65888
493.6547, 17.36847
494.1368, 18.04272
494.6190, 18.16022
495.1011, 18.15106
495.5832, 18.09406
496.0653, 17.87421
496.5474, 17.54755
497.0295, 16.98694
497.5117, 15.43176
497.9938, 12.38281
498.4759, 9.984863
498.9580, 10.32202
499.4401, 12.97443
499.9222, 15.29547
500.4044, 18.41528
500.8865, 19.87939
501.3686, 16.91882
501.8507, 11.58435
502.3328, 8.202576
502.8149, 8.292969
503.2971, 10.09241
503.7792, 11.26788
504.2613, 11.98132
504.7434, 11.28906
505.2255, 7.404724
505.7076, 4.038513
506.1898, 3.230530
506.6719, 4.268738
507.1540, 5.758484
507.6361, 7.033569
508.1182, 7.739685
508.6003, 6.777466
509.0825, 3.077698
509.5646, 0.5927120
510.0467, 0.4625240
510.5288, 1.018433
511.0109, 1.635010
511.4930, 2.162170
511.9752, 2.415405
512.4573, 2.010803
512.9394, 1.428589
513.4215, 1.991638
513.9036, 3.941895
514.3857, 5.551453
514.8679, 6.221313
515.3500, 6.125366
515.8321, 5.610840
516.3142, 4.660034
516.7963, 3.591187
517.2784, 2.159851
517.7606, 0.8536380
518.2427, 0.5942380
518.7248, 1.406677
519.2069, 2.197632
519.6890, 2.230347
520.1711, 1.661133
520.6533, 1.215515
521.1354, 0.9348140
521.6175, 0.6826170
522.0996, 0.5132450
522.5817, 0.3181150
523.0638, 0.1346440
523.5460, 0.8061520
524.0281, 1.329651
524.5102, 1.398438
524.9923, 1.015198
525.4744, 4.5226999E-02
525.9565, 3.233154
526.4387, 5.085144
526.9208, 3.900391
527.4029, 1.658936
527.8850, 0.4083860
528.3671, 0.6664430
528.8492, 1.554138
529.3314, 2.429199
529.8135, 3.234863
530.2956, 3.320984
530.7777, 2.283997
531.2598, 1.298645
531.7419, 1.181396
532.2241, 1.565308
532.7062, 1.947815
533.1883, 2.236023
533.6704, 2.516968
534.1525, 2.932190
534.6346, 3.377808
535.1168, 3.556091
535.5989, 3.373901
536.0810, 3.221741
536.5631, 3.619629
537.0452, 4.604492
537.5273, 4.687622
538.0095, 3.165466
538.4916, 1.620483
538.9737, 0.7491460
539.4558, 0.1748660
539.9379, 0.8728640
540.4200, 2.586609
540.9022, 4.129883
541.3843, 4.207031
541.8664, 2.458313
542.3485, 1.287842
542.8306, 1.612671
543.3127, 1.536682
543.7948, 0.3377080
544.2769, 2.757629
544.7590, 3.581299
545.2411, 1.875183
545.7233, 0.4438480
546.2054, 0.8601680
546.6875, 0.4763790
547.1696, 1.419434
547.6517, 1.527161
548.1339, 1.395081
548.6160, 1.564758
549.0981, 1.899536
549.5802, 1.985657
550.0623, 1.363770
550.5444, 0.8551030
551.0266, 1.222290
551.5087, 2.091370
551.9908, 2.564392
552.4729, 2.350098
552.9550, 1.865723
553.4371, 1.606628
553.9193, 1.595520
554.4014, 1.758789
554.8835, 2.646667
555.3656, 3.097168
555.8477, 2.220825
556.3298, 0.7929690
556.8120, 2.0081000E-02
557.2941, 0.3244020
557.7762, 1.061890
558.2583, 1.142761
558.7404, 0.3685300
559.2225, 0.7672120
559.7047, 3.888184
560.1868, 6.142212
560.6689, 5.176636
561.1510, 2.492859
561.6331, 0.6789550
562.1152, 0.6878050
562.5974, 1.230591
563.0795, 0.9913940
563.5616, 0.2749020
564.0437, 0.4455570
564.5258, 2.030273
565.0079, 3.355469
565.4901, 2.557007
565.9722, 0.2132570
566.4543, 1.573853
566.9364, 0.8093870
567.4185, 0.5097660
567.9006, 2.347412
568.3828, 4.193848
568.8649, 5.383972
569.3470, 5.736755
569.8291, 5.508240
570.3112, 4.929138
570.7933, 3.986572
571.2755, 2.899963
571.7576, 0.9822390
572.2397, 0.1514280
572.7218, 0.5198970
573.2039, 1.811707
573.6860, 2.185913
574.1682, 1.296326
574.6503, 0.5542600
575.1324, 1.760315
575.6145, 4.339905
576.0966, 5.699646
576.5787, 5.533813
577.0609, 4.696899
577.5430, 3.111694
578.0251, 1.386292
578.5072, 0.9792480
578.9893, 2.497986
579.4714, 4.032532
579.9536, 5.259338
580.4357, 5.888794
580.9178, 5.254822
581.3999, 3.445251
581.8820, 1.586914
582.3641, 0.5382080
582.8463, 0.2459720
583.3284, 0.2695920
583.8105, 0.7203980
584.2926, 1.291565
584.7747, 2.320190
585.2568, 3.190674
585.7390, 3.328979
586.2211, 2.882019
586.7032, 2.313049
587.1853, 2.094604
587.6674, 2.084045
588.1495, 1.744446
588.6317, 1.107544
589.1138, 0.9889530
589.5959, 1.745117
590.0780, 2.901611
590.5601, 3.698975
591.0422, 4.147949
591.5244, 4.577209
592.0065, 5.131409
592.4886, 5.668152
592.9707, 5.980957
593.4528, 6.132874
593.9349, 6.414429
594.4171, 6.964355
594.8992, 7.554443
595.3813, 7.741150
595.8634, 7.199341
596.3455, 7.210144
596.8276, 8.750366
597.3098, 9.749817
597.7919, 8.935120
598.2740, 6.969055
598.7561, 4.993469
599.2382, 3.544983
599.7203, 2.807251
600.2025, 3.018738
600.6846, 4.066345
601.1667, 5.040405
601.6488, 6.063721
602.1309, 6.756409
602.6130, 6.282227
603.0952, 5.410461
603.5773, 5.883301
604.0594, 9.020508
604.5415, 11.59595
605.0236, 11.48163
605.5057, 9.830750
605.9879, 8.022949
606.4700, 6.421448
606.9521, 5.741882
607.4342, 6.811829
607.9163, 9.231018
608.3984, 9.990540
608.8806, 6.970032
609.3627, 5.168579
609.8448, 5.655212
610.3269, 6.973999
610.8090, 8.512878
611.2911, 9.874695
611.7733, 10.20917
612.2554, 8.500244
612.7375, 5.744873
613.2196, 4.261719
613.7017, 4.110413
614.1838, 4.780396
614.6660, 6.891174
615.1481, 8.836670
615.6302, 8.234619
616.1123, 5.296631
616.5944, 3.217102
617.0765, 3.086426
617.5587, 3.626282
618.0408, 4.167358
618.5229, 4.679016
619.0050, 5.223572
619.4871, 5.821716
619.9692, 6.408142
620.4514, 6.930176
620.9335, 7.440857
621.4156, 7.435730
621.8977, 6.466187
622.3798, 5.535889
622.8619, 4.620056
623.3441, 3.997742
623.8262, 4.110107
624.3083, 4.999207
624.7904, 5.971924
625.2725, 6.391357
625.7546, 6.313660
626.2367, 5.870422
626.7188, 5.005249
627.2009, 4.652527
627.6830, 5.679993
628.1652, 7.208801
628.6473, 7.032532
629.1294, 4.488831
629.6115, 2.712646
630.0936, 2.452881
630.5757, 2.869629
631.0579, 3.475586
631.5400, 4.155273
632.0221, 4.898743
632.5042, 5.695740
632.9863, 6.362000
633.4684, 6.412964
633.9506, 5.649353
634.4327, 5.302124
634.9148, 5.830627
635.3969, 6.259949
635.8790, 5.783752
636.3611, 4.958435
636.8433, 4.907043
637.3254, 6.210938
637.8075, 7.357178
638.2896, 7.016541
638.7717, 5.775940
639.2538, 4.572327
639.7360, 3.576721
640.2181, 3.485474
640.7002, 5.123352
641.1823, 7.757507
641.6644, 8.379395
642.1465, 4.930725
642.6287, 2.213867
643.1108, 8.9111000E-02
643.5929, 1.117493
644.0750, 0.2764280
644.5571, 1.691528
645.0392, 2.137146
645.5214, 0.8280030
646.0035, 4.659668
646.4856, 4.600098
646.9677, 0.6630250
647.4498, 2.614624
647.9319, 4.386047
648.4141, 5.409607
648.8962, 6.304810
649.3783, 6.958618
649.8604, 6.826538
650.3425, 5.178101
650.8246, 3.639404
651.3068, 2.564331
651.7889, 2.098267
652.2710, 2.763062
652.7531, 4.379272
653.2352, 5.795654
653.7173, 6.103638
654.1995, 5.538818
654.6816, 4.993042
655.1637, 4.207520
655.6458, 4.017944
656.1279, 5.505371
656.6100, 6.813477
657.0922, 6.712524
657.5743, 5.508301
658.0564, 4.312500
658.5385, 3.358398
659.0206, 2.841797
659.5027, 3.483765
659.9849, 4.716064
660.4670, 4.672485
660.9491, 2.884521
661.4312, 0.9710690
661.9133, 0.4350590
662.3954, 1.171143
662.8776, 1.722046
663.3597, 2.143066
663.8418, 2.281372
664.3239, 1.845093
664.8060, 1.362427
665.2881, 1.147339
665.7703, 1.267334
666.2524, 1.863403
666.7345, 3.338501
667.2166, 4.864624
667.6987, 4.705811
668.1808, 2.917236
668.6630, 1.332764
669.1451, 0.2406010
669.6272, 0.2059330
670.1093, 0.5167240
670.5914, 2.235107
671.0735, 2.888184
671.5557, 1.080933
672.0378, 0.1265870
672.5199, 0.5886230
673.0020, 2.188354
673.4841, 3.683594
673.9662, 4.849731
674.4484, 5.880371
674.9305, 7.039307
675.4126, 8.049194
675.8947, 7.810913
676.3768, 5.963257
676.8589, 4.469482
677.3411, 3.683594
677.8232, 3.444214
678.3053, 3.913452
678.7874, 4.835938
679.2695, 5.220703
679.7516, 4.534180
680.2338, 3.654541
680.7159, 2.805908
681.1980, 2.203247
681.6801, 2.362671
682.1622, 3.277344
682.6443, 4.298462
683.1265, 4.929077
683.6086, 5.164551
684.0907, 4.883301
684.5728, 3.382568
685.0549, 2.869019
685.5370, 4.749023
686.0192, 6.700195
686.5013, 7.292236
686.9834, 6.814331
687.4655, 6.372803
687.9476, 6.492554
688.4297, 6.578613
688.9119, 5.765991
689.3940, 4.567627
689.8761, 4.384155
690.3582, 5.444214
690.8403, 6.450317
691.3224, 6.414673
691.8046, 5.508667
692.2867, 4.501587
692.7688, 2.729004
693.2509, 2.026611
693.7330, 3.924683
694.2151, 5.617188
694.6973, 4.552612
695.1794, 1.796143
695.6615, 9.8145001E-02
696.1436, 0.1372070
696.6257, 1.195190
697.1078, 1.437378
697.5900, 1.155151
698.0721, 1.579102
698.5542, 2.916382
699.0363, 4.407104
699.5184, 5.653809
700.0005, 6.608765
700.4827, 7.061279
700.9648, 6.562500
701.4469, 6.220825
701.9290, 6.178345
702.4111, 6.382568
702.8932, 7.139648
703.3754, 7.965332
703.8575, 7.708496
704.3396, 6.127808
704.8217, 4.777344
705.3038, 5.577637
705.7859, 7.835449
706.2681, 8.489868
706.7502, 7.138428
707.2323, 5.864624
707.7144, 5.913086
708.1965, 6.687256
708.6786, 6.738770
709.1607, 5.547974
709.6428, 5.158691
710.1249, 6.991943
710.6071, 8.412476
711.0892, 7.402222
711.5713, 5.102295
712.0534, 3.446777
712.5355, 3.115356
713.0176, 3.597778
713.4998, 4.828979
713.9819, 6.510376
714.4640, 6.697388
714.9461, 5.038574
715.4282, 4.052856
715.9103, 5.142334
716.3925, 7.051270
716.8746, 8.065918
717.3567, 8.144287
717.8388, 7.960083
718.3209, 7.639038
718.8030, 6.955322
719.2852, 4.921387
719.7673, 2.854736
720.2494, 3.052734
720.7315, 5.708862
721.2136, 8.195435
721.6957, 7.656982
722.1779, 5.231201
722.6600, 5.342407
723.1421, 8.363281
723.6242, 10.67896
724.1063, 11.13696
724.5884, 10.73950
725.0706, 10.30859
725.5527, 9.706299
726.0348, 9.721069
726.5169, 11.43152
726.9990, 12.52832
727.4811, 11.33997
727.9633, 9.751099
728.4454, 10.06714
728.9275, 12.20300
729.4096, 14.25745
729.8917, 14.95105
730.3738, 14.94519
730.8560, 15.95605
731.3381, 18.05359
731.8202, 18.65149
732.3023, 16.63831
732.7844, 14.27100
733.2665, 13.39771
733.7487, 13.54639
734.2308, 12.77979
734.7129, 10.07300
735.1950, 8.387695
735.6771, 9.363647
736.1592, 10.70984
736.6414, 10.57324
737.1235, 9.287842
737.6056, 8.019165
738.0877, 7.276367
738.5698, 6.965820
739.0519, 7.093628
739.5341, 7.579102
740.0162, 7.769287
740.4983, 7.570679
740.9804, 7.251587
741.4625, 6.636963
741.9446, 6.208130
742.4268, 7.202271
742.9089, 10.12415
743.3910, 11.82471
743.8731, 11.54272
744.3552, 10.49194
744.8373, 8.640747
745.3195, 6.667969
745.8016, 5.549194
746.2837, 5.430908
746.7658, 5.501831
747.2479, 4.764648
747.7300, 3.835938
748.2122, 4.866821
748.6943, 7.912109
749.1764, 9.936646
749.6585, 10.15479
750.1406, 8.838135
750.6227, 5.492676
751.1049, 0.2877200
751.5870, 1.816528
752.0691, 2.636719
752.5512, 5.244385
753.0333, 2.776978
753.5154, 0.7489010
753.9976, 1.970947
754.4797, 1.107056
754.9618, 0.1781010
755.4439, 0.2467040
755.9260, 0.5651860
756.4081, 0.1507570
756.8903, 0.8658450
757.3724, 2.161743
757.8545, 3.758057
758.3366, 4.362671
758.8187, 2.716553
759.3008, 0.1906740
759.7830, 0.4090580
760.2651, 5.781250
760.7472, 8.218994
761.2293, 5.761230
761.7114, 2.777100
762.1935, 0.2968750
762.6757, 1.305420
763.1578, 1.490356
763.6399, 0.1738280
764.1220, 1.572876
764.6041, 3.417480
765.0862, 4.978882
765.5684, 5.174927
766.0505, 4.431274
766.5326, 5.177979
767.0147, 8.314941
767.4968, 11.13245
767.9789, 10.34924
768.4611, 6.172974
768.9432, 3.664307
769.4253, 3.611206
769.9074, 3.869629
770.3895, 4.363037
770.8716, 4.822754
771.3538, 5.362793
771.8359, 5.719971
772.3180, 4.958130
772.8001, 1.938721
773.2822, 0.5499270
773.7643, 8.1665002E-02
774.2465, 2.088257
774.7286, 2.904297
775.2107, 2.429565
775.6928, 1.757080
776.1749, 1.466919
776.6570, 1.609741
777.1392, 2.548340
777.6213, 4.595337
778.1034, 5.167603
778.5855, 3.515015
779.0676, 1.838623
779.5497, 0.8720700
780.0319, 0.5013430
780.5140, 0.8839110
780.9961, 2.143677
781.4782, 2.548584
781.9603, 0.1838380
782.4424, 1.570557
782.9246, 7.7514999E-02
783.4067, 3.201050
783.8888, 5.139771
784.3709, 5.281128
784.8530, 4.100708
785.3351, 1.603149
785.8173, 1.346558
786.2994, 2.492065
786.7815, 1.816772
787.2636, 0.7700200
787.7457, 0.6112060
788.2278, 1.457031
788.7100, 0.4957280
789.1921, 1.403442
789.6742, 0.7098390
790.1563, 4.699097
790.6384, 8.713745
791.1205, 10.14966
791.6026, 11.02588
792.0847, 12.94019
792.5668, 14.95691
793.0490, 15.16248
793.5311, 13.05103
794.0132, 10.57178
794.4953, 9.653442
794.9774, 7.204346
795.4595, 7.180908
795.9417, 3.729980
796.4238, 1.286621
796.9059, 0.6378170
797.3880, 0.7945560
797.8701, 0.6462400
798.3522, 0.2558590
798.8344, 0.6933590
799.3165, 2.924561
799.7986, 4.095947
800.2807, 2.277832
800.7628, 0.5799560
801.2449, 1.060303
801.7271, 3.095459
802.2092, 4.802979
802.6913, 5.488281
803.1734, 6.453735
803.6555, 8.857178
804.1376, 11.51343
804.6198, 13.49158
805.1019, 14.57385
805.5840, 14.27759
806.0661, 12.42993
806.5482, 10.29236
807.0303, 9.582642
807.5125, 10.11499
807.9946, 10.25745
808.4767, 9.952881
808.9588, 9.834839
809.4409, 10.17676
809.9230, 10.69360
810.4052, 10.64868
810.8873, 9.999390
811.3694, 9.035034
811.8515, 6.975220
812.3336, 5.750488
812.8157, 6.280396
813.2979, 7.232666
813.7800, 7.576904
814.2621, 7.463989
814.7442, 7.491211
815.2263, 7.879028
815.7084, 8.369141
816.1906, 8.357910
816.6727, 8.389038
817.1548, 10.10461
817.6369, 13.27490
818.1190, 15.40344
818.6011, 15.27893
819.0833, 14.16919
819.5654, 14.02124
820.0475, 14.91821
820.5296, 15.02356
821.0117, 14.10864
821.4938, 13.13074
821.9760, 12.02368
822.4581, 11.05774
822.9402, 10.80005
823.4223, 10.96777
823.9044, 10.20093
824.3865, 7.204834
824.8687, 4.843628
825.3508, 4.589844
825.8329, 5.193970
826.3150, 5.464722
826.7971, 5.487549
827.2792, 5.911499
827.7614, 7.033569
828.2435, 8.480469
828.7256, 10.18250
829.2077, 11.83618
829.6898, 11.88574
830.1719, 10.28638
830.6541, 9.506714
831.1362, 10.66541
831.6183, 12.02734
832.1004, 11.32666
832.5825, 8.599854
833.0646, 6.738037
833.5468, 6.162476
834.0289, 5.784424
834.5110, 5.777954
834.9931, 5.657959
835.4752, 4.670898
835.9573, 3.358887
836.4395, 3.303223
836.9216, 5.417725
837.4037, 7.188232
837.8858, 6.981934
838.3679, 6.025146
838.8500, 5.424194
839.3322, 5.201660
839.8143, 5.147705
840.2964, 5.093994
840.7785, 5.200317
841.2606, 5.038330
841.7427, 4.972900
842.2249, 7.443970
842.7070, 12.67517
843.1891, 14.31799
843.6712, 9.814819
844.1533, 4.306763
844.6354, 2.139404
845.1176, 2.690674
845.5997, 3.600098
846.0818, 5.128174
846.5639, 6.571533
847.0460, 7.346313
847.5281, 8.374634
848.0103, 10.95459
848.4924, 13.61511
848.9745, 13.67712
849.4566, 10.62085
849.9387, 8.468872
850.4208, 10.83215
850.9030, 13.66199
851.3851, 12.86157
851.8672, 9.922974
852.3493, 7.872070
852.8314, 7.233154
853.3135, 6.427002
853.7957, 3.966797
854.2778, 1.358154
854.7599, 2.734497
855.2420, 7.988892
855.7241, 11.22424
856.2062, 11.65198
856.6884, 10.70752
857.1705, 8.627441
857.6526, 6.281860
858.1347, 5.334961
858.6168, 6.069092
859.0989, 6.906494
859.5811, 8.505371
860.0632, 9.348999
860.5453, 7.860962
861.0274, 6.390747
861.5095, 7.764648
861.9916, 11.31555
862.4738, 13.41260
862.9559, 12.59778
863.4380, 10.66882
863.9201, 6.369873
864.4022, 2.823486
864.8843, 5.730103
865.3665, 13.05579
865.8486, 17.31335
866.3307, 15.40637
866.8128, 11.09888
867.2949, 8.291260
867.7770, 6.943115
868.2592, 7.278809
868.7413, 9.351196
869.2234, 10.93921
869.7055, 11.36548
870.1876, 11.37463
870.6697, 11.69238
871.1519, 12.13647
871.6340, 11.50720
872.1161, 7.983032
872.5981, 6.861084
873.0803, 10.93921
873.5624, 14.67102
874.0445, 16.10681
874.5266, 15.61096
875.0087, 12.95337
875.4908, 7.863525
875.9730, 5.188110
876.4551, 9.845703
876.9372, 13.87708
877.4193, 10.49719
877.9014, 4.469482
878.3835, 2.395874
878.8657, 4.652954
879.3478, 7.698608
879.8299, 9.603271
880.3120, 10.74963
880.7941, 11.47083
881.2762, 11.91479
881.7584, 12.58508
882.2405, 13.51282
882.7226, 13.97937
883.2047, 13.38757
883.6868, 13.43311
884.1689, 16.75281
884.6511, 23.20483
885.1332, 27.78052
885.6153, 30.76257
886.0974, 30.92029
886.5795, 26.73022
887.0616, 21.25366
887.5438, 15.50183
888.0259, 10.34924
888.5080, 8.770386
888.9901, 13.25525
889.4722, 15.42542
889.9543, 12.02295
890.4365, 8.268188
890.9186, 7.157715
891.4007, 7.246704
891.8828, 5.861816
892.3649, 2.959839
892.8470, 1.719482
893.3292, 5.410522
893.8113, 9.647827
894.2934, 9.902466
894.7755, 7.961426
895.2576, 6.613159
895.7397, 6.230713
896.2219, 6.381958
896.7040, 6.862549
897.1861, 7.300903
897.6682, 6.838257
898.1503, 5.692871
898.6324, 6.264648
899.1146, 8.806152
899.5967, 8.800171
900.0788, 4.265259
900.5609, 1.050903
901.0430, 3.714233
901.5251, 3.931885
902.0073, 2.773315
902.4894, 1.456299
902.9715, 3.604004
903.4536, 0.9270020
903.9357, 0.9562990
904.4178, 1.445068
904.9000, 5.555542
905.3821, 7.734497
905.8642, 7.594727
906.3463, 7.524536
906.8284, 8.580933
907.3105, 9.225464
907.7927, 7.967407
908.2748, 6.486450
908.7569, 7.030396
909.2390, 9.001343
909.7211, 9.787720
910.2032, 8.046875
910.6854, 5.911133
911.1675, 5.324341
911.6496, 5.610596
912.1317, 6.090332
912.6138, 6.455688
913.0959, 5.590210
913.5781, 3.262817
914.0602, 1.155762
914.5423, 0.9392090
915.0244, 2.006104
915.5065, 2.632446
915.9886, 2.829834
916.4708, 2.752686
916.9529, 2.244141
917.4350, 2.810913
917.9171, 5.859253
918.3992, 9.460938
918.8813, 10.18909
919.3635, 7.764404
919.8456, 4.902100
920.3277, 0.5975340
920.8098, 2.501221
921.2919, 3.344360
921.7740, 3.231323
922.2562, 2.997070
922.7383, 2.493286
923.2204, 1.132446
923.7025, 1.870850
924.1846, 3.731445
924.6667, 2.992920
925.1489, 1.668823
925.6310, 0.4968260
926.1131, 0.2614750
926.5952, 0.2539060
927.0773, 0.4611820
927.5594, 1.310913
928.0416, 2.218506
928.5237, 2.684692
929.0058, 1.472656
929.4879, 5.9082001E-02
929.9700, 0.5802000
930.4521, 3.068604
930.9343, 5.457153
931.4164, 6.877075
931.8985, 7.487427
932.3806, 7.473877
932.8627, 6.791260
933.3448, 4.722778
933.8270, 1.515015
934.3091, 0.2292480
934.7912, 5.8350001E-02
935.2733, 1.711914
935.7554, 4.589355
936.2375, 7.723877
936.7197, 8.528320
937.2018, 6.481445
937.6839, 5.293945
938.1660, 5.592041
938.6481, 5.137451
939.1302, 2.419434
939.6124, 0.4470210
940.0945, 1.399658
940.5766, 0.5529790
941.0587, 1.207764
941.5408, 6.218994
942.0229, 8.486084
942.5051, 4.885010
942.9872, 1.606445
943.4693, 1.952637
943.9514, 4.276367
944.4335, 6.729980
944.9156, 8.977783
945.3978, 9.646240
945.8799, 6.333740
946.3620, 3.711914
946.8441, 5.067871
947.3262, 7.650635
947.8083, 8.635986
948.2905, 8.304688
948.7726, 8.306396
949.2547, 9.263428
949.7368, 10.37622
950.2189, 10.43311
950.7010, 10.67700
951.1832, 14.19092
951.6653, 18.99512
952.1474, 19.30151
952.6295, 14.85620
953.1116, 11.51270
953.5938, 13.16382
954.0759, 16.96582
954.5580, 17.91504
955.0400, 16.72974
955.5222, 17.93945
956.0043, 21.62134
956.4864, 22.78589
956.9685, 19.47339
957.4506, 16.44189
957.9327, 18.48853
958.4149, 24.34326
958.8970, 28.94800
959.3791, 32.55005
959.8612, 34.76001
960.3433, 35.12891
960.8254, 35.44458
961.3076, 36.65479
961.7897, 38.08569
962.2718, 39.17334
962.7539, 39.86255
963.2360, 39.80884
963.7181, 37.25781
964.2003, 36.64941
964.6824, 39.77295
965.1645, 43.51733
965.6466, 46.65527
966.1287, 48.95728
966.6108, 49.92676
967.0930, 49.48047
967.5751, 49.91162
968.0572, 54.39478
968.5393, 56.47876
969.0214, 50.26636
969.5035, 43.56494
969.9857, 44.69800
970.4678, 50.99951
970.9499, 53.98755
971.4320, 50.64380
971.9141, 47.72583
972.3962, 50.07471
972.8784, 53.70996
973.3605, 55.37134
973.8426, 55.78613
974.3247, 56.41406
974.8068, 57.29443
975.2889, 57.17432
975.7711, 55.08716
976.2532, 53.30029
976.7353, 54.75171
977.2174, 57.98633
977.6995, 60.08813
978.1816, 61.58301
978.6638, 64.70239
979.1459, 70.10669
979.6280, 76.04712
980.1101, 81.04126
980.5922, 85.80396
981.0743, 92.01099
981.5565, 99.28955
982.0386, 104.8660
982.5207, 108.6318
983.0028, 114.6167
983.4849, 124.6360
983.9670, 134.6980
984.4492, 140.5256
984.9313, 142.7209
985.4134, 144.3555
985.8955, 145.8872
986.3776, 142.8496
986.8597, 134.0688
987.3419, 123.2556
987.8240, 111.9231
988.3061, 100.0168
988.7882, 87.02930
989.2703, 73.02075
989.7524, 62.05469
990.2346, 55.96875
990.7167, 48.68140
991.1988, 37.36230
991.6809, 27.63062
992.1630, 22.94604
992.6451, 21.73486
993.1273, 21.71045
993.6094, 23.24023
994.0915, 23.32886
994.5736, 21.81348
995.0557, 19.00244
995.5378, 12.98633
996.0200, 7.666504
996.5021, 6.133057
996.9842, 7.013916
997.4663, 7.343750
997.9484, 6.549805
998.4305, 6.501709
998.9127, 8.901123
999.3948, 10.46997
999.8769, 9.021240
1000.359, 6.660400
1000.841, 5.017822
1001.323, 4.269287
1001.805, 4.294434
1002.287, 5.120850
1002.770, 6.220459
1003.252, 7.998535
1003.734, 9.198975
1004.216, 8.476563
1004.698, 6.955078
1005.180, 6.113770
1005.662, 5.994141
1006.144, 5.838867
1006.627, 5.291260
1007.109, 4.975342
1007.591, 5.561523
1008.073, 6.493164
1008.555, 7.508057
1009.037, 8.215576
1009.519, 7.502686
1010.001, 5.585693
1010.483, 4.187988
1010.966, 4.240234
1011.448, 5.470947
1011.930, 9.213135
1012.412, 13.06006
1012.894, 10.93359
1013.376, 4.739990
1013.858, 1.049072
1014.340, 1.373779
1014.823, 4.119873
1015.305, 8.588623
1015.787, 12.59595
1016.269, 11.55835
1016.751, 7.006592
1017.233, 4.759033
1017.715, 4.801514
1018.197, 5.328125
1018.679, 5.810547
1019.162, 5.853027
1019.644, 5.063965
1020.126, 3.823242
1020.608, 3.173828
1021.090, 1.953125
1021.572, 1.853760
1022.054, 0.4228520
1022.536, 2.400879
1023.018, 3.787109
1023.501, 2.933838
1023.983, 2.334961
1024.465, 9.688965
1024.947, 11.38696
1025.429, 6.907227
1025.911, 2.142334
1026.393, 3.217529
1026.875, 6.144043
1027.358, 5.361572
1027.840, 2.583984
1028.322, 0.7875980
1028.804, 4.596924
1029.286, 7.984863
1029.768, 10.92871
1030.250, 13.54248
1030.732, 16.37036
1031.214, 17.31763
1031.697, 15.12231
1032.179, 11.66187
1032.661, 8.518311
1033.143, 5.830566
1033.625, 3.975098
1034.107, 1.690674
1034.589, 3.838867
1035.071, 14.14941
1035.553, 22.22803
1036.036, 23.90503
1036.518, 22.35034
1037.000, 20.38794
1037.482, 18.00562
1037.964, 14.52344
1038.446, 6.281982
1038.928, 4.048828
1039.410, 14.05078
1039.893, 21.60327
1040.375, 18.97388
1040.857, 14.01025
1041.339, 14.05249
1041.821, 18.42896
1042.303, 23.68018
1042.785, 32.02979
1043.267, 36.83936
1043.750, 37.27563
1044.232, 34.80713
1044.714, 26.09814
1045.196, 17.66382
1045.678, 16.23755
1046.160, 20.81104
1046.642, 26.05664
1047.124, 33.22192
1047.606, 37.17627
1048.089, 35.37451
1048.571, 32.25806
1049.053, 29.20044
1049.535, 26.29639
1050.017, 23.27417
1050.499, 20.37842
1050.981, 18.40601
1051.463, 17.14233
1051.945, 17.78027
1052.428, 22.27002
1052.910, 26.72559
1053.392, 30.29907
1053.874, 32.35156
1054.356, 31.34155
1054.838, 28.57935
1055.320, 27.58398
1055.802, 29.06958
1056.285, 31.77856
1056.767, 35.40161
1057.249, 39.78931
1057.731, 47.60645
1058.213, 54.10913
1058.695, 53.12500
1059.177, 46.62402
1059.659, 41.30664
1060.141, 38.63013
1060.624, 37.61084
1061.106, 39.94727
1061.588, 41.34009
1062.070, 37.85938
1062.552, 33.76733
1063.034, 34.52954
1063.516, 38.22900
1063.998, 38.65137
1064.480, 33.94531
1064.963, 29.03198
1065.445, 24.60181
1065.927, 22.01758
1066.409, 23.12256
1066.891, 25.41821
1067.373, 26.20654
1067.855, 26.17505
1068.337, 27.97876
1068.820, 32.41162
1069.302, 35.50317
1069.784, 35.22949
1070.266, 33.61475
1070.748, 30.32593
1071.230, 27.40869
1071.712, 28.14746
1072.194, 30.35767
1072.677, 28.60059
1073.159, 21.80762
1073.641, 16.19312
1074.123, 14.91406
1074.605, 14.81543
1075.087, 15.60059
1075.569, 15.71729
1076.051, 13.09814
1076.533, 9.204346
1077.016, 6.666260
1077.498, 5.999268
1077.980, 6.271729
1078.462, 6.891357
1078.944, 8.707275
1079.426, 13.61255
1079.908, 18.47437
1080.390, 21.07080
1080.872, 21.66504
1081.354, 20.63379
1081.837, 18.42871
1082.319, 16.49121
1082.801, 15.32788
1083.283, 14.65503
1083.765, 14.03735
1084.247, 14.00977
1084.729, 16.38086
1085.211, 19.06812
1085.694, 17.08276
1086.176, 11.87720
1086.658, 13.23853
1087.140, 27.72290
1087.622, 39.62231
1088.104, 41.94385
1088.586, 40.13354
1089.068, 35.59473
1089.551, 30.28662
1090.033, 24.99927
1090.515, 20.82300
1090.997, 20.83984
1091.479, 26.86621
1091.961, 32.57690
1092.443, 36.54102
1092.925, 38.78979
1093.407, 41.31787
1093.890, 40.35156
1094.372, 28.25757
1094.854, 10.53979
1095.336, 1.273926
1095.818, 4.152344
1096.300, 7.272949
1096.782, 7.474609
1097.264, 6.647217
1097.746, 4.495361
1098.229, 2.532959
1098.711, 2.170654
1099.193, 2.817139
1099.675, 3.072754
1100.157, 2.721924
1100.639, 3.440186
1101.121, 6.751953
1101.603, 9.500244
1102.086, 10.59912
1102.568, 11.12500
1103.050, 12.57251
1103.532, 13.34937
1104.014, 10.21606
1104.496, 3.524170
1104.978, 0.7775880
1105.460, 3.347900
1105.943, 0.6281740
1106.425, 13.26147
1106.907, 26.12451
1107.389, 33.33740
1107.871, 36.27246
1108.353, 35.22925
1108.835, 31.20996
1109.317, 28.38184
1109.799, 28.79321
1110.281, 26.09814
1110.764, 17.09277
1111.246, 8.562500
1111.728, 1.902100
1112.210, 3.097168
1112.692, 6.677490
1113.174, 8.709229
1113.656, 8.860107
1114.138, 7.157471
1114.621, 3.732910
1115.103, 3.653809
1115.585, 9.208984
1116.067, 12.32446
1116.549, 12.92822
1117.031, 9.622803
1117.513, 4.779785
1117.995, 2.260254
1118.478, 2.101807
1118.960, 2.437012
1119.442, 3.336670
1119.924, 4.477051
1120.406, 5.709229
1120.888, 7.859375
1121.370, 12.64722
1121.852, 16.33228
1122.334, 13.83618
1122.817, 6.634033
1123.299, 2.927490
1123.781, 3.653076
1124.263, 3.784912
1124.745, 2.700439
1125.227, 3.198730
1125.709, 6.421143
1126.191, 10.11377
1126.673, 12.20972
1127.156, 13.86670
1127.638, 18.90527
1128.120, 18.46289
1128.602, 17.41089
1129.084, 19.02051
1129.566, 12.80396
1130.048, 12.02661
1130.530, 11.59326
1131.013, 8.389160
1131.495, 4.888916
1131.977, 5.245605
1132.459, 2.803955
1132.941, 7.245361
1133.423, 2.625488
1133.905, 1.933105
1134.387, 5.810303
1134.870, 9.284912
1135.352, 10.39282
1135.834, 10.56006
1136.316, 11.01270
1136.798, 11.76587
1137.280, 12.51611
1137.762, 13.63037
1138.244, 17.12939
1138.726, 22.37964
1139.208, 26.41211
1139.691, 28.37549
1140.173, 27.81104
1140.655, 24.26611
1141.137, 19.94971
1141.619, 17.65747
1142.101, 16.51440
1142.583, 14.64551
1143.065, 12.84058
1143.548, 13.10400
1144.030, 15.32349
1144.512, 18.12866
1144.994, 20.99536
1145.476, 23.44067
1145.958, 25.95117
1146.440, 26.88770
1146.922, 24.36108
1147.405, 19.42749
1147.887, 10.95703
1148.369, 2.062256
1148.851, 0.8020020
1149.333, 2.905762
1149.815, 7.349609
1150.297, 10.23193
1150.779, 12.13110
1151.261, 12.72876
1151.744, 13.18237
1152.226, 13.87817
1152.708, 15.17041
1153.190, 18.76245
1153.672, 23.30249
1154.154, 24.20850
1154.636, 19.89062
1155.118, 16.33472
1155.600, 16.04468
1156.083, 15.75537
1156.565, 14.25537
1157.047, 12.50830
1157.529, 10.63574
1158.011, 9.286621
1158.493, 9.611816
1158.975, 11.67822
1159.457, 13.71680
1159.940, 16.11475
1160.422, 17.71362
1160.904, 17.43872
1161.386, 17.96753
1161.868, 21.77539
1162.350, 25.11865
1162.832, 24.50122
1163.314, 21.11768
1163.796, 19.03052
1164.279, 18.28296
1164.761, 18.99536
1165.243, 21.72168
1165.725, 23.35376
1166.207, 22.75244
1166.689, 23.03613
1167.171, 26.33154
1167.653, 30.69019
1168.135, 33.81470
1168.618, 35.26343
1169.100, 31.98022
1169.582, 24.03760
1170.064, 15.41919
1170.546, 6.682373
1171.028, 5.503906
1171.510, 14.55518
1171.992, 26.96045
1172.474, 38.00806
1172.957, 44.57666
1173.439, 37.89429
1173.921, 23.85669
1174.403, 20.33325
1174.885, 24.01416
1175.367, 23.22168
1175.849, 17.37769
1176.331, 14.88330
1176.814, 19.37012
1177.296, 26.11743
1177.778, 31.43774
1178.260, 36.34302
1178.742, 43.75684
1179.224, 50.14966
1179.706, 50.29395
1180.188, 45.75049
1180.671, 40.14917
1181.153, 34.14673
1181.635, 25.78882
1182.117, 12.27588
1182.599, 3.411621
1183.081, 8.787354
1183.563, 15.48071
1184.045, 14.54956
1184.527, 11.64453
1185.010, 13.24634
1185.492, 17.65625
1185.974, 19.60425
1186.456, 18.21606
1186.938, 17.40405
1187.420, 17.97437
1187.902, 18.90259
1188.384, 21.72363
1188.866, 22.62061
1189.349, 16.49976
1189.831, 11.12842
1190.313, 16.37891
1190.795, 28.62354
1191.277, 33.02808
1191.759, 27.15259
1192.241, 24.35059
1192.723, 25.43262
1193.206, 26.34326
1193.688, 26.06421
1194.170, 26.38745
1194.652, 28.59521
1195.134, 30.93018
1195.616, 30.63086
1196.098, 28.47607
1196.580, 28.03369
1197.063, 29.02588
1197.545, 28.72656
1198.027, 27.07935
1198.509, 25.33740
1198.991, 23.99878
1199.473, 24.24219
1199.955, 27.18555
1200.437, 29.09570
1200.919, 22.99292
1201.401, 14.21436
1201.884, 11.33716
1202.366, 13.20410
1202.848, 18.92725
1203.330, 26.69116
1203.812, 32.61279
1204.294, 35.51807
1204.776, 36.97363
1205.258, 39.44800
1205.741, 37.50049
1206.223, 21.72290
1206.705, 6.390869
1207.187, 4.187012
1207.669, 7.864258
1208.151, 8.807861
1208.633, 6.970703
1209.115, 5.625732
1209.598, 5.390869
1210.080, 5.104736
1210.562, 2.903076
1211.044, 3.240234
1211.526, 11.09106
1212.008, 16.47729
1212.490, 12.50757
1212.972, 6.331299
1213.454, 6.654541
1213.937, 11.68652
1214.419, 12.20776
1214.901, 6.773682
1215.383, 4.706055
1215.865, 6.790039
1216.347, 7.649170
1216.829, 6.007080
1217.311, 3.329346
1217.793, 0.2473140
1218.276, 1.574707
1218.758, 0.7597660
1219.240, 1.341064
1219.722, 3.965576
1220.204, 0.4826660
1220.686, 1.020264
1221.168, 1.898438
1221.650, 3.686279
1222.133, 3.509521
1222.615, 4.988281
1223.097, 9.890137
1223.579, 18.04932
1224.061, 32.43457
1224.543, 46.57788
1225.025, 55.66846
1225.507, 59.43457
1225.990, 56.57349
1226.472, 48.62061
1226.954, 36.74146
1227.436, 22.05762
1227.918, 11.27637
1228.400, 7.568604
1228.882, 4.242676
1229.364, 2.174316
1229.846, 6.327637
1230.328, 4.010742
1230.811, 0.7456050
1231.293, 1.484863
1231.775, 3.293945
1232.257, 0.1020510
1232.739, 0.4409180
1233.221, 0.6386720
1233.703, 4.604980
1234.185, 4.159668
1234.668, 12.38086
1235.150, 18.26660
1235.632, 18.05762
1236.114, 17.50928
1236.596, 21.57031
1237.078, 25.92236
1237.560, 21.23486
1238.042, 11.36914
1238.525, 9.126465
1239.007, 12.20703
1239.489, 14.47705
1239.971, 14.82422
1240.453, 11.46582
1240.935, 4.803223
1241.417, 1.500000
1241.899, 6.690918
1242.381, 12.94531
1242.864, 13.83691
1243.346, 13.97363
1243.828, 18.56641
1244.310, 23.71484
1244.792, 23.52246
1245.274, 20.22559
1245.756, 20.41748
1246.238, 24.76465
1246.720, 24.98193
1247.203, 14.16748
1247.685, 8.115234
1248.167, 11.60156
1248.649, 14.29883
1249.131, 11.32080
1249.613, 8.887695
1250.095, 12.14941
1250.577, 18.52539
1251.059, 23.92529
1251.542, 27.80713
1252.024, 23.63574
1252.506, 11.77979
1252.988, 4.085938
1253.470, 1.907227
1253.952, 2.068848
1254.434, 3.666992
1254.916, 7.062988
1255.399, 12.64648
1255.881, 17.03662
1256.363, 13.26074
1256.845, 7.740723
1257.327, 10.52490
1257.809, 16.56201
1258.291, 22.30762
1258.773, 26.19238
1259.255, 30.39502
1259.738, 34.69678
1260.220, 36.40137
1260.702, 33.71924
1261.184, 30.13477
1261.666, 22.62646
1262.148, 19.57080
1262.630, 28.34668
1263.112, 38.75195
1263.594, 46.02295
1264.077, 49.05713
1264.559, 43.74561
1265.041, 31.56934
1265.523, 24.55420
1266.005, 23.80029
1266.487, 21.76172
1266.969, 18.24316
1267.451, 17.09229
1267.934, 19.55469
1268.416, 20.97803
1268.898, 18.40234
1269.380, 12.88525
1269.862, 5.317383
1270.344, 0.7700200
1270.826, 1.377441
1271.308, 7.966797
1271.791, 14.82031
1272.273, 20.37744
1272.755, 22.42871
1273.237, 21.54395
1273.719, 21.36621
1274.201, 23.32471
1274.683, 23.24414
1275.165, 15.20801
1275.647, 10.64209
1276.130, 19.16455
1276.612, 26.25244
1277.094, 21.59717
1277.576, 12.30664
1278.058, 4.732910
1278.540, 1.247559
1279.022, 1.261230
1279.504, 0.7607420
1279.986, 0.4907230
1280.469, 10.72217
1280.951, 21.64355
1281.433, 32.71582
1281.915, 32.79736
1282.397, 15.93359
1282.879, 3.075684
1283.361, 6.037598
1283.843, 12.59424
1284.326, 10.45117
1284.808, 0.0000000E+00
##END=



