##NAMES=Sohngeite
##RRUFFID=R120117
##IDEAL CHEMISTRY=Ga(OH)_3_
##LOCALITY=Tsumeb, Namibia
##OWNER=RRUFF
##SOURCE=William W. Pinch
##DESCRIPTION=Twinned, pale yellow orthorhombic crystals
##STATUS=The identification of this mineral is not yet confirmed.
##URL=rruff.info/R120117
140.2973, 0.0000000E+00
140.7794, 1.024323
141.2615, 1.776154
141.7437, 2.356232
142.2258, 2.581024
142.7079, 3.563721
143.1900, 3.960175
143.6721, 3.119232
144.1542, 1.509644
144.6364, 1.5717000E-02
145.1185, 3.0762000E-02
145.6006, 0.3822330
146.0827, 0.5267640
146.5648, 1.720306
147.0469, 3.176788
147.5291, 4.014587
148.0112, 3.854279
148.4933, 3.000824
148.9754, 2.115295
149.4575, 0.3584290
149.9396, 0.7828370
150.4218, 0.6817930
150.9039, 0.1892090
151.3860, 1.283142
151.8681, 2.363129
152.3502, 3.377808
152.8323, 3.822601
153.3145, 2.790161
153.7966, 2.032990
154.2787, 2.203644
154.7608, 2.929993
155.2429, 3.427338
155.7250, 3.042603
156.2072, 1.716949
156.6893, 0.8062130
157.1714, 0.1261290
157.6535, 8.9233004E-02
158.1356, 0.5587160
158.6177, 1.880402
159.0999, 3.147400
159.5820, 3.684814
160.0641, 3.351440
160.5462, 3.089752
161.0283, 2.480408
161.5104, 2.211060
161.9926, 3.148895
162.4747, 5.379181
162.9568, 7.626831
163.4389, 8.387665
163.9210, 7.742737
164.4031, 7.160400
164.8853, 6.902405
165.3674, 6.843140
165.8495, 6.773346
166.3316, 6.620117
166.8137, 6.591705
167.2958, 7.130249
167.7780, 8.057617
168.2601, 8.597534
168.7422, 8.091614
169.2243, 6.823395
169.7064, 5.930206
170.1885, 5.595764
170.6707, 5.636047
171.1528, 6.242615
171.6349, 7.571259
172.1170, 8.730652
172.5991, 8.591522
173.0812, 7.818970
173.5634, 7.686401
174.0455, 8.588470
174.5276, 9.894928
175.0097, 11.40149
175.4918, 13.15027
175.9739, 14.98401
176.4561, 16.43231
176.9382, 17.27222
177.4203, 17.66724
177.9024, 16.72665
178.3845, 16.07278
178.8666, 16.90182
179.3488, 19.17422
179.8309, 21.78854
180.3130, 23.20746
180.7951, 22.85837
181.2772, 22.46387
181.7593, 21.81467
182.2415, 21.25662
182.7236, 21.01306
183.2057, 21.14673
183.6878, 21.63437
184.1699, 22.48666
184.6520, 24.11923
185.1342, 25.26920
185.6163, 25.34015
186.0984, 25.16019
186.5805, 25.95648
187.0626, 28.17767
187.5447, 30.48636
188.0269, 30.24518
188.5090, 26.80090
188.9911, 23.99240
189.4732, 22.97351
189.9553, 23.08887
190.4374, 23.28925
190.9196, 23.34708
191.4017, 23.23535
191.8838, 22.87335
192.3659, 22.24838
192.8480, 21.62878
193.3301, 21.52087
193.8123, 21.60889
194.2944, 20.59619
194.7765, 17.54443
195.2586, 13.99283
195.7407, 11.47110
196.2228, 9.992615
196.7050, 9.109802
197.1871, 8.751251
197.6692, 8.885315
198.1513, 8.853546
198.6334, 8.364777
199.1155, 7.614899
199.5977, 6.690552
200.0798, 5.611847
200.5619, 4.480042
201.0440, 3.407196
201.5261, 2.412537
202.0082, 1.353577
202.4904, 0.2411500
202.9725, 1.587524
203.4546, 2.002716
203.9367, 1.522736
204.4188, 0.9287410
204.9009, 1.407623
205.3831, 3.652802
205.8652, 4.837128
206.3473, 4.157501
206.8294, 3.034119
207.3115, 2.206055
207.7936, 1.859467
208.2758, 1.687042
208.7579, 1.291748
209.2400, 0.4986880
209.7221, 1.5076000E-02
210.2042, 0.1365050
210.6863, 0.1023250
211.1685, 0.1885680
211.6506, 0.6408390
212.1327, 0.7310490
212.6148, 0.3863530
213.0969, 3.651367
213.5790, 6.167206
214.0612, 7.316650
214.5433, 8.144409
215.0254, 9.665253
215.5075, 12.05762
215.9896, 14.55225
216.4717, 15.98053
216.9539, 15.75793
217.4360, 15.72580
217.9181, 15.92453
218.4002, 16.32077
218.8823, 16.90292
219.3644, 17.66693
219.8466, 18.58142
220.3287, 19.66168
220.8108, 20.97455
221.2929, 22.10736
221.7750, 22.75867
222.2571, 23.29556
222.7393, 24.28824
223.2214, 25.92072
223.7035, 27.60693
224.1856, 28.43182
224.6677, 28.46509
225.1498, 28.77106
225.6320, 29.93491
226.1141, 31.46460
226.5962, 32.41821
227.0783, 32.44299
227.5604, 32.49405
228.0425, 33.72067
228.5247, 35.85190
229.0068, 37.93777
229.4889, 39.75879
229.9710, 41.24948
230.4531, 42.03711
230.9352, 41.53543
231.4174, 41.50061
231.8995, 43.60428
232.3816, 47.23520
232.8637, 50.80899
233.3458, 53.72293
233.8279, 56.03781
234.3101, 58.03342
234.7922, 59.28369
235.2743, 61.09686
235.7564, 64.38028
236.2385, 68.49448
236.7206, 72.35413
237.2028, 75.05304
237.6849, 77.07739
238.1670, 80.50836
238.6491, 86.39615
239.1312, 92.03128
239.6133, 96.22412
240.0955, 99.43115
240.5776, 102.4666
241.0597, 105.6996
241.5418, 109.2516
242.0239, 113.6818
242.5060, 119.9275
242.9882, 125.8109
243.4703, 130.3002
243.9524, 134.1483
244.4345, 138.4787
244.9166, 143.9587
245.3987, 150.3878
245.8809, 156.6923
246.3630, 162.5516
246.8451, 168.7196
247.3272, 175.8624
247.8093, 183.2530
248.2914, 189.7836
248.7736, 194.7968
249.2557, 198.7855
249.7378, 203.7205
250.2199, 210.7773
250.7020, 217.3981
251.1841, 222.8125
251.6663, 227.7336
252.1484, 232.9025
252.6305, 238.7062
253.1126, 245.0507
253.5947, 251.8070
254.0768, 259.0581
254.5590, 266.6242
255.0411, 275.2081
255.5232, 283.8351
256.0053, 291.3386
256.4874, 297.2038
256.9695, 302.1257
257.4517, 307.7716
257.9338, 315.2663
258.4159, 322.2005
258.8980, 328.4962
259.3801, 334.2469
259.8622, 339.9084
260.3444, 345.5587
260.8265, 350.3825
261.3086, 352.9092
261.7907, 352.3199
262.2728, 350.4631
262.7549, 346.7127
263.2371, 341.8095
263.7192, 336.9201
264.2013, 332.4009
264.6834, 327.2697
265.1655, 319.8982
265.6476, 309.1922
266.1298, 298.5359
266.6119, 288.2493
267.0940, 277.8958
267.5761, 266.8252
268.0582, 254.8914
268.5403, 243.0581
269.0225, 232.4655
269.5046, 223.4515
269.9867, 214.4572
270.4688, 205.3138
270.9509, 196.4072
271.4330, 188.1567
271.9152, 180.5970
272.3973, 173.0664
272.8794, 164.8248
273.3615, 155.8045
273.8436, 147.7704
274.3257, 141.2603
274.8079, 135.3377
275.2900, 129.1800
275.7721, 122.7737
276.2542, 117.0480
276.7363, 112.9410
277.2184, 110.2799
277.7006, 106.8033
278.1827, 101.6507
278.6648, 96.38367
279.1469, 92.20447
279.6290, 89.02371
280.1111, 85.90030
280.5933, 82.17865
281.0754, 78.14746
281.5575, 74.77151
282.0396, 72.85590
282.5217, 70.63278
283.0038, 66.78833
283.4860, 61.57806
283.9681, 56.28854
284.4502, 51.44614
284.9323, 46.92496
285.4144, 42.41165
285.8965, 37.90921
286.3787, 33.41299
286.8608, 28.73407
287.3429, 24.02457
287.8250, 19.84567
288.3071, 16.60275
288.7892, 13.67920
289.2714, 9.940765
289.7535, 5.208069
290.2356, 1.139008
290.7177, 1.133942
291.1998, 2.148193
291.6819, 3.494141
292.1641, 5.841400
292.6462, 7.936218
293.1283, 8.045685
293.6104, 6.427704
294.0925, 5.079681
294.5746, 5.170105
295.0568, 6.003174
295.5389, 6.215637
296.0210, 5.611206
296.5031, 4.497803
296.9852, 2.939270
297.4673, 1.056244
297.9495, 0.8871770
298.4316, 2.499146
298.9137, 4.233032
299.3958, 6.865479
299.8779, 10.54233
300.3600, 14.50455
300.8422, 18.47461
301.3243, 22.35385
301.8064, 25.81653
302.2885, 28.29578
302.7706, 30.85666
303.2527, 34.88614
303.7349, 40.49213
304.2170, 46.26617
304.6991, 51.28964
305.1812, 56.25687
305.6633, 62.09714
306.1454, 69.03342
306.6276, 76.54993
307.1097, 84.24719
307.5918, 92.11603
308.0739, 100.2439
308.5560, 108.1766
309.0381, 116.8186
309.5203, 126.8420
310.0024, 138.3111
310.4845, 151.1546
310.9666, 165.4064
311.4487, 181.0090
311.9308, 197.4129
312.4130, 213.7469
312.8951, 232.0404
313.3772, 253.1885
313.8593, 277.2053
314.3414, 304.3723
314.8235, 335.3148
315.3057, 369.5171
315.7878, 406.1832
316.2699, 445.2174
316.7520, 486.5158
317.2341, 531.9753
317.7162, 579.4439
318.1984, 624.4224
318.6805, 664.9738
319.1626, 702.0839
319.6447, 736.9554
320.1268, 769.3876
320.6089, 800.2897
321.0911, 828.0430
321.5732, 855.3777
322.0553, 885.9747
322.5374, 920.6843
323.0195, 958.9126
323.5016, 999.2876
323.9838, 1042.030
324.4659, 1089.599
324.9480, 1143.221
325.4301, 1202.426
325.9122, 1265.096
326.3943, 1331.501
326.8765, 1402.274
327.3586, 1477.323
327.8407, 1557.187
328.3228, 1642.311
328.8049, 1729.842
329.2870, 1827.709
329.7692, 1942.135
330.2513, 2071.922
330.7334, 2212.279
331.2155, 2361.149
331.6976, 2518.490
332.1797, 2687.374
332.6619, 2872.923
333.1440, 3056.454
333.6261, 3239.674
334.1082, 3411.522
334.5903, 3536.385
335.0724, 3603.370
335.5546, 3616.567
336.0367, 3579.494
336.5188, 3492.068
337.0009, 3356.235
337.4830, 3155.548
337.9651, 2908.663
338.4473, 2651.219
338.9294, 2376.068
339.4115, 2108.273
339.8936, 1865.531
340.3757, 1646.971
340.8578, 1454.446
341.3400, 1289.930
341.8221, 1151.507
342.3042, 1032.285
342.7863, 932.3696
343.2684, 845.0502
343.7505, 769.0884
344.2327, 703.1460
344.7148, 644.4693
345.1969, 593.0131
345.6790, 547.3173
346.1611, 507.0811
346.6432, 471.5511
347.1254, 438.8839
347.6075, 409.3922
348.0896, 382.1777
348.5717, 356.6337
349.0538, 332.6611
349.5359, 310.1794
350.0181, 288.8317
350.5002, 268.9605
350.9823, 251.3533
351.4644, 237.5331
351.9465, 224.9876
352.4286, 211.9195
352.9108, 198.5196
353.3929, 185.6404
353.8750, 173.7408
354.3571, 162.7806
354.8392, 152.5281
355.3214, 142.9252
355.8035, 134.0554
356.2856, 126.3496
356.7677, 119.2679
357.2498, 111.7052
357.7319, 103.2370
358.2141, 94.79190
358.6962, 87.62500
359.1783, 81.90613
359.6604, 76.35321
360.1425, 70.60925
360.6246, 65.07184
361.1068, 60.23685
361.5889, 56.07932
362.0710, 52.15738
362.5531, 48.03629
363.0352, 43.74020
363.5173, 40.14490
363.9995, 37.80969
364.4816, 35.53220
364.9637, 32.72693
365.4458, 29.52682
365.9279, 26.26663
366.4100, 23.08057
366.8922, 20.04846
367.3743, 17.51147
367.8564, 15.64899
368.3385, 13.97766
368.8206, 12.58685
369.3027, 11.28891
369.7849, 9.827789
370.2670, 8.148895
370.7491, 6.467987
371.2312, 5.108002
371.7133, 4.250977
372.1954, 3.197388
372.6776, 1.444244
373.1597, 7.0679002E-02
373.6418, 0.5230100
374.1239, 0.1100460
374.6060, 0.2302250
375.0881, 0.2708440
375.5703, 1.583893
376.0524, 2.757843
376.5345, 4.104279
377.0166, 4.972839
377.4987, 5.026154
377.9808, 4.557495
378.4630, 3.971649
378.9451, 3.454437
379.4272, 2.948517
379.9093, 2.290314
380.3914, 1.146301
380.8735, 0.4307560
381.3557, 0.4179380
381.8378, 0.6240840
382.3199, 0.9203800
382.8020, 1.163605
383.2841, 0.9428100
383.7662, 0.4286800
384.2484, 3.285980
384.7305, 4.954041
385.2126, 4.006989
385.6947, 3.195038
386.1768, 3.291534
386.6589, 4.194305
387.1411, 5.586060
387.6232, 7.343323
388.1053, 9.351563
388.5874, 11.20612
389.0695, 12.92398
389.5516, 14.43033
390.0338, 15.74863
390.5159, 16.87079
390.9980, 17.71985
391.4801, 18.28156
391.9622, 18.77182
392.4443, 19.53076
392.9265, 20.61649
393.4086, 21.40222
393.8907, 21.41644
394.3728, 21.48874
394.8549, 22.07706
395.3370, 23.14050
395.8192, 24.43970
396.3013, 26.11887
396.7834, 27.91330
397.2655, 28.84210
397.7476, 28.62479
398.2297, 28.26392
398.7119, 28.41333
399.1940, 28.69635
399.6761, 28.54684
400.1582, 27.63449
400.6403, 26.67123
401.1224, 26.63882
401.6046, 27.44797
402.0867, 27.50781
402.5688, 25.63159
403.0509, 23.62213
403.5330, 24.02054
404.0151, 26.89447
404.4973, 28.98114
404.9794, 28.16306
405.4615, 25.82471
405.9436, 24.34113
406.4257, 24.03967
406.9078, 24.22635
407.3900, 24.43481
407.8721, 24.69440
408.3542, 25.11319
408.8363, 25.92316
409.3184, 26.69659
409.8005, 26.89316
410.2827, 26.76346
410.7648, 27.33005
411.2469, 29.24591
411.7290, 31.71072
412.2111, 32.78842
412.6932, 31.96613
413.1754, 31.28531
413.6575, 31.22678
414.1396, 31.40854
414.6217, 31.66241
415.1038, 31.89578
415.5859, 31.57382
416.0681, 29.98816
416.5502, 26.87283
417.0323, 24.68665
417.5144, 23.77463
417.9965, 23.41199
418.4786, 24.13364
418.9608, 25.03815
419.4429, 24.26074
419.9250, 20.79126
420.4071, 15.95114
420.8892, 13.29758
421.3713, 14.44339
421.8535, 15.27832
422.3356, 15.67502
422.8177, 15.80927
423.2998, 15.64526
423.7819, 15.20312
424.2640, 14.70981
424.7462, 14.42154
425.2283, 14.37109
425.7104, 14.62811
426.1925, 16.04773
426.6746, 16.80734
427.1567, 15.61685
427.6389, 13.60791
428.1210, 12.67459
428.6031, 13.86526
429.0852, 16.12366
429.5673, 17.13406
430.0494, 16.40039
430.5316, 15.69986
431.0137, 15.46960
431.4958, 15.51883
431.9779, 15.93555
432.4600, 16.64490
432.9421, 17.14047
433.4243, 16.68579
433.9064, 15.60754
434.3885, 15.39993
434.8706, 16.39594
435.3527, 17.74475
435.8348, 18.76135
436.3170, 19.77039
436.7991, 21.46350
437.2812, 24.51709
437.7633, 27.60104
438.2454, 29.34915
438.7275, 29.91156
439.2097, 30.28952
439.6918, 30.51385
440.1739, 31.17920
440.6560, 33.44162
441.1381, 37.39777
441.6202, 41.18552
442.1024, 44.49225
442.5845, 47.23090
443.0666, 49.19260
443.5487, 50.37958
444.0308, 51.00027
444.5129, 50.93124
444.9951, 50.38837
445.4772, 51.32678
445.9593, 54.89996
446.4414, 58.37561
446.9235, 60.69705
447.4056, 62.47025
447.8878, 64.70883
448.3699, 67.74109
448.8520, 71.02158
449.3341, 73.69849
449.8162, 75.39197
450.2983, 77.55258
450.7805, 80.29977
451.2626, 83.32138
451.7447, 86.71933
452.2268, 90.27301
452.7089, 93.63345
453.1910, 96.62631
453.6732, 99.09653
454.1553, 100.2787
454.6374, 99.39792
455.1195, 98.48450
455.6016, 98.27039
456.0837, 97.92096
456.5659, 97.06802
457.0480, 95.50293
457.5301, 92.62354
458.0122, 87.40594
458.4943, 79.87637
458.9764, 72.44272
459.4586, 64.72519
459.9407, 57.84756
460.4228, 52.55710
460.9049, 48.38464
461.3870, 44.58276
461.8691, 41.10498
462.3513, 37.54474
462.8334, 33.02963
463.3155, 27.63376
463.7976, 23.35620
464.2797, 21.11014
464.7618, 19.94360
465.2440, 18.79083
465.7261, 17.66660
466.2082, 16.20209
466.6903, 13.85297
467.1724, 11.31317
467.6545, 9.389404
468.1367, 8.149902
468.6188, 7.370789
469.1009, 7.033630
469.5830, 7.022919
470.0651, 6.700226
470.5472, 5.970978
471.0294, 5.106415
471.5115, 4.121521
471.9936, 3.061920
472.4757, 1.823395
472.9578, 0.4298710
473.4399, 0.6545410
473.9221, 0.7748410
474.4042, 0.3488460
474.8863, 0.7944030
475.3684, 4.6448000E-02
475.8505, 0.8510130
476.3326, 0.9133300
476.8148, 0.6408390
477.2969, 0.8764340
477.7790, 2.046509
478.2611, 3.602142
478.7432, 4.288330
479.2253, 3.718628
479.7075, 3.340759
480.1896, 3.765778
480.6717, 4.057709
481.1538, 3.522858
481.6359, 2.302124
482.1180, 1.155884
482.6002, 0.6225280
483.0823, 0.5260930
483.5644, 0.3785710
484.0465, 0.1489560
484.5286, 5.2581999E-02
485.0107, 0.2411500
485.4929, 0.3367000
485.9750, 5.7128999E-02
486.4571, 0.7445680
486.9392, 0.8909610
487.4213, 0.9622190
487.9034, 3.811401
488.3856, 5.319550
488.8677, 5.107758
489.3498, 4.385590
489.8319, 4.097717
490.3140, 4.227203
490.7961, 4.301971
491.2783, 4.299255
491.7604, 4.263245
492.2425, 4.073517
492.7246, 3.889069
493.2067, 4.042480
493.6888, 4.652771
494.1710, 5.488312
494.6531, 6.175842
495.1352, 6.597168
495.6173, 7.137756
496.0994, 8.096924
496.5815, 8.898468
497.0637, 8.999420
497.5458, 8.745422
498.0279, 8.992889
498.5100, 10.28345
498.9921, 12.01962
499.4742, 12.53867
499.9564, 11.03680
500.4385, 10.37567
500.9206, 11.93716
501.4027, 13.68314
501.8848, 14.18713
502.3669, 13.57394
502.8491, 13.10907
503.3312, 14.12997
503.8133, 15.84219
504.2954, 15.75263
504.7775, 13.40829
505.2596, 11.44626
505.7418, 11.28070
506.2239, 12.13425
506.7060, 12.92667
507.1881, 13.64630
507.6702, 14.13019
508.1523, 14.09039
508.6345, 13.82822
509.1166, 13.86115
509.5987, 14.26529
510.0808, 14.81653
510.5629, 15.36887
511.0450, 15.91901
511.5272, 16.41266
512.0093, 17.08099
512.4914, 17.42947
512.9735, 17.11166
513.4556, 16.47391
513.9377, 15.97491
514.4199, 15.73865
514.9020, 15.52469
515.3841, 14.92975
515.8662, 13.75061
516.3483, 13.59821
516.8304, 15.60831
517.3126, 17.47107
517.7947, 18.70370
518.2768, 19.33243
518.7589, 19.34540
519.2410, 18.71063
519.7231, 17.87238
520.2053, 17.62274
520.6874, 18.04532
521.1695, 17.72144
521.6516, 15.62292
522.1337, 13.83539
522.6158, 14.18814
523.0980, 15.97287
523.5801, 17.13046
524.0622, 16.47510
524.5443, 15.33768
525.0264, 15.28027
525.5085, 16.08322
525.9907, 16.30307
526.4728, 15.18045
526.9549, 13.84433
527.4370, 14.23206
527.9191, 16.75455
528.4012, 18.29312
528.8834, 18.04480
529.3655, 17.13895
529.8476, 16.14447
530.3297, 15.12650
530.8118, 13.98004
531.2939, 12.60568
531.7761, 11.39203
532.2582, 11.39380
532.7403, 14.02097
533.2224, 15.01633
533.7045, 13.05499
534.1866, 10.78568
534.6688, 9.897522
535.1509, 10.09943
535.6330, 10.04034
536.1151, 8.751373
536.5972, 6.793610
537.0793, 5.699860
537.5615, 5.725372
538.0436, 5.454742
538.5257, 3.946625
539.0078, 2.500824
539.4899, 2.514954
539.9720, 3.933502
540.4542, 5.033600
540.9363, 4.734558
541.4184, 3.727814
541.9005, 3.034607
542.3826, 2.665894
542.8647, 1.997528
543.3469, 0.5207820
543.8290, 1.318024
544.3111, 2.329254
544.7932, 2.365326
545.2753, 1.850433
545.7574, 0.3005370
546.2396, 1.286469
546.7217, 2.023041
547.2038, 1.934753
547.6859, 1.552002
548.1680, 1.228149
548.6501, 0.9598690
549.1323, 0.7449950
549.6144, 0.6436770
550.0965, 0.4871830
550.5786, 0.1672670
551.0607, 0.1319890
551.5428, 0.4639590
552.0250, 0.7029110
552.5071, 0.3543700
552.9892, 1.455353
553.4713, 3.952179
553.9534, 4.665924
554.4355, 3.227600
554.9177, 1.796997
555.3998, 0.9729610
555.8819, 0.8127440
556.3640, 1.515533
556.8461, 3.235596
557.3282, 4.562927
557.8104, 4.842804
558.2925, 4.522156
558.7746, 3.682861
559.2567, 2.438568
559.7388, 2.302948
560.2209, 4.464172
560.7031, 7.867950
561.1852, 9.143066
561.6673, 5.755615
562.1494, 3.774689
562.6315, 4.240082
563.1136, 5.379272
563.5958, 6.091431
564.0779, 6.281250
564.5600, 6.286255
565.0421, 6.379913
565.5242, 6.402802
566.0063, 5.629883
566.4885, 3.507904
566.9706, 2.213715
567.4527, 2.902710
567.9348, 4.145538
568.4169, 5.189392
568.8990, 5.938782
569.3812, 6.300079
569.8633, 6.040161
570.3454, 5.453949
570.8275, 4.764587
571.3096, 4.020752
571.7917, 3.926117
572.2739, 5.029999
572.7560, 6.538055
573.2381, 6.951721
573.7202, 5.971313
574.2023, 5.162933
574.6844, 4.584351
575.1666, 4.299377
575.6487, 4.473267
576.1308, 4.978821
576.6129, 5.525879
577.0950, 5.976898
577.5771, 6.352783
578.0593, 6.705353
578.5414, 7.075104
579.0235, 7.346863
579.5056, 7.686768
579.9877, 7.752380
580.4698, 7.038605
580.9520, 5.947601
581.4341, 5.472931
581.9162, 6.337830
582.3983, 7.421844
582.8804, 6.974213
583.3625, 5.174164
583.8447, 3.805939
584.3268, 3.169220
584.8089, 3.325073
585.2910, 5.003174
585.7731, 7.937225
586.2552, 9.220734
586.7374, 6.937927
587.2195, 4.687500
587.7016, 4.652618
588.1837, 5.842743
588.6658, 6.421326
589.1479, 5.850861
589.6301, 4.983521
590.1122, 4.896973
590.5943, 5.706024
591.0764, 6.314911
591.5585, 6.736725
592.0406, 6.909637
592.5228, 6.734436
593.0049, 6.356018
593.4870, 5.913452
593.9691, 5.439423
594.4512, 4.944641
594.9333, 4.362640
595.4155, 3.766235
595.8976, 3.310211
596.3797, 2.858063
596.8618, 3.215820
597.3439, 5.588226
597.8260, 8.847260
598.3082, 10.18103
598.7903, 8.870697
599.2724, 7.416046
599.7545, 6.662140
600.2366, 6.144379
600.7188, 5.371216
601.2009, 4.305573
601.6830, 2.981445
602.1651, 1.374969
602.6472, 8.3861999E-02
603.1293, 0.1771240
603.6115, 4.019958
604.0936, 6.229523
604.5757, 5.252777
605.0578, 3.737122
605.5399, 3.044189
606.0220, 3.239807
606.5042, 4.037354
606.9863, 5.611084
607.4684, 7.195190
607.9505, 7.348846
608.4326, 6.106720
608.9147, 5.007568
609.3969, 4.482971
609.8790, 4.158844
610.3611, 3.644867
610.8432, 2.972687
611.3253, 2.444611
611.8074, 1.633972
612.2896, 1.423737
612.7717, 2.972748
613.2538, 5.246582
613.7359, 6.612640
614.2180, 6.565582
614.7001, 5.333038
615.1823, 2.794037
615.6644, 1.240265
616.1465, 2.663788
616.6286, 0.9812930
617.1107, 3.896484
617.5928, 4.071747
618.0750, 3.158630
618.5571, 2.934296
619.0392, 3.706146
619.5213, 4.293518
620.0034, 3.309998
620.4855, 1.625610
620.9677, 1.435486
621.4498, 2.880585
621.9319, 4.070526
622.4140, 4.015167
622.8961, 3.205688
623.3782, 2.592255
623.8604, 2.064392
624.3425, 2.035126
624.8246, 2.897186
625.3067, 3.974640
625.7888, 5.077972
626.2709, 5.992981
626.7531, 6.325409
627.2352, 5.871765
627.7173, 4.960846
628.1994, 4.152008
628.6815, 3.441925
629.1636, 2.837708
629.6458, 2.400848
630.1279, 1.995850
630.6100, 1.360565
631.0921, 0.7486570
631.5742, 0.7274780
632.0563, 1.694641
632.5385, 2.484741
633.0206, 2.056702
633.5027, 0.9078370
633.9848, 0.1397710
634.4669, 0.9450380
634.9490, 1.153931
635.4312, 0.3590090
635.9133, 1.146423
636.3954, 1.967590
636.8775, 1.458618
637.3596, 1.101196
637.8417, 0.9018860
638.3239, 0.8995970
638.8060, 1.430420
639.2881, 2.210938
639.7702, 2.326721
640.2523, 1.027344
640.7344, 0.7147830
641.2166, 0.7644960
641.6987, 0.9762880
642.1808, 2.121704
642.6629, 2.010468
643.1450, 1.514801
643.6271, 1.394379
644.1093, 1.539307
644.5914, 1.551697
645.0735, 1.075043
645.5556, 0.8030090
646.0377, 1.460327
646.5198, 2.355957
647.0020, 2.235107
647.4841, 1.009277
647.9662, 4.5898002E-02
648.4483, 0.2697750
648.9304, 1.730896
649.4125, 2.730255
649.8947, 2.979248
650.3768, 3.290771
650.8589, 4.254150
651.3410, 4.967468
651.8231, 4.412109
652.3052, 2.872131
652.7874, 1.904816
653.2695, 2.589264
653.7516, 3.943420
654.2337, 4.752594
654.7158, 5.154816
655.1979, 5.888916
655.6801, 7.234558
656.1622, 8.526367
656.6443, 8.925476
657.1264, 8.348755
657.6085, 8.475006
658.0906, 9.996826
658.5728, 11.25439
659.0549, 11.23422
659.5370, 11.13632
660.0191, 12.61560
660.5012, 15.63138
660.9833, 18.28983
661.4655, 18.80408
661.9476, 17.91614
662.4297, 17.93640
662.9118, 18.96262
663.3939, 20.20493
663.8760, 21.71356
664.3582, 22.97296
664.8403, 22.82681
665.3224, 21.43643
665.8045, 21.47571
666.2866, 24.92624
666.7687, 28.39944
667.2509, 29.44284
667.7330, 29.19510
668.2151, 29.84674
668.6972, 31.94360
669.1793, 34.20300
669.6614, 35.22339
670.1436, 35.15652
670.6257, 35.38129
671.1078, 35.71680
671.5899, 36.55093
672.0720, 38.86722
672.5541, 41.19418
673.0363, 41.83017
673.5184, 40.81281
674.0005, 40.22665
674.4826, 41.78870
674.9647, 43.62891
675.4468, 43.74521
675.9290, 42.59244
676.4111, 41.67480
676.8932, 41.47232
677.3753, 41.39069
677.8574, 40.63940
678.3395, 39.18704
678.8217, 38.64966
679.3038, 40.64075
679.7859, 41.47137
680.2680, 39.82932
680.7501, 37.29004
681.2322, 34.90634
681.7144, 32.95825
682.1965, 31.55032
682.6786, 30.86691
683.1607, 30.76923
683.6428, 31.35629
684.1249, 32.40338
684.6071, 32.05359
685.0892, 29.44049
685.5713, 26.46637
686.0534, 25.37250
686.5355, 26.31213
687.0176, 26.58286
687.4998, 26.00290
687.9819, 25.11404
688.4640, 23.73575
688.9461, 22.38986
689.4282, 21.50055
689.9103, 21.09183
690.3925, 20.95639
690.8746, 21.15762
691.3567, 21.41202
691.8388, 20.66843
692.3209, 18.85730
692.8030, 17.70963
693.2852, 17.99728
693.7673, 18.58502
694.2494, 18.06058
694.7315, 16.53613
695.2136, 16.04156
695.6957, 18.26340
696.1779, 19.59164
696.6600, 17.82080
697.1421, 15.10107
697.6242, 13.94611
698.1063, 14.52008
698.5884, 15.32129
699.0706, 15.34250
699.5527, 14.63702
700.0348, 13.09888
700.5169, 10.52655
700.9990, 8.322388
701.4811, 6.281799
701.9633, 5.337006
702.4454, 7.463776
702.9275, 11.50162
703.4096, 13.45789
703.8917, 11.31451
704.3738, 9.062988
704.8560, 8.302338
705.3381, 8.365601
705.8202, 8.606476
706.3023, 8.860199
706.7844, 9.094818
707.2665, 9.325317
707.7487, 9.390381
708.2308, 8.577423
708.7129, 6.424652
709.1950, 5.634521
709.6771, 7.368286
710.1592, 9.417755
710.6414, 10.67068
711.1235, 11.17380
711.6056, 10.88571
712.0877, 9.574707
712.5698, 8.045776
713.0519, 6.228485
713.5341, 4.697174
714.0162, 4.415070
714.4983, 5.183319
714.9804, 5.878601
715.4625, 5.867432
715.9446, 5.365967
716.4268, 4.784943
716.9089, 4.070923
717.3910, 3.518219
717.8731, 3.266449
718.3552, 2.988159
718.8373, 2.444946
719.3195, 1.814209
719.8016, 1.316772
720.2837, 0.9609070
720.7658, 0.8658450
721.2479, 1.283356
721.7300, 1.851440
722.2122, 2.411163
722.6943, 2.785645
723.1764, 2.310516
723.6585, 0.6791690
724.1406, 1.157745
724.6227, 1.724060
725.1049, 0.9116210
725.5870, 0.2162170
726.0691, 2.445496
726.5512, 3.688843
727.0333, 2.096802
727.5154, 9.4329998E-02
727.9976, 0.2839360
728.4797, 1.682983
728.9618, 2.934692
729.4439, 1.255432
729.9260, 0.7901310
730.4081, 0.5293880
730.8903, 1.173737
731.3724, 2.099792
731.8545, 1.621979
732.3366, 0.6848140
732.8187, 0.2568970
733.3008, 0.3012700
733.7830, 0.3298030
734.2651, 0.2106930
734.7472, 0.3669740
735.2293, 1.297180
735.7114, 2.204285
736.1935, 2.557037
736.6757, 2.388275
737.1578, 1.929474
737.6399, 0.8130800
738.1220, 2.1670000E-03
738.6041, 0.6097410
739.0862, 1.746429
739.5684, 1.785614
740.0505, 0.6316220
740.5326, 0.4974670
741.0147, 0.7073670
741.4968, 0.2900390
741.9789, 0.1537480
742.4611, 0.4221500
742.9432, 0.5094300
743.4253, 0.2034000
743.9074, 9.3108997E-02
744.3895, 0.3477780
744.8716, 0.3905030
745.3538, 0.2629090
745.8359, 2.066315
746.3180, 3.317505
746.8001, 2.990845
747.2822, 1.922089
747.7643, 0.6413270
748.2465, 0.6069030
748.7286, 1.386444
749.2107, 1.494324
749.6928, 1.163391
750.1749, 0.6671140
750.6570, 1.0010000E-02
751.1392, 0.5644530
751.6213, 1.093842
752.1034, 1.267090
752.5855, 0.6408390
753.0676, 0.1973570
753.5497, 0.4695740
754.0319, 0.1472780
754.5140, 4.1473001E-02
754.9961, 4.4250000E-02
755.4782, 0.2587280
755.9603, 1.324310
756.4424, 2.585785
756.9246, 3.059082
757.4067, 2.630890
757.8888, 2.133057
758.3709, 2.296997
758.8530, 2.923767
759.3351, 3.372864
759.8173, 3.643799
760.2994, 3.690338
760.7815, 3.314423
761.2636, 3.059998
761.7457, 3.667755
762.2278, 4.838989
762.7100, 5.118103
763.1921, 3.693481
763.6742, 2.592102
764.1563, 2.239227
764.6384, 2.426514
765.1205, 3.353668
765.6027, 4.651459
766.0848, 5.566345
766.5669, 5.765747
767.0490, 5.266144
767.5311, 3.410614
768.0132, 0.6921390
768.4954, 0.1691590
768.9775, 2.260468
769.4596, 4.591675
769.9417, 6.261353
770.4238, 7.178131
770.9059, 6.976959
771.3881, 5.107574
771.8702, 4.368652
772.3523, 5.498047
772.8344, 6.833038
773.3165, 8.233093
773.7986, 9.282104
774.2808, 9.278870
774.7629, 8.315033
775.2450, 7.593262
775.7271, 8.115234
776.2092, 9.143768
776.6913, 9.701752
777.1735, 9.821716
777.6556, 9.411865
778.1377, 8.412994
778.6198, 7.826324
779.1019, 8.594238
779.5840, 10.43784
780.0662, 11.96750
780.5483, 13.24167
781.0304, 14.07935
781.5125, 14.14407
781.9946, 13.98538
782.4767, 14.03192
782.9589, 14.22101
783.4410, 14.21796
783.9231, 13.83401
784.4052, 13.53009
784.8873, 13.71854
785.3694, 14.02185
785.8516, 13.69470
786.3337, 13.19983
786.8158, 14.20901
787.2979, 17.38696
787.7800, 20.57230
788.2621, 21.01672
788.7443, 18.87643
789.2264, 17.16614
789.7085, 15.75797
790.1906, 15.18066
790.6727, 16.37939
791.1548, 17.72714
791.6370, 17.18515
792.1191, 15.09723
792.6012, 14.00797
793.0833, 14.51886
793.5654, 15.80927
794.0475, 18.28033
794.5297, 20.89935
795.0118, 22.70480
795.4939, 23.62473
795.9760, 23.87460
796.4581, 23.59534
796.9402, 23.16864
797.4224, 23.21323
797.9045, 23.63486
798.3866, 23.77826
798.8687, 23.58356
799.3508, 23.77890
799.8329, 24.85248
800.3151, 26.23273
800.7972, 26.84592
801.2793, 26.38690
801.7614, 26.49936
802.2435, 27.89679
802.7256, 28.91907
803.2078, 28.70319
803.6899, 27.98767
804.1720, 27.55627
804.6541, 27.63040
805.1362, 28.15686
805.6183, 29.34430
806.1005, 30.67371
806.5826, 31.68655
807.0647, 32.33667
807.5468, 32.28607
808.0289, 31.58850
808.5110, 31.34897
808.9932, 32.49341
809.4753, 34.19531
809.9574, 34.06985
810.4395, 31.57150
810.9216, 29.98401
811.4037, 29.55188
811.8859, 29.79495
812.3680, 31.35455
812.8501, 33.06604
813.3322, 32.92587
813.8143, 30.48654
814.2964, 28.88913
814.7786, 29.40179
815.2607, 30.36688
815.7428, 31.17548
816.2249, 31.66180
816.7070, 31.29446
817.1891, 30.24179
817.6713, 29.93002
818.1534, 31.90399
818.6355, 34.71671
819.1176, 35.37518
819.5997, 34.14246
820.0818, 33.05319
820.5640, 32.44977
821.0461, 32.07770
821.5282, 31.67975
822.0103, 31.47079
822.4924, 32.16635
822.9745, 34.48767
823.4567, 36.14749
823.9388, 37.52490
824.4209, 37.78796
824.9030, 35.40195
825.3851, 32.36670
825.8672, 31.47711
826.3494, 33.07858
826.8315, 34.55054
827.3136, 34.83514
827.7957, 34.30750
828.2778, 32.53006
828.7599, 30.42117
829.2421, 29.78458
829.7242, 30.82516
830.2063, 32.36725
830.6884, 33.66870
831.1705, 34.44086
831.6526, 33.58655
832.1348, 31.02411
832.6169, 29.58957
833.0990, 29.95700
833.5811, 30.33359
834.0632, 29.60342
834.5453, 28.22568
835.0275, 27.19046
835.5096, 26.61981
835.9917, 26.04669
836.4738, 24.97842
836.9559, 24.47800
837.4380, 25.67007
837.9202, 27.18216
838.4023, 27.48227
838.8844, 26.43582
839.3665, 24.89529
839.8486, 22.80338
840.3307, 21.05853
840.8129, 20.95322
841.2950, 21.75113
841.7771, 21.90897
842.2592, 21.29004
842.7413, 20.80792
843.2234, 21.08038
843.7056, 21.57779
844.1877, 21.01727
844.6698, 19.24564
845.1519, 18.44067
845.6340, 18.99271
846.1161, 19.62952
846.5983, 20.14252
847.0804, 20.15573
847.5625, 18.71011
848.0446, 15.63275
848.5267, 13.99890
849.0089, 15.45474
849.4910, 16.40604
849.9731, 15.66101
850.4552, 14.13101
850.9373, 12.19540
851.4194, 10.25101
851.9016, 9.204620
852.3837, 9.684052
852.8658, 10.28787
853.3479, 9.448120
853.8300, 7.991333
854.3121, 7.382141
854.7943, 7.609375
855.2764, 8.149719
855.7585, 8.784637
856.2406, 9.103851
856.7227, 8.480377
857.2048, 6.999329
857.6870, 5.571747
858.1691, 3.935394
858.6512, 3.622101
859.1333, 5.998077
859.6154, 8.216095
860.0975, 7.218445
860.5797, 3.758545
861.0618, 2.186554
861.5439, 4.134644
862.0260, 5.203674
862.5081, 3.994507
862.9902, 2.730988
863.4724, 3.023010
863.9545, 4.055817
864.4366, 4.298889
864.9187, 3.397583
865.4008, 2.488556
865.8829, 2.628845
866.3651, 2.911316
866.8472, 1.956573
867.3293, 0.3595580
867.8114, 0.3198850
868.2935, 0.1723630
868.7756, 0.8145450
869.2578, 0.8161320
869.7399, 0.4707340
870.2220, 0.6072390
870.7041, 1.268066
871.1862, 1.375916
871.6683, 0.6712340
872.1505, 4.4280998E-02
872.6326, 4.4495001E-02
873.1147, 0.2696840
873.5968, 6.2743999E-02
874.0789, 1.204956
874.5610, 1.529388
875.0432, 0.3085630
875.5253, 0.7340090
876.0074, 1.050903
876.4895, 1.163055
876.9716, 1.617249
877.4537, 2.290283
877.9359, 2.590912
878.4180, 2.208557
878.9001, 1.703583
879.3822, 1.615753
879.8643, 1.446381
880.3464, 0.2816160
880.8286, 1.441956
881.3107, 2.454834
881.7928, 2.311249
882.2749, 1.644287
882.7570, 1.144714
883.2391, 0.6467900
883.7213, 0.7568050
884.2034, 2.949005
884.6855, 3.556274
885.1676, 1.803955
885.6497, 3.0731000E-02
886.1318, 0.1091000
886.6140, 1.516663
887.0961, 2.528168
887.5782, 3.216461
888.0603, 3.262238
888.5424, 1.763519
889.0245, 0.8645020
889.5067, 1.961121
889.9888, 3.778320
890.4709, 4.890015
890.9530, 5.239838
891.4351, 5.469360
891.9172, 5.915039
892.3994, 6.010162
892.8815, 4.756927
893.3636, 3.624512
893.8457, 4.587402
894.3278, 6.972778
894.8099, 8.258789
895.2921, 7.212708
895.7742, 6.228668
896.2563, 8.217316
896.7384, 11.44086
897.2205, 12.87265
897.7026, 12.71692
898.1848, 12.06348
898.6669, 11.31891
899.1490, 11.24539
899.6311, 12.65970
900.1132, 15.24109
900.5953, 17.89294
901.0775, 20.65451
901.5596, 22.91071
902.0417, 24.38361
902.5238, 25.95213
903.0059, 28.14111
903.4880, 30.75050
903.9702, 33.41263
904.4523, 36.14856
904.9344, 38.81947
905.4165, 41.48317
905.8986, 44.00177
906.3807, 46.31198
906.8629, 48.51372
907.3450, 50.55864
907.8271, 52.55533
908.3092, 54.85616
908.7913, 57.63214
909.2734, 60.59695
909.7556, 62.96069
910.2377, 66.05400
910.7198, 71.61406
911.2019, 78.68036
911.6840, 85.42003
912.1661, 91.21983
912.6483, 96.28752
913.1304, 100.1674
913.6125, 103.8627
914.0946, 109.7435
914.5767, 117.1397
915.0588, 123.7121
915.5410, 129.1222
916.0231, 134.2276
916.5052, 139.5582
916.9873, 145.2901
917.4694, 151.9236
917.9515, 159.4618
918.4337, 166.4930
918.9158, 172.9714
919.3979, 179.2795
919.8800, 185.1758
920.3621, 191.6029
920.8442, 199.9586
921.3264, 209.9293
921.8085, 217.9225
922.2906, 223.3964
922.7727, 227.8374
923.2548, 230.3983
923.7369, 232.9210
924.2191, 237.0066
924.7012, 241.1850
925.1833, 243.3698
925.6654, 243.3077
926.1475, 241.9881
926.6296, 239.3476
927.1118, 236.0371
927.5939, 232.3669
928.0760, 227.9224
928.5581, 222.1162
929.0402, 215.3200
929.5223, 208.6261
930.0045, 202.6323
930.4866, 196.1470
930.9687, 187.4941
931.4508, 177.8648
931.9329, 168.8660
932.4150, 160.3460
932.8972, 151.8013
933.3793, 143.1021
933.8614, 134.2558
934.3435, 125.1804
934.8256, 116.2608
935.3077, 108.4380
935.7899, 101.7002
936.2720, 95.48586
936.7541, 89.73761
937.2362, 84.17514
937.7183, 78.65556
938.2004, 73.54106
938.6826, 69.23882
939.1647, 65.67935
939.6468, 62.82585
940.1289, 61.08957
940.6110, 59.27138
941.0931, 57.50439
941.5753, 55.09166
942.0574, 50.85489
942.5395, 45.76141
943.0216, 42.34683
943.5037, 41.15517
943.9858, 39.87085
944.4680, 38.30823
944.9501, 36.70477
945.4322, 34.99701
945.9143, 33.38686
946.3964, 32.31030
946.8785, 31.56897
947.3607, 30.17076
947.8428, 27.28781
948.3249, 24.74223
948.8070, 24.08092
949.2891, 23.72743
949.7712, 21.92244
950.2534, 19.32930
950.7355, 17.50734
951.2176, 16.85033
951.6997, 16.65520
952.1818, 16.35083
952.6639, 15.92415
953.1461, 15.48428
953.6282, 14.97400
954.1103, 14.10139
954.5924, 12.95573
955.0745, 12.23744
955.5566, 12.29816
956.0388, 12.58904
956.5209, 12.44013
957.0030, 11.86426
957.4851, 10.67247
957.9672, 8.868042
958.4493, 8.061279
958.9315, 8.777466
959.4136, 9.158218
959.8957, 7.730103
960.3778, 5.206818
960.8599, 3.378784
961.3420, 2.307999
961.8242, 1.648026
962.3063, 1.379868
962.7884, 1.605423
963.2705, 2.579391
963.7526, 3.788086
964.2347, 4.909683
964.7169, 5.861176
965.1990, 6.033569
965.6811, 4.496674
966.1632, 3.605637
966.6453, 4.111603
967.1274, 4.407959
967.6096, 3.405365
968.0917, 2.055267
968.5738, 1.813049
969.0559, 2.678787
969.5380, 2.804794
970.0201, 0.4552460
970.5023, 0.9871670
970.9844, 0.5328220
971.4665, 2.645828
971.9486, 3.709015
972.4307, 3.775650
972.9128, 3.199631
973.3950, 2.094650
973.8771, 1.006683
974.3592, 2.4796000E-02
974.8413, 0.5770260
975.3234, 0.3144990
975.8055, 0.3442230
976.2877, 0.5484770
976.7698, 0.4338990
977.2519, 1.132889
977.7340, 3.226242
978.2161, 4.829803
978.6982, 3.240707
979.1804, 0.1142120
979.6625, 1.543808
980.1446, 1.918808
980.6267, 1.852600
981.1088, 1.532639
981.5909, 0.6322780
982.0731, 1.176880
982.5552, 3.081009
983.0373, 3.592911
983.5194, 2.833740
984.0015, 1.334274
984.4836, 0.8760220
984.9658, 1.747437
985.4479, 0.4851680
985.9300, 0.8479920
986.4121, 0.2197110
986.8942, 0.7259670
987.3763, 0.7687680
987.8585, 0.2360530
988.3406, 0.3075260
988.8227, 0.8768920
989.3048, 1.732712
989.7869, 1.274261
990.2690, 0.3750760
990.7512, 3.1601001E-02
991.2333, 0.2109830
991.7154, 0.5162960
992.1975, 1.028885
992.6796, 1.514923
993.1617, 2.201462
993.6439, 2.519058
994.1260, 1.868866
994.6081, 0.8844450
995.0902, 0.5760350
995.5723, 0.9803010
996.0544, 0.9441380
996.5366, 0.1973570
997.0187, 0.8941800
997.5008, 0.5367740
997.9829, 3.5034001E-02
998.4650, 1.1276000E-02
998.9471, 0.1605680
999.4293, 1.7837999E-02
999.9114, 0.5399630
1000.393, 0.7144780
1000.876, 0.3754120
1001.358, 0.5027160
1001.840, 2.546631
1002.322, 4.608795
1002.804, 5.757401
1003.286, 6.067978
1003.768, 5.812531
1004.250, 5.024689
1004.733, 4.444489
1005.215, 5.032227
1005.697, 5.372940
1006.179, 3.838776
1006.661, 1.786301
1007.143, 1.257950
1007.625, 1.943359
1008.107, 1.902039
1008.589, 0.2514800
1009.072, 1.213760
1009.554, 0.7571870
1010.036, 0.5175630
1010.518, 1.400574
1011.000, 2.041702
1011.482, 2.922897
1011.964, 4.018951
1012.446, 4.805008
1012.929, 4.978714
1013.411, 4.940628
1013.893, 5.202240
1014.375, 5.586823
1014.857, 5.937790
1015.339, 6.086563
1015.821, 5.189758
1016.303, 3.250748
1016.785, 1.805359
1017.268, 1.937592
1017.750, 2.887451
1018.232, 3.574844
1018.714, 4.002060
1019.196, 4.069107
1019.678, 3.834122
1020.160, 3.801666
1020.642, 4.112259
1021.125, 4.684631
1021.607, 5.544266
1022.089, 6.300568
1022.571, 5.767532
1023.053, 4.054779
1023.535, 3.407822
1024.017, 3.928238
1024.499, 5.226883
1024.981, 7.393387
1025.464, 8.618515
1025.946, 6.925751
1026.428, 3.625717
1026.910, 3.138000
1027.392, 5.865891
1027.874, 7.467438
1028.356, 7.589401
1028.838, 7.385757
1029.321, 6.957657
1029.803, 6.762802
1030.285, 7.393829
1030.767, 8.586060
1031.249, 9.127808
1031.731, 8.837753
1032.213, 8.465958
1032.695, 7.942520
1033.177, 7.647125
1033.660, 7.731110
1034.142, 8.072983
1034.624, 8.599991
1035.106, 9.318161
1035.588, 10.09259
1036.070, 11.28201
1036.552, 11.55589
1037.034, 10.10898
1037.516, 8.918350
1037.999, 9.245789
1038.481, 9.821014
1038.963, 8.989502
1039.445, 7.091309
1039.927, 6.529587
1040.409, 8.099594
1040.891, 9.390594
1041.373, 10.17589
1041.855, 10.93929
1042.338, 12.07338
1042.820, 13.00005
1043.302, 13.16579
1043.784, 12.63147
1044.266, 11.87535
1044.748, 10.50331
1045.230, 9.708969
1045.712, 9.718536
1046.195, 10.09358
1046.677, 10.93120
1047.159, 11.65976
1047.641, 11.64372
1048.123, 10.99944
1048.605, 10.44504
1049.087, 9.748932
1049.569, 9.610245
1050.052, 10.62900
1050.534, 11.60966
1051.016, 12.01646
1051.498, 12.09293
1051.980, 12.01590
1052.462, 11.90540
1052.944, 12.21465
1053.426, 13.78388
1053.908, 14.13483
1054.391, 10.94183
1054.873, 8.527267
1055.355, 10.12949
1055.837, 12.92674
1056.319, 13.58386
1056.801, 12.25104
1057.283, 11.18692
1057.765, 10.80362
1058.248, 10.94077
1058.730, 12.15659
1059.212, 13.27501
1059.694, 13.33081
1060.176, 13.07928
1060.658, 13.73840
1061.140, 15.02127
1061.622, 15.24687
1062.104, 13.51431
1062.587, 11.98393
1063.069, 10.85918
1063.551, 10.81200
1064.033, 13.49812
1064.515, 16.58952
1064.997, 17.15009
1065.479, 15.58170
1065.961, 14.46982
1066.443, 14.71004
1066.926, 14.76196
1067.408, 13.29480
1067.890, 12.54985
1068.372, 14.76711
1068.854, 17.68211
1069.336, 18.70705
1069.818, 17.99669
1070.300, 17.01706
1070.782, 16.08916
1071.265, 15.39110
1071.747, 14.88768
1072.229, 14.76210
1072.711, 15.33244
1073.193, 16.18108
1073.675, 16.87126
1074.157, 17.42522
1074.639, 18.16791
1075.122, 19.27910
1075.604, 19.87335
1076.086, 18.65797
1076.568, 17.86450
1077.050, 19.57391
1077.532, 21.75002
1078.014, 22.00462
1078.496, 20.93452
1078.979, 20.49004
1079.461, 21.18135
1079.943, 22.28159
1080.425, 23.74135
1080.907, 25.17111
1081.389, 26.36732
1081.871, 27.41376
1082.353, 28.62512
1082.835, 29.68282
1083.318, 29.81779
1083.800, 28.86996
1084.282, 27.82542
1084.764, 26.56413
1085.246, 26.00723
1085.728, 27.47061
1086.210, 29.04720
1086.692, 28.46901
1087.175, 27.03008
1087.657, 27.66806
1088.139, 30.69252
1088.621, 32.53763
1089.103, 30.75336
1089.585, 28.95715
1090.067, 28.54453
1090.549, 28.87213
1091.031, 30.02814
1091.514, 31.28391
1091.996, 31.41568
1092.478, 30.44652
1092.960, 29.96005
1093.442, 31.28333
1093.924, 31.66840
1094.406, 29.00632
1094.888, 26.24731
1095.370, 24.84512
1095.853, 24.79753
1096.335, 26.74651
1096.817, 30.06238
1097.299, 31.77147
1097.781, 30.42395
1098.263, 29.15601
1098.745, 29.19368
1099.227, 29.28708
1099.709, 29.00111
1100.192, 28.26880
1100.674, 26.70129
1101.156, 24.66678
1101.638, 23.45049
1102.120, 23.65358
1102.602, 23.28607
1103.084, 20.39655
1103.566, 18.72124
1104.049, 21.38686
1104.531, 24.39294
1105.013, 23.88693
1105.495, 21.10487
1105.977, 19.60155
1106.459, 20.14935
1106.941, 19.51828
1107.423, 15.37343
1107.906, 12.49409
1108.388, 13.08005
1108.870, 14.37791
1109.352, 15.27847
1109.834, 15.35892
1110.316, 13.53120
1110.798, 9.590134
1111.280, 7.210129
1111.762, 7.550491
1112.245, 8.142273
1112.727, 9.053009
1113.209, 9.731613
1113.691, 9.674881
1114.173, 9.388840
1114.655, 9.627014
1115.137, 10.32234
1115.619, 10.50919
1116.102, 10.32765
1116.584, 9.403442
1117.066, 6.823929
1117.548, 4.782318
1118.030, 4.235092
1118.512, 4.522476
1118.994, 4.814499
1119.476, 5.081940
1119.958, 5.980850
1120.441, 8.144119
1120.923, 9.856277
1121.405, 11.22356
1121.887, 11.02881
1122.369, 8.007477
1122.851, 5.419907
1123.333, 5.956604
1123.815, 8.215912
1124.297, 9.101624
1124.780, 8.534149
1125.262, 7.546875
1125.744, 5.905838
1126.226, 4.742249
1126.708, 4.302383
1127.190, 4.259750
1127.672, 4.509857
1128.154, 4.882172
1128.636, 5.079605
1129.119, 5.151016
1129.601, 5.542892
1130.083, 6.291183
1130.565, 7.037262
1131.047, 7.785034
1131.529, 8.019974
1132.011, 7.436020
1132.493, 7.019211
1132.976, 7.888504
1133.458, 7.588043
1133.940, 9.660294
1134.422, 8.736298
1134.904, 9.283264
1135.386, 11.28780
1135.868, 11.93141
1136.350, 10.47122
1136.833, 8.538284
1137.315, 7.253891
1137.797, 6.330276
1138.279, 4.871216
1138.761, 3.452911
1139.243, 4.725723
1139.725, 7.928802
1140.207, 9.792587
1140.689, 9.881836
1141.172, 9.348145
1141.654, 8.750031
1142.136, 8.255951
1142.618, 8.288284
1143.100, 8.270325
1143.582, 6.465210
1144.064, 4.200104
1144.546, 4.714493
1145.029, 7.374619
1145.511, 9.311066
1145.993, 9.733337
1146.475, 9.896286
1146.957, 10.60446
1147.439, 11.51866
1147.921, 12.61418
1148.403, 13.46777
1148.885, 13.33037
1149.368, 12.67514
1149.850, 12.47247
1150.332, 12.68210
1150.814, 12.35754
1151.296, 10.99709
1151.778, 9.794296
1152.260, 9.146240
1152.742, 9.276947
1153.224, 11.82719
1153.707, 14.02370
1154.189, 12.10500
1154.671, 7.650955
1155.153, 4.679718
1155.635, 4.000092
1156.117, 3.813461
1156.599, 3.623444
1157.081, 3.742126
1157.563, 3.153992
1158.046, 4.116852
1158.528, 11.08009
1159.010, 18.49771
1159.492, 17.88766
1159.974, 10.02820
1160.456, 4.933578
1160.938, 4.637299
1161.420, 4.710251
1161.903, 5.683533
1162.385, 5.979324
1162.867, 4.246689
1163.349, 2.784149
1163.831, 3.781494
1164.313, 6.130768
1164.795, 7.147034
1165.277, 6.727356
1165.760, 5.738388
1166.242, 3.788986
1166.724, 2.579956
1167.206, 2.568390
1167.688, 2.701965
1168.170, 2.442902
1168.652, 2.094666
1169.134, 2.094467
1169.616, 1.734070
1170.099, 1.989944
1170.581, 1.143890
1171.063, 0.4673160
1171.545, 8.9999998E-04
1172.027, 0.2393950
1172.509, 1.357300
1172.991, 1.930267
1173.473, 0.7965090
1173.956, 1.046539
1174.438, 1.779266
1174.920, 1.840958
1175.402, 3.130295
1175.884, 4.983810
1176.366, 4.277496
1176.848, 1.287415
1177.330, 0.1287840
1177.813, 2.464737
1178.295, 4.911163
1178.777, 4.273193
1179.259, 2.462082
1179.741, 1.759766
1180.223, 1.480240
1180.705, 0.4719850
1181.187, 0.8581240
1181.669, 1.441681
1182.151, 1.176636
1182.634, 0.7722630
1183.116, 0.4963840
1183.598, 0.3296510
1184.080, 7.9925999E-02
1184.562, 1.3245000E-02
1185.044, 1.692764
1185.526, 3.645065
1186.008, 4.279282
1186.490, 4.116714
1186.973, 5.022293
1187.455, 7.447906
1187.937, 8.026749
1188.419, 3.560669
1188.901, 0.9865110
1189.383, 2.896667
1189.865, 5.523407
1190.347, 7.337021
1190.830, 8.626343
1191.312, 9.793335
1191.794, 10.71561
1192.276, 10.68854
1192.758, 9.041733
1193.240, 8.736984
1193.722, 9.996597
1194.204, 12.26103
1194.687, 15.98076
1195.169, 18.40109
1195.651, 17.42174
1196.133, 15.29393
1196.615, 15.75040
1197.097, 18.25261
1197.579, 19.35631
1198.061, 19.16762
1198.543, 19.87828
1199.026, 21.49480
1199.508, 22.39023
1199.990, 22.07506
1200.472, 21.49078
1200.954, 21.39977
1201.436, 21.36330
1201.918, 20.32149
1202.400, 20.74341
1202.883, 19.56618
1203.365, 21.09171
1203.847, 22.19632
1204.329, 22.68593
1204.811, 22.76973
1205.293, 22.41949
1205.775, 22.16602
1206.257, 23.10677
1206.740, 23.25932
1207.222, 20.30684
1207.704, 16.77269
1208.186, 14.08104
1208.668, 12.87679
1209.150, 14.83685
1209.632, 19.08620
1210.114, 21.07918
1210.596, 18.89314
1211.078, 17.47522
1211.561, 18.92714
1212.043, 19.70824
1212.525, 18.11533
1213.007, 16.19191
1213.489, 15.00107
1213.971, 14.48547
1214.453, 14.79019
1214.935, 15.82529
1215.417, 15.69482
1215.900, 13.56047
1216.382, 13.90689
1216.864, 18.00861
1217.346, 19.69356
1217.828, 16.62123
1218.310, 12.77065
1218.792, 11.05984
1219.274, 10.81252
1219.757, 11.08389
1220.239, 11.63986
1220.721, 10.95338
1221.203, 11.43481
1221.685, 9.514130
1222.167, 11.04344
1222.649, 11.48949
1223.131, 10.02167
1223.614, 7.854126
1224.096, 5.407669
1224.578, 4.170563
1225.060, 7.033844
1225.542, 10.93175
1226.024, 12.29834
1226.506, 11.95316
1226.988, 11.08217
1227.470, 9.996429
1227.953, 8.631866
1228.435, 6.991180
1228.917, 6.346008
1229.399, 7.624573
1229.881, 9.331421
1230.363, 11.84390
1230.845, 13.32556
1231.327, 12.86360
1231.810, 11.61301
1232.292, 10.53380
1232.774, 9.986877
1233.256, 7.778687
1233.738, 2.798172
1234.220, 0.9589540
1234.702, 3.203384
1235.184, 5.736618
1235.667, 8.386612
1236.149, 9.435623
1236.631, 7.753952
1237.113, 5.240784
1237.595, 4.073212
1238.077, 4.003922
1238.559, 4.325394
1239.041, 5.052231
1239.523, 7.011444
1240.005, 9.544144
1240.488, 8.454865
1240.970, 3.780762
1241.452, 1.311493
1241.934, 3.915482
1242.416, 7.272308
1242.898, 7.134109
1243.380, 6.136139
1243.862, 7.165634
1244.344, 8.576294
1244.827, 8.268448
1245.309, 7.086121
1245.791, 6.528015
1246.273, 6.797836
1246.755, 7.776566
1247.237, 10.24556
1247.719, 10.58296
1248.201, 5.236694
1248.684, 1.506638
1249.166, 3.256241
1249.648, 5.226822
1250.130, 4.274765
1250.612, 2.050461
1251.094, 0.5274200
1251.576, 0.2542570
1252.058, 3.1387001E-02
1252.541, 1.485687
1253.023, 3.617706
1253.505, 6.613449
1253.987, 7.789047
1254.469, 6.503860
1254.951, 4.105545
1255.433, 1.282532
1255.915, 0.7458040
1256.397, 0.2135310
1256.880, 1.723053
1257.362, 3.337860
1257.844, 4.361160
1258.326, 3.888870
1258.808, 2.488022
1259.290, 1.412308
1259.772, 0.9185180
1260.254, 0.8667760
1260.737, 1.308365
1261.219, 1.398697
1261.701, 5.1879999E-03
1262.183, 0.9215240
1262.665, 9.9330004E-03
1263.147, 1.258377
1263.629, 1.736069
1264.111, 1.935059
1264.594, 2.907776
1265.076, 2.845123
1265.558, 2.818466
1266.040, 3.135971
1266.522, 2.400848
1267.004, 2.683014
1267.486, 2.815399
1267.968, 2.495789
1268.450, 2.453934
1268.932, 2.940903
1269.415, 3.889420
1269.897, 4.621246
1270.379, 4.941620
1270.861, 3.396820
1271.343, 1.413651
1271.825, 3.023911
1272.307, 6.650726
1272.789, 7.185516
1273.271, 4.676132
1273.754, 2.896027
1274.236, 2.963531
1274.718, 4.539063
1275.200, 7.784668
1275.682, 9.602448
1276.164, 6.952927
1276.646, 3.554398
1277.128, 1.337158
1277.611, 0.4582980
1278.093, 1.595306
1278.575, 3.974686
1279.057, 5.270157
1279.539, 5.381516
1280.021, 4.430206
1280.503, 1.164566
1280.985, 0.7033080
1281.468, 4.850403
1281.950, 6.643051
1282.432, 3.185883
1282.914, 0.1419980
1283.396, 1.252945
1283.878, 4.878693
1284.360, 4.358826
1284.842, 2.104080
1285.324, 0.0000000E+00
##END=



