##NAMES=Spencerite
##RRUFFID=R050581
##IDEAL CHEMISTRY=Zn_4_(PO_4_)_2_(OH)_2_&#183;3H_2_O
##LOCALITY=Salmo, British Columbia, Canada
##OWNER=RRUFF
##SOURCE=University of Arizona Mineral Museum
##DESCRIPTION=White aggregate of parallel bladed crystals
##STATUS=The identification of this mineral has been confirmed by X-ray diffraction.
##URL=rruff.info/R050581
152.3441, 0.0000000E+00
152.8262, 2.3437999E-02
153.3084, 9.831055
153.7905, 29.22266
154.2726, 44.09473
154.7547, 48.72852
155.2368, 32.16992
155.7189, 19.41211
156.2011, 10.41113
156.6832, 5.957031
157.1653, 8.599609
157.6474, 23.29004
158.1295, 41.15820
158.6116, 57.48438
159.0938, 69.95215
159.5759, 81.99121
160.0580, 94.07910
160.5401, 105.9590
161.0222, 117.3145
161.5044, 130.1016
161.9865, 141.2100
162.4686, 148.0566
162.9507, 140.2246
163.4328, 138.2129
163.9149, 153.1748
164.3971, 182.3174
164.8792, 210.6689
165.3613, 230.4775
165.8434, 246.8926
166.3255, 264.7373
166.8076, 285.3555
167.2898, 307.7188
167.7719, 331.1738
168.2540, 355.9736
168.7361, 383.6104
169.2182, 409.0029
169.7003, 439.4922
170.1825, 484.8242
170.6646, 564.6016
171.1467, 648.2656
171.6288, 717.8633
172.1109, 771.1211
172.5931, 816.0254
173.0752, 856.6797
173.5573, 896.0020
174.0394, 934.4102
174.5215, 982.6602
175.0036, 1021.947
175.4858, 1030.605
175.9679, 1008.479
176.4500, 964.6465
176.9321, 897.0039
177.4142, 812.7305
177.8963, 729.2617
178.3785, 651.3223
178.8606, 578.5547
179.3427, 513.2656
179.8248, 455.3672
180.3069, 400.4961
180.7890, 340.0098
181.2712, 277.9160
181.7533, 227.6914
182.2354, 204.4746
182.7175, 196.5352
183.1996, 176.6660
183.6818, 141.9043
184.1639, 106.6270
184.6460, 90.10352
185.1281, 89.09961
185.6102, 86.65234
186.0923, 73.14844
186.5745, 51.60742
187.0566, 30.18359
187.5387, 8.375000
188.0208, 10.01562
188.5029, 17.58203
188.9850, 15.07031
189.4672, 12.75391
189.9493, 16.62891
190.4314, 25.19922
190.9135, 30.82227
191.3956, 32.82812
191.8777, 32.22266
192.3599, 29.08594
192.8420, 23.47461
193.3241, 19.05664
193.8062, 19.25781
194.2883, 23.49609
194.7704, 25.74023
195.2526, 26.54102
195.7347, 24.61719
196.2168, 17.00781
196.6989, 3.814453
197.1810, 12.01953
197.6632, 32.58984
198.1453, 57.96289
198.6274, 67.86914
199.1095, 56.06055
199.5916, 35.50586
200.0737, 35.16016
200.5559, 58.12305
201.0380, 82.89258
201.5201, 97.76562
202.0022, 102.6133
202.4843, 107.3184
202.9664, 111.8867
203.4486, 117.9883
203.9307, 129.6348
204.4128, 147.5098
204.8949, 168.3320
205.3770, 192.1133
205.8591, 220.0820
206.3413, 241.3535
206.8234, 253.5527
207.3055, 259.5996
207.7876, 267.5156
208.2697, 277.9180
208.7519, 286.7129
209.2340, 290.0801
209.7161, 285.5195
210.1982, 284.0547
210.6803, 289.4727
211.1624, 300.9062
211.6446, 317.6660
212.1267, 342.2871
212.6088, 366.0547
213.0909, 383.9551
213.5730, 393.9785
214.0551, 407.4824
214.5373, 426.6289
215.0194, 449.3926
215.5015, 469.9961
215.9836, 487.1289
216.4657, 505.7012
216.9478, 529.7520
217.4300, 562.1055
217.9121, 589.8262
218.3942, 608.5020
218.8763, 622.6953
219.3584, 646.9395
219.8405, 685.1855
220.3227, 724.5703
220.8048, 757.6465
221.2869, 780.9668
221.7690, 808.1348
222.2511, 840.8809
222.7333, 877.1816
223.2154, 909.7051
223.6975, 938.2637
224.1796, 964.9121
224.6617, 990.8926
225.1438, 1016.566
225.6260, 1041.623
226.1081, 1065.326
226.5902, 1089.244
227.0723, 1116.285
227.5544, 1148.881
228.0365, 1182.105
228.5187, 1214.406
229.0008, 1247.924
229.4829, 1274.908
229.9650, 1295.418
230.4471, 1308.926
230.9292, 1314.033
231.4114, 1305.965
231.8935, 1295.719
232.3756, 1287.947
232.8577, 1284.076
233.3398, 1278.445
233.8220, 1272.578
234.3041, 1264.129
234.7862, 1246.811
235.2683, 1216.680
235.7504, 1184.197
236.2325, 1153.115
236.7147, 1123.434
237.1968, 1097.617
237.6789, 1077.111
238.1610, 1060.941
238.6431, 1046.320
239.1252, 1032.691
239.6074, 1022.684
240.0895, 1017.672
240.5716, 1018.736
241.0537, 1022.311
241.5358, 1029.260
242.0179, 1038.193
242.5001, 1045.518
242.9822, 1045.746
243.4643, 1052.252
243.9464, 1070.014
244.4285, 1101.393
244.9106, 1134.578
245.3928, 1169.369
245.8749, 1205.053
246.3570, 1241.184
246.8391, 1277.080
247.3212, 1314.629
247.8034, 1354.801
248.2855, 1398.758
248.7676, 1440.488
249.2497, 1480.951
249.7318, 1519.672
250.2139, 1554.588
250.6961, 1580.533
251.1782, 1613.662
251.6603, 1661.365
252.1424, 1727.689
252.6245, 1785.688
253.1066, 1829.328
253.5888, 1871.268
254.0709, 1931.043
254.5530, 2019.887
255.0351, 2103.908
255.5172, 2171.742
255.9993, 2222.195
256.4815, 2276.619
256.9636, 2333.332
257.4457, 2393.199
257.9278, 2459.289
258.4099, 2535.354
258.8921, 2610.010
259.3742, 2681.621
259.8563, 2749.410
260.3384, 2810.229
260.8205, 2865.309
261.3026, 2912.910
261.7848, 2951.746
262.2669, 2981.529
262.7490, 3001.664
263.2311, 3012.191
263.7132, 3013.404
264.1953, 3008.697
264.6775, 2999.369
265.1596, 2979.215
265.6417, 2942.049
266.1238, 2885.863
266.6059, 2819.836
267.0880, 2745.100
267.5702, 2661.691
268.0523, 2574.670
268.5344, 2483.582
269.0165, 2388.211
269.4986, 2284.424
269.9807, 2166.896
270.4629, 2061.322
270.9450, 1973.785
271.4271, 1899.621
271.9092, 1823.172
272.3913, 1743.475
272.8734, 1663.984
273.3556, 1585.945
273.8377, 1508.676
274.3198, 1437.035
274.8019, 1370.920
275.2840, 1310.256
275.7661, 1253.639
276.2483, 1200.580
276.7304, 1153.646
277.2125, 1117.395
277.6946, 1092.645
278.1768, 1064.678
278.6589, 1031.002
279.1410, 996.1562
279.6231, 970.3555
280.1052, 954.7441
280.5873, 940.5352
281.0695, 924.9082
281.5516, 907.9121
282.0337, 884.0391
282.5158, 850.6348
282.9979, 815.8340
283.4800, 793.4043
283.9622, 783.6465
284.4443, 776.2598
284.9264, 765.9629
285.4085, 753.3008
285.8906, 744.7754
286.3727, 740.8105
286.8549, 738.4746
287.3370, 735.2598
287.8191, 730.9395
288.3012, 722.8984
288.7833, 709.0098
289.2654, 690.7305
289.7476, 673.3926
290.2297, 657.3438
290.7118, 640.7148
291.1939, 620.2188
291.6760, 597.0410
292.1581, 577.1934
292.6403, 565.6777
293.1224, 557.3926
293.6045, 536.1562
294.0866, 502.0898
294.5687, 471.8145
295.0508, 465.0801
295.5330, 475.0703
296.0151, 477.6934
296.4972, 464.7676
296.9793, 444.8027
297.4614, 431.2656
297.9435, 423.6719
298.4257, 419.3008
298.9078, 420.0176
299.3899, 422.2012
299.8720, 416.9570
300.3541, 400.4492
300.8362, 381.0215
301.3184, 368.8496
301.8005, 362.7168
302.2826, 357.7910
302.7647, 355.6875
303.2469, 351.5957
303.7290, 335.7969
304.2111, 304.2832
304.6932, 272.6719
305.1753, 260.0000
305.6574, 259.4473
306.1396, 255.2363
306.6217, 233.3184
307.1038, 206.8125
307.5859, 192.7285
308.0680, 193.6074
308.5501, 189.8848
309.0323, 159.3203
309.5144, 115.5098
309.9965, 80.17773
310.4786, 67.02734
310.9607, 62.04883
311.4428, 57.54102
311.9250, 53.20312
312.4071, 44.89062
312.8892, 24.82227
313.3713, 1.775391
313.8534, 15.08789
314.3355, 16.73828
314.8177, 16.75000
315.2998, 24.75586
315.7819, 38.49219
316.2640, 45.73242
316.7461, 32.99805
317.2282, 16.34766
317.7104, 8.302734
318.1925, 17.79883
318.6746, 27.30273
319.1567, 28.02930
319.6388, 24.00195
320.1209, 26.00781
320.6031, 47.94141
321.0852, 68.94531
321.5673, 77.76562
322.0494, 68.41992
322.5315, 57.14648
323.0136, 45.26367
323.4958, 33.51367
323.9779, 23.18750
324.4600, 16.79883
324.9421, 9.199219
325.4242, 0.5761720
325.9064, 12.18164
326.3885, 29.20117
326.8706, 60.35352
327.3527, 93.79297
327.8348, 117.4668
328.3170, 115.2734
328.7991, 120.0781
329.2812, 138.1270
329.7633, 169.6094
330.2454, 201.3574
330.7275, 234.3184
331.2097, 265.5156
331.6918, 291.9961
332.1739, 306.1699
332.6560, 327.4473
333.1381, 360.4707
333.6202, 401.8359
334.1024, 434.6074
334.5845, 454.3027
335.0666, 471.0293
335.5487, 491.1113
336.0308, 518.6641
336.5129, 537.1445
336.9951, 543.8652
337.4772, 543.7207
337.9593, 547.7578
338.4414, 559.0488
338.9235, 567.7012
339.4056, 568.3184
339.8878, 560.1680
340.3699, 559.4082
340.8520, 567.5801
341.3341, 580.9883
341.8162, 596.0879
342.2983, 612.7988
342.7805, 628.9004
343.2626, 642.7168
343.7447, 654.7617
344.2268, 668.0117
344.7089, 682.3906
345.1910, 696.5527
345.6732, 706.7461
346.1553, 713.9199
346.6374, 727.6562
347.1195, 752.8340
347.6016, 782.1816
348.0837, 801.6816
348.5659, 811.9531
349.0480, 817.4512
349.5301, 820.9121
350.0122, 822.4766
350.4944, 821.7891
350.9765, 819.3105
351.4586, 814.5918
351.9407, 804.9863
352.4228, 792.3320
352.9049, 782.2246
353.3871, 776.5078
353.8692, 775.7598
354.3513, 781.9570
354.8334, 795.0996
355.3155, 808.8359
355.7976, 818.1641
356.2798, 823.8457
356.7619, 828.0254
357.2440, 828.3906
357.7261, 831.3125
358.2082, 840.5391
358.6903, 853.7617
359.1725, 867.7676
359.6546, 883.8945
360.1367, 900.4961
360.6188, 916.3242
361.1009, 930.1387
361.5830, 942.0723
362.0652, 951.1523
362.5473, 958.7168
363.0294, 967.3672
363.5115, 981.8457
363.9936, 995.0391
364.4757, 1002.537
364.9579, 1002.070
365.4400, 1003.314
365.9221, 1010.471
366.4042, 1020.203
366.8863, 1028.215
367.3684, 1027.820
367.8506, 1032.365
368.3327, 1049.510
368.8148, 1081.248
369.2969, 1100.871
369.7790, 1095.986
370.2611, 1087.789
370.7433, 1091.107
371.2254, 1112.740
371.7075, 1133.668
372.1896, 1154.803
372.6717, 1174.920
373.1538, 1187.545
373.6360, 1188.627
374.1181, 1187.719
374.6002, 1190.666
375.0823, 1199.898
375.5645, 1203.916
376.0466, 1200.348
376.5287, 1192.209
377.0108, 1185.793
377.4929, 1182.756
377.9750, 1175.453
378.4572, 1161.607
378.9393, 1141.146
379.4214, 1108.924
379.9035, 1063.982
380.3856, 1017.979
380.8677, 986.5371
381.3499, 967.9941
381.8320, 939.8320
382.3141, 893.8652
382.7962, 838.4668
383.2783, 786.9238
383.7604, 739.4102
384.2426, 699.6758
384.7247, 675.0801
385.2068, 659.2910
385.6889, 635.0664
386.1710, 598.7266
386.6531, 561.6914
387.1353, 535.3320
387.6174, 517.8730
388.0995, 504.3594
388.5816, 494.3379
389.0637, 486.3125
389.5458, 478.3184
390.0280, 470.5488
390.5101, 465.2402
390.9922, 465.5254
391.4743, 468.6445
391.9564, 471.8965
392.4385, 477.9590
392.9207, 479.6445
393.4028, 469.0449
393.8849, 450.2422
394.3670, 435.6621
394.8491, 432.1973
395.3312, 432.4219
395.8134, 432.5508
396.2955, 432.3398
396.7776, 430.8496
397.2597, 429.5918
397.7418, 426.4004
398.2239, 418.4531
398.7061, 399.4570
399.1882, 381.8691
399.6703, 369.3633
400.1524, 362.2754
400.6346, 354.3418
401.1167, 349.8262
401.5988, 340.9805
402.0809, 321.4121
402.5630, 281.8340
403.0451, 249.1484
403.5273, 225.3398
404.0094, 209.2988
404.4915, 200.2656
404.9736, 202.3438
405.4557, 200.6113
405.9378, 186.7559
406.4200, 159.2480
406.9021, 135.9004
407.3842, 117.0938
407.8663, 102.2070
408.3484, 93.78125
408.8305, 92.21680
409.3127, 83.54688
409.7948, 61.48242
410.2769, 31.82812
410.7590, 9.599609
411.2411, 4.900391
411.7232, 14.31836
412.2054, 19.92773
412.6875, 21.90234
413.1696, 19.63086
413.6517, 11.28320
414.1338, 4.427734
414.6159, 14.33594
415.0981, 34.11523
415.5802, 44.52148
416.0623, 24.51172
416.5444, 2.484375
417.0265, 9.728516
417.5086, 3.544922
417.9908, 16.78320
418.4729, 18.55664
418.9550, 12.75195
419.4371, 3.439453
419.9192, 12.62500
420.4013, 26.42578
420.8835, 33.18359
421.3656, 35.21875
421.8477, 37.71094
422.3298, 46.62109
422.8119, 53.06836
423.2940, 51.49414
423.7762, 35.81250
424.2583, 28.66406
424.7404, 39.68750
425.2225, 57.60352
425.7047, 69.73242
426.1868, 74.24023
426.6689, 76.62891
427.1510, 75.43164
427.6331, 71.13477
428.1152, 75.68555
428.5974, 94.05664
429.0795, 113.9160
429.5616, 129.7266
430.0437, 141.3633
430.5258, 144.9590
431.0079, 136.5469
431.4901, 124.4648
431.9722, 124.8418
432.4543, 138.9570
432.9364, 151.5352
433.4185, 155.5254
433.9006, 152.7949
434.3828, 152.1836
434.8649, 153.8555
435.3470, 156.5352
435.8291, 161.0430
436.3112, 166.0801
436.7933, 165.6016
437.2755, 155.1055
437.7576, 146.6191
438.2397, 162.6816
438.7218, 195.7910
439.2039, 220.1777
439.6860, 209.0156
440.1682, 189.3262
440.6503, 189.6289
441.1324, 211.9570
441.6145, 240.4082
442.0966, 272.2773
442.5787, 301.8574
443.0609, 322.9453
443.5430, 324.2930
444.0251, 325.7969
444.5072, 334.4727
444.9893, 348.5625
445.4714, 362.4531
445.9536, 370.5801
446.4357, 382.0898
446.9178, 402.9414
447.3999, 440.5840
447.8820, 469.4297
448.3641, 481.7891
448.8463, 490.3398
449.3284, 509.2129
449.8105, 543.6699
450.2926, 579.7051
450.7747, 615.5645
451.2569, 651.4434
451.7390, 686.6660
452.2211, 720.5352
452.7032, 755.5195
453.1853, 793.0312
453.6674, 833.1855
454.1496, 872.9219
454.6317, 912.2852
455.1138, 950.0820
455.5959, 984.2109
456.0780, 1014.918
456.5602, 1043.404
457.0423, 1074.451
457.5244, 1101.008
458.0065, 1104.713
458.4886, 1087.508
458.9707, 1069.264
459.4529, 1071.957
459.9350, 1081.301
460.4171, 1074.502
460.8992, 1045.836
461.3813, 1010.238
461.8634, 977.2188
462.3456, 945.4121
462.8277, 913.0195
463.3098, 877.4297
463.7919, 842.1152
464.2740, 808.3047
464.7561, 775.8496
465.2383, 744.6836
465.7204, 716.7148
466.2025, 688.0078
466.6846, 655.8281
467.1667, 614.3555
467.6488, 577.7500
468.1310, 550.5430
468.6131, 527.1133
469.0952, 497.3828
469.5773, 456.4277
470.0594, 416.8828
470.5415, 383.3672
471.0237, 355.8711
471.5058, 320.0254
471.9879, 271.0781
472.4700, 224.1133
472.9521, 192.7949
473.4342, 178.1875
473.9164, 162.8320
474.3985, 145.9941
474.8806, 125.8008
475.3627, 95.94141
475.8448, 57.78125
476.3270, 28.29102
476.8091, 20.26758
477.2912, 23.52148
477.7733, 17.83008
478.2554, 4.242188
478.7375, 7.283203
479.2197, 8.427734
479.7018, 5.759766
480.1839, 7.621094
480.6660, 17.04492
481.1481, 24.50391
481.6302, 21.95703
482.1124, 13.59766
482.5945, 6.832031
483.0766, 1.828125
483.5587, 1.861328
484.0408, 13.05273
484.5229, 34.54492
485.0051, 45.27930
485.4872, 30.40039
485.9693, 11.62109
486.4514, 1.992188
486.9335, 10.00586
487.4156, 12.14648
487.8978, 5.054688
488.3799, 6.332031
488.8620, 14.66016
489.3441, 19.76367
489.8262, 22.57812
490.3083, 22.18555
490.7905, 19.61914
491.2726, 22.67383
491.7547, 32.33203
492.2368, 43.23828
492.7189, 49.68555
493.2010, 52.93359
493.6832, 61.46289
494.1653, 76.82227
494.6474, 94.28906
495.1295, 109.9160
495.6116, 122.9531
496.0938, 131.7012
496.5759, 130.6484
497.0580, 128.6094
497.5401, 135.6270
498.0222, 150.5391
498.5044, 166.8594
498.9865, 181.8984
499.4686, 196.6191
499.9507, 213.2285
500.4328, 234.1699
500.9149, 249.0215
501.3971, 247.2109
501.8792, 240.4414
502.3613, 242.2031
502.8434, 264.7344
503.3255, 284.5957
503.8076, 294.9961
504.2898, 298.6035
504.7719, 308.9473
505.2540, 331.1875
505.7361, 351.7871
506.2182, 364.0977
506.7003, 365.9961
507.1825, 372.8359
507.6646, 386.5254
508.1467, 401.3027
508.6288, 410.2930
509.1109, 413.7090
509.5930, 418.2988
510.0752, 426.0449
510.5573, 435.4727
511.0394, 446.2188
511.5215, 457.4473
512.0037, 462.6289
512.4858, 455.1992
512.9679, 441.0273
513.4500, 427.0312
513.9321, 413.4648
514.4142, 402.0762
514.8964, 399.3672
515.3785, 396.7988
515.8606, 384.5410
516.3427, 354.4023
516.8248, 324.1484
517.3069, 296.3203
517.7891, 273.4414
518.2712, 260.1387
518.7533, 270.6758
519.2354, 277.6016
519.7175, 273.0293
520.1996, 257.2461
520.6818, 236.2168
521.1639, 200.0996
521.6460, 170.9590
522.1281, 164.5312
522.6102, 188.8008
523.0923, 204.7500
523.5745, 210.9531
524.0566, 209.6621
524.5387, 201.6016
525.0208, 186.7402
525.5029, 175.3594
525.9850, 170.7773
526.4672, 171.1738
526.9493, 175.9121
527.4314, 183.9707
527.9135, 186.2188
528.3956, 177.9121
528.8777, 160.1367
529.3599, 129.0762
529.8420, 82.85742
530.3241, 45.67383
530.8062, 43.46289
531.2883, 54.89844
531.7704, 55.77930
532.2526, 29.82422
532.7347, 5.742188
533.2168, 8.001953
533.6989, 13.51172
534.1810, 16.04297
534.6631, 9.876953
535.1453, 6.875000
535.6274, 13.36133
536.1095, 29.97070
536.5916, 34.96289
537.0737, 21.72070
537.5558, 5.279297
538.0380, 3.470703
538.5201, 2.912109
539.0022, 1.386719
539.4843, 2.001953
539.9664, 1.400391
540.4485, 14.82812
540.9307, 44.20508
541.4128, 68.21094
541.8949, 76.37891
542.3770, 77.19141
542.8591, 87.03125
543.3412, 105.5176
543.8234, 124.8789
544.3055, 143.2090
544.7876, 155.8164
545.2697, 155.8770
545.7518, 142.0508
546.2339, 133.0254
546.7161, 142.1836
547.1982, 157.3828
547.6803, 168.2988
548.1624, 169.5059
548.6445, 170.8965
549.1266, 177.0586
549.6088, 184.7812
550.0909, 186.6211
550.5730, 178.1973
551.0551, 172.3086
551.5372, 173.0117
552.0193, 180.0312
552.5015, 188.2949
552.9836, 198.5098
553.4657, 207.6719
553.9478, 211.5742
554.4299, 211.0352
554.9120, 217.2715
555.3942, 231.2598
555.8763, 247.0977
556.3584, 255.6582
556.8405, 260.2852
557.3226, 270.4590
557.8047, 291.3867
558.2869, 314.8340
558.7690, 337.6738
559.2511, 357.3906
559.7332, 367.3008
560.2154, 355.6719
560.6975, 341.3965
561.1796, 334.3262
561.6617, 335.3926
562.1439, 337.9961
562.6260, 344.0645
563.1081, 349.3828
563.5902, 351.3574
564.0723, 346.1816
564.5544, 346.0859
565.0366, 351.5098
565.5187, 361.4629
566.0008, 374.6816
566.4829, 391.4961
566.9650, 409.9004
567.4471, 430.3809
567.9293, 450.7383
568.4114, 463.5469
568.8935, 469.1895
569.3756, 474.8691
569.8577, 485.3184
570.3398, 498.6094
570.8220, 510.1602
571.3041, 519.5762
571.7862, 527.5645
572.2683, 534.5352
572.7504, 541.7031
573.2325, 549.6660
573.7147, 557.2852
574.1968, 573.0781
574.6789, 607.1504
575.1610, 646.9043
575.6431, 677.0527
576.1252, 681.4238
576.6074, 692.3555
577.0895, 717.5879
577.5716, 753.9941
578.0537, 787.7656
578.5358, 815.8555
579.0179, 845.0703
579.5001, 878.4297
579.9822, 917.0977
580.4643, 954.9629
580.9464, 991.2832
581.4285, 1030.611
581.9106, 1082.064
582.3928, 1140.586
582.8749, 1188.486
583.3570, 1222.783
583.8391, 1250.779
584.3212, 1272.922
584.8033, 1295.244
585.2855, 1328.322
585.7676, 1381.318
586.2497, 1440.273
586.7318, 1514.557
587.2139, 1591.285
587.6960, 1633.570
588.1782, 1604.697
588.6603, 1566.646
589.1424, 1539.453
589.6245, 1523.348
590.1066, 1506.498
590.5887, 1490.992
591.0709, 1470.654
591.5530, 1443.256
592.0351, 1409.553
592.5172, 1360.229
592.9993, 1289.439
593.4814, 1217.840
593.9636, 1176.287
594.4457, 1160.105
594.9278, 1138.717
595.4099, 1101.770
595.8920, 1061.459
596.3741, 1034.148
596.8563, 1016.736
597.3384, 1000.783
597.8205, 981.6016
598.3026, 964.3320
598.7847, 954.7793
599.2668, 951.6426
599.7490, 943.6426
600.2311, 921.6055
600.7132, 898.0957
601.1953, 879.4922
601.6774, 866.9004
602.1595, 853.0684
602.6417, 837.0586
603.1238, 819.5449
603.6059, 800.9355
604.0880, 780.6133
604.5701, 761.7188
605.0522, 746.9941
605.5344, 729.1211
606.0165, 690.5547
606.4986, 635.1699
606.9807, 589.1016
607.4628, 568.5820
607.9449, 557.3633
608.4271, 531.7012
608.9092, 495.5566
609.3913, 464.0215
609.8735, 454.1035
610.3556, 445.5840
610.8377, 420.2090
611.3198, 376.1309
611.8019, 343.7402
612.2841, 342.5781
612.7662, 347.0605
613.2483, 340.0820
613.7304, 313.5293
614.2125, 292.8145
614.6946, 280.0879
615.1768, 269.9785
615.6589, 255.4883
616.1410, 235.3945
616.6231, 217.3574
617.1052, 202.4590
617.5873, 190.5996
618.0695, 185.6582
618.5516, 185.6758
619.0337, 178.7695
619.5158, 150.8613
619.9979, 119.2148
620.4800, 108.9551
620.9622, 116.1660
621.4443, 119.8945
621.9264, 104.0039
622.4085, 85.08008
622.8906, 74.40625
623.3727, 74.53320
623.8549, 71.06836
624.3370, 54.38281
624.8191, 37.62695
625.3012, 29.96094
625.7833, 37.86523
626.2654, 37.83984
626.7476, 27.01367
627.2297, 11.16797
627.7118, 3.917969
628.1939, 18.41992
628.6760, 23.49023
629.1581, 13.07031
629.6403, 1.808594
630.1224, 5.500000
630.6045, 1.455078
631.0866, 18.28711
631.5687, 59.19336
632.0508, 98.36719
632.5330, 109.7285
633.0151, 96.63281
633.4972, 79.31055
633.9793, 58.45898
634.4614, 41.76758
634.9435, 36.54102
635.4257, 47.93164
635.9078, 47.05859
636.3899, 27.57031
636.8720, 1.955078
637.3541, 20.77734
637.8362, 39.99414
638.3184, 59.05273
638.8005, 77.32422
639.2826, 95.87891
639.7647, 118.3457
640.2468, 143.4355
640.7289, 160.0625
641.2111, 161.2676
641.6932, 161.7910
642.1753, 184.7051
642.6574, 221.5156
643.1395, 251.0488
643.6216, 258.8965
644.1038, 261.6973
644.5859, 268.3633
645.0680, 277.9453
645.5501, 285.7520
646.0322, 291.2676
646.5143, 294.0625
646.9965, 292.3359
647.4786, 285.6758
647.9607, 287.2070
648.4428, 304.2480
648.9249, 314.9277
649.4070, 298.5879
649.8892, 256.2520
650.3713, 233.7188
650.8534, 234.9316
651.3355, 242.6602
651.8176, 238.6699
652.2997, 227.3730
652.7819, 217.8633
653.2640, 211.6289
653.7461, 209.1387
654.2282, 215.9395
654.7103, 225.3555
655.1924, 227.3809
655.6746, 211.0234
656.1567, 196.0859
656.6388, 188.2480
657.1209, 185.8262
657.6030, 183.9355
658.0851, 183.4004
658.5673, 182.1445
659.0494, 178.3984
659.5316, 173.3848
660.0137, 176.1445
660.4958, 187.4062
660.9779, 197.6465
661.4600, 197.6680
661.9421, 192.7344
662.4243, 197.4512
662.9064, 211.9004
663.3885, 228.9824
663.8706, 243.7910
664.3527, 257.8379
664.8348, 273.5332
665.3170, 292.6777
665.7991, 306.7422
666.2812, 301.6348
666.7633, 296.0449
667.2454, 308.7090
667.7275, 353.0352
668.2097, 393.1172
668.6918, 431.0898
669.1739, 461.8535
669.6560, 475.0352
670.1381, 469.1133
670.6202, 462.1328
671.1024, 457.0859
671.5845, 455.3809
672.0666, 459.8691
672.5487, 470.0371
673.0308, 483.8867
673.5129, 505.9902
673.9951, 526.7773
674.4772, 535.3789
674.9593, 534.5898
675.4414, 536.5000
675.9235, 548.8047
676.4056, 562.0820
676.8878, 573.5312
677.3699, 583.3320
677.8520, 585.0176
678.3341, 574.2344
678.8162, 561.7129
679.2983, 551.8633
679.7805, 544.2500
680.2626, 547.8105
680.7447, 564.4980
681.2268, 580.6074
681.7089, 579.5664
682.1910, 567.3770
682.6732, 560.6582
683.1553, 563.4199
683.6374, 563.9043
684.1195, 550.4648
684.6016, 530.2305
685.0837, 511.9473
685.5659, 499.8203
686.0480, 486.3750
686.5301, 467.4570
687.0122, 448.8242
687.4943, 438.3633
687.9764, 436.6465
688.4586, 440.7754
688.9407, 454.1875
689.4228, 468.2969
689.9049, 461.6152
690.3870, 435.3516
690.8691, 409.9551
691.3513, 393.1680
691.8334, 382.3926
692.3155, 374.5938
692.7976, 368.1855
693.2797, 358.4434
693.7618, 338.8340
694.2440, 321.0312
694.7261, 313.5547
695.2082, 315.5156
695.6903, 318.7500
696.1724, 322.4004
696.6545, 326.9355
697.1367, 333.0801
697.6188, 341.5078
698.1009, 349.5605
698.5830, 358.0586
699.0651, 364.9336
699.5472, 367.5547
700.0294, 366.4512
700.5115, 366.3633
700.9936, 367.1445
701.4757, 370.0488
701.9578, 376.5684
702.4399, 385.4258
702.9221, 395.1387
703.4042, 405.2090
703.8863, 414.8945
704.3684, 425.0664
704.8505, 433.4355
705.3326, 437.3418
705.8148, 431.3320
706.2969, 427.5117
706.7790, 428.4746
707.2611, 431.2051
707.7432, 430.7246
708.2253, 427.5449
708.7075, 420.3262
709.1896, 407.9727
709.6718, 393.3750
710.1539, 381.8555
710.6360, 373.3379
711.1181, 366.4922
711.6002, 359.0996
712.0823, 354.7637
712.5645, 361.1660
713.0466, 374.3516
713.5287, 379.4062
714.0108, 361.6855
714.4929, 343.6309
714.9750, 333.2051
715.4572, 329.8535
715.9393, 332.7891
716.4214, 347.7910
716.9035, 355.9297
717.3856, 344.2344
717.8677, 314.8535
718.3499, 295.7246
718.8320, 286.7949
719.3141, 279.9258
719.7962, 269.5977
720.2783, 256.7070
720.7604, 240.6621
721.2426, 222.0020
721.7247, 210.4707
722.2068, 220.2598
722.6889, 231.5527
723.1710, 229.6543
723.6531, 208.3027
724.1353, 189.7832
724.6174, 171.7383
725.0995, 157.7148
725.5816, 153.3828
726.0637, 160.7422
726.5458, 168.8691
727.0280, 176.9414
727.5101, 185.0195
727.9922, 193.6289
728.4743, 201.2578
728.9564, 206.6953
729.4385, 209.9531
729.9207, 207.9668
730.4028, 192.1289
730.8849, 170.6973
731.3670, 158.2285
731.8491, 172.4629
732.3312, 179.8945
732.8134, 167.9492
733.2955, 147.7578
733.7776, 137.1191
734.2597, 138.5898
734.7418, 143.4648
735.2239, 153.2637
735.7061, 162.1445
736.1882, 150.7266
736.6703, 122.7500
737.1524, 106.1680
737.6345, 119.1426
738.1166, 142.2324
738.5988, 158.5566
739.0809, 167.6367
739.5630, 167.9121
740.0451, 149.3125
740.5272, 130.8379
741.0093, 117.2188
741.4915, 109.4844
741.9736, 114.5742
742.4557, 142.1504
742.9378, 162.7949
743.4199, 163.4922
743.9020, 148.0449
744.3842, 139.1543
744.8663, 136.7305
745.3484, 135.5449
745.8305, 132.5586
746.3126, 128.9062
746.7947, 127.3281
747.2769, 127.5625
747.7590, 125.5977
748.2411, 118.8379
748.7232, 110.0801
749.2053, 100.2988
749.6874, 89.38086
750.1696, 80.40234
750.6517, 66.92578
751.1338, 64.42969
751.6159, 88.16602
752.0980, 140.2910
752.5801, 161.4258
753.0623, 148.4766
753.5444, 127.4805
754.0265, 116.3320
754.5086, 113.3691
754.9907, 118.3203
755.4728, 131.5156
755.9550, 141.1406
756.4371, 134.8359
756.9192, 124.9395
757.4013, 123.3301
757.8835, 139.5430
758.3656, 141.3828
758.8477, 116.6895
759.3298, 89.56836
759.8120, 82.52148
760.2941, 99.68359
760.7762, 101.2578
761.2583, 82.34961
761.7404, 62.09570
762.2225, 67.04688
762.7047, 86.54297
763.1868, 95.02344
763.6689, 86.39062
764.1510, 73.51367
764.6331, 60.79102
765.1152, 50.61328
765.5974, 45.35352
766.0795, 43.79297
766.5616, 50.08398
767.0437, 69.55469
767.5258, 91.48047
768.0079, 102.7031
768.4901, 101.6719
768.9722, 97.99414
769.4543, 91.34180
769.9364, 84.61328
770.4185, 79.67969
770.9006, 77.64453
771.3828, 84.08984
771.8649, 107.3926
772.3470, 123.7402
772.8291, 111.9707
773.3112, 85.77930
773.7933, 64.06836
774.2755, 57.47461
774.7576, 48.22461
775.2397, 34.14062
775.7218, 18.37109
776.2039, 5.355469
776.6860, 4.462891
777.1682, 2.502041
777.6503, 15.07031
778.1324, 19.06641
778.6145, 36.31641
779.0966, 60.37695
779.5787, 73.24805
780.0609, 60.34766
780.5430, 47.34961
781.0251, 55.47656
781.5072, 73.17578
781.9893, 79.22070
782.4714, 55.85938
782.9536, 38.29883
783.4357, 31.99023
783.9178, 32.22070
784.3999, 31.36328
784.8820, 29.65430
785.3641, 17.72461
785.8463, 13.67188
786.3284, 12.11364
786.8105, 8.825942
787.2926, 4.484375
787.7747, 16.92383
788.2568, 1.042969
788.7390, 19.52930
789.2211, 28.71484
789.7032, 30.39453
790.1853, 34.61133
790.6674, 41.25195
791.1495, 51.74805
791.6317, 69.09766
792.1138, 88.45312
792.5959, 96.37305
793.0780, 93.23633
793.5601, 89.19531
794.0422, 88.28906
794.5244, 88.39844
795.0065, 88.38477
795.4886, 87.27148
795.9707, 82.12500
796.4528, 63.78125
796.9349, 50.23242
797.4171, 52.71094
797.8992, 65.53516
798.3813, 72.03320
798.8634, 68.58398
799.3455, 65.17773
799.8276, 62.22266
800.3098, 61.52734
800.7919, 69.97852
801.2740, 86.36719
801.7561, 100.4199
802.2382, 108.8027
802.7203, 111.6855
803.2025, 105.7773
803.6846, 94.71875
804.1667, 86.82422
804.6488, 85.38281
805.1309, 87.44922
805.6130, 99.14648
806.0952, 112.6582
806.5773, 107.7148
807.0594, 75.03906
807.5416, 57.11133
808.0237, 69.39844
808.5058, 96.29297
808.9879, 106.7539
809.4700, 102.5215
809.9521, 90.33203
810.4343, 64.39648
810.9164, 41.87695
811.3985, 41.48828
811.8806, 53.52344
812.3627, 57.66406
812.8448, 33.10742
813.3270, 20.26562
813.8091, 30.81445
814.2912, 53.92969
814.7733, 66.12891
815.2554, 66.43750
815.7375, 65.52344
816.2197, 66.67188
816.7018, 67.14258
817.1839, 59.35547
817.6660, 47.44141
818.1481, 41.42383
818.6302, 52.72852
819.1124, 61.82422
819.5945, 52.93555
820.0766, 37.35938
820.5587, 38.08789
821.0408, 67.29688
821.5229, 92.22266
822.0051, 110.5684
822.4872, 120.9062
822.9693, 116.6406
823.4514, 99.46680
823.9335, 88.09570
824.4156, 88.32812
824.8978, 93.69336
825.3799, 94.25195
825.8620, 95.63086
826.3441, 107.2129
826.8262, 148.2910
827.3083, 177.9102
827.7905, 176.1445
828.2726, 163.0605
828.7547, 163.6777
829.2368, 181.1992
829.7189, 199.3340
830.2010, 217.3691
830.6832, 231.6777
831.1653, 236.6016
831.6474, 233.9180
832.1295, 228.2461
832.6116, 220.5508
833.0938, 211.6016
833.5759, 199.6602
834.0580, 188.1914
834.5401, 180.8418
835.0222, 186.2500
835.5043, 183.6270
835.9865, 168.2188
836.4686, 150.5371
836.9507, 143.1543
837.4328, 146.1953
837.9149, 150.4785
838.3970, 154.9629
838.8792, 158.6855
839.3613, 161.7324
839.8434, 163.8379
840.3255, 164.7754
840.8076, 162.7695
841.2897, 162.1719
841.7719, 169.3379
842.2540, 173.6387
842.7361, 166.0508
843.2182, 142.2324
843.7003, 125.7598
844.1824, 116.3906
844.6646, 110.6660
845.1467, 106.6465
845.6288, 102.8105
846.1109, 99.48438
846.5930, 96.04688
847.0751, 91.51562
847.5573, 86.51953
848.0394, 79.48438
848.5215, 68.03516
849.0036, 50.67773
849.4857, 38.48047
849.9678, 34.48242
850.4500, 31.29102
850.9321, 22.54297
851.4142, 9.781250
851.8963, 14.33008
852.3784, 35.80273
852.8605, 51.65625
853.3427, 38.41406
853.8248, 16.59375
854.3069, 6.191406
854.7890, 7.666016
855.2711, 14.12695
855.7532, 25.15625
856.2354, 38.86328
856.7175, 56.47461
857.1996, 76.19336
857.6818, 85.71094
858.1639, 83.11523
858.6460, 81.83203
859.1281, 87.73242
859.6102, 98.78711
860.0923, 115.2832
860.5745, 134.4238
861.0566, 146.3262
861.5387, 138.1250
862.0208, 130.7129
862.5029, 135.7051
862.9850, 149.5723
863.4672, 158.9805
863.9493, 163.2520
864.4314, 166.8105
864.9135, 169.4824
865.3956, 172.8574
865.8777, 183.3262
866.3599, 199.1348
866.8420, 211.2695
867.3241, 215.6602
867.8062, 217.1309
868.2883, 211.4336
868.7704, 207.6895
869.2526, 218.0996
869.7347, 264.4062
870.2168, 292.8691
870.6989, 294.4219
871.1810, 284.4805
871.6631, 282.9180
872.1453, 289.1211
872.6274, 293.7461
873.1095, 295.9609
873.5916, 293.7578
874.0737, 281.2773
874.5558, 265.1973
875.0380, 254.9082
875.5201, 256.2012
876.0022, 251.4277
876.4843, 235.2324
876.9664, 213.2109
877.4485, 185.8203
877.9307, 150.3223
878.4128, 133.2441
878.8949, 136.4883
879.3770, 143.4121
879.8591, 136.4004
880.3412, 125.5254
880.8234, 130.3652
881.3055, 151.2734
881.7876, 165.6543
882.2697, 159.3047
882.7518, 146.9805
883.2339, 133.9238
883.7161, 120.4180
884.1982, 114.8242
884.6803, 119.4512
885.1624, 121.5410
885.6445, 112.1250
886.1266, 97.33398
886.6088, 90.75000
887.0909, 91.70898
887.5730, 97.12891
888.0551, 110.0410
888.5372, 122.6992
889.0193, 134.2695
889.5015, 142.6172
889.9836, 141.1289
890.4657, 123.0176
890.9478, 111.8594
891.4299, 113.9453
891.9120, 123.5996
892.3942, 130.9648
892.8763, 135.8633
893.3584, 137.4766
893.8405, 130.4766
894.3226, 131.2285
894.8047, 164.3926
895.2869, 206.9277
895.7690, 228.3125
896.2511, 202.6895
896.7332, 188.2578
897.2153, 188.1680
897.6974, 194.7969
898.1796, 202.7441
898.6617, 211.3086
899.1438, 213.7500
899.6259, 209.4297
900.1080, 203.1699
900.5901, 197.9668
901.0723, 193.8652
901.5544, 190.6348
902.0365, 188.2480
902.5186, 189.3398
903.0007, 201.6016
903.4828, 206.6641
903.9650, 191.4629
904.4471, 159.4727
904.9292, 143.5801
905.4113, 143.0918
905.8935, 147.3418
906.3756, 151.5586
906.8577, 155.8242
907.3398, 157.6445
907.8220, 158.7617
908.3041, 165.5059
908.7862, 189.9707
909.2683, 208.2910
909.7504, 213.1484
910.2325, 207.9316
910.7147, 199.6738
911.1968, 189.8965
911.6789, 185.3496
912.1610, 191.7480
912.6431, 198.9844
913.1252, 194.1953
913.6074, 181.2871
914.0895, 165.9336
914.5716, 142.1641
915.0537, 128.8809
915.5358, 134.7715
916.0179, 146.4883
916.5001, 153.1367
916.9822, 154.8223
917.4643, 150.6914
917.9464, 140.6348
918.4285, 126.1152
918.9106, 106.6680
919.3928, 85.06445
919.8749, 64.44531
920.3570, 45.39062
920.8391, 26.85938
921.3212, 4.535156
921.8033, 12.11719
922.2855, 17.74023
922.7676, 13.29102
923.2497, 10.50977
923.7318, 9.412109
924.2139, 6.376953
924.6960, 5.273438
925.1782, 15.91992
925.6603, 6.255859
926.1424, 15.08203
926.6245, 24.72266
927.1066, 6.406250
927.5887, 14.43750
928.0709, 34.38477
928.5530, 51.65039
929.0351, 62.57422
929.5172, 66.83008
929.9993, 68.85352
930.4814, 69.28516
930.9636, 68.38086
931.4457, 66.83008
931.9278, 64.16016
932.4099, 57.63672
932.8920, 41.65430
933.3741, 39.22266
933.8563, 72.57422
934.3384, 105.4375
934.8205, 112.1816
935.3026, 91.51953
935.7847, 78.99805
936.2668, 74.58008
936.7490, 76.19141
937.2311, 87.93555
937.7132, 100.8086
938.1953, 101.0234
938.6774, 90.66211
939.1595, 85.60156
939.6417, 98.71094
940.1238, 107.2832
940.6059, 102.7246
941.0880, 90.75781
941.5701, 91.67188
942.0522, 104.9941
942.5344, 107.0508
943.0165, 86.88477
943.4986, 60.88281
943.9807, 43.07031
944.4628, 32.61523
944.9449, 28.70508
945.4271, 41.19531
945.9092, 43.32617
946.3913, 28.79883
946.8734, 9.755859
947.3555, 2.039063
947.8376, 7.054688
948.3198, 15.86719
948.8019, 29.23438
949.2840, 39.57031
949.7661, 38.55859
950.2482, 42.87178
950.7303, 31.33203
951.2125, 33.82422
951.6946, 24.37891
952.1767, 34.01231
952.6588, 35.98633
953.1409, 54.82422
953.6230, 65.11133
954.1052, 73.79883
954.5873, 80.07031
955.0695, 78.60352
955.5516, 60.84570
956.0337, 43.39258
956.5158, 36.13672
956.9979, 38.41406
957.4800, 50.55273
957.9622, 89.00977
958.4443, 102.0879
958.9264, 77.12109
959.4085, 46.24609
959.8906, 51.90820
960.3727, 82.27148
960.8549, 91.04883
961.3370, 73.29297
961.8191, 55.00781
962.3012, 57.76172
962.7833, 62.39258
963.2654, 51.52148
963.7476, 24.50586
964.2297, 17.10742
964.7118, 37.74609
965.1939, 50.16211
965.6760, 34.64648
966.1581, 5.066406
966.6403, 13.99805
967.1224, 21.81250
967.6045, 17.13672
968.0866, 24.42188
968.5687, 21.72174
969.0508, 28.71875
969.5330, 11.71484
970.0151, 26.81055
970.4972, 11.20508
970.9793, 1.306641
971.4614, 5.398438
971.9435, 15.70117
972.4257, 55.48047
972.9078, 107.7285
973.3899, 147.1973
973.8720, 169.9531
974.3541, 189.3965
974.8362, 200.1387
975.3184, 219.3125
975.8005, 255.8535
976.2826, 307.2207
976.7647, 353.5938
977.2468, 394.8301
977.7289, 437.9160
978.2111, 483.6484
978.6932, 535.6758
979.1753, 607.0078
979.6574, 685.6582
980.1395, 750.0293
980.6216, 775.6094
981.1038, 815.5156
981.5859, 873.0137
982.0680, 946.6465
982.5501, 1034.221
983.0322, 1137.369
983.5143, 1253.908
983.9965, 1381.186
984.4786, 1525.154
984.9607, 1687.086
985.4428, 1872.963
985.9249, 2086.842
986.4070, 2329.373
986.8892, 2589.189
987.3713, 2864.844
987.8534, 3154.092
988.3355, 3453.334
988.8176, 3765.670
989.2997, 4099.076
989.7819, 4451.055
990.2640, 4815.117
990.7461, 5176.104
991.2282, 5560.771
991.7103, 5978.803
992.1924, 6430.158
992.6746, 6902.623
993.1567, 7392.049
993.6388, 7940.912
994.1209, 8557.660
994.6030, 9209.402
995.0851, 9877.258
995.5673, 10556.86
996.0494, 11257.46
996.5315, 11976.03
997.0136, 12635.50
997.4957, 13270.28
997.9778, 13782.12
998.4600, 14162.59
998.9421, 14383.17
999.4242, 14348.66
999.9063, 14060.75
1000.388, 13522.09
1000.871, 12689.78
1001.353, 11701.01
1001.835, 10581.03
1002.317, 9422.410
1002.799, 8322.557
1003.281, 7267.500
1003.763, 6340.270
1004.245, 5543.467
1004.728, 4851.371
1005.210, 4242.158
1005.692, 3714.492
1006.174, 3262.547
1006.656, 2882.557
1007.138, 2552.418
1007.620, 2266.328
1008.102, 2019.541
1008.584, 1812.002
1009.067, 1639.553
1009.549, 1505.023
1010.031, 1411.824
1010.513, 1318.334
1010.995, 1214.461
1011.477, 1114.180
1011.959, 1034.666
1012.441, 971.7070
1012.924, 921.6699
1013.406, 886.5645
1013.888, 850.3203
1014.370, 805.6934
1014.852, 765.4727
1015.334, 735.9766
1015.816, 716.4551
1016.298, 705.2324
1016.780, 700.8359
1017.263, 691.3633
1017.745, 659.1250
1018.227, 631.6797
1018.709, 634.3789
1019.191, 652.6094
1019.673, 656.8418
1020.155, 639.4746
1020.637, 628.6504
1021.120, 628.9746
1021.602, 628.1426
1022.084, 612.6191
1022.566, 586.5566
1023.048, 556.4023
1023.530, 522.9590
1024.012, 485.6074
1024.494, 434.5449
1024.976, 390.4883
1025.458, 362.2246
1025.941, 349.0762
1026.423, 343.0840
1026.905, 343.7305
1027.387, 343.1602
1027.869, 339.8535
1028.351, 335.4746
1028.833, 331.4961
1029.316, 324.2480
1029.798, 309.1582
1030.280, 279.8691
1030.762, 253.8398
1031.244, 230.0020
1031.726, 211.9355
1032.208, 204.1465
1032.690, 203.6094
1033.172, 204.7812
1033.655, 206.5234
1034.137, 203.2637
1034.619, 193.5859
1035.101, 176.9746
1035.583, 149.4883
1036.065, 117.6777
1036.547, 93.23828
1037.029, 76.62695
1037.511, 62.67773
1037.994, 51.02344
1038.476, 40.33789
1038.958, 31.90625
1039.440, 22.46289
1039.922, 5.064453
1040.404, 23.38867
1040.886, 31.83594
1041.368, 7.636719
1041.851, 10.64258
1042.333, 2.646484
1042.815, 18.73438
1043.297, 17.60156
1043.779, 0.9042970
1044.261, 9.916016
1044.743, 3.957031
1045.225, 8.546875
1045.708, 21.14844
1046.190, 29.97851
1046.672, 39.86416
1047.154, 62.50195
1047.636, 65.41992
1048.118, 82.36328
1048.600, 104.0566
1049.082, 129.2520
1049.564, 150.7930
1050.047, 160.1934
1050.529, 159.0918
1051.011, 155.1309
1051.493, 145.6094
1051.975, 141.4121
1052.457, 145.5293
1052.939, 153.7109
1053.421, 164.9004
1053.903, 174.1504
1054.386, 167.0664
1054.868, 138.9531
1055.350, 114.3574
1055.832, 103.3867
1056.314, 101.4844
1056.796, 110.1895
1057.278, 126.7891
1057.760, 124.3438
1058.243, 103.8398
1058.725, 86.28711
1059.207, 84.58008
1059.689, 83.40234
1060.171, 64.64453
1060.653, 39.18945
1061.135, 22.77734
1061.617, 17.28711
1062.099, 21.32422
1062.582, 37.44141
1063.064, 54.65625
1063.546, 68.71484
1064.028, 75.53711
1064.510, 62.56055
1064.992, 32.97852
1065.474, 5.220703
1065.956, 20.60547
1066.438, 32.34180
1066.921, 19.77539
1067.403, 2.582031
1067.885, 6.712891
1068.367, 4.494141
1068.849, 1.886719
1069.331, 31.60352
1069.813, 63.21289
1070.295, 82.74023
1070.778, 98.93359
1071.260, 123.4395
1071.742, 154.5078
1072.224, 151.2539
1072.706, 104.6641
1073.188, 76.98047
1073.670, 94.95312
1074.152, 134.1973
1074.635, 166.8828
1075.117, 194.3691
1075.599, 220.6973
1076.081, 246.7363
1076.563, 270.5332
1077.045, 292.9980
1077.527, 310.3906
1078.009, 314.1953
1078.491, 311.0801
1078.974, 331.4512
1079.456, 370.9160
1079.938, 407.1855
1080.420, 422.1992
1080.902, 441.1387
1081.384, 480.1797
1081.866, 525.0586
1082.348, 553.7969
1082.831, 564.7891
1083.313, 606.0918
1083.795, 682.4492
1084.277, 761.7188
1084.759, 810.6367
1085.241, 854.9297
1085.723, 919.9609
1086.205, 975.3320
1086.688, 1071.520
1087.170, 1113.184
1087.652, 1174.412
1088.134, 1269.002
1088.616, 1380.379
1089.098, 1482.951
1089.580, 1586.193
1090.062, 1704.512
1090.544, 1840.533
1091.026, 1996.080
1091.509, 2183.070
1091.991, 2373.662
1092.473, 2559.078
1092.955, 2737.188
1093.437, 2906.182
1093.919, 3062.781
1094.401, 3191.254
1094.883, 3297.756
1095.366, 3356.326
1095.848, 3360.713
1096.330, 3305.043
1096.812, 3180.943
1097.294, 2983.209
1097.776, 2761.904
1098.258, 2516.230
1098.740, 2265.256
1099.223, 1999.133
1099.705, 1751.957
1100.187, 1565.523
1100.669, 1419.660
1101.151, 1263.859
1101.633, 1081.148
1102.115, 931.9766
1102.597, 822.6484
1103.079, 734.0781
1103.562, 650.4141
1104.044, 574.4160
1104.526, 512.4434
1105.008, 464.4570
1105.490, 426.7051
1105.972, 412.7344
1106.454, 386.6836
1106.936, 335.8730
1107.418, 276.0684
1107.901, 235.8730
1108.383, 212.1113
1108.865, 197.1680
1109.347, 189.8984
1109.829, 188.4922
1110.311, 195.9160
1110.793, 205.5137
1111.275, 218.3594
1111.758, 230.1445
1112.240, 208.1250
1112.722, 156.7500
1113.204, 123.3906
1113.686, 133.0098
1114.168, 150.8438
1114.650, 157.5703
1115.132, 156.6504
1115.615, 151.8086
1116.097, 142.8574
1116.579, 131.3125
1117.061, 116.9023
1117.543, 106.7285
1118.025, 107.1328
1118.507, 112.7578
1118.989, 124.5801
1119.471, 136.3516
1119.953, 132.3711
1120.436, 100.4453
1120.918, 76.70312
1121.400, 63.31055
1121.882, 56.40820
1122.364, 60.47852
1122.846, 64.31445
1123.328, 44.06055
1123.810, 53.35423
1124.293, 33.72656
1124.775, 54.92773
1125.257, 65.50586
1125.739, 66.22266
1126.221, 59.72070
1126.703, 43.41602
1127.185, 21.56445
1127.667, 9.310547
1128.150, 8.794922
1128.632, 9.386719
1129.114, 8.751953
1129.596, 4.449219
1130.078, 7.044922
1130.560, 20.95312
1131.042, 18.26172
1131.524, 2.935547
1132.006, 1.656250
1132.489, 24.22266
1132.971, 48.17969
1133.453, 50.88867
1133.935, 55.03906
1134.417, 83.01953
1134.899, 132.7949
1135.381, 153.6250
1135.863, 145.6387
1136.346, 139.8379
1136.828, 148.8926
1137.310, 165.3828
1137.792, 189.3789
1138.274, 213.3613
1138.756, 226.7188
1139.238, 227.6523
1139.720, 225.7832
1140.203, 220.2715
1140.685, 219.1016
1141.167, 232.9707
1141.649, 250.0664
1142.131, 258.3887
1142.613, 258.3867
1143.095, 250.5410
1143.577, 225.0039
1144.059, 211.8516
1144.542, 213.0566
1145.024, 223.6250
1145.506, 245.4023
1145.988, 269.7852
1146.470, 282.6309
1146.952, 284.4805
1147.434, 281.4219
1147.916, 264.9316
1148.398, 259.8398
1148.881, 275.6133
1149.363, 291.7734
1149.845, 274.9395
1150.327, 239.2539
1150.809, 219.8750
1151.291, 219.5625
1151.773, 224.3613
1152.255, 239.5859
1152.738, 244.8867
1153.220, 231.8770
1153.702, 209.4043
1154.184, 192.1133
1154.666, 180.1055
1155.148, 175.9980
1155.630, 180.9551
1156.112, 180.8262
1156.594, 158.9746
1157.077, 139.2129
1157.559, 135.9688
1158.041, 142.1680
1158.523, 127.6094
1159.005, 96.51367
1159.487, 85.79297
1159.969, 111.4023
1160.451, 135.3945
1160.933, 130.7051
1161.416, 115.2188
1161.898, 98.21875
1162.380, 82.05469
1162.862, 93.68555
1163.344, 131.8730
1163.826, 155.2617
1164.308, 141.7559
1164.790, 120.8887
1165.273, 108.6973
1165.755, 105.7988
1166.237, 113.4883
1166.719, 131.9766
1167.201, 153.3223
1167.683, 177.9160
1168.165, 193.7285
1168.647, 187.2969
1169.130, 177.9258
1169.612, 183.6621
1170.094, 197.8555
1170.576, 210.6797
1171.058, 220.5801
1171.540, 231.1699
1172.022, 242.5605
1172.504, 254.9785
1172.986, 270.5508
1173.469, 286.2695
1173.951, 301.9766
1174.433, 315.0273
1174.915, 316.4043
1175.397, 297.3496
1175.879, 294.5840
1176.361, 314.0703
1176.843, 329.9863
1177.326, 308.0176
1177.808, 277.3984
1178.290, 281.9375
1178.772, 270.1055
1179.254, 267.9609
1179.736, 289.7637
1180.218, 288.1133
1180.700, 336.0000
1181.182, 385.3848
1181.665, 376.8750
1182.147, 335.0859
1182.629, 303.9492
1183.111, 285.3535
1183.593, 264.3965
1184.075, 232.0547
1184.557, 215.4492
1185.039, 225.0801
1185.521, 237.7090
1186.004, 213.7988
1186.486, 175.9785
1186.968, 163.4570
1187.450, 178.3281
1187.932, 185.7910
1188.414, 177.2383
1188.896, 165.8398
1189.378, 149.9590
1189.861, 133.7363
1190.343, 127.8418
1190.825, 129.7422
1191.307, 136.8867
1191.789, 149.4336
1192.271, 158.6602
1192.753, 164.0293
1193.235, 163.3945
1193.718, 152.8652
1194.200, 141.2520
1194.682, 149.3906
1195.164, 167.9551
1195.646, 176.0039
1196.128, 166.7559
1196.610, 164.0566
1197.092, 178.0801
1197.574, 190.0762
1198.057, 191.7012
1198.539, 187.7988
1199.021, 188.5488
1199.503, 192.6562
1199.985, 198.0176
1200.467, 205.3750
1200.949, 208.5957
1201.431, 205.4277
1201.913, 200.2793
1202.396, 194.2539
1202.878, 188.6836
1203.360, 187.7871
1203.842, 190.1543
1204.324, 191.5254
1204.806, 189.3594
1205.288, 190.5312
1205.770, 200.6152
1206.253, 206.1445
1206.735, 197.6211
1207.217, 179.8242
1207.699, 166.7227
1208.181, 155.9883
1208.663, 140.2383
1209.145, 107.8535
1209.627, 89.88867
1210.109, 97.85938
1210.592, 106.7949
1211.074, 97.02734
1211.556, 76.47852
1212.038, 67.99414
1212.520, 69.45117
1213.002, 75.01367
1213.484, 90.53711
1213.966, 96.52930
1214.448, 87.31250
1214.931, 75.90234
1215.413, 73.80078
1215.895, 77.08398
1216.377, 74.71680
1216.859, 67.69531
1217.341, 59.57617
1217.823, 48.06641
1218.305, 41.64453
1218.788, 42.38672
1219.270, 44.50781
1219.752, 39.95508
1220.234, 34.07812
1220.716, 45.36328
1221.198, 68.13477
1221.680, 81.67969
1222.162, 67.42578
1222.645, 59.89062
1223.127, 63.03320
1223.609, 71.52930
1224.091, 83.48438
1224.573, 96.03125
1225.055, 100.4883
1225.537, 99.39844
1226.019, 102.9824
1226.501, 127.6777
1226.984, 134.8965
1227.466, 115.6543
1227.948, 93.39648
1228.430, 96.37695
1228.912, 110.1562
1229.394, 103.9609
1229.876, 82.95898
1230.358, 74.93750
1230.841, 94.36914
1231.323, 113.2520
1231.805, 131.4023
1232.287, 140.8477
1232.769, 125.7598
1233.251, 101.0371
1233.733, 93.78516
1234.215, 100.0117
1234.698, 94.78125
1235.180, 70.11328
1235.662, 43.14258
1236.144, 12.64844
1236.626, 7.058594
1237.108, 15.93750
1237.590, 47.15625
1238.072, 33.22070
1238.554, 15.86328
1239.036, 34.18164
1239.519, 4.496094
1240.001, 12.81641
1240.483, 8.425781
1240.965, 0.5312500
1241.447, 5.283203
1241.929, 13.83398
1242.411, 11.51562
1242.893, 20.32627
1243.376, 12.82812
1243.858, 26.72461
1244.340, 30.65625
1244.822, 21.30273
1245.304, 13.59375
1245.786, 31.95898
1246.268, 48.63477
1246.750, 32.13867
1247.233, 10.29492
1247.715, 39.78906
1248.197, 54.96484
1248.679, 70.38672
1249.161, 88.25586
1249.643, 104.0098
1250.125, 109.2910
1250.607, 114.5195
1251.089, 130.5449
1251.572, 152.1367
1252.054, 162.9043
1252.536, 162.6875
1253.018, 165.7598
1253.500, 174.2070
1253.982, 181.5039
1254.464, 179.2031
1254.946, 177.7539
1255.428, 185.1875
1255.911, 187.5527
1256.393, 192.9082
1256.875, 202.4082
1257.357, 207.4453
1257.839, 218.8320
1258.321, 231.2305
1258.803, 253.5664
1259.285, 260.2246
1259.768, 234.3691
1260.250, 195.9102
1260.732, 181.1562
1261.214, 187.4336
1261.696, 209.8438
1262.178, 247.6641
1262.660, 265.7773
1263.142, 219.6504
1263.625, 189.1504
1264.107, 202.5547
1264.589, 233.0547
1265.071, 233.9648
1265.553, 217.9883
1266.035, 221.3242
1266.517, 245.9453
1266.999, 255.4688
1267.481, 213.5508
1267.964, 199.6543
1268.446, 239.4277
1268.928, 290.9141
1269.410, 290.4160
1269.892, 261.8789
1270.374, 248.7988
1270.856, 250.7422
1271.338, 241.6387
1271.820, 223.0898
1272.303, 206.2402
1272.785, 195.0840
1273.267, 184.2832
1273.749, 165.2441
1274.231, 150.0312
1274.713, 138.1602
1275.195, 139.2422
1275.677, 131.6230
1276.160, 105.4082
1276.642, 92.84570
1277.124, 101.2949
1277.606, 108.1934
1278.088, 90.89062
1278.570, 64.33398
1279.052, 31.37500
1279.534, 1.150391
1280.016, 3.203125
1280.499, 38.82227
1280.981, 61.42188
1281.463, 65.01562
1281.945, 60.82227
1282.427, 49.27148
1282.909, 40.97656
1283.391, 45.24414
1283.873, 54.16406
1284.356, 50.58594
1284.838, 37.64648
1285.320, 37.52344
1285.802, 51.93945
1286.284, 66.77344
1286.766, 75.85742
1287.248, 82.32227
1287.730, 89.48438
1288.213, 91.60352
1288.695, 74.28711
1289.177, 47.69727
1289.659, 39.46289
1290.141, 49.96289
1290.623, 61.37109
1291.105, 75.55664
1291.587, 75.10156
1292.069, 53.77539
1292.552, 30.86914
1293.034, 32.63086
1293.516, 45.18945
1293.998, 48.87305
1294.480, 44.08594
1294.962, 39.27148
1295.444, 36.02930
1295.926, 30.42188
1296.408, 21.44531
1296.891, 14.43945
1297.373, 15.65039
1297.855, 18.46094
1298.337, 18.05859
1298.819, 17.47852
1299.301, 18.98438
1299.783, 23.26953
1300.265, 19.84180
1300.748, 8.261719
1301.230, 1.261719
1301.712, 2.298828
1302.194, 0.7207030
1302.676, 0.0000000E+00
##END=



