##NAMES=Spencerite
##RRUFFID=R050581
##IDEAL CHEMISTRY=Zn_4_(PO_4_)_2_(OH)_2_&#183;3H_2_O
##LOCALITY=Salmo, British Columbia, Canada
##OWNER=RRUFF
##SOURCE=University of Arizona Mineral Museum
##DESCRIPTION=White aggregate of parallel bladed crystals
##STATUS=The identification of this mineral has been confirmed by X-ray diffraction.
##URL=rruff.info/R050581
111.8322, 0.0000000E+00
112.3143, 4.879883
112.7964, 9.142578
113.2785, 12.20312
113.7607, 11.37305
114.2428, 24.98730
114.7249, 20.96289
115.2070, 16.21777
115.6891, 8.669922
116.1712, 1.155273
116.6534, 4.255859
117.1355, 6.402344
117.6176, 18.47949
118.0997, 21.17969
118.5818, 13.17871
119.0639, 3.812500
119.5461, 2.599609
120.0282, 7.137695
120.5103, 10.68066
120.9924, 8.174805
121.4745, 3.340820
121.9566, 6.124023
122.4388, 22.62598
122.9209, 38.64355
123.4030, 43.40430
123.8851, 39.25098
124.3672, 34.46680
124.8493, 35.53613
125.3315, 42.82031
125.8136, 49.91797
126.2957, 55.15723
126.7778, 60.95312
127.2599, 70.13867
127.7420, 82.04688
128.2242, 92.48145
128.7063, 94.53027
129.1884, 80.33984
129.6705, 74.02637
130.1526, 79.12500
130.6347, 88.53516
131.1169, 97.31641
131.5990, 103.7305
132.0811, 108.9609
132.5632, 115.6084
133.0453, 128.4893
133.5274, 136.9033
134.0096, 136.2539
134.4917, 131.6582
134.9738, 130.9697
135.4559, 138.4580
135.9380, 151.0361
136.4201, 157.9209
136.9023, 157.3613
137.3844, 155.1963
137.8665, 153.6406
138.3486, 152.5771
138.8307, 151.2832
139.3128, 149.6084
139.7950, 147.3330
140.2771, 144.1611
140.7592, 139.5410
141.2413, 134.5361
141.7234, 129.4219
142.2055, 123.6768
142.6877, 120.5967
143.1698, 123.1689
143.6519, 129.0576
144.1340, 136.2793
144.6161, 144.8574
145.0982, 153.7754
145.5803, 160.7607
146.0625, 166.7510
146.5446, 168.5254
147.0267, 164.1250
147.5088, 155.6084
147.9909, 146.1172
148.4730, 137.8369
148.9552, 130.9316
149.4373, 122.0957
149.9194, 105.0781
150.4015, 90.97461
150.8836, 84.39941
151.3657, 83.83398
151.8479, 84.25488
152.3300, 81.31836
152.8121, 73.91797
153.2942, 70.13281
153.7763, 71.33594
154.2584, 73.96582
154.7406, 76.55957
155.2227, 78.85254
155.7048, 81.16992
156.1869, 84.00977
156.6690, 87.79980
157.1511, 90.03320
157.6333, 89.57617
158.1154, 88.22070
158.5975, 87.97656
159.0796, 89.32617
159.5617, 90.30273
160.0438, 87.26855
160.5260, 79.87500
161.0081, 75.09961
161.4902, 76.54980
161.9723, 81.43848
162.4544, 84.41211
162.9365, 83.59082
163.4187, 82.05762
163.9008, 83.47656
164.3829, 87.70020
164.8650, 92.45996
165.3471, 95.76465
165.8292, 98.11914
166.3113, 102.9238
166.7935, 111.9824
167.2756, 122.9424
167.7577, 134.2031
168.2398, 145.6406
168.7219, 156.9531
169.2040, 167.1992
169.6862, 175.3574
170.1683, 185.6113
170.6504, 199.9648
171.1325, 215.5117
171.6146, 231.9355
172.0967, 248.7207
172.5789, 264.0156
173.0610, 275.1758
173.5431, 281.9307
174.0252, 284.9043
174.5073, 283.8656
174.9894, 278.5986
175.4716, 269.8584
175.9537, 256.7588
176.4358, 240.0225
176.9179, 220.9785
177.4000, 197.6299
177.8821, 174.6162
178.3643, 151.7402
178.8464, 129.5117
179.3285, 108.7920
179.8106, 89.87695
180.2927, 72.22949
180.7748, 54.55078
181.2570, 32.65430
181.7391, 15.92383
182.2212, 7.043945
182.7033, 3.721680
183.1854, 3.507813
183.6675, 5.875000
184.1497, 9.248047
184.6318, 8.173828
185.1139, 10.48155
185.5960, 7.509766
186.0781, 11.78906
186.5602, 13.30957
187.0423, 13.12500
187.5245, 11.36230
188.0066, 8.488281
188.4887, 5.593750
188.9708, 2.107422
189.4529, 0.3486330
189.9350, 0.5224610
190.4172, -0.1003554
190.8993, 0.8115820
191.3814, 2.707031
191.8635, 3.225586
192.3456, 7.138672
192.8277, 7.928711
193.3099, 7.973633
193.7920, 10.42480
194.2741, 15.88965
194.7562, 19.17773
195.2383, 14.65039
195.7204, 8.456055
196.2026, 6.301758
196.6847, 10.46387
197.1668, 16.79004
197.6489, 18.44238
198.1310, 13.36719
198.6131, 9.695313
199.0953, 11.42090
199.5774, 14.75879
200.0595, 15.84961
200.5416, 12.95703
201.0237, 8.876953
201.5058, 10.06543
201.9880, 19.42578
202.4701, 29.18555
202.9522, 39.32227
203.4343, 48.43262
203.9164, 54.84766
204.3985, 57.75879
204.8807, 58.09668
205.3628, 58.54590
205.8449, 57.69043
206.3270, 58.98730
206.8091, 64.62012
207.2912, 71.84766
207.7733, 77.46191
208.2555, 79.82617
208.7376, 79.91406
209.2197, 81.36133
209.7018, 85.18848
210.1839, 89.36035
210.6660, 93.84473
211.1482, 98.54688
211.6303, 103.4883
212.1124, 108.7305
212.5945, 114.0527
213.0766, 118.5361
213.5587, 119.8291
214.0409, 123.0615
214.5230, 129.8359
215.0051, 139.1738
215.4872, 149.8037
215.9693, 161.4463
216.4514, 173.3135
216.9336, 182.1328
217.4157, 186.2812
217.8978, 190.3008
218.3799, 194.6562
218.8620, 199.8936
219.3441, 207.8564
219.8263, 220.2471
220.3084, 235.0557
220.7905, 246.6885
221.2726, 253.7031
221.7547, 260.5732
222.2368, 269.9434
222.7190, 281.1914
223.2011, 291.6211
223.6832, 299.5928
224.1653, 306.5049
224.6474, 315.1602
225.1295, 326.1904
225.6117, 337.4131
226.0938, 348.4854
226.5759, 359.1064
227.0580, 366.3135
227.5401, 367.6562
228.0222, 365.7168
228.5043, 364.0645
228.9865, 363.0234
229.4686, 361.6865
229.9507, 358.9463
230.4328, 354.8379
230.9149, 351.5850
231.3970, 351.4678
231.8792, 351.3438
232.3613, 349.0205
232.8434, 344.3076
233.3255, 336.8008
233.8076, 324.4229
234.2897, 306.5068
234.7719, 291.8584
235.2540, 285.7881
235.7361, 281.5205
236.2182, 275.1953
236.7003, 266.2090
237.1824, 255.7998
237.6646, 244.7842
238.1467, 232.7725
238.6288, 221.8037
239.1109, 208.9932
239.5930, 199.5410
240.0751, 198.0908
240.5573, 204.4053
241.0394, 212.6699
241.5215, 216.2139
242.0036, 213.9893
242.4857, 210.9648
242.9678, 205.3037
243.4500, 200.3857
243.9321, 198.6445
244.4142, 199.9531
244.8963, 201.8594
245.3784, 201.0020
245.8605, 195.6963
246.3427, 194.1416
246.8248, 200.8086
247.3069, 207.3428
247.7890, 209.1260
248.2711, 206.3701
248.7532, 202.7939
249.2354, 202.7402
249.7175, 208.0293
250.1996, 209.5469
250.6817, 200.6953
251.1638, 193.8701
251.6459, 196.4531
252.1281, 207.2871
252.6102, 219.4482
253.0923, 225.8701
253.5744, 224.8330
254.0565, 228.7764
254.5386, 240.5762
255.0208, 253.6826
255.5029, 265.4141
255.9850, 275.5957
256.4671, 285.2041
256.9492, 295.0879
257.4313, 305.0938
257.9135, 316.3662
258.3956, 332.5547
258.8777, 345.7461
259.3598, 350.7051
259.8419, 349.6289
260.3240, 349.4941
260.8062, 356.1367
261.2883, 369.4492
261.7704, 375.9082
262.2525, 372.9121
262.7346, 367.5801
263.2167, 361.6396
263.6989, 355.8418
264.1810, 351.9951
264.6631, 352.0967
265.1452, 355.0830
265.6273, 348.3818
266.1094, 323.7461
266.5916, 300.5469
267.0737, 287.0215
267.5558, 280.4814
268.0379, 273.9102
268.5200, 263.4463
269.0021, 250.2139
269.4843, 238.6133
269.9664, 230.9404
270.4485, 221.7598
270.9306, 207.9658
271.4127, 191.4453
271.8948, 175.9873
272.3770, 163.0439
272.8591, 152.4795
273.3412, 144.1025
273.8233, 138.7168
274.3054, 133.1729
274.7875, 125.8086
275.2697, 117.7070
275.7518, 111.2715
276.2339, 107.6758
276.7160, 105.1689
277.1981, 99.95605
277.6802, 91.17969
278.1623, 84.20703
278.6444, 82.46094
279.1266, 83.08887
279.6087, 80.95898
280.0908, 74.39355
280.5729, 66.39160
281.0550, 60.62109
281.5371, 56.82422
282.0193, 55.04785
282.5014, 56.20215
282.9835, 59.11523
283.4656, 62.37793
283.9477, 65.87891
284.4298, 69.08691
284.9120, 71.78516
285.3941, 73.90137
285.8762, 74.19141
286.3583, 71.19531
286.8404, 66.73438
287.3225, 62.30176
287.8047, 57.78613
288.2868, 55.34863
288.7689, 58.81250
289.2510, 66.12305
289.7331, 69.82227
290.2152, 65.38379
290.6974, 58.82422
291.1795, 56.78906
291.6616, 59.53516
292.1437, 62.37500
292.6258, 62.56250
293.1079, 60.67773
293.5901, 58.08887
294.0722, 53.27734
294.5543, 49.65234
295.0364, 51.60645
295.5185, 58.73633
296.0006, 63.78223
296.4828, 62.09473
296.9649, 56.93750
297.4470, 54.38770
297.9291, 55.32031
298.4112, 57.16602
298.8933, 58.17480
299.3755, 58.50488
299.8576, 59.39648
300.3397, 62.28027
300.8218, 64.65527
301.3039, 62.75000
301.7860, 55.93359
302.2682, 49.80664
302.7503, 48.35547
303.2324, 50.22559
303.7145, 50.75879
304.1966, 49.21387
304.6787, 45.51660
305.1609, 39.17285
305.6430, 30.46094
306.1251, 21.52148
306.6072, 11.18066
307.0893, 1.524414
307.5714, 1.842773
308.0536, 3.571289
308.5357, 10.08496
309.0178, 10.93262
309.4999, 7.700195
309.9820, 4.055664
310.4641, 1.168945
310.9463, 1.432617
311.4284, 4.583008
311.9105, 8.464844
312.3926, 11.83301
312.8747, 13.13867
313.3568, 13.47070
313.8390, 14.90039
314.3211, 19.43652
314.8032, 23.53320
315.2853, 22.62207
315.7674, 16.58984
316.2495, 11.34473
316.7317, 10.09863
317.2138, 11.01367
317.6959, 11.27441
318.1780, 10.74121
318.6601, 9.485352
319.1422, 6.689453
319.6243, 2.791016
320.1064, 1.194336
320.5886, 5.091797
321.0707, 9.278320
321.5528, 6.587891
322.0349, 3.469727
322.5170, 12.71484
322.9991, 16.69922
323.4813, 16.53223
323.9634, 14.78711
324.4455, 10.98730
324.9276, 7.823242
325.4097, 8.737305
325.8918, 12.98340
326.3740, 17.13965
326.8561, 18.91699
327.3382, 20.31543
327.8203, 24.95752
328.3024, 33.65918
328.7845, 43.03809
329.2667, 50.96094
329.7488, 57.63721
330.2309, 63.42139
330.7130, 68.33447
331.1951, 72.36963
331.6772, 74.64453
332.1594, 75.18701
332.6415, 77.31543
333.1236, 83.47021
333.6057, 92.07666
334.0878, 99.54932
334.5699, 105.4160
335.0521, 110.6973
335.5342, 115.8501
336.0163, 120.8921
336.4984, 125.9863
336.9805, 131.2661
337.4626, 136.5024
337.9448, 142.2417
338.4269, 149.2930
338.9090, 152.5913
339.3911, 145.9409
339.8732, 134.9429
340.3553, 131.2739
340.8375, 138.3799
341.3196, 148.3726
341.8017, 152.3315
342.2838, 150.8960
342.7659, 149.9805
343.2480, 150.6240
343.7302, 152.3384
344.2123, 155.2749
344.6944, 159.3887
345.1765, 162.5039
345.6586, 162.1035
346.1407, 159.1060
346.6229, 159.3203
347.1050, 164.1855
347.5871, 170.9961
348.0692, 179.9043
348.5513, 189.8364
349.0334, 196.7427
349.5156, 198.1982
349.9977, 195.7461
350.4798, 193.6543
350.9619, 192.2231
351.4440, 191.2324
351.9261, 190.5732
352.4083, 189.8486
352.8904, 188.6162
353.3725, 186.8813
353.8546, 184.8218
354.3367, 182.0508
354.8188, 177.6611
355.3010, 177.0776
355.7831, 182.3862
356.2652, 190.6299
356.7473, 200.8550
357.2294, 212.3857
357.7115, 221.4688
358.1937, 224.3242
358.6758, 220.5527
359.1579, 217.7861
359.6400, 214.2812
360.1221, 213.2622
360.6042, 217.9224
361.0863, 226.5396
361.5685, 234.4932
362.0506, 239.1030
362.5327, 241.2368
363.0148, 244.3999
363.4969, 250.6738
363.9790, 255.3687
364.4612, 255.8960
364.9433, 255.1660
365.4254, 257.2529
365.9075, 263.8330
366.3896, 272.1304
366.8717, 277.9521
367.3539, 279.9541
367.8360, 282.3340
368.3181, 283.5542
368.8002, 286.1689
369.2823, 293.6055
369.7644, 304.7886
370.2466, 314.2852
370.7287, 316.6250
371.2108, 311.1538
371.6929, 311.1045
372.1750, 321.5273
372.6571, 331.1118
373.1393, 338.1743
373.6214, 342.4653
374.1035, 342.9097
374.5856, 338.4990
375.0677, 331.0054
375.5498, 326.5898
376.0320, 327.1475
376.5141, 328.3628
376.9962, 332.9219
377.4783, 336.3496
377.9604, 334.2324
378.4425, 325.3706
378.9247, 312.5464
379.4068, 299.6367
379.8889, 287.0664
380.3710, 274.3335
380.8531, 259.7954
381.3352, 246.1763
381.8174, 235.6089
382.2995, 227.1670
382.7816, 217.9834
383.2637, 205.7930
383.7458, 191.1802
384.2279, 177.9355
384.7101, 165.8345
385.1922, 155.6777
385.6743, 148.3320
386.1564, 142.5127
386.6385, 136.8823
387.1206, 131.1890
387.6028, 124.5415
388.0849, 114.1138
388.5670, 98.23340
389.0491, 86.79785
389.5312, 85.46680
390.0133, 87.07178
390.4955, 87.99219
390.9776, 87.69043
391.4597, 85.72461
391.9418, 80.57031
392.4239, 72.96924
392.9060, 67.66797
393.3882, 65.67285
393.8703, 64.85986
394.3524, 64.89746
394.8345, 64.99951
395.3166, 63.16162
395.7987, 56.85938
396.2809, 49.69434
396.7630, 48.01953
397.2451, 52.30273
397.7272, 54.04590
398.2093, 47.84766
398.6914, 37.70312
399.1736, 29.93896
399.6557, 24.84717
400.1378, 21.55615
400.6199, 20.66943
401.1020, 21.19434
401.5841, 20.16699
402.0662, 16.50732
402.5483, 12.35156
403.0305, 9.596680
403.5126, 8.138184
403.9947, 9.708008
404.4768, 19.35059
404.9589, 28.99756
405.4410, 29.82617
405.9232, 22.15186
406.4053, 13.55615
406.8874, 8.888184
407.3695, 7.394531
407.8516, 4.668457
408.3337, 1.988770
408.8159, 6.572754
409.2980, 6.562500
409.7801, 3.456543
410.2622, 0.9785160
410.7443, 6.208008
411.2264, 10.88623
411.7086, 12.58154
412.1907, 8.935547
412.6728, 8.285645
413.1549, 14.33643
413.6370, 20.34033
414.1191, 20.46387
414.6013, 15.66016
415.0834, 11.81689
415.5655, 13.95215
416.0476, 21.54883
416.5297, 25.91064
417.0118, 24.82275
417.4940, 22.84717
417.9761, 19.03125
418.4582, 15.33105
418.9403, 14.68262
419.4224, 18.09863
419.9045, 23.20117
420.3867, 25.52295
420.8688, 23.38135
421.3509, 23.03613
421.8330, 26.77734
422.3151, 30.70654
422.7972, 33.17236
423.2794, 33.90771
423.7615, 33.08545
424.2436, 30.57715
424.7257, 26.70996
425.2078, 23.20166
425.6899, 19.52930
426.1721, 17.62695
426.6542, 17.58447
427.1363, 19.39209
427.6184, 23.74072
428.1005, 31.32617
428.5826, 39.26953
429.0648, 44.09863
429.5469, 45.50049
430.0290, 44.29736
430.5111, 38.03711
430.9932, 33.04883
431.4753, 35.67432
431.9575, 44.66992
432.4396, 52.06543
432.9217, 53.60303
433.4038, 52.31836
433.8859, 53.21143
434.3680, 56.54199
434.8502, 58.51904
435.3323, 55.22461
435.8144, 49.39697
436.2965, 48.50635
436.7786, 55.66309
437.2607, 63.79248
437.7429, 69.11670
438.2250, 71.75000
438.7071, 72.87988
439.1892, 72.87354
439.6713, 72.91260
440.1534, 74.74219
440.6356, 78.80322
441.1177, 82.83057
441.5998, 85.48340
442.0819, 89.03418
442.5640, 96.62061
443.0461, 107.0981
443.5282, 115.5957
444.0103, 118.5688
444.4925, 117.1572
444.9746, 117.6680
445.4567, 120.2949
445.9388, 124.7310
446.4209, 131.5786
446.9030, 139.8926
447.3852, 149.5786
447.8673, 160.2266
448.3494, 169.9702
448.8315, 175.9146
449.3136, 176.7573
449.7957, 180.1938
450.2779, 187.8193
450.7600, 196.4741
451.2421, 205.0146
451.7242, 213.8032
452.2063, 223.8809
452.6884, 235.9585
453.1706, 249.1343
453.6527, 261.9434
454.1348, 275.6914
454.6169, 284.8560
455.0990, 283.2666
455.5811, 279.7329
456.0633, 279.9204
456.5454, 284.4595
457.0275, 290.9712
457.5096, 301.1636
457.9917, 312.3345
458.4738, 312.9712
458.9560, 298.7075
459.4381, 284.3750
459.9202, 283.3765
460.4023, 288.7173
460.8844, 286.8047
461.3665, 270.6021
461.8487, 253.4619
462.3308, 247.5020
462.8129, 249.2236
463.2950, 246.1211
463.7771, 233.2612
464.2592, 216.3662
464.7414, 203.8569
465.2235, 196.6865
465.7056, 186.6265
466.1877, 168.5698
466.6698, 149.9033
467.1519, 137.2900
467.6341, 130.3604
468.1162, 124.9761
468.5983, 118.5054
469.0804, 111.1191
469.5625, 104.1982
470.0446, 98.72656
470.5268, 92.46484
471.0089, 84.68506
471.4910, 76.53125
471.9731, 69.35791
472.4552, 63.27148
472.9373, 57.00244
473.4195, 48.63428
473.9016, 37.69824
474.3837, 31.15625
474.8658, 32.73340
475.3479, 34.79541
475.8300, 36.59619
476.3122, 37.06738
476.7943, 34.41650
477.2764, 27.62158
477.7585, 19.37793
478.2406, 13.87939
478.7227, 11.44873
479.2049, 8.985352
479.6870, 5.412598
480.1691, 2.282227
480.6512, 1.166504
481.1333, 1.678711
481.6154, 1.804688
482.0976, 0.9130860
482.5797, 1.024902
483.0618, 4.687012
483.5439, 10.12988
484.0260, 14.68018
484.5081, 16.88672
484.9902, 17.40088
485.4724, 18.06152
485.9545, 19.58105
486.4366, 19.33057
486.9187, 14.49316
487.4008, 8.239746
487.8829, 5.532715
488.3651, 6.924316
488.8472, 8.014648
489.3293, 4.278320
489.8114, 4.188965
490.2935, 7.389160
490.7756, 0.7763670
491.2578, 4.794434
491.7399, 5.593262
492.2220, 3.811523
492.7041, 2.157227
493.1862, 1.612793
493.6683, 2.041016
494.1505, 3.820801
494.6326, 8.270508
495.1147, 8.731934
495.5968, 10.33173
496.0789, 12.62618
496.5610, 12.06445
497.0432, 15.47266
497.5253, 17.48438
498.0074, 18.10547
498.4895, 18.42383
498.9716, 20.98975
499.4537, 26.39648
499.9359, 30.17578
500.4180, 29.95752
500.9001, 28.87988
501.3822, 30.07031
501.8643, 33.23682
502.3464, 35.15625
502.8286, 31.93604
503.3107, 27.62305
503.7928, 29.08545
504.2749, 36.54980
504.7570, 44.38428
505.2391, 49.89990
505.7213, 53.62207
506.2034, 57.11084
506.6855, 61.20654
507.1676, 63.27979
507.6497, 60.41064
508.1318, 56.33350
508.6140, 55.47949
509.0961, 58.29004
509.5782, 62.33350
510.0603, 65.70947
510.5424, 68.39014
511.0245, 69.78711
511.5067, 68.62549
511.9888, 67.71436
512.4709, 68.19385
512.9530, 68.81738
513.4351, 67.84473
513.9172, 64.99121
514.3994, 61.98877
514.8815, 61.52295
515.3636, 63.99658
515.8457, 63.58350
516.3278, 58.38330
516.8099, 52.76367
517.2921, 48.20850
517.7742, 44.55615
518.2563, 41.38428
518.7384, 38.32324
519.2205, 36.36182
519.7026, 37.76855
520.1848, 41.85498
520.6669, 43.05371
521.1490, 39.34424
521.6311, 34.12109
522.1132, 30.02148
522.5953, 27.05420
523.0775, 26.39355
523.5596, 31.13281
524.0417, 35.63965
524.5238, 35.33350
525.0059, 31.52051
525.4880, 27.71973
525.9702, 25.27100
526.4523, 24.32861
526.9344, 25.34766
527.4165, 29.79688
527.8986, 32.47852
528.3807, 31.82910
528.8629, 31.09961
529.3450, 33.74854
529.8271, 37.75098
530.3092, 37.56689
530.7913, 29.65088
531.2734, 18.18311
531.7556, 13.72168
532.2377, 18.82324
532.7198, 23.78857
533.2019, 28.42334
533.6840, 31.58203
534.1661, 31.79492
534.6483, 29.62646
535.1304, 27.51855
535.6125, 26.71387
536.0946, 26.81445
536.5767, 26.93896
537.0588, 27.00928
537.5410, 28.32031
538.0231, 32.44092
538.5052, 37.08496
538.9873, 37.78711
539.4694, 33.65820
539.9515, 32.44531
540.4337, 39.84717
540.9158, 48.58252
541.3979, 51.40039
541.8800, 48.45020
542.3621, 43.22314
542.8442, 37.53955
543.3264, 31.90479
543.8085, 27.99609
544.2906, 26.82959
544.7726, 26.75732
545.2548, 28.27979
545.7369, 30.41064
546.2190, 32.95361
546.7011, 35.45264
547.1832, 36.75439
547.6653, 35.48584
548.1475, 32.51221
548.6296, 33.02051
549.1117, 38.86182
549.5938, 43.26123
550.0759, 41.68652
550.5580, 39.77637
551.0402, 42.93018
551.5223, 51.10547
552.0044, 57.26953
552.4865, 55.69678
552.9686, 50.13281
553.4507, 46.59473
553.9329, 45.14502
554.4150, 46.34326
554.8971, 51.57324
555.3792, 58.90625
555.8613, 63.15820
556.3434, 62.87012
556.8256, 63.77979
557.3077, 68.07227
557.7898, 73.24072
558.2719, 77.60107
558.7540, 80.71191
559.2361, 81.88916
559.7183, 80.38086
560.2004, 77.12500
560.6825, 76.03516
561.1646, 78.53320
561.6467, 80.90771
562.1288, 82.76611
562.6110, 84.44287
563.0931, 86.40430
563.5752, 88.50635
564.0573, 89.91162
564.5394, 89.41748
565.0215, 88.16357
565.5037, 89.01172
565.9858, 92.06836
566.4679, 96.86035
566.9500, 105.2275
567.4321, 113.5239
567.9142, 116.1846
568.3964, 112.6992
568.8785, 111.0000
569.3606, 115.0908
569.8427, 121.2749
570.3248, 126.1875
570.8069, 129.6616
571.2891, 132.0146
571.7712, 133.1016
572.2533, 134.0986
572.7354, 138.2085
573.2175, 150.1748
573.6996, 156.6147
574.1818, 152.2896
574.6639, 147.4229
575.1460, 148.5640
575.6281, 154.5288
576.1102, 160.8296
576.5923, 164.9170
577.0745, 167.5210
577.5566, 170.4746
578.0387, 174.2026
578.5208, 176.0024
579.0029, 173.8599
579.4850, 171.2388
579.9672, 170.3818
580.4493, 171.1826
580.9314, 173.1743
581.4135, 178.2441
581.8956, 182.8418
582.3777, 181.4575
582.8599, 176.2124
583.3420, 175.9272
583.8241, 184.2515
584.3062, 195.1689
584.7883, 200.2495
585.2704, 197.6494
585.7526, 198.4868
586.2347, 207.5977
586.7168, 214.7847
587.1989, 214.4585
587.6810, 209.6704
588.1631, 205.1597
588.6453, 202.7524
589.1274, 201.6855
589.6095, 201.1968
590.0916, 201.3921
590.5737, 201.0107
591.0558, 199.9219
591.5380, 198.3418
592.0201, 196.8877
592.5022, 194.9297
592.9843, 191.0386
593.4664, 184.2026
593.9485, 178.0757
594.4307, 176.6016
594.9128, 177.8647
595.3949, 176.7632
595.8770, 172.4097
596.3591, 168.9326
596.8412, 169.9102
597.3234, 174.5625
597.8055, 177.1670
598.2876, 177.1064
598.7697, 176.2158
599.2518, 174.4751
599.7339, 172.2393
600.2161, 169.3848
600.6982, 166.1846
601.1803, 163.7886
601.6624, 163.3584
602.1445, 164.1670
602.6266, 162.9136
603.1088, 158.9683
603.5909, 154.4404
604.0730, 147.9194
604.5551, 142.3862
605.0372, 141.0459
605.5193, 143.4717
606.0015, 145.3237
606.4836, 145.1934
606.9657, 142.9272
607.4478, 137.1519
607.9299, 128.6050
608.4120, 121.5859
608.8942, 118.0576
609.3763, 116.1743
609.8584, 113.1880
610.3405, 108.9976
610.8226, 104.1719
611.3047, 97.67090
611.7869, 91.79590
612.2690, 88.49854
612.7511, 86.37598
613.2332, 82.85303
613.7153, 76.99805
614.1974, 70.57910
614.6796, 65.56592
615.1617, 61.88379
615.6438, 60.89551
616.1259, 65.15039
616.6080, 67.66553
617.0901, 61.51709
617.5723, 52.48877
618.0544, 49.98730
618.5365, 57.67920
619.0186, 63.73096
619.5007, 58.78809
619.9828, 48.77588
620.4650, 43.28516
620.9471, 43.17285
621.4292, 44.08203
621.9113, 43.16406
622.3934, 40.90283
622.8755, 39.27100
623.3577, 38.34668
623.8398, 38.03418
624.3219, 40.23779
624.8040, 41.50098
625.2861, 37.41846
625.7682, 30.31885
626.2504, 27.65674
626.7325, 35.12842
627.2145, 45.78125
627.6967, 45.18066
628.1788, 32.71729
628.6609, 23.99316
629.1430, 23.56201
629.6251, 25.21729
630.1072, 23.04883
630.5894, 18.15723
631.0715, 14.49121
631.5536, 13.47119
632.0357, 12.81299
632.5178, 11.49561
632.9999, 9.685547
633.4821, 7.516602
633.9642, 5.083496
634.4463, 2.620605
634.9284, 0.4028320
635.4105, 1.619141
635.8926, 3.976074
636.3748, 7.837402
636.8569, 10.01416
637.3390, 9.965332
637.8211, 8.196777
638.3032, 8.657845
638.7853, 3.118652
639.2675, 7.156250
639.7496, 3.592285
640.2317, 3.048828
640.7138, 5.400391
641.1959, 3.709473
641.6780, 1.485352
642.1602, 0.3388670
642.6423, 1.514160
643.1244, 1.248047
643.6065, 1.000000
644.0886, 0.7690430
644.5707, 4.863281
645.0529, 9.712891
645.5350, 10.21045
646.0171, 8.747070
646.4992, 9.013184
646.9813, 11.90625
647.4634, 15.16992
647.9456, 16.14697
648.4277, 15.09082
648.9098, 15.19727
649.3919, 17.21973
649.8740, 18.39209
650.3561, 16.75000
650.8383, 14.24268
651.3204, 13.22900
651.8025, 13.90186
652.2846, 14.15625
652.7667, 12.68457
653.2488, 10.84082
653.7310, 9.834961
654.2131, 9.649902
654.6952, 9.889648
655.1773, 10.36182
655.6594, 11.59180
656.1415, 14.94092
656.6237, 22.04736
657.1058, 24.81738
657.5879, 17.66357
658.0700, 11.20508
658.5521, 7.623047
659.0342, 7.005859
659.5164, 10.20703
659.9985, 17.17578
660.4806, 23.26221
660.9627, 24.48193
661.4448, 22.10889
661.9269, 18.56055
662.4091, 14.06055
662.8912, 10.02100
663.3733, 6.692383
663.8554, 4.094727
664.3375, 2.421875
664.8196, 1.675781
665.3018, 2.003906
665.7839, 3.583496
666.2660, 6.513184
666.7481, 11.23877
667.2302, 17.30469
667.7123, 24.41309
668.1945, 31.90723
668.6766, 36.97900
669.1587, 35.04932
669.6408, 26.89795
670.1229, 21.78076
670.6050, 20.06445
671.0872, 21.59375
671.5693, 29.37500
672.0514, 38.27832
672.5335, 38.97168
673.0156, 29.30420
673.4977, 21.80762
673.9799, 22.00879
674.4620, 24.19775
674.9441, 22.32812
675.4262, 18.32520
675.9083, 19.49072
676.3904, 29.08838
676.8726, 40.18213
677.3547, 40.40576
677.8368, 27.38037
678.3189, 19.53467
678.8010, 19.23193
679.2831, 21.08691
679.7653, 23.60010
680.2474, 26.22412
680.7295, 29.27441
681.2116, 33.19629
681.6937, 33.58154
682.1758, 23.37598
682.6580, 11.16504
683.1401, 9.095703
683.6222, 16.43555
684.1043, 24.70605
684.5864, 29.78076
685.0685, 32.39502
685.5507, 33.58447
686.0328, 33.10107
686.5149, 32.38525
686.9970, 31.78174
687.4791, 30.38574
687.9612, 25.96582
688.4434, 21.44873
688.9255, 21.76074
689.4076, 27.91602
689.8897, 32.43896
690.3718, 26.20947
690.8539, 15.34521
691.3361, 12.61865
691.8182, 18.04834
692.3003, 24.97852
692.7824, 31.23145
693.2645, 35.95996
693.7466, 37.71338
694.2288, 36.02588
694.7109, 33.43457
695.1930, 28.70117
695.6751, 24.85840
696.1572, 23.23096
696.6393, 22.96729
697.1215, 23.26611
697.6036, 23.82227
698.0857, 24.20996
698.5678, 24.26807
699.0499, 24.02295
699.5320, 22.48193
700.0142, 19.50488
700.4963, 19.63623
700.9784, 26.20752
701.4605, 33.67627
701.9426, 33.94385
702.4247, 25.78760
702.9069, 19.82666
703.3890, 16.77246
703.8711, 15.23047
704.3532, 16.01758
704.8353, 17.41016
705.3174, 16.95605
705.7996, 14.49268
706.2817, 12.21729
706.7638, 12.56592
707.2459, 10.46631
707.7280, 13.33350
708.2101, 8.975098
708.6923, 6.087891
709.1743, 6.484375
709.6564, 8.062500
710.1385, 8.687988
710.6207, 8.411133
711.1028, 8.031250
711.5849, 7.107910
712.0670, 6.543945
712.5491, 8.161621
713.0313, 9.410645
713.5134, 6.037598
713.9955, 7.938475
714.4776, 7.502441
714.9597, 7.645996
715.4418, 3.970215
715.9240, 2.231934
716.4061, 2.757813
716.8882, 2.190430
717.3703, 0.7988280
717.8524, 3.995605
718.3345, 6.107910
718.8167, 7.017578
719.2988, 6.000000
719.7809, 6.140252
720.2630, 2.672852
720.7451, 3.641113
721.2272, 2.990723
721.7094, 1.012695
722.1915, 1.481934
722.6736, 2.353516
723.1557, 0.2500000
723.6378, 3.704102
724.1199, 8.233398
724.6021, 13.81055
725.0842, 14.12891
725.5663, 5.824219
726.0484, 2.203613
726.5305, 4.291992
727.0126, 2.371582
727.4948, 6.6405997E-02
727.9769, 3.923828
728.4590, 5.238770
728.9411, 0.1914060
729.4232, 5.622070
729.9053, 7.062500
730.3875, 5.329102
730.8696, 4.317383
731.3517, 5.682129
731.8338, 7.835449
732.3159, 8.605957
732.7980, 8.018066
733.2802, 7.028320
733.7623, 5.500000
734.2444, 4.087402
734.7265, 3.550293
735.2086, 2.947754
735.6907, 0.2963870
736.1729, 4.693848
736.6550, 7.269531
737.1371, 5.224609
737.6192, 1.814453
738.1013, 1.514648
738.5834, 4.673828
739.0656, 8.520020
739.5477, 12.80225
740.0298, 14.44336
740.5119, 9.250000
740.9940, 0.3364260
741.4761, 3.172852
741.9583, 2.132813
742.4404, 6.059570
742.9225, 5.634277
743.4046, 3.743652
743.8867, 2.758789
744.3688, 2.654297
744.8510, 3.458008
745.3331, 7.518066
745.8152, 9.606934
746.2973, 6.386230
746.7794, 1.539063
747.2615, 1.511719
747.7437, 2.396973
748.2258, 1.959473
748.7079, 0.4687500
749.1900, 1.149902
749.6721, 0.5356450
750.1542, 2.225098
750.6364, 2.429199
751.1185, 1.196777
751.6006, 5.067383
752.0827, 7.049805
752.5648, 7.608887
753.0469, 8.117676
753.5291, 8.970703
754.0112, 8.651855
754.4933, 4.496094
754.9754, 1.433105
755.4575, 3.341309
755.9396, 8.247070
756.4218, 12.59180
756.9039, 15.17529
757.3860, 16.87402
757.8681, 18.96240
758.3502, 20.92969
758.8323, 20.44775
759.3145, 17.40576
759.7966, 14.88037
760.2787, 13.83594
760.7608, 14.26855
761.2429, 16.60498
761.7250, 21.16748
762.2072, 24.02588
762.6893, 24.83398
763.1714, 24.57178
763.6535, 22.38135
764.1356, 19.99707
764.6177, 18.77539
765.0999, 18.86182
765.5820, 20.00830
766.0641, 22.42139
766.5462, 25.01123
767.0283, 26.37500
767.5104, 26.66895
767.9926, 26.23438
768.4747, 25.06445
768.9568, 24.46680
769.4389, 25.30713
769.9210, 27.46094
770.4031, 30.73633
770.8853, 36.55225
771.3674, 40.68066
771.8495, 40.23633
772.3316, 40.80078
772.8137, 48.36475
773.2958, 57.94775
773.7780, 60.57568
774.2601, 53.79590
774.7422, 46.68799
775.2243, 45.55029
775.7064, 47.08301
776.1885, 47.72949
776.6707, 47.33887
777.1528, 45.51416
777.6349, 42.01367
778.1170, 39.27930
778.5991, 41.25781
779.0812, 47.58252
779.5634, 48.18652
780.0455, 38.62500
780.5276, 33.24072
781.0097, 38.19873
781.4918, 45.51025
781.9739, 49.84131
782.4561, 51.30176
782.9382, 51.30957
783.4203, 49.85254
783.9024, 48.66406
784.3845, 47.27100
784.8666, 46.60059
785.3488, 48.63672
785.8309, 52.63867
786.3130, 55.78955
786.7951, 56.78809
787.2772, 57.39111
787.7593, 61.76514
788.2415, 69.62744
788.7236, 70.86572
789.2057, 63.14697
789.6878, 56.20264
790.1699, 54.86328
790.6520, 56.78516
791.1342, 58.05322
791.6162, 58.32666
792.0983, 59.82227
792.5804, 64.08594
793.0626, 67.94824
793.5447, 70.62402
794.0268, 71.58496
794.5089, 69.73975
794.9910, 65.89893
795.4731, 63.44141
795.9553, 65.36133
796.4374, 68.58203
796.9195, 68.33252
797.4016, 65.20996
797.8837, 61.58691
798.3658, 57.73438
798.8480, 54.96094
799.3301, 54.98291
799.8122, 57.20557
800.2943, 57.82471
800.7764, 55.81982
801.2585, 53.84424
801.7407, 51.29639
802.2228, 49.61670
802.7049, 50.04102
803.1870, 51.57422
803.6691, 52.32471
804.1512, 51.78125
804.6334, 52.07324
805.1155, 55.77246
805.5976, 59.72705
806.0797, 59.99609
806.5618, 58.49121
807.0439, 60.15283
807.5261, 65.75488
808.0082, 70.26416
808.4903, 68.66797
808.9724, 63.35059
809.4545, 62.91357
809.9366, 68.08984
810.4188, 72.45557
810.9009, 75.46338
811.3830, 76.16748
811.8651, 72.29443
812.3472, 65.47070
812.8293, 62.22998
813.3115, 65.40527
813.7936, 66.85693
814.2757, 62.19287
814.7578, 58.51221
815.2399, 61.61523
815.7220, 68.30518
816.2042, 73.20117
816.6863, 74.68994
817.1684, 74.06104
817.6505, 70.34082
818.1326, 66.24219
818.6147, 68.29150
819.0969, 75.14453
819.5790, 78.85205
820.0611, 77.02344
820.5432, 73.86230
821.0253, 73.75098
821.5074, 75.70703
821.9896, 72.90918
822.4717, 61.59570
822.9538, 54.04395
823.4359, 53.75293
823.9180, 55.24170
824.4001, 55.88867
824.8823, 56.10107
825.3644, 56.90137
825.8465, 58.79492
826.3286, 59.91064
826.8107, 57.77832
827.2928, 56.23730
827.7750, 60.43896
828.2571, 67.12598
828.7392, 68.92334
829.2213, 64.20557
829.7034, 59.16504
830.1855, 60.42920
830.6677, 65.26611
831.1498, 65.46436
831.6319, 61.15527
832.1140, 57.25732
832.5961, 54.60156
833.0782, 53.05322
833.5604, 52.63086
834.0425, 53.22412
834.5246, 54.47852
835.0067, 57.21484
835.4888, 59.13867
835.9709, 59.97021
836.4531, 60.25391
836.9352, 60.11572
837.4173, 59.66846
837.8994, 58.75928
838.3815, 57.36182
838.8636, 56.91895
839.3458, 59.29834
839.8279, 62.04150
840.3100, 62.99805
840.7921, 62.68457
841.2742, 62.16162
841.7563, 61.67139
842.2385, 60.96191
842.7206, 59.98682
843.2027, 58.65283
843.6848, 55.91602
844.1669, 51.63623
844.6490, 48.73242
845.1312, 47.66846
845.6133, 47.86768
846.0954, 49.64697
846.5775, 51.82275
847.0596, 51.52832
847.5417, 47.19727
848.0239, 45.65039
848.5060, 48.69287
848.9881, 51.96631
849.4702, 54.64258
849.9523, 56.18701
850.4344, 55.80566
850.9166, 53.83105
851.3987, 52.48535
851.8808, 53.48047
852.3629, 54.50342
852.8450, 52.92480
853.3271, 50.44189
853.8093, 50.77051
854.2914, 53.37598
854.7735, 53.13330
855.2556, 47.05273
855.7377, 39.72168
856.2198, 39.52197
856.7020, 46.09082
857.1841, 50.03564
857.6662, 50.79150
858.1483, 51.23633
858.6304, 52.68799
859.1125, 53.70996
859.5947, 52.14502
860.0768, 47.95557
860.5589, 45.59863
861.0410, 46.60059
861.5231, 47.13623
862.0052, 45.53662
862.4874, 44.41992
862.9695, 45.76807
863.4516, 48.93018
863.9337, 52.77441
864.4158, 57.49902
864.8979, 59.88037
865.3801, 55.84912
865.8622, 50.17871
866.3443, 49.40723
866.8264, 51.05615
867.3085, 47.55469
867.7906, 37.35059
868.2728, 27.21631
868.7549, 23.48975
869.2370, 24.33008
869.7191, 24.31445
870.2012, 23.46240
870.6833, 23.73730
871.1655, 25.69287
871.6476, 27.50928
872.1297, 28.08008
872.6118, 27.95850
873.0939, 28.65479
873.5760, 30.98145
874.0581, 31.67236
874.5402, 28.81787
875.0223, 26.57764
875.5045, 27.25879
875.9866, 28.27197
876.4687, 26.27002
876.9508, 21.59473
877.4329, 18.59473
877.9150, 20.80371
878.3972, 22.32568
878.8793, 17.93115
879.3614, 12.66016
879.8435, 13.45410
880.3256, 18.69043
880.8077, 21.41016
881.2899, 18.44434
881.7720, 14.33008
882.2541, 14.71924
882.7362, 18.09375
883.2183, 20.43359
883.7004, 21.61572
884.1826, 20.88477
884.6647, 17.80225
885.1468, 15.25439
885.6289, 16.51270
886.1110, 20.42090
886.5931, 20.47900
887.0753, 15.00732
887.5574, 10.79443
888.0395, 9.426270
888.5216, 7.910645
889.0037, 2.695801
889.4858, 2.888672
889.9680, 2.207520
890.4501, 6.478516
890.9322, 3.914549
891.4143, 6.957520
891.8964, 2.221680
892.3785, 0.2641600
892.8607, 1.134766
893.3428, 1.104004
893.8249, 0.2734380
894.3070, 1.991699
894.7891, 7.008301
895.2712, 10.40479
895.7534, 6.395020
896.2355, 0.7514650
896.7176, 4.497559
897.1997, 4.889648
897.6818, 4.282227
898.1639, 3.606934
898.6461, 2.809570
899.1282, 1.541992
899.6103, 0.2299800
900.0924, 1.388184
900.5745, 5.193359
901.0566, 7.146973
901.5388, 6.188965
902.0209, 3.890625
902.5030, 0.9340820
902.9851, 2.084473
903.4672, 3.505371
903.9493, 3.159668
904.4315, 4.905651
904.9136, 3.192871
905.3957, 6.928711
905.8778, 8.975098
906.3599, 9.147949
906.8420, 6.228516
907.3242, 0.7490230
907.8063, 3.151855
908.2884, 3.745117
908.7705, 3.643555
909.2526, 3.678711
909.7347, 3.612305
910.2169, 2.626953
910.6990, 1.539063
911.1811, 2.487305
911.6632, 6.159180
912.1453, 9.574219
912.6274, 10.57812
913.1096, 9.630371
913.5917, 5.898438
914.0738, 0.9565430
914.5559, 0.1982420
915.0380, 3.090820
915.5201, 6.614746
916.0023, 7.321777
916.4844, 6.415039
916.9665, 6.184570
917.4486, 6.619141
917.9307, 8.956055
918.4128, 13.90332
918.8950, 16.60693
919.3771, 14.60400
919.8592, 10.57422
920.3413, 7.543945
920.8234, 5.499023
921.3055, 5.023438
921.7877, 3.865541
922.2698, 2.038224
922.7519, 3.661621
923.2340, 1.091309
923.7161, 0.9316410
924.1982, 1.322713
924.6804, 0.6081939
925.1625, 1.216797
925.6446, 2.112305
926.1267, 0.7724610
926.6088, 3.660156
927.0909, 3.026367
927.5731, 0.9980470
928.0552, 1.672852
928.5373, 3.462402
929.0194, 0.5000000
929.5015, 14.55176
929.9836, 27.02148
930.4658, 25.16797
930.9479, 17.40869
931.4300, 15.33594
931.9121, 18.36523
932.3942, 23.35205
932.8763, 28.79199
933.3585, 31.29248
933.8406, 26.78711
934.3227, 18.56006
934.8048, 15.07422
935.2869, 15.77246
935.7690, 14.62158
936.2512, 10.64990
936.7333, 9.911621
937.2154, 16.48242
937.6975, 25.12695
938.1796, 26.48047
938.6617, 20.01123
939.1439, 18.20654
939.6260, 22.81250
940.1081, 27.25635
940.5902, 30.44385
941.0723, 32.49854
941.5544, 32.86084
942.0366, 32.22119
942.5187, 33.15869
943.0008, 37.11377
943.4829, 39.11230
943.9650, 38.80713
944.4471, 36.72998
944.9293, 30.65576
945.4114, 24.60889
945.8935, 23.78857
946.3756, 27.54932
946.8577, 29.68066
947.3398, 26.75586
947.8220, 24.52490
948.3041, 26.70654
948.7862, 29.93896
949.2683, 30.76611
949.7504, 30.45605
950.2325, 32.66992
950.7147, 37.99268
951.1968, 41.79639
951.6789, 39.52393
952.1610, 35.16943
952.6431, 33.39795
953.1252, 33.44336
953.6074, 33.76074
954.0895, 34.13916
954.5716, 35.12842
955.0537, 37.17090
955.5358, 38.97363
956.0179, 37.95898
956.5000, 40.04492
956.9821, 36.13086
957.4642, 40.65283
957.9464, 42.37744
958.4285, 39.46631
958.9106, 36.62549
959.3927, 37.73438
959.8748, 41.09570
960.3569, 42.16162
960.8391, 40.59082
961.3212, 37.99756
961.8033, 33.58008
962.2854, 30.66699
962.7675, 30.87598
963.2496, 32.17773
963.7318, 32.56250
964.2139, 32.33643
964.6960, 33.25586
965.1781, 36.35254
965.6602, 38.92236
966.1423, 40.25781
966.6245, 41.77441
967.1066, 44.32959
967.5887, 47.15234
968.0708, 49.17578
968.5529, 50.35693
969.0350, 51.66553
969.5172, 53.72656
969.9993, 55.29688
970.4814, 54.82129
970.9635, 54.74609
971.4456, 57.85059
971.9277, 62.52002
972.4099, 65.09961
972.8920, 64.79395
973.3741, 65.58350
973.8562, 71.44580
974.3383, 77.47852
974.8204, 79.88135
975.3026, 80.04492
975.7847, 78.93359
976.2668, 77.47217
976.7489, 77.15234
977.2310, 78.63232
977.7131, 82.38037
978.1953, 89.61914
978.6774, 99.00732
979.1595, 109.2964
979.6416, 119.7036
980.1237, 126.8174
980.6058, 130.6860
981.0880, 136.3325
981.5701, 147.0967
982.0522, 161.5229
982.5343, 177.1611
983.0164, 193.9502
983.4985, 212.3926
983.9807, 232.5640
984.4628, 251.5713
984.9449, 268.1958
985.4270, 287.0645
985.9091, 312.4912
986.3912, 343.3984
986.8734, 377.2197
987.3555, 414.4243
987.8376, 449.3306
988.3197, 481.1938
988.8018, 514.3384
989.2839, 550.6245
989.7661, 587.3398
990.2482, 621.0835
990.7303, 652.8208
991.2124, 689.7344
991.6945, 732.7593
992.1766, 778.6660
992.6588, 826.3535
993.1409, 879.2363
993.6230, 941.0229
994.1051, 1007.126
994.5872, 1070.524
995.0693, 1139.168
995.5515, 1198.725
996.0336, 1280.183
996.5157, 1358.064
996.9978, 1433.983
997.4799, 1501.758
997.9620, 1564.326
998.4442, 1613.585
998.9263, 1640.036
999.4084, 1642.419
999.8905, 1614.909
1000.373, 1549.617
1000.855, 1462.980
1001.337, 1349.717
1001.819, 1228.062
1002.301, 1109.227
1002.783, 994.5894
1003.265, 883.0518
1003.747, 774.7993
1004.230, 676.0337
1004.712, 589.6191
1005.194, 513.5522
1005.676, 445.5010
1006.158, 387.8550
1006.640, 345.5181
1007.122, 314.8477
1007.604, 286.7456
1008.086, 257.9092
1008.569, 231.9541
1009.051, 212.5259
1009.533, 196.3501
1010.015, 181.8188
1010.497, 168.1758
1010.979, 153.3857
1011.461, 138.0757
1011.943, 124.8975
1012.426, 115.1079
1012.908, 107.9858
1013.390, 104.8994
1013.872, 102.9375
1014.354, 95.04834
1014.836, 83.81885
1015.318, 77.66699
1015.800, 77.18262
1016.282, 75.60596
1016.765, 68.95654
1017.247, 62.13623
1017.729, 63.04932
1018.211, 69.26709
1018.693, 72.71191
1019.175, 73.59229
1019.657, 73.33984
1020.139, 72.31104
1020.622, 71.71191
1021.104, 72.41113
1021.586, 73.62891
1022.068, 74.64697
1022.550, 75.19482
1023.032, 71.54736
1023.514, 63.64111
1023.996, 55.89502
1024.478, 49.28564
1024.961, 44.31348
1025.443, 41.68262
1025.925, 39.85010
1026.407, 34.71973
1026.889, 25.99756
1027.371, 21.42236
1027.853, 21.70361
1028.335, 21.97070
1028.818, 21.14893
1029.300, 19.23926
1029.782, 15.96436
1030.264, 11.99512
1030.746, 9.324707
1031.228, 8.189453
1031.710, 6.539795
1032.192, 3.754395
1032.674, 2.345703
1033.156, 3.597656
1033.639, 5.184082
1034.121, 5.010254
1034.603, 3.946045
1035.085, 4.567139
1035.567, 7.428467
1036.049, 10.09009
1036.531, 13.38477
1037.013, 14.90942
1037.496, 13.69653
1037.978, 10.93335
1038.460, 6.739502
1038.942, 1.925537
1039.424, 1.018311
1039.906, 1.765137
1040.388, 1.556641
1040.870, 1.151367
1041.353, 2.529541
1041.835, 0.7099610
1042.317, 3.469971
1042.799, 0.2204590
1043.281, 6.511475
1043.763, 9.067139
1044.245, 5.608643
1044.727, 3.295654
1045.209, 5.716797
1045.692, 4.981201
1046.174, 5.969971
1046.656, 7.525884
1047.138, 6.254702
1047.620, 9.357910
1048.102, 4.216553
1048.584, 2.368896
1049.066, 0.2033690
1049.548, 4.905762
1050.031, 7.567871
1050.513, 3.623535
1050.995, 1.330811
1051.477, 2.911865
1051.959, 1.879883
1052.441, 0.9592290
1052.923, 0.8156740
1053.405, 0.7868650
1053.888, 4.857178
1054.370, 9.667725
1054.852, 16.82910
1055.334, 22.50635
1055.816, 22.45508
1056.298, 18.63672
1056.780, 16.15991
1057.262, 16.28564
1057.745, 15.01440
1058.227, 9.423828
1058.709, 4.542725
1059.191, 2.023438
1059.673, 1.516602
1060.155, 4.591309
1060.637, 8.852051
1061.119, 8.356689
1061.601, 1.456787
1062.083, 1.779053
1062.566, 6.037354
1063.048, 13.10693
1063.530, 12.68799
1064.012, 10.67700
1064.494, 13.96289
1064.976, 9.706455
1065.458, 16.80200
1065.940, 5.406738
1066.423, 1.788330
1066.905, 3.712891
1067.387, 10.17188
1067.869, 13.43579
1068.351, 14.33813
1068.833, 11.73486
1069.315, 8.102051
1069.797, 8.081299
1070.280, 12.25977
1070.762, 15.38062
1071.244, 13.95752
1071.726, 12.81567
1072.208, 14.16602
1072.690, 16.83740
1073.172, 20.87891
1073.654, 24.73828
1074.136, 24.75806
1074.619, 21.21509
1075.101, 21.38818
1075.583, 32.41040
1076.065, 40.81494
1076.547, 36.70264
1077.029, 30.71997
1077.511, 31.16211
1077.993, 35.22241
1078.475, 37.71680
1078.958, 38.29517
1079.440, 40.36938
1079.922, 46.05542
1080.404, 51.64404
1080.886, 55.64331
1081.368, 58.90479
1081.850, 61.06152
1082.332, 63.72900
1082.814, 68.85913
1083.297, 76.15601
1083.779, 83.10449
1084.261, 87.98193
1084.743, 95.48682
1085.225, 110.6379
1085.707, 125.8894
1086.189, 137.2146
1086.671, 145.2930
1087.154, 148.8459
1087.636, 150.3083
1088.118, 156.8782
1088.600, 171.4583
1089.082, 186.4075
1089.564, 198.0764
1090.046, 210.0027
1090.528, 225.6824
1091.010, 241.3228
1091.493, 250.8418
1091.975, 257.4705
1092.457, 270.3352
1092.939, 292.1838
1093.421, 311.8691
1093.903, 325.0381
1094.385, 335.2969
1094.867, 345.0867
1095.349, 351.7712
1095.832, 354.3779
1096.314, 351.6843
1096.796, 341.1150
1097.278, 322.2954
1097.760, 300.2568
1098.242, 274.4897
1098.724, 248.9421
1099.206, 222.7612
1099.689, 198.7361
1100.171, 179.3647
1100.653, 163.5164
1101.135, 149.4421
1101.617, 136.5339
1102.099, 123.2144
1102.581, 107.9319
1103.063, 94.40308
1103.546, 83.40381
1104.028, 73.63623
1104.510, 64.61768
1104.992, 57.16943
1105.474, 53.19141
1105.956, 51.51733
1106.438, 46.91113
1106.920, 35.55664
1107.402, 29.13501
1107.885, 32.87817
1108.367, 36.87061
1108.849, 39.10352
1109.331, 38.63306
1109.813, 32.48633
1110.295, 23.46460
1110.777, 19.82935
1111.259, 24.28857
1111.741, 25.55444
1112.224, 19.63599
1112.706, 14.91333
1113.188, 14.53345
1113.670, 14.44092
1114.152, 11.36865
1114.634, 7.217285
1115.116, 5.408936
1115.598, 6.143311
1116.081, 7.071045
1116.563, 9.140137
1117.045, 9.574951
1117.527, 6.516113
1118.009, 4.300293
1118.491, 5.376709
1118.973, 7.618408
1119.455, 8.256592
1119.938, 7.453369
1120.420, 7.771729
1120.902, 9.820801
1121.384, 10.13672
1121.866, 6.558105
1122.348, 5.879639
1122.830, 11.94922
1123.312, 18.80786
1123.794, 20.51172
1124.276, 18.76196
1124.759, 20.75830
1125.241, 19.47461
1125.723, 15.61475
1126.205, 16.66162
1126.687, 7.718018
1127.169, 3.801758
1127.651, 3.186768
1128.133, 5.700195
1128.616, 8.656006
1129.098, 6.641113
1129.580, 0.1455080
1130.062, 2.459473
1130.544, 0.8701170
1131.026, 1.879395
1131.508, 2.035852
1131.990, 2.343868
1132.473, 2.383545
1132.955, 2.701660
1133.437, 3.481201
1133.919, 1.129883
1134.401, 0.7792970
1134.883, 2.247070
1135.365, 3.297363
1135.847, 3.967529
1136.329, 5.232666
1136.812, 7.333740
1137.294, 6.569824
1137.776, 0.6120610
1138.258, 9.004150
1138.740, 8.174805
1139.222, 1.129883
1139.704, 2.237793
1140.186, 2.516846
1140.668, 3.229004
1141.151, 4.891113
1141.633, 5.994141
1142.115, 5.751953
1142.597, 4.758545
1143.079, 3.213867
1143.561, 1.724854
1144.043, 1.395996
1144.525, 1.844482
1145.008, 2.356934
1145.490, 2.897949
1145.972, 3.983887
1146.454, 5.597412
1146.936, 6.248535
1147.418, 4.321533
1147.900, 2.378174
1148.382, 3.563721
1148.865, 5.517822
1149.347, 5.731201
1149.829, 4.588623
1150.311, 2.263672
1150.793, 0.4428710
1151.275, 0.9108890
1151.757, 2.347168
1152.239, 5.608643
1152.721, 7.336670
1153.203, 7.714844
1153.686, 5.572998
1154.168, 3.197754
1154.650, 3.052490
1155.132, 4.514648
1155.614, 5.793945
1156.096, 6.545166
1156.578, 7.530518
1157.060, 7.919189
1157.543, 10.06909
1158.025, 18.28223
1158.507, 24.35474
1158.989, 21.58447
1159.471, 15.29907
1159.953, 11.78882
1160.435, 11.11133
1160.917, 11.53027
1161.400, 12.95728
1161.882, 15.48291
1162.364, 20.71045
1162.846, 24.49854
1163.328, 24.65039
1163.810, 24.51318
1164.292, 26.59619
1164.774, 29.93481
1165.256, 32.65234
1165.739, 34.79248
1166.221, 35.69604
1166.703, 35.12549
1167.185, 34.11914
1167.667, 32.55054
1168.149, 31.45557
1168.631, 31.45044
1169.113, 31.91943
1169.595, 32.22119
1170.078, 32.20874
1170.560, 31.28247
1171.042, 29.51367
1171.524, 27.84692
1172.006, 26.34229
1172.488, 25.10938
1172.970, 24.24341
1173.452, 25.45801
1173.934, 30.09033
1174.417, 34.59033
1174.899, 32.72070
1175.381, 27.32520
1175.863, 25.95532
1176.345, 27.68408
1176.827, 30.32642
1177.309, 33.21826
1177.791, 35.15137
1178.274, 35.82715
1178.756, 36.47974
1179.238, 38.02075
1179.720, 39.89209
1180.202, 42.22852
1180.684, 44.06201
1181.166, 44.05469
1181.648, 42.62378
1182.130, 39.69531
1182.613, 36.21851
1183.095, 35.02002
1183.577, 37.29346
1184.059, 40.25684
1184.541, 42.96387
1185.023, 45.22217
1185.505, 47.79468
1185.987, 49.10400
1186.469, 46.10376
1186.952, 41.69751
1187.434, 41.39648
1187.916, 45.35938
1188.398, 48.06665
1188.880, 47.87305
1189.362, 47.58984
1189.844, 47.56226
1190.326, 47.26465
1190.809, 46.25049
1191.291, 45.13037
1191.773, 44.09009
1192.255, 43.49829
1192.737, 44.92896
1193.219, 48.70312
1193.701, 51.01392
1194.183, 52.07788
1194.666, 50.75610
1195.148, 45.32422
1195.630, 42.59692
1196.112, 45.99194
1196.594, 51.85962
1197.076, 56.48706
1197.558, 58.75854
1198.040, 54.37061
1198.522, 55.95215
1199.005, 54.39966
1199.487, 50.46045
1199.969, 51.40137
1200.451, 44.60962
1200.933, 41.27539
1201.415, 47.65698
1201.897, 54.96338
1202.379, 51.99512
1202.861, 45.26880
1203.344, 45.93066
1203.826, 43.88257
1204.308, 49.19238
1204.790, 45.54346
1205.272, 45.63623
1205.754, 49.79761
1206.236, 50.10034
1206.718, 40.95166
1207.201, 33.70898
1207.683, 37.75073
1208.165, 43.25342
1208.647, 43.93604
1209.129, 42.47705
1209.611, 41.69312
1210.093, 41.27905
1210.575, 39.76440
1211.057, 36.94580
1211.540, 34.94971
1212.022, 34.77002
1212.504, 34.41577
1212.986, 34.06177
1213.468, 33.01025
1213.950, 30.23340
1214.432, 27.68408
1214.914, 27.56738
1215.396, 25.11572
1215.879, 27.41919
1216.361, 23.38794
1216.843, 21.97803
1217.325, 23.49805
1217.807, 25.76489
1218.289, 28.84912
1218.771, 27.42969
1219.253, 18.59351
1219.736, 10.11597
1220.218, 10.41431
1220.700, 15.60938
1221.182, 17.33691
1221.664, 16.87354
1222.146, 19.53784
1222.628, 18.41479
1223.110, 22.69824
1223.593, 16.33472
1224.075, 10.49023
1224.557, 7.789551
1225.039, 7.377197
1225.521, 9.877441
1226.003, 12.64478
1226.485, 12.90552
1226.967, 12.64160
1227.449, 14.83301
1227.932, 17.17139
1228.414, 14.62915
1228.896, 8.224609
1229.378, 5.483643
1229.860, 9.171143
1230.342, 11.67798
1230.824, 9.324707
1231.306, 8.211426
1231.788, 11.36450
1232.271, 14.76416
1232.753, 16.12720
1233.235, 16.41821
1233.717, 17.07983
1234.199, 17.84717
1234.681, 16.19189
1235.163, 18.99878
1235.645, 23.00879
1236.128, 23.47900
1236.610, 32.12646
1237.092, 35.05737
1237.574, 35.05298
1238.056, 33.55713
1238.538, 31.68384
1239.020, 30.78198
1239.502, 30.71582
1239.984, 31.80225
1240.467, 33.22046
1240.949, 32.25806
1241.431, 29.50220
1241.913, 28.35718
1242.395, 28.55688
1242.877, 23.99927
1243.359, 10.93994
1243.841, 0.1877440
1244.323, 1.787109
1244.806, 6.146729
1245.288, 7.481445
1245.770, 7.052734
1246.252, 5.019531
1246.734, 2.864502
1247.216, 3.528564
1247.698, 1.946766
1248.180, 1.334932
1248.662, 1.546631
1249.145, 0.9978030
1249.627, 2.107178
1250.109, 1.934422
1250.591, 2.134311
1251.073, 2.298096
1251.555, 1.954834
1252.037, 1.860408
1252.519, 0.6662808
1253.002, 2.229492
1253.484, 0.1699220
1253.966, 0.5456540
1254.448, 2.416260
1254.930, 5.413086
1255.412, 8.250977
1255.894, 10.45459
1256.376, 10.97510
1256.859, 9.163574
1257.341, 6.929443
1257.823, 6.507080
1258.305, 6.370605
1258.787, 3.548096
1259.269, 0.7143550
1259.751, 1.751709
1260.233, 5.525391
1260.715, 10.79004
1261.198, 16.32715
1261.680, 19.19678
1262.162, 18.33008
1262.644, 16.48511
1263.126, 13.48804
1263.608, 11.11328
1264.090, 9.594971
1264.572, 9.151611
1265.054, 10.59277
1265.537, 12.20386
1266.019, 12.73633
1266.501, 12.34497
1266.983, 11.88574
1267.465, 11.42017
1267.947, 11.93628
1268.429, 14.02417
1268.911, 15.45142
1269.394, 14.33423
1269.876, 13.66748
1270.358, 15.68408
1270.840, 16.69067
1271.322, 14.09717
1271.804, 16.80005
1272.286, 13.51050
1272.768, 18.11792
1273.250, 19.43481
1273.733, 18.73730
1274.215, 17.23193
1274.697, 15.34058
1275.179, 13.30273
1275.661, 11.21777
1276.143, 10.24927
1276.625, 10.66602
1277.107, 12.43921
1277.589, 18.60913
1278.072, 22.22925
1278.554, 18.81860
1279.036, 13.10010
1279.518, 7.859375
1280.000, 3.543213
1280.482, 0.8530270
1280.964, 2.2461001E-02
1281.446, 1.981445
1281.929, 7.047852
1282.411, 11.16016
1282.893, 14.28003
1283.375, 12.84888
1283.857, 5.171387
1284.339, 0.1052250
1284.821, 0.8161620
1285.303, 4.718506
1285.786, 2.198975
1286.268, 0.0000000E+00
##END=



