##NAMES=Spessartine
##RRUFFID=R080053
##IDEAL CHEMISTRY=Mn^2+^_3_Al_2_(SiO_4_)_3_
##LOCALITY=East Africa
##OWNER=RRUFF
##SOURCE=www.multicolour.com
##DESCRIPTION=Transparent orange fragments
##STATUS=The identification of this mineral has been confirmed by X-ray diffraction and chemical analysis
##URL=rruff.info/R080053
##MEASURED CHEMISTRY=(Mn^2+^_1.32_Mg_0.96_Fe^2+^_0.38_Fe^3+^_0.04_)_Σ=3_Al_2.00_((Si_2.96_Al_0.04_)_Σ=1_O_4_)_3_; Fe^2+^ and Fe^3+^ splitted by charge balance
147.9460, 0.0000000E+00
148.4281, 0.1297100
148.9102, 0.6022510
149.3923, 1.123289
149.8744, 1.420350
150.3566, 1.564266
150.8387, 1.231102
151.3208, 0.7188450
151.8029, 0.5453770
152.2850, 0.1647390
152.7671, 0.4067470
153.2493, 0.4700830
153.7314, 4.1859001E-02
154.2135, 0.4897360
154.6956, 0.8085260
155.1777, 0.8600700
155.6598, 0.7882270
156.1420, 0.6321870
156.6241, 0.3746960
157.1062, 0.2357250
157.5883, 0.4145880
158.0704, 0.6967660
158.5525, 0.7909050
159.0347, 0.5081200
159.5168, 0.3424080
159.9989, 1.251506
160.4810, 3.853018
160.9631, 5.982494
161.4452, 6.778126
161.9274, 6.984073
162.4095, 7.255439
162.8916, 7.880492
163.3737, 8.779983
163.8558, 9.683675
164.3379, 10.52934
164.8201, 11.47877
165.3022, 12.35479
165.7843, 13.39145
166.2664, 14.90198
166.7485, 17.10346
167.2306, 19.91599
167.7128, 22.75628
168.1949, 25.85547
168.6770, 28.74450
169.1591, 30.88968
169.6412, 32.73342
170.1233, 35.25069
170.6055, 39.21043
171.0876, 44.59169
171.5697, 49.06665
172.0518, 52.84409
172.5339, 55.76146
173.0160, 57.93422
173.4982, 59.26049
173.9803, 59.29567
174.4624, 57.55920
174.9445, 53.93542
175.4266, 49.81229
175.9087, 44.43542
176.3909, 39.04188
176.8730, 34.75954
177.3551, 31.66193
177.8372, 28.89756
178.3193, 25.66598
178.8014, 22.22425
179.2836, 19.47226
179.7657, 17.82977
180.2478, 16.90107
180.7299, 16.03818
181.2120, 15.11104
181.6941, 14.61218
182.1763, 14.87118
182.6584, 15.75058
183.1405, 17.12284
183.6226, 19.18253
184.1047, 21.69598
184.5868, 23.86130
185.0690, 25.34155
185.5511, 26.96766
186.0332, 29.00677
186.5153, 31.43486
186.9974, 34.24534
187.4795, 37.53636
187.9617, 41.26908
188.4438, 44.77828
188.9259, 47.76382
189.4080, 50.83648
189.8901, 54.21020
190.3722, 57.82462
190.8544, 61.52245
191.3365, 65.14516
191.8186, 68.69269
192.3007, 72.40404
192.7828, 76.99610
193.2649, 81.11698
193.7471, 83.72605
194.2292, 85.30194
194.7113, 87.27988
195.1934, 91.09705
195.6755, 97.25510
196.1576, 102.1476
196.6398, 104.9937
197.1219, 107.5845
197.6040, 110.8948
198.0861, 114.8606
198.5682, 118.7724
199.0503, 121.9172
199.5325, 124.1494
200.0146, 126.1720
200.4967, 127.6975
200.9788, 129.2358
201.4609, 131.1391
201.9430, 133.4387
202.4252, 135.9245
202.9073, 138.4633
203.3894, 141.0650
203.8715, 143.4637
204.3536, 145.8345
204.8357, 147.8778
205.3179, 149.5571
205.8000, 150.4503
206.2821, 151.0003
206.7642, 151.2909
207.2463, 151.3883
207.7284, 151.7437
208.2106, 152.8711
208.6927, 154.1565
209.1748, 154.6523
209.6569, 154.1366
210.1390, 153.3792
210.6211, 153.2080
211.1033, 153.3613
211.5854, 153.0541
212.0675, 151.8553
212.5496, 149.9578
213.0317, 147.7048
213.5138, 144.8776
213.9960, 142.2311
214.4781, 140.4893
214.9602, 139.2742
215.4423, 137.8125
215.9244, 135.6820
216.4065, 132.9907
216.8886, 130.1345
217.3708, 126.9177
217.8529, 123.8054
218.3350, 121.2867
218.8171, 119.0564
219.2992, 116.3998
219.7813, 112.5482
220.2635, 107.7024
220.7456, 104.0309
221.2277, 102.7421
221.7098, 101.2339
222.1919, 98.33707
222.6740, 94.65924
223.1562, 91.32085
223.6383, 89.22551
224.1204, 88.19530
224.6025, 86.33012
225.0846, 82.69463
225.5667, 79.37572
226.0489, 76.81445
226.5310, 74.84611
227.0131, 73.18976
227.4952, 71.69299
227.9773, 70.36688
228.4594, 68.91248
228.9416, 67.35513
229.4237, 65.58624
229.9058, 63.43058
230.3879, 61.10563
230.8700, 58.96030
231.3521, 57.17737
231.8343, 55.74060
232.3164, 54.34338
232.7985, 53.03760
233.2806, 51.70997
233.7627, 50.21068
234.2448, 48.66262
234.7270, 47.32285
235.2091, 46.37687
235.6912, 45.77291
236.1733, 45.01937
236.6554, 44.03131
237.1375, 43.01466
237.6197, 42.04959
238.1018, 41.10814
238.5839, 40.09084
239.0660, 38.91836
239.5481, 37.64425
240.0302, 36.56374
240.5124, 35.98216
240.9945, 35.23358
241.4766, 33.89164
241.9587, 32.18280
242.4408, 30.72430
242.9229, 29.90088
243.4051, 29.48873
243.8872, 28.69398
244.3693, 27.17747
244.8514, 25.81790
245.3335, 25.28265
245.8156, 25.26646
246.2978, 24.77493
246.7799, 23.22316
247.2620, 21.10074
247.7441, 19.48432
248.2262, 18.47765
248.7083, 17.67129
249.1905, 16.82696
249.6726, 16.00736
250.1547, 15.52719
250.6368, 15.79823
251.1189, 16.09428
251.6010, 15.27895
252.0832, 13.19405
252.5653, 10.89398
253.0474, 8.552500
253.5295, 6.356706
254.0116, 5.203518
254.4937, 5.886028
254.9759, 7.086248
255.4580, 7.218152
255.9401, 6.257666
256.4222, 5.164602
256.9043, 4.601314
257.3864, 4.443112
257.8686, 4.017424
258.3507, 3.043395
258.8328, 1.957678
259.3149, 1.042469
259.7970, 0.3119320
260.2791, 0.1065860
260.7613, 0.2202480
261.2434, 1.070998
261.7255, 1.107038
262.2076, 0.3435260
262.6897, 1.972178
263.1718, 1.002394
263.6540, 0.5690830
264.1361, 0.3648240
264.6182, 0.2570890
265.1003, 0.2309790
265.5824, 0.1909870
266.0645, 0.1195310
266.5467, 5.9140999E-02
267.0288, 5.7477001E-02
267.5109, 0.1519730
267.9930, 2.9224001E-02
268.4751, 0.6258550
268.9572, 1.601714
269.4394, 1.849870
269.9215, 0.7979520
270.4036, 0.1422390
270.8857, 0.3612720
271.3678, 0.1366910
271.8499, 9.1738999E-02
272.3321, 6.7823000E-02
272.8142, 0.1027370
273.2963, 5.7549998E-03
273.7784, 0.6819710
274.2605, 1.079548
274.7426, 0.8571660
275.2248, 0.2801500
275.7069, 0.4360430
276.1890, 1.258868
276.6711, 1.953367
277.1532, 1.809612
277.6353, 0.1977150
278.1175, 1.093622
278.5996, 1.726332
279.0817, 1.935454
279.5638, 1.793758
280.0459, 1.327075
280.5280, 0.8770150
281.0102, 1.231728
281.4923, 2.047250
281.9744, 0.9507120
282.4565, 1.287390
282.9386, 2.036123
283.4207, 2.455111
283.9029, 2.344007
284.3850, 1.969896
284.8671, 1.750358
285.3492, 1.822418
285.8313, 1.701854
286.3134, 1.119640
286.7956, 0.5561750
287.2777, 0.4741980
287.7598, 0.8346550
288.2419, 1.090392
288.7240, 0.5219900
289.2061, 1.169320
289.6883, 2.583488
290.1704, 4.064417
290.6525, 4.999225
291.1346, 4.673104
291.6167, 3.383567
292.0988, 2.170017
292.5810, 1.996781
293.0631, 2.931765
293.5452, 4.184350
294.0273, 6.577897
294.5094, 8.478631
294.9915, 9.082256
295.4737, 8.734488
295.9558, 8.231872
296.4379, 8.123018
296.9200, 8.397897
297.4021, 8.897502
297.8842, 9.694023
298.3664, 10.66006
298.8485, 11.98579
299.3306, 13.42938
299.8127, 14.60850
300.2948, 15.29332
300.7769, 15.60987
301.2591, 16.06144
301.7412, 16.77240
302.2233, 17.48056
302.7054, 17.80421
303.1875, 18.24823
303.6696, 19.46550
304.1518, 21.70712
304.6339, 24.55301
305.1160, 27.16407
305.5981, 29.68717
306.0802, 31.64605
306.5623, 32.70764
307.0445, 33.44548
307.5266, 34.16693
308.0087, 35.01130
308.4908, 36.16146
308.9729, 37.84906
309.4550, 39.98536
309.9372, 43.01046
310.4193, 47.81898
310.9014, 52.67272
311.3835, 56.46049
311.8656, 59.15968
312.3477, 61.37754
312.8299, 63.59493
313.3120, 65.68153
313.7941, 68.83800
314.2762, 74.84126
314.7583, 80.05712
315.2404, 82.84941
315.7226, 83.60697
316.2047, 83.53104
316.6868, 83.42962
317.1689, 83.31532
317.6510, 83.41971
318.1331, 83.57705
318.6153, 84.13332
319.0974, 85.41129
319.5795, 87.05839
320.0616, 88.45512
320.5437, 89.20109
321.0258, 89.68634
321.5080, 90.79078
321.9901, 93.30018
322.4722, 95.45448
322.9543, 96.50862
323.4364, 97.47145
323.9185, 99.31264
324.4007, 102.3539
324.8828, 106.3547
325.3649, 110.9276
325.8470, 116.5589
326.3291, 121.8708
326.8112, 126.4051
327.2934, 131.0346
327.7755, 136.4530
328.2576, 142.6975
328.7397, 149.3017
329.2218, 155.7684
329.7039, 161.9495
330.1861, 168.7855
330.6682, 176.3637
331.1503, 184.4162
331.6324, 192.8201
332.1145, 201.6208
332.5966, 210.9630
333.0788, 221.0737
333.5609, 231.8501
334.0430, 241.6940
334.5251, 249.1983
335.0072, 257.4133
335.4893, 267.2441
335.9715, 278.0472
336.4536, 288.9912
336.9357, 299.5760
337.4178, 310.1187
337.8999, 321.3002
338.3820, 333.9688
338.8642, 346.0685
339.3463, 356.9665
339.8284, 367.6776
340.3105, 378.6355
340.7926, 390.1129
341.2747, 402.4542
341.7568, 416.3051
342.2390, 432.0963
342.7211, 448.3552
343.2032, 464.0749
343.6853, 480.8900
344.1674, 499.9162
344.6495, 521.0475
345.1317, 543.2988
345.6138, 565.5869
346.0959, 587.7894
346.5780, 612.2634
347.0601, 640.5596
347.5422, 669.8118
348.0244, 698.4461
348.5065, 727.6129
348.9886, 759.6273
349.4707, 795.9352
349.9528, 835.7647
350.4349, 875.2896
350.9171, 914.9924
351.3992, 954.1917
351.8813, 994.2833
352.3634, 1033.231
352.8455, 1069.406
353.3276, 1102.394
353.8098, 1131.098
354.2919, 1154.082
354.7740, 1172.439
355.2561, 1180.855
355.7382, 1177.448
356.2203, 1165.403
356.7025, 1145.423
357.1846, 1117.962
357.6667, 1083.996
358.1488, 1043.199
358.6309, 995.6044
359.1130, 946.9736
359.5952, 895.9000
360.0773, 845.4921
360.5594, 796.6022
361.0415, 749.4633
361.5236, 704.5779
362.0057, 662.1136
362.4879, 622.2147
362.9700, 584.4677
363.4521, 548.2565
363.9342, 516.1657
364.4163, 490.4083
364.8984, 468.2271
365.3806, 446.9756
365.8627, 425.7408
366.3448, 405.4066
366.8269, 387.1486
367.3090, 370.9973
367.7911, 355.9506
368.2733, 341.8142
368.7554, 328.7795
369.2375, 317.0722
369.7196, 306.6183
370.2017, 297.0107
370.6838, 288.0497
371.1660, 279.7370
371.6481, 272.1584
372.1302, 265.6037
372.6123, 259.2990
373.0944, 252.9165
373.5765, 246.4453
374.0587, 239.6191
374.5408, 231.9502
375.0229, 224.1346
375.5050, 217.1903
375.9871, 211.2806
376.4692, 205.0576
376.9514, 197.5563
377.4335, 189.4745
377.9156, 181.9044
378.3977, 175.0404
378.8798, 168.6064
379.3619, 162.5610
379.8441, 156.8102
380.3262, 151.0317
380.8083, 145.1519
381.2904, 139.1747
381.7725, 132.8322
382.2546, 126.1646
382.7368, 120.2361
383.2189, 116.0288
383.7010, 112.4097
384.1831, 107.6218
384.6652, 101.3552
385.1473, 95.18582
385.6295, 90.37135
386.1116, 86.81620
386.5937, 83.01601
387.0758, 78.98880
387.5579, 74.67439
388.0400, 69.76529
388.5222, 64.49408
389.0043, 59.45697
389.4864, 54.83286
389.9685, 50.82231
390.4506, 48.16950
390.9327, 47.50794
391.4149, 46.46404
391.8970, 44.37694
392.3791, 41.73080
392.8612, 38.95441
393.3433, 36.17277
393.8254, 33.60878
394.3076, 31.60035
394.7897, 30.31343
395.2718, 28.65466
395.7539, 26.36214
396.2360, 23.96112
396.7181, 21.42079
397.2003, 18.98791
397.6824, 17.42338
398.1645, 17.33461
398.6466, 18.27309
399.1287, 17.92144
399.6108, 14.70021
400.0930, 12.08489
400.5751, 10.75540
401.0572, 10.04630
401.5393, 9.197022
402.0214, 7.990360
402.5035, 6.771103
402.9857, 6.095623
403.4678, 6.260423
403.9499, 6.117494
404.4320, 5.446007
404.9141, 4.710759
405.3962, 4.137239
405.8784, 3.703414
406.3605, 3.235788
406.8426, 2.552871
407.3247, 1.742462
407.8068, 1.538290
408.2889, 2.697100
408.7711, 3.358659
409.2532, 2.980606
409.7353, 2.007002
410.2174, 0.7539460
410.6995, 0.6682740
411.1816, 1.894217
411.6638, 2.268466
412.1459, 1.594932
412.6280, 1.125948
413.1101, 0.9734220
413.5922, 1.137036
414.0743, 1.883995
414.5565, 1.905549
415.0386, 1.023366
415.5207, 1.083324
416.0028, 1.800604
416.4849, 2.162182
416.9670, 2.138860
417.4492, 1.831054
417.9313, 1.047258
418.4134, 8.9241996E-02
418.8955, 0.6815910
419.3776, 1.203702
419.8597, 1.462886
420.3419, 1.350623
420.8240, 0.9057620
421.3061, 0.5045870
421.7882, 0.2952350
422.2703, 0.1085700
422.7524, 0.3965990
423.2346, 1.220076
423.7167, 1.625749
424.1988, 0.9158580
424.6809, 0.1666290
425.1630, 0.5348820
425.6451, 8.1357002E-02
426.1273, 0.4607950
426.6094, 0.5961250
427.0915, 0.3612900
427.5736, 9.3199998E-02
428.0557, 0.3502580
428.5378, 0.6768100
429.0200, 0.5471670
429.5021, 0.2269480
429.9842, 0.4358910
430.4663, 1.503611
430.9484, 2.648321
431.4305, 2.485749
431.9127, 8.0133997E-02
432.3948, 1.356633
432.8769, 0.7802260
433.3590, 6.1039999E-03
433.8411, 0.4971740
434.3232, 2.121943
434.8054, 2.194520
435.2875, 1.482607
435.7696, 1.571854
436.2517, 1.761802
436.7338, 2.493003
437.2159, 2.801847
437.6981, 2.080082
438.1802, 1.070794
438.6623, 0.7177140
439.1444, 1.293844
439.6265, 2.142401
440.1086, 2.142361
440.5908, 0.7966410
441.0729, 0.2427390
441.5550, 1.660133
442.0371, 2.786678
442.5192, 2.440339
443.0013, 0.9738310
443.4835, 0.6045040
443.9656, 1.735316
444.4477, 2.437738
444.9298, 2.676041
445.4119, 2.298918
445.8940, 1.846594
446.3762, 1.230390
446.8583, 0.7671700
447.3404, 0.7952550
447.8225, 1.382333
448.3046, 2.209406
448.7867, 3.152483
449.2689, 4.145072
449.7510, 4.764413
450.2331, 4.752026
450.7152, 4.763707
451.1973, 5.396902
451.6794, 6.466213
452.1616, 7.545415
452.6437, 8.641942
453.1258, 9.602911
453.6079, 10.13061
454.0900, 10.31054
454.5721, 10.69676
455.0543, 11.52730
455.5364, 12.68978
456.0185, 14.09160
456.5006, 15.91510
456.9827, 17.25945
457.4648, 17.28703
457.9470, 17.08987
458.4291, 18.09410
458.9112, 20.34704
459.3933, 22.48403
459.8754, 23.27881
460.3575, 22.79195
460.8397, 23.17178
461.3218, 24.94757
461.8039, 26.81914
462.2860, 28.57327
462.7681, 30.18419
463.2502, 31.68167
463.7324, 33.06620
464.2145, 34.18891
464.6966, 34.67997
465.1787, 33.99448
465.6608, 34.32811
466.1429, 36.94557
466.6251, 39.30923
467.1072, 39.84271
467.5893, 39.20332
468.0714, 39.04348
468.5535, 40.31554
469.0356, 42.65459
469.5178, 45.28403
469.9999, 48.62086
470.4820, 51.53938
470.9641, 53.33858
471.4462, 54.83296
471.9283, 56.36537
472.4105, 58.03541
472.8926, 60.29909
473.3747, 63.73526
473.8568, 68.04909
474.3389, 72.01247
474.8210, 75.38500
475.3032, 78.90902
475.7853, 83.31554
476.2674, 88.19882
476.7495, 92.68594
477.2316, 96.36998
477.7137, 100.0047
478.1959, 104.6079
478.6780, 109.6246
479.1601, 113.5379
479.6422, 115.8607
480.1243, 116.8541
480.6064, 116.8338
481.0886, 115.7930
481.5707, 113.3722
482.0528, 108.8360
482.5349, 103.5251
483.0170, 98.08881
483.4991, 92.64268
483.9813, 87.07256
484.4634, 81.21958
484.9455, 75.49500
485.4276, 71.11062
485.9097, 69.14497
486.3918, 67.01196
486.8740, 64.55937
487.3561, 62.06618
487.8382, 59.46193
488.3203, 56.85490
488.8024, 54.77273
489.2845, 53.80806
489.7667, 53.99524
490.2488, 54.15411
490.7309, 53.91160
491.2130, 54.29666
491.6951, 55.86083
492.1772, 57.95264
492.6594, 59.75316
493.1415, 61.01740
493.6236, 62.81193
494.1057, 66.47652
494.5878, 71.78488
495.0699, 76.99515
495.5521, 81.80968
496.0342, 86.95478
496.5163, 92.62372
496.9984, 98.88333
497.4805, 106.1185
497.9626, 114.3930
498.4448, 123.9360
498.9269, 135.1773
499.4090, 147.6270
499.8911, 160.1509
500.3732, 172.5149
500.8553, 184.7225
501.3375, 196.9033
501.8196, 209.2689
502.3017, 219.9993
502.7838, 229.5580
503.2659, 236.9502
503.7480, 242.1325
504.2302, 244.6530
504.7123, 243.3605
505.1944, 237.4787
505.6765, 227.7891
506.1586, 216.5511
506.6407, 203.4877
507.1228, 189.0778
507.6049, 171.7785
508.0871, 154.4482
508.5692, 138.8905
509.0513, 125.1940
509.5334, 112.5291
510.0155, 100.2444
510.4977, 88.42947
510.9798, 77.87736
511.4619, 68.53003
511.9440, 60.54720
512.4261, 54.32667
512.9083, 49.25204
513.3904, 44.97906
513.8725, 41.44435
514.3546, 38.35806
514.8367, 35.61665
515.3188, 33.14548
515.8010, 30.58631
516.2831, 27.79458
516.7652, 25.47498
517.2473, 24.26387
517.7294, 23.91254
518.2115, 23.47591
518.6937, 22.74222
519.1758, 22.19731
519.6579, 22.29012
520.1400, 22.64507
520.6221, 22.57364
521.1042, 21.92096
521.5864, 21.15208
522.0685, 20.68095
522.5506, 20.45581
523.0327, 21.15066
523.5148, 24.41634
523.9969, 26.60230
524.4791, 25.80660
524.9612, 23.49075
525.4433, 21.56008
525.9254, 20.73903
526.4075, 20.73471
526.8896, 21.22976
527.3718, 22.20320
527.8539, 23.31124
528.3360, 24.81559
528.8181, 26.34652
529.3002, 27.56271
529.7823, 28.61997
530.2645, 29.91098
530.7466, 31.65178
531.2287, 33.64659
531.7108, 35.38756
532.1929, 36.91076
532.6750, 39.24342
533.1572, 42.85106
533.6393, 46.97127
534.1214, 50.84482
534.6035, 54.51050
535.0856, 58.40353
535.5677, 62.60586
536.0499, 67.06225
536.5320, 71.72364
537.0141, 76.61521
537.4962, 81.85262
537.9783, 87.43325
538.4604, 93.60307
538.9426, 100.7717
539.4247, 109.8466
539.9068, 117.8193
540.3889, 124.0264
540.8710, 129.8496
541.3531, 135.6078
541.8353, 141.5915
542.3174, 148.5748
542.7995, 156.8663
543.2816, 165.7428
543.7637, 173.5542
544.2458, 179.7534
544.7280, 187.0606
545.2101, 196.6045
545.6922, 206.6067
546.1743, 215.9821
546.6564, 225.1042
547.1385, 234.9291
547.6207, 245.8097
548.1028, 257.8763
548.5849, 271.4170
549.0670, 286.3162
549.5491, 301.4175
550.0313, 316.1541
550.5134, 331.0895
550.9955, 347.0220
551.4776, 363.8383
551.9597, 381.0948
552.4418, 399.7747
552.9240, 417.8663
553.4061, 434.2285
553.8882, 448.6706
554.3703, 461.2809
554.8524, 472.2812
555.3345, 480.5653
555.8167, 484.0519
556.2988, 482.4892
556.7809, 476.2538
557.2630, 464.6633
557.7451, 449.6930
558.2272, 431.5936
558.7094, 410.9580
559.1915, 388.8955
559.6736, 365.9011
560.1557, 341.9302
560.6378, 316.2852
561.1199, 288.5512
561.6021, 262.3616
562.0842, 238.2071
562.5663, 216.4885
563.0484, 197.7543
563.5305, 181.6879
564.0126, 166.3757
564.4948, 150.8929
564.9769, 136.0048
565.4590, 122.4952
565.9411, 110.3360
566.4232, 99.41862
566.9053, 89.75671
567.3875, 81.15298
567.8696, 73.27122
568.3517, 66.20861
568.8338, 59.82611
569.3159, 54.43783
569.7980, 49.46401
570.2802, 44.51569
570.7623, 39.75925
571.2444, 35.50642
571.7265, 31.92524
572.2086, 28.83039
572.6907, 25.94346
573.1729, 23.22751
573.6550, 20.76208
574.1371, 18.58093
574.6192, 16.64179
575.1013, 15.02209
575.5834, 13.60040
576.0656, 12.14469
576.5477, 10.54019
577.0298, 8.934525
577.5119, 7.412699
577.9940, 6.010735
578.4761, 4.882103
578.9583, 4.045974
579.4404, 3.572071
579.9225, 3.718781
580.4046, 4.431476
580.8867, 4.652473
581.3688, 4.064173
581.8510, 3.300116
582.3331, 2.642555
582.8152, 1.981776
583.2973, 0.9658170
583.7794, 0.4352360
584.2615, 1.612057
584.7437, 1.725105
585.2258, 0.6758530
585.7079, 0.3478340
586.1900, 1.521533
586.6721, 2.451089
587.1542, 2.477526
587.6363, 2.175121
588.1184, 2.182313
588.6005, 2.647711
589.0826, 2.583568
589.5648, 1.938504
590.0469, 1.360113
590.5290, 0.8203980
591.0111, 0.2864330
591.4932, 6.7181997E-02
591.9753, 8.9987002E-02
592.4575, 0.1188040
592.9396, 0.3167250
593.4217, 0.5577870
593.9038, 0.6541970
594.3859, 0.1878360
594.8680, 0.2266950
595.3502, 0.3652300
595.8323, 1.786777
596.3144, 1.877481
596.7965, 2.159158
597.2786, 1.181804
597.7607, 0.6993990
598.2429, 2.016051
598.7250, 2.138839
599.2071, 9.7053997E-02
599.6892, 2.387312
600.1713, 3.009025
600.6534, 2.162659
601.1356, 0.9302760
601.6177, 0.1970400
602.0998, 1.174686
602.5819, 1.930915
603.0640, 1.166019
603.5461, 0.9744770
604.0283, 1.625174
604.5104, 1.143538
604.9925, 3.8853999E-02
605.4746, 1.291184
605.9567, 1.818348
606.4388, 0.7716510
606.9210, 0.2788270
607.4031, 0.1538360
607.8852, 0.5690800
608.3673, 0.6348510
608.8494, 0.3165590
609.3315, 1.453250
609.8137, 1.672549
610.2958, 0.8641610
610.7779, 0.2778790
611.2600, 0.4830870
611.7421, 0.4895420
612.2242, 0.9954540
612.7064, 0.3138730
613.1885, 1.446384
613.6706, 2.655517
614.1527, 3.484240
614.6348, 3.729548
615.1169, 3.716451
615.5991, 4.538756
616.0812, 6.326188
616.5633, 8.294752
617.0454, 10.05257
617.5275, 11.74665
618.0096, 13.79774
618.4918, 16.44673
618.9739, 18.66444
619.4560, 19.90372
619.9381, 20.91738
620.4202, 22.15195
620.9023, 23.70801
621.3845, 25.71859
621.8666, 28.27069
622.3487, 31.13723
622.8308, 33.81173
623.3129, 36.28015
623.7950, 38.59284
624.2772, 40.16958
624.7593, 42.20448
625.2414, 45.53057
625.7235, 49.63442
626.2056, 53.39531
626.6877, 56.19957
627.1699, 59.16837
627.6520, 63.47596
628.1341, 68.80990
628.6162, 74.13338
629.0983, 79.29100
629.5804, 84.41889
630.0626, 89.63937
630.5447, 94.95435
631.0268, 100.5609
631.5089, 106.3990
631.9910, 112.5277
632.4731, 119.5439
632.9553, 126.5067
633.4374, 132.7996
633.9195, 138.2345
634.4016, 142.7649
634.8837, 146.4205
635.3658, 148.9853
635.8480, 149.6757
636.3301, 148.3531
636.8122, 145.7054
637.2943, 141.3977
637.7764, 136.2625
638.2585, 131.0769
638.7407, 125.7620
639.2228, 119.8417
639.7049, 112.7823
640.1870, 105.4437
640.6691, 98.24748
641.1512, 91.34106
641.6334, 85.10227
642.1155, 79.60067
642.5976, 74.30780
643.0797, 68.58276
643.5618, 62.38140
644.0439, 57.40089
644.5261, 54.94281
645.0082, 52.22277
645.4903, 48.51956
645.9724, 44.63491
646.4545, 41.03730
646.9366, 37.95968
647.4188, 35.81461
647.9009, 35.52268
648.3830, 36.01912
648.8651, 34.57591
649.3472, 31.13539
649.8293, 28.42303
650.3115, 27.59102
650.7936, 27.45524
651.2757, 26.47861
651.7578, 24.62460
652.2399, 22.96745
652.7220, 21.47025
653.2042, 20.29499
653.6863, 19.78296
654.1684, 19.57721
654.6505, 18.91219
655.1326, 17.67834
655.6147, 16.56007
656.0969, 16.45328
656.5790, 17.27843
657.0611, 17.19631
657.5432, 15.38730
658.0253, 14.04413
658.5074, 14.83389
658.9896, 15.99167
659.4717, 15.73374
659.9538, 13.95138
660.4359, 12.31375
660.9180, 11.48997
661.4001, 11.27392
661.8823, 11.81483
662.3644, 12.82413
662.8465, 13.19861
663.3286, 12.42237
663.8107, 11.29640
664.2928, 11.05394
664.7750, 11.85592
665.2571, 12.09508
665.7392, 11.39453
666.2213, 10.54557
666.7034, 9.462617
667.1855, 8.474457
667.6677, 8.037406
668.1498, 8.196282
668.6319, 8.431652
669.1140, 8.147058
669.5961, 7.691184
670.0782, 8.130673
670.5604, 9.592424
671.0425, 10.31792
671.5246, 9.305022
672.0067, 7.705709
672.4888, 7.373630
672.9709, 8.726471
673.4531, 9.159053
673.9352, 7.391381
674.4173, 6.047270
674.8994, 6.919314
675.3815, 8.662156
675.8636, 9.165891
676.3458, 7.954917
676.8279, 6.559372
677.3100, 6.769898
677.7921, 8.261898
678.2742, 8.834136
678.7563, 8.277168
679.2385, 7.541065
679.7206, 6.795193
680.2027, 6.198446
680.6848, 5.980922
681.1669, 6.143575
681.6490, 6.320443
682.1312, 6.524801
682.6133, 6.621234
683.0954, 6.484001
683.5775, 6.167213
684.0596, 5.782062
684.5417, 5.373156
685.0239, 4.923000
685.5060, 4.364045
685.9881, 3.709726
686.4702, 3.366226
686.9523, 3.469797
687.4344, 3.633254
687.9166, 3.855164
688.3987, 4.018499
688.8808, 3.783775
689.3629, 3.230183
689.8450, 3.307020
690.3271, 5.616745
690.8093, 7.760597
691.2914, 6.522404
691.7735, 3.206326
692.2556, 1.734039
692.7377, 3.281825
693.2198, 5.557948
693.7020, 6.007065
694.1841, 4.647807
694.6662, 3.817246
695.1483, 3.831637
695.6304, 3.947744
696.1125, 4.181885
696.5947, 4.357836
697.0768, 4.281173
697.5589, 3.985945
698.0410, 3.711010
698.5231, 3.568877
699.0052, 3.507793
699.4874, 3.545054
699.9695, 3.620743
700.4516, 3.436134
700.9337, 2.893332
701.4158, 2.327428
701.8979, 2.065939
702.3801, 2.117626
702.8622, 2.316692
703.3443, 2.889255
703.8264, 3.313405
704.3085, 3.360839
704.7906, 3.340042
705.2728, 3.631358
705.7549, 4.098471
706.2370, 4.145382
706.7191, 3.210531
707.2012, 2.158311
707.6833, 2.443371
708.1655, 3.810941
708.6476, 4.766169
709.1297, 4.987408
709.6118, 5.054411
710.0939, 5.446216
710.5760, 6.065254
711.0582, 6.387432
711.5403, 6.187879
712.0224, 6.060540
712.5045, 6.239892
712.9866, 6.332344
713.4688, 5.963553
713.9509, 5.268062
714.4330, 4.580384
714.9151, 4.067897
715.3972, 3.809317
715.8793, 3.945229
716.3615, 4.403650
716.8436, 4.877440
717.3257, 5.355458
717.8078, 5.759436
718.2899, 5.912977
718.7720, 5.937114
719.2542, 6.147171
719.7363, 6.694637
720.2184, 7.024112
720.7005, 7.061133
721.1826, 6.983911
721.6647, 6.861472
722.1469, 6.737864
722.6290, 6.580324
723.1111, 6.338026
723.5932, 6.259083
724.0753, 6.813952
724.5574, 7.802064
725.0396, 8.186101
725.5217, 8.033743
726.0038, 7.745019
726.4859, 7.436111
726.9680, 7.211590
727.4501, 7.316802
727.9323, 7.771471
728.4144, 8.521595
728.8965, 10.13807
729.3786, 11.43662
729.8607, 11.87939
730.3428, 11.63840
730.8250, 10.74722
731.3071, 9.412102
731.7892, 8.444640
732.2713, 8.656484
732.7534, 9.632212
733.2355, 10.37702
733.7177, 10.89825
734.1998, 11.05886
734.6819, 10.64505
735.1640, 10.28106
735.6461, 10.65431
736.1282, 11.68177
736.6104, 12.34738
737.0925, 12.37040
737.5746, 12.47869
738.0567, 13.00774
738.5388, 13.48702
739.0209, 13.26755
739.5031, 12.59264
739.9852, 12.45925
740.4673, 13.58108
740.9494, 15.08110
741.4315, 15.29192
741.9136, 14.36302
742.3958, 14.09040
742.8779, 14.86236
743.3600, 15.70662
743.8421, 16.07016
744.3242, 16.06711
744.8063, 15.84877
745.2885, 14.99720
745.7706, 14.67529
746.2527, 15.54684
746.7348, 16.39433
747.2169, 16.40283
747.6990, 15.88142
748.1812, 15.38151
748.6633, 15.26175
749.1454, 15.52843
749.6275, 16.19146
750.1096, 17.03230
750.5917, 17.70317
751.0739, 18.28120
751.5560, 18.46296
752.0381, 17.99513
752.5202, 17.14004
753.0023, 16.28628
753.4844, 15.43900
753.9666, 14.87321
754.4487, 15.03598
754.9308, 14.91207
755.4129, 13.78188
755.8950, 12.49501
756.3771, 12.03977
756.8593, 12.43666
757.3414, 12.86582
757.8235, 12.68552
758.3056, 12.38449
758.7877, 13.03523
759.2698, 14.27915
759.7520, 14.18521
760.2341, 12.24622
760.7162, 10.21033
761.1983, 9.497458
761.6804, 9.860828
762.1625, 10.08719
762.6447, 10.17285
763.1268, 10.12381
763.6089, 9.730215
764.0910, 9.422967
764.5731, 9.654343
765.0552, 10.08166
765.5374, 9.992397
766.0195, 9.105156
766.5016, 8.146107
766.9837, 7.656505
767.4658, 7.456764
767.9479, 7.347269
768.4301, 7.266557
768.9122, 6.940499
769.3943, 6.226606
769.8764, 5.447298
770.3585, 5.109620
770.8406, 5.260589
771.3228, 5.391550
771.8049, 5.855691
772.2870, 5.732823
772.7691, 4.204376
773.2512, 2.430681
773.7333, 1.455588
774.2155, 1.257507
774.6976, 1.109907
775.1797, 0.6843130
775.6618, 0.9072520
776.1439, 0.5679320
776.6260, 0.8473640
777.1082, 1.343505
777.5903, 1.753199
778.0724, 1.874218
778.5545, 1.538101
779.0366, 0.8845920
779.5187, 0.2327040
780.0009, 0.1133800
780.4830, 0.1320420
780.9651, 6.0525998E-02
781.4472, 0.1755910
781.9293, 0.5383750
782.4114, 9.0456001E-02
782.8936, 0.8439610
783.3757, 1.219942
783.8578, 2.824532
784.3399, 2.799935
784.8220, 2.363303
785.3041, 2.176271
785.7863, 2.205103
786.2684, 2.382632
786.7505, 2.641010
787.2326, 2.676131
787.7147, 1.955000
788.1968, 0.8802910
788.6790, 0.9443610
789.1611, 2.180044
789.6432, 3.027544
790.1253, 2.995303
790.6074, 2.586236
791.0895, 2.220855
791.5717, 1.907106
792.0538, 1.761223
792.5359, 2.131228
793.0180, 2.174328
793.5001, 1.269716
793.9822, 0.4922050
794.4644, 0.8567310
794.9465, 1.890659
795.4286, 2.404263
795.9107, 1.929413
796.3928, 1.047115
796.8749, 2.7020000E-02
797.3571, 0.9464760
797.8392, 1.469242
798.3213, 1.577163
798.8034, 1.618342
799.2855, 1.733019
799.7676, 1.773788
800.2498, 1.421844
800.7319, 0.6137940
801.2140, 0.9543350
801.6961, 3.306766
802.1782, 5.241612
802.6603, 5.922148
803.1425, 6.090657
803.6246, 5.994230
804.1067, 5.815201
804.5888, 6.276398
805.0709, 6.479632
805.5530, 5.193370
806.0352, 5.932356
806.5173, 7.150115
806.9994, 6.773750
807.4815, 5.012266
807.9636, 3.540410
808.4457, 3.292135
808.9279, 3.510359
809.4100, 3.001753
809.8921, 1.814634
810.3742, 0.5467480
810.8563, 0.9223200
811.3384, 1.642821
811.8206, 0.9168360
812.3027, 0.3827890
812.7848, 0.9879500
813.2669, 0.7983630
813.7490, 0.7446930
814.2311, 1.245783
814.7133, 1.303500
815.1954, 0.2287140
815.6775, 1.078426
816.1596, 1.848200
816.6417, 2.053842
817.1238, 1.967752
817.6060, 1.589510
818.0881, 1.165909
818.5702, 0.9881780
819.0523, 0.9812340
819.5344, 0.8852620
820.0165, 0.7050630
820.4987, 0.8225560
820.9808, 1.479174
821.4629, 2.280946
821.9450, 2.402094
822.4271, 1.655993
822.9092, 1.803564
823.3914, 3.389395
823.8735, 4.770546
824.3556, 5.251062
824.8377, 5.353081
825.3198, 5.353106
825.8019, 5.317518
826.2841, 6.029457
826.7662, 8.607750
827.2483, 10.75074
827.7304, 10.60974
828.2125, 10.15350
828.6946, 11.76730
829.1768, 15.18903
829.6589, 18.58744
830.1410, 20.93647
830.6231, 22.86337
831.1052, 25.00344
831.5873, 27.47520
832.0695, 30.92061
832.5516, 35.39024
833.0337, 39.62426
833.5158, 43.03576
833.9979, 46.22586
834.4800, 50.11596
834.9622, 54.71487
835.4443, 59.98287
835.9264, 66.35051
836.4085, 72.59232
836.8906, 78.10810
837.3727, 83.65318
837.8549, 89.93149
838.3370, 96.85310
838.8191, 103.8181
839.3012, 110.7141
839.7833, 117.6164
840.2654, 124.3141
840.7476, 131.1496
841.2297, 138.5655
841.7118, 146.6616
842.1939, 155.8018
842.6760, 166.1125
843.1581, 176.6510
843.6403, 185.7517
844.1224, 196.6862
844.6045, 204.3904
845.0866, 217.2675
845.5687, 229.2190
846.0508, 238.7457
846.5330, 248.2051
847.0151, 260.0687
847.4972, 274.1129
847.9793, 287.7535
848.4614, 302.0158
848.9435, 314.2525
849.4257, 322.7410
849.9078, 330.9588
850.3899, 342.2596
850.8720, 354.2524
851.3541, 362.2812
851.8362, 365.0319
852.3184, 366.1420
852.8005, 368.1808
853.2826, 368.9181
853.7647, 366.4583
854.2468, 361.0270
854.7289, 352.9078
855.2111, 342.3656
855.6932, 330.0887
856.1753, 316.3578
856.6574, 302.0104
857.1395, 289.7349
857.6216, 279.4930
858.1038, 267.8904
858.5859, 254.2572
859.0680, 240.0346
859.5501, 225.7578
860.0322, 211.8006
860.5143, 199.0914
860.9965, 187.9560
861.4786, 177.2195
861.9607, 166.4691
862.4428, 156.5232
862.9249, 148.0558
863.4070, 140.3392
863.8892, 132.1192
864.3713, 123.4960
864.8534, 116.3174
865.3355, 112.1627
865.8176, 108.5123
866.2997, 103.1963
866.7819, 97.62043
867.2640, 93.67231
867.7461, 91.41994
868.2282, 90.29333
868.7103, 89.99812
869.1924, 89.87278
869.6746, 88.68727
870.1567, 86.83921
870.6388, 86.46871
871.1209, 87.64645
871.6030, 89.59228
872.0851, 92.21749
872.5673, 94.88754
873.0494, 96.82790
873.5315, 98.16693
874.0136, 100.2919
874.4957, 103.2598
874.9778, 106.9428
875.4600, 111.6661
875.9421, 116.7553
876.4242, 122.2410
876.9063, 127.7587
877.3884, 132.4308
877.8705, 135.8503
878.3527, 140.4047
878.8348, 147.0837
879.3169, 154.9578
879.7990, 164.1171
880.2811, 173.6594
880.7632, 182.1048
881.2454, 189.4600
881.7275, 197.2942
882.2096, 206.6518
882.6917, 216.7408
883.1738, 226.5289
883.6559, 236.0808
884.1381, 245.4976
884.6202, 254.8240
885.1023, 264.4035
885.5844, 274.3713
886.0665, 284.9301
886.5486, 296.5654
887.0308, 309.3340
887.5129, 320.9666
887.9950, 330.7178
888.4771, 341.3684
888.9592, 353.3982
889.4413, 366.8780
889.9235, 381.8287
890.4056, 398.3608
890.8877, 416.9392
891.3698, 438.0726
891.8519, 460.4244
892.3340, 483.3501
892.8162, 507.9515
893.2983, 534.6414
893.7804, 563.4651
894.2625, 593.7367
894.7446, 625.5707
895.2267, 660.5020
895.7089, 700.3453
896.1910, 742.9633
896.6731, 785.3107
897.1552, 828.6608
897.6373, 875.8130
898.1194, 926.7358
898.6016, 979.7424
899.0837, 1033.786
899.5658, 1090.081
900.0479, 1150.295
900.5300, 1214.212
901.0121, 1281.161
901.4943, 1351.281
901.9764, 1424.010
902.4585, 1499.069
902.9406, 1577.129
903.4227, 1658.753
903.9048, 1744.165
904.3870, 1832.771
904.8691, 1925.694
905.3512, 2019.487
905.8333, 2114.438
906.3154, 2209.826
906.7975, 2306.534
907.2797, 2401.968
907.7618, 2492.869
908.2439, 2578.880
908.7260, 2658.154
909.2081, 2734.792
909.6902, 2798.420
910.1724, 2846.618
910.6545, 2876.713
911.1366, 2886.693
911.6187, 2876.416
912.1008, 2846.272
912.5829, 2795.825
913.0651, 2728.762
913.5472, 2645.779
914.0293, 2549.122
914.5114, 2438.742
914.9935, 2317.819
915.4756, 2194.195
915.9578, 2070.869
916.4398, 1946.088
916.9219, 1817.130
917.4041, 1688.051
917.8862, 1570.648
918.3683, 1464.978
918.8504, 1364.750
919.3325, 1269.046
919.8146, 1178.267
920.2968, 1091.963
920.7789, 1011.182
921.2610, 937.0556
921.7431, 869.5357
922.2252, 807.5986
922.7073, 752.5380
923.1895, 701.2487
923.6716, 653.0609
924.1537, 608.1597
924.6358, 567.2869
925.1179, 529.7611
925.6000, 493.5432
926.0822, 457.6101
926.5643, 424.8684
927.0464, 396.6974
927.5285, 370.9175
928.0106, 346.6648
928.4927, 323.7535
928.9749, 302.6725
929.4570, 283.3042
929.9391, 264.7919
930.4212, 246.4001
930.9033, 228.9883
931.3854, 213.4299
931.8676, 199.2970
932.3497, 185.9579
932.8318, 173.1474
933.3139, 160.8255
933.7960, 148.9933
934.2781, 138.1240
934.7603, 129.0564
935.2424, 121.3029
935.7245, 112.9183
936.2066, 103.9832
936.6887, 95.97353
937.1708, 89.29787
937.6530, 83.10281
938.1351, 76.67880
938.6172, 70.37251
939.0993, 65.25488
939.5814, 61.62629
940.0635, 57.44577
940.5457, 52.49900
941.0278, 47.40720
941.5099, 42.02622
941.9920, 36.95087
942.4741, 32.74077
942.9562, 29.36839
943.4384, 26.65550
943.9205, 25.45299
944.4026, 23.59709
944.8847, 20.43131
945.3668, 17.20564
945.8489, 14.28083
946.3311, 11.81381
946.8132, 10.10720
947.2953, 9.158381
947.7774, 8.212631
948.2595, 7.357438
948.7416, 6.014821
949.2238, 3.322682
949.7059, 0.4553720
950.1880, 1.384445
950.6701, 2.343557
951.1522, 3.155925
951.6343, 4.094070
952.1165, 4.941486
952.5986, 5.293770
953.0807, 5.640423
953.5628, 6.923919
954.0449, 8.688381
954.5270, 7.181318
955.0092, 6.466443
955.4913, 6.008158
955.9734, 5.479856
956.4555, 4.868039
956.9376, 4.099373
957.4197, 3.219982
957.9019, 2.463033
958.3840, 1.833910
958.8661, 1.226494
959.3482, 0.5826330
959.8303, 0.1582580
960.3124, 0.2165300
960.7946, 0.6637520
961.2767, 1.228614
961.7588, 2.058391
962.2409, 2.249081
962.7230, 1.666825
963.2051, 0.5556220
963.6873, 1.568589
964.1694, 3.390784
964.6515, 2.847840
965.1336, 5.5528000E-02
965.6157, 1.569721
966.0978, 1.089617
966.5800, 0.1511690
967.0621, 2.342388
967.5442, 3.962456
968.0263, 2.700597
968.5084, 0.1021490
968.9905, 1.401114
969.4727, 1.556786
969.9548, 1.420254
970.4369, 1.000823
970.9190, 0.6030620
971.4011, 0.3195130
971.8832, 0.1331590
972.3654, 9.1200002E-04
972.8475, 3.9965998E-02
973.3296, 0.2136650
973.8117, 0.8825500
974.2938, 1.139685
974.7759, 7.0943996E-02
975.2581, 1.324214
975.7402, 1.354915
976.2223, 0.6346400
976.7044, 0.3421360
977.1865, 0.1773970
977.6686, 0.8207910
978.1508, 0.5128630
978.6329, 5.8938999E-02
979.1150, 0.4805330
979.5971, 1.265288
980.0792, 1.424654
980.5613, 1.097017
981.0435, 0.7938510
981.5256, 0.6778920
982.0077, 0.9596600
982.4898, 1.907193
982.9719, 2.904901
983.4540, 2.526633
983.9362, 1.337598
984.4183, 2.468882
984.9004, 2.940250
985.3825, 2.996201
985.8646, 2.694555
986.3467, 2.318827
986.8289, 2.167029
987.3110, 2.161945
987.7931, 2.202021
988.2752, 2.837386
988.7573, 3.278620
989.2394, 3.344705
989.7216, 3.841563
990.2037, 5.337702
990.6858, 7.000270
991.1679, 7.745890
991.6500, 7.620762
992.1321, 7.472414
992.6143, 6.983428
993.0964, 7.247880
993.5785, 9.011709
994.0606, 10.58891
994.5427, 10.84475
995.0248, 10.58552
995.5070, 11.09980
995.9891, 12.45596
996.4712, 13.57084
996.9533, 14.36239
997.4354, 15.00518
997.9175, 15.16705
998.3997, 15.55255
998.8818, 16.96044
999.3639, 18.72885
999.8460, 19.51542
1000.328, 19.06934
1000.810, 19.29014
1001.292, 21.46078
1001.774, 23.32556
1002.257, 23.32665
1002.739, 23.23681
1003.221, 25.02147
1003.703, 27.85332
1004.185, 29.62221
1004.667, 29.75203
1005.149, 29.61295
1005.631, 29.23568
1006.114, 29.55360
1006.596, 31.69363
1007.078, 34.58123
1007.560, 37.20150
1008.042, 39.27156
1008.524, 40.49417
1009.006, 40.70550
1009.488, 41.08531
1009.970, 42.74116
1010.453, 44.93394
1010.935, 47.30396
1011.417, 49.31096
1011.899, 49.72008
1012.381, 48.99894
1012.863, 48.80966
1013.345, 50.00101
1013.827, 51.94943
1014.310, 54.11141
1014.792, 56.48168
1015.274, 59.33173
1015.756, 62.34290
1016.238, 64.47338
1016.720, 65.62852
1017.202, 66.66496
1017.684, 68.08360
1018.166, 69.79526
1018.649, 71.67152
1019.131, 73.79359
1019.613, 76.05894
1020.095, 78.65911
1020.577, 81.47091
1021.059, 84.48856
1021.541, 87.31289
1022.023, 89.66257
1022.505, 91.97517
1022.988, 95.02188
1023.470, 98.61517
1023.952, 102.0917
1024.434, 105.4242
1024.916, 108.5037
1025.398, 111.2871
1025.880, 114.6698
1026.362, 119.3484
1026.845, 124.5655
1027.327, 128.6230
1027.809, 133.0640
1028.291, 137.3991
1028.773, 140.7248
1029.255, 145.2798
1029.737, 147.9662
1030.219, 151.0368
1030.702, 156.4904
1031.184, 163.3980
1031.666, 169.1096
1032.148, 173.4432
1032.630, 177.6109
1033.112, 181.4366
1033.594, 185.5896
1034.076, 190.5641
1034.558, 195.3611
1035.041, 199.1724
1035.523, 202.3286
1036.005, 205.9811
1036.487, 210.6874
1036.969, 213.8546
1037.451, 214.7763
1037.933, 215.5715
1038.415, 216.9644
1038.897, 218.1390
1039.380, 218.4641
1039.862, 218.1022
1040.344, 217.5795
1040.826, 217.3213
1041.308, 215.4706
1041.790, 211.0747
1042.272, 206.3481
1042.754, 201.7689
1043.237, 197.1322
1043.719, 192.7384
1044.201, 188.1754
1044.683, 182.0272
1045.165, 173.4848
1045.647, 165.7578
1046.129, 159.9118
1046.611, 153.8019
1047.094, 146.5851
1047.576, 139.0025
1048.058, 131.3551
1048.540, 123.8233
1049.022, 116.9225
1049.504, 110.8483
1049.986, 104.5751
1050.468, 97.08197
1050.950, 90.53715
1051.432, 86.28613
1051.915, 82.66711
1052.397, 78.53005
1052.879, 73.96885
1053.361, 69.05078
1053.843, 63.53128
1054.325, 58.85288
1054.807, 55.77110
1055.289, 53.07164
1055.772, 50.80620
1056.254, 48.47726
1056.736, 45.42535
1057.218, 42.01143
1057.700, 39.09005
1058.182, 36.82585
1058.664, 34.86044
1059.146, 33.43378
1059.629, 31.90207
1060.111, 29.73657
1060.593, 27.59542
1061.075, 26.12160
1061.557, 25.15174
1062.039, 24.38650
1062.521, 23.82302
1063.003, 22.99744
1063.485, 21.66035
1063.968, 20.16317
1064.450, 18.23727
1064.932, 16.56638
1065.414, 15.87521
1065.896, 15.85202
1066.378, 16.14664
1066.860, 16.65948
1067.342, 16.59503
1067.824, 15.10195
1068.307, 13.76078
1068.789, 13.66671
1069.271, 13.65823
1069.753, 12.44011
1070.235, 10.77893
1070.717, 10.22722
1071.199, 10.89404
1071.681, 11.18419
1072.164, 10.26163
1072.646, 9.333598
1073.128, 8.892684
1073.610, 8.708740
1074.092, 8.694263
1074.574, 8.751815
1075.056, 8.787252
1075.538, 8.784633
1076.021, 8.767631
1076.503, 8.814671
1076.985, 8.709137
1077.467, 8.316253
1077.949, 7.755677
1078.431, 6.768603
1078.913, 5.878898
1079.395, 6.239697
1079.877, 7.511798
1080.359, 7.480457
1080.842, 4.564738
1081.324, 2.592669
1081.806, 4.578023
1082.288, 6.783574
1082.770, 6.450690
1083.252, 5.018213
1083.734, 4.347608
1084.216, 4.443375
1084.698, 4.256460
1085.181, 3.305934
1085.663, 2.802871
1086.145, 3.586713
1086.627, 4.643885
1087.109, 5.771720
1087.591, 6.534429
1088.073, 6.356612
1088.555, 5.463649
1089.038, 4.474027
1089.520, 3.510191
1090.002, 2.824974
1090.484, 2.639383
1090.966, 2.617849
1091.448, 2.720404
1091.930, 2.793369
1092.412, 2.588174
1092.895, 2.283529
1093.377, 2.304550
1093.859, 2.734880
1094.341, 3.091924
1094.823, 3.330819
1095.305, 3.289932
1095.787, 2.693614
1096.269, 1.998695
1096.751, 1.493462
1097.234, 1.159858
1097.716, 0.9573640
1098.198, 0.8679980
1098.680, 0.7855740
1099.162, 0.4117700
1099.644, 0.4695220
1100.126, 1.968129
1100.608, 3.102036
1101.090, 2.288820
1101.573, 0.7874310
1102.055, 0.3062080
1102.537, 0.7716060
1103.019, 0.7811390
1103.501, 0.2665690
1103.983, 1.058976
1104.465, 1.023873
1104.947, 1.094684
1105.430, 0.8063630
1105.912, 0.1622170
1106.394, 0.8303560
1106.876, 1.917021
1107.358, 2.252351
1107.840, 1.454757
1108.322, 0.9734300
1108.804, 1.864799
1109.286, 1.981986
1109.769, 0.2389430
1110.251, 0.3462370
1110.733, 1.258193
1111.215, 1.043467
1111.697, 0.2247360
1112.179, 0.8780830
1112.661, 4.7439998E-03
1113.143, 0.5390120
1113.625, 0.8258240
1114.108, 0.5068700
1114.590, 2.2442000E-02
1115.072, 0.7618110
1115.554, 1.351470
1116.036, 0.7823330
1116.518, 0.8948760
1117.000, 0.4956490
1117.482, 0.8224140
1117.965, 7.1511000E-02
1118.447, 1.017089
1118.929, 1.382512
1119.411, 0.1183910
1119.893, 0.6099310
1120.375, 2.2125000E-02
1120.857, 0.1509120
1121.339, 0.5248130
1121.822, 0.7090810
1122.304, 0.4360980
1122.786, 0.9113640
1123.268, 0.5273830
1123.750, 0.2606950
1124.232, 0.5800390
1124.714, 0.2859630
1125.196, 0.2902310
1125.678, 0.3191520
1126.161, 4.6239000E-02
1126.643, 0.1439510
1127.125, 0.2209170
1127.607, 0.4076700
1128.089, 0.8722170
1128.571, 0.9065310
1129.053, 2.5037000E-02
1129.535, 1.113841
1130.017, 1.197314
1130.500, 0.4573200
1130.982, 4.5965001E-02
1131.464, 3.0551000E-02
1131.946, 0.2377570
1132.428, 0.9082380
1132.910, 1.165371
1133.392, 0.6601280
1133.874, 5.5135999E-02
1134.357, 3.5480998E-02
1134.839, 0.2192690
1135.321, 0.4856470
1135.803, 0.7383850
1136.285, 0.5739690
1136.767, 4.2249002E-02
1137.249, 9.7889997E-02
1137.731, 0.9316740
1138.214, 1.607204
1138.696, 1.524503
1139.178, 1.144934
1139.660, 1.058768
1140.142, 1.294322
1140.624, 2.044379
1141.106, 3.193247
1141.588, 4.675344
1142.070, 6.221962
1142.552, 6.411837
1143.035, 4.761260
1143.517, 2.966822
1143.999, 2.652274
1144.481, 1.503797
1144.963, 2.014343
1145.445, 0.8078420
1145.927, 0.5903480
1146.409, 1.195782
1146.892, 2.062772
1147.374, 2.979981
1147.856, 3.809309
1148.338, 4.524116
1148.820, 4.893044
1149.302, 4.388354
1149.784, 3.744909
1150.266, 3.733698
1150.749, 4.091599
1151.231, 4.485053
1151.713, 4.839901
1152.195, 5.141369
1152.677, 5.385761
1153.159, 5.490073
1153.641, 5.350142
1154.123, 5.127991
1154.605, 4.829654
1155.088, 4.577355
1155.570, 4.627316
1156.052, 4.715622
1156.534, 3.968769
1157.016, 2.595708
1157.498, 2.943578
1157.980, 7.036972
1158.462, 9.937107
1158.944, 9.785321
1159.427, 8.997519
1159.909, 8.156878
1160.391, 7.628889
1160.873, 8.004980
1161.355, 8.866812
1161.837, 8.921322
1162.319, 7.875196
1162.801, 7.379092
1163.284, 7.727444
1163.766, 8.255780
1164.248, 8.827110
1164.730, 9.577261
1165.212, 10.98883
1165.694, 12.10663
1166.176, 11.34285
1166.658, 9.015738
1167.141, 8.046612
1167.623, 8.808747
1168.105, 9.201626
1168.587, 9.114178
1169.069, 9.029611
1169.551, 9.188717
1170.033, 9.043688
1170.515, 8.073771
1170.997, 6.810275
1171.479, 6.688561
1171.962, 7.638994
1172.444, 8.237329
1172.926, 8.463331
1173.408, 8.170561
1173.890, 7.362408
1174.372, 6.744185
1174.854, 6.740112
1175.336, 7.004154
1175.819, 7.285191
1176.301, 7.460706
1176.783, 7.122286
1177.265, 6.599857
1177.747, 6.888200
1178.229, 7.829469
1178.711, 8.614691
1179.193, 8.995471
1179.676, 8.975053
1180.158, 8.495865
1180.640, 7.814765
1181.122, 7.008276
1181.604, 6.379473
1182.086, 6.414406
1182.568, 6.812998
1183.050, 7.270083
1183.532, 7.586296
1184.015, 7.132334
1184.497, 5.860787
1184.979, 5.089380
1185.461, 5.780035
1185.943, 6.541368
1186.425, 7.228745
1186.907, 7.407297
1187.389, 5.733693
1187.871, 4.017575
1188.354, 4.995869
1188.836, 7.852492
1189.318, 9.111250
1189.800, 7.790374
1190.282, 6.970268
1190.764, 7.713886
1191.246, 7.840966
1191.728, 6.502903
1192.211, 5.033300
1192.693, 4.040262
1193.175, 3.456615
1193.657, 3.161993
1194.139, 3.141810
1194.621, 3.556727
1195.103, 4.565129
1195.585, 5.375090
1196.068, 5.983189
1196.550, 6.259331
1197.032, 6.157742
1197.514, 5.716266
1197.996, 4.926141
1198.478, 3.971365
1198.960, 3.065465
1199.442, 2.300150
1199.924, 2.235449
1200.406, 2.778011
1200.889, 3.476573
1201.371, 4.201222
1201.853, 4.472651
1202.335, 4.151702
1202.817, 3.842013
1203.299, 4.045113
1203.781, 4.359083
1204.263, 4.334619
1204.746, 4.034305
1205.228, 3.162014
1205.710, 2.194098
1206.192, 2.034814
1206.674, 2.612663
1207.156, 3.255322
1207.638, 3.730448
1208.120, 4.254539
1208.603, 5.490183
1209.085, 6.081372
1209.567, 4.740880
1210.049, 3.071773
1210.531, 1.948990
1211.013, 1.508488
1211.495, 2.101881
1211.977, 3.480848
1212.459, 4.472595
1212.942, 4.917758
1213.424, 5.022845
1213.906, 4.695022
1214.388, 4.161335
1214.870, 3.026333
1215.352, 2.346106
1215.834, 2.846659
1216.316, 4.028389
1216.798, 5.481526
1217.281, 6.941415
1217.763, 5.911546
1218.245, 1.798060
1218.727, 0.9236780
1219.209, 3.831845
1219.691, 5.455170
1220.173, 4.338927
1220.655, 2.921430
1221.138, 2.832340
1221.620, 1.866423
1222.102, 2.412261
1222.584, 1.173349
1223.066, 0.8219630
1223.548, 1.223249
1224.030, 2.399446
1224.512, 3.946504
1224.995, 4.596457
1225.477, 4.134398
1225.959, 3.583112
1226.441, 3.512302
1226.923, 3.568242
1227.405, 3.716546
1227.887, 3.590652
1228.369, 2.315375
1228.851, 1.066088
1229.333, 1.486842
1229.816, 2.857820
1230.298, 3.486177
1230.780, 3.114296
1231.262, 2.568764
1231.744, 1.710021
1232.226, 1.206429
1232.708, 1.495515
1233.190, 1.692100
1233.673, 1.419476
1234.155, 1.052401
1234.637, 0.9277860
1235.119, 0.8648580
1235.601, 0.4183570
1236.083, 0.4131060
1236.565, 0.6777140
1237.047, 0.7269470
1237.530, 3.4395002E-02
1238.012, 1.390837
1238.494, 1.955761
1238.976, 1.061935
1239.458, 1.7503001E-02
1239.940, 0.1010750
1240.422, 7.5553000E-02
1240.904, 0.5570090
1241.386, 0.6606450
1241.869, 0.8690270
1242.351, 0.2910990
1242.833, 0.2480970
1243.315, 1.195075
1243.797, 1.391979
1244.279, 9.1518000E-02
1244.761, 3.8035002E-02
1245.243, 0.1328390
1245.725, 0.2337790
1246.208, 0.1619220
1246.690, 1.163558
1247.172, 1.848369
1247.654, 2.294370
1248.136, 2.721542
1248.618, 2.945900
1249.100, 2.408279
1249.582, 1.001327
1250.065, 1.0697000E-02
1250.547, 1.1081000E-02
1251.029, 9.4729997E-02
1251.511, 0.9712730
1251.993, 2.181692
1252.475, 2.137423
1252.957, 1.940180
1253.439, 2.512668
1253.922, 2.217824
1254.404, 3.176918
1254.886, 2.328522
1255.368, 2.269625
1255.850, 2.875514
1256.332, 2.923975
1256.814, 2.406539
1257.296, 2.234927
1257.778, 2.632195
1258.260, 2.963165
1258.743, 2.823123
1259.225, 2.434252
1259.707, 1.761521
1260.189, 1.240955
1260.671, 1.733766
1261.153, 2.368461
1261.635, 1.453682
1262.117, 9.5057003E-02
1262.600, 0.6016710
1263.082, 3.556836
1263.564, 5.085973
1264.046, 3.470632
1264.528, 2.169850
1265.010, 2.342199
1265.492, 2.900452
1265.974, 3.829785
1266.457, 4.061050
1266.939, 2.851305
1267.421, 1.271030
1267.903, 0.7164630
1268.385, 1.027111
1268.867, 1.257093
1269.349, 1.281473
1269.831, 2.205523
1270.313, 3.903791
1270.796, 4.351067
1271.278, 3.202425
1271.760, 2.312046
1272.242, 2.625205
1272.724, 3.294515
1273.206, 3.519213
1273.688, 3.537207
1274.170, 4.035964
1274.652, 4.244459
1275.135, 2.313219
1275.617, 0.2045070
1276.099, 0.3414590
1276.581, 4.3050000E-03
1277.063, 1.094642
1277.545, 1.984256
1278.027, 2.607362
1278.509, 2.622087
1278.992, 2.882833
1279.474, 4.364654
1279.956, 5.071418
1280.438, 3.228602
1280.920, 1.517132
1281.402, 2.621143
1281.884, 4.401944
1282.366, 4.461473
1282.849, 2.368671
1283.331, 1.638855
1283.813, 2.286349
1284.295, 2.456614
1284.777, 2.028070
1285.259, 1.314903
1285.741, 0.4321410
1286.223, 9.6600000E-03
1286.705, 0.3283610
1287.188, 0.0000000E+00
##END=



