##NAMES=Spinel
##RRUFFID=R050184
##IDEAL CHEMISTRY=MgAl_2_O_4_
##LOCALITY=Pein Pyit, Mogok, Burma
##OWNER=RRUFF
##SOURCE=Marcus Origlieri
##DESCRIPTION=Red crystal in calcite, associated with yellowish-green clinohumite, R050183
##STATUS=The identification of this mineral has been confirmed by X-ray diffraction and chemical analysis
##URL=rruff.info/R050184
##MEASURED CHEMISTRY=Mg_1.00_(Al_1.99_Cr_0.01_)_Î£=2_O_4_; trace amounts of V
145.0344, 0.0000000E+00
145.5165, 0.5161290
145.9986, 1.205894
146.4807, 1.381294
146.9629, 0.5951390
147.4450, 7.5172000E-02
147.9271, 0.1291120
148.4092, 0.4328690
148.8913, 0.7318420
149.3734, 0.7726970
149.8556, 0.6573720
150.3377, 0.5697710
150.8198, 0.5793460
151.3019, 0.5322570
151.7840, 0.2754210
152.2661, 3.7482999E-02
152.7483, 0.1206130
153.2304, 0.2385030
153.7125, 0.9837490
154.1946, 1.264923
154.6767, 0.7381740
155.1588, 0.2115250
155.6410, 1.8821999E-02
156.1231, 2.1300999E-02
156.6052, 0.1862720
157.0873, 0.4056550
157.5694, 0.6654590
158.0515, 0.8246690
158.5337, 0.8688660
159.0158, 0.8261570
159.4979, 0.6697010
159.9800, 0.3927840
160.4621, 0.1526490
160.9442, 0.1131740
161.4264, 0.2184370
161.9085, 0.3136600
162.3906, 0.3595120
162.8727, 0.3751450
163.3548, 0.3899150
163.8369, 0.4051210
164.3191, 0.4195100
164.8012, 0.3926770
165.2833, 0.3595660
165.7654, 0.4067840
166.2475, 0.6476290
166.7296, 1.034760
167.2118, 1.304192
167.6939, 1.404060
168.1760, 1.426224
168.6581, 1.403152
169.1402, 1.343185
169.6223, 1.258591
170.1045, 1.150040
170.5866, 1.011871
171.0687, 0.9150850
171.5508, 0.8465810
172.0329, 0.8341670
172.5150, 0.9488680
172.9972, 1.152824
173.4793, 1.320175
173.9614, 1.297783
174.4435, 0.9986340
174.9256, 0.8122020
175.4077, 0.7526700
175.8899, 0.7650680
176.3720, 0.8594590
176.8541, 1.016647
177.3362, 1.165512
177.8183, 1.210419
178.3004, 1.092148
178.7826, 0.9955600
179.2647, 0.8897020
179.7468, 0.8206100
180.2289, 0.8606800
180.7110, 1.023102
181.1931, 1.200333
181.6752, 1.209183
182.1574, 0.9635310
182.6395, 0.8085710
183.1216, 0.8428960
183.6037, 0.9696120
184.0858, 1.080940
184.5679, 1.155884
185.0501, 1.171242
185.5322, 1.021431
186.0143, 0.6702420
186.4964, 0.4605640
186.9785, 0.6281200
187.4606, 1.033531
187.9428, 1.316391
188.4249, 1.337120
188.9070, 1.337181
189.3891, 1.491714
189.8712, 1.762505
190.3533, 2.021072
190.8355, 2.019699
191.3176, 1.792297
191.7997, 1.682541
192.2818, 1.784393
192.7639, 1.953796
193.2460, 2.095245
193.7282, 2.235252
194.2103, 2.349693
194.6924, 2.361671
195.1745, 2.267921
195.6566, 2.127365
196.1387, 1.789902
196.6209, 1.510155
197.1030, 1.494598
197.5851, 1.764160
198.0672, 2.105438
198.5493, 2.247108
199.0314, 2.111404
199.5136, 2.003151
199.9957, 2.033577
200.4778, 2.054649
200.9599, 1.926147
201.4420, 1.636086
201.9241, 1.352867
202.4063, 1.331924
202.8884, 1.810654
203.3705, 2.128540
203.8526, 2.185722
204.3347, 2.139633
204.8168, 2.096886
205.2990, 2.098373
205.7811, 2.135445
206.2632, 2.191917
206.7453, 2.280113
207.2274, 2.371582
207.7095, 2.467255
208.1917, 2.562019
208.6738, 2.664650
209.1559, 2.777298
209.6380, 2.869377
210.1201, 2.875557
210.6022, 2.701439
211.0844, 2.575897
211.5665, 2.520889
212.0486, 2.511650
212.5307, 2.541214
213.0128, 2.610947
213.4949, 2.671707
213.9771, 2.609238
214.4592, 2.372063
214.9413, 2.148048
215.4234, 1.869949
215.9055, 1.640335
216.3876, 1.673813
216.8698, 2.094040
217.3519, 2.669594
217.8340, 2.921478
218.3161, 2.784920
218.7982, 2.699043
219.2803, 2.878174
219.7625, 3.213356
220.2446, 3.457443
220.7267, 3.528725
221.2088, 3.484131
221.6909, 3.385452
222.1730, 3.218697
222.6552, 3.097916
223.1373, 3.146675
223.6194, 3.301620
224.1015, 3.330727
224.5836, 3.146782
225.0657, 2.840027
225.5479, 2.501511
226.0300, 2.127548
226.5121, 1.796997
226.9942, 1.568520
227.4763, 1.433357
227.9584, 1.318100
228.4406, 1.216179
228.9227, 1.125298
229.4048, 1.059349
229.8869, 1.014305
230.3690, 0.9388430
230.8511, 0.7873310
231.3333, 0.5616840
231.8154, 0.3059080
232.2975, 0.1061400
232.7796, 0.4116820
233.2617, 0.3796390
233.7438, 4.9683001E-02
234.2260, 0.2791140
234.7081, 0.3001630
235.1902, 1.4008000E-02
235.6723, 0.2213520
236.1544, 0.1892550
236.6365, 0.1297450
237.1187, 0.1408390
237.6008, 0.2171400
238.0829, 0.2961810
238.5650, 0.3243710
239.0471, 0.2997360
239.5292, 0.2406920
240.0114, 0.1535190
240.4935, 2.3766000E-02
240.9756, 0.2286830
241.4577, 0.5522000
241.9398, 0.7856830
242.4219, 0.7374500
242.9041, 0.3458100
243.3862, 0.1458820
243.8683, 0.3251650
244.3504, 0.5262300
244.8325, 0.6271440
245.3146, 0.6323700
245.7968, 0.6010820
246.2789, 0.5803380
246.7610, 0.5664060
247.2431, 0.5983730
247.7252, 0.7453990
248.2073, 0.8702700
248.6895, 0.8939820
249.1716, 0.8454740
249.6537, 0.8184430
250.1358, 0.9029770
250.6179, 1.113724
251.1000, 1.192375
251.5822, 0.9528880
252.0643, 0.7809830
252.5464, 0.9035720
253.0285, 1.224236
253.5106, 1.462326
253.9927, 1.386108
254.4748, 0.9984510
254.9570, 0.8270260
255.4391, 1.047844
255.9212, 1.258904
256.4033, 1.345818
256.8854, 1.309799
257.3676, 1.157562
257.8497, 0.8660580
258.3318, 0.4626690
258.8139, 0.2898180
259.2960, 0.5628970
259.7781, 0.7810520
260.2603, 0.6809460
260.7424, 0.3907550
261.2245, 0.2408980
261.7066, 0.4493030
262.1887, 0.9241180
262.6708, 1.168747
263.1530, 1.079262
263.6351, 0.9392700
264.1172, 0.7839130
264.5993, 0.6425780
265.0814, 0.5844120
265.5635, 0.6560750
266.0457, 0.8131710
266.5278, 0.9106370
267.0099, 0.9087300
267.4920, 0.9229580
267.9741, 1.043777
268.4562, 1.203125
268.9384, 1.247215
269.4204, 1.094742
269.9026, 0.8377300
270.3847, 0.6766130
270.8668, 0.6308670
271.3489, 0.5935970
271.8310, 0.4891970
272.3131, 0.3869090
272.7953, 0.4396590
273.2774, 0.7329410
273.7595, 1.094215
274.2416, 1.195045
274.7237, 1.010925
275.2058, 0.9069140
275.6880, 1.065880
276.1701, 1.359543
276.6522, 1.549088
277.1343, 1.556198
277.6164, 1.534584
278.0985, 1.725471
278.5807, 2.102806
279.0628, 2.405731
279.5449, 2.495926
280.0270, 2.485435
280.5091, 2.553017
280.9912, 2.738609
281.4734, 2.954208
281.9555, 3.098091
282.4376, 3.189461
282.9197, 3.310791
283.4018, 3.590622
283.8839, 3.877190
284.3661, 3.895470
284.8482, 3.579987
285.3303, 3.312401
285.8124, 3.492142
286.2945, 3.945709
286.7766, 4.254654
287.2588, 4.184326
287.7409, 4.023544
288.2230, 4.128090
288.7051, 4.519379
289.1872, 4.937408
289.6693, 5.221535
290.1515, 5.418198
290.6336, 5.622116
291.1157, 5.856339
291.5978, 6.159737
292.0799, 6.586273
292.5620, 7.125977
293.0442, 7.585999
293.5263, 7.863495
294.0084, 8.032433
294.4905, 8.182617
294.9726, 8.318733
295.4547, 8.422806
295.9369, 8.415878
296.4190, 8.319847
296.9011, 8.410583
297.3832, 8.897171
297.8653, 9.504807
298.3474, 9.892937
298.8296, 10.03025
299.3117, 10.19440
299.7938, 10.58054
300.2759, 11.15629
300.7580, 11.76606
301.2401, 12.41568
301.7223, 13.05242
302.2044, 13.57815
302.6865, 14.01073
303.1686, 14.51375
303.6507, 15.19608
304.1328, 16.02252
304.6150, 16.84092
305.0971, 17.54123
305.5792, 18.43299
306.0613, 19.77149
306.5434, 21.46430
307.0255, 23.29263
307.5077, 25.13182
307.9898, 27.05173
308.4719, 29.24944
308.9540, 31.81631
309.4361, 34.37220
309.9182, 37.13894
310.4004, 39.66232
310.8825, 41.15924
311.3646, 41.36272
311.8467, 40.45861
312.3288, 38.54942
312.8109, 35.54601
313.2931, 32.10041
313.7752, 28.10604
314.2573, 24.01231
314.7394, 20.30695
315.2215, 17.07153
315.7036, 14.28802
316.1858, 12.01378
316.6679, 10.25062
317.1500, 8.771622
317.6321, 7.549507
318.1142, 6.571770
318.5963, 5.836258
319.0785, 5.356941
319.5606, 4.955307
320.0427, 4.497040
320.5248, 3.993851
321.0069, 3.551109
321.4890, 3.210449
321.9712, 2.907097
322.4533, 2.599022
322.9354, 2.281303
323.4175, 1.928230
323.8996, 1.434944
324.3817, 0.8952260
324.8639, 0.5963360
325.3460, 0.6356740
325.8281, 0.7318730
326.3102, 0.6716840
326.7923, 0.5113300
327.2744, 0.3664400
327.7566, 0.3038250
328.2387, 0.2658540
328.7208, 0.1356580
329.2029, 0.1148530
329.6850, 0.2906420
330.1671, 0.1883010
330.6493, 3.1410001E-02
331.1314, 0.1226430
331.6135, 1.7379999E-02
332.0956, 0.2041850
332.5777, 0.2252660
333.0598, 8.9348003E-02
333.5420, 5.5663999E-02
334.0241, 0.3067780
334.5062, 0.6427230
334.9883, 0.7868800
335.4704, 0.7034300
335.9525, 0.5867770
336.4347, 0.5819470
336.9168, 0.6514360
337.3989, 0.6328430
337.8810, 0.4420700
338.3631, 0.2360990
338.8452, 0.2193530
339.3274, 0.3702160
339.8094, 0.4577100
340.2916, 0.2899320
340.7737, 2.6351999E-02
341.2558, 1.3756000E-02
341.7379, 0.2499390
342.2200, 0.5220640
342.7021, 0.5462720
343.1843, 0.3807980
343.6664, 0.1876370
344.1485, 5.1414002E-02
344.6306, 0.2745900
345.1127, 0.3998640
345.5948, 0.4293210
346.0770, 0.4604420
346.5591, 0.5022740
347.0412, 0.6111530
347.5233, 0.9148790
348.0054, 1.606018
348.4875, 2.186768
348.9697, 2.275719
349.4518, 1.995468
349.9339, 1.731003
350.4160, 1.579620
350.8981, 1.574341
351.3802, 1.818413
351.8624, 2.347626
352.3445, 2.845535
352.8266, 3.233589
353.3087, 3.524040
353.7908, 3.717445
354.2729, 3.807579
354.7551, 3.865662
355.2372, 3.997093
355.7193, 4.204971
356.2014, 4.253769
356.6835, 3.884666
357.1656, 3.518074
357.6478, 3.562721
358.1299, 3.998825
358.6120, 4.440384
359.0941, 4.598717
359.5762, 4.530846
360.0583, 4.648209
360.5405, 5.138702
361.0226, 5.593483
361.5047, 5.797401
361.9868, 5.842133
362.4689, 5.934532
362.9510, 6.165291
363.4332, 6.488579
363.9153, 6.804543
364.3974, 7.187546
364.8795, 7.423500
365.3616, 7.308006
365.8438, 7.115906
366.3259, 7.152504
366.8080, 7.483719
367.2901, 7.971703
367.7722, 8.476036
368.2543, 9.029503
368.7365, 9.423004
369.2186, 9.549866
369.7007, 9.622177
370.1828, 9.739113
370.6649, 9.911591
371.1470, 10.12521
371.6292, 10.37036
372.1113, 10.64733
372.5934, 10.96019
373.0755, 11.30411
373.5576, 11.68655
374.0397, 12.07448
374.5219, 12.51118
375.0040, 13.09751
375.4861, 13.87904
375.9682, 14.71728
376.4503, 15.29954
376.9324, 15.29305
377.4146, 15.56374
377.8967, 16.25137
378.3788, 17.09319
378.8609, 17.89318
379.3430, 18.62994
379.8251, 19.42246
380.3073, 20.40584
380.7894, 21.60191
381.2715, 22.83126
381.7536, 24.05894
382.2357, 25.36250
382.7178, 26.73051
383.2000, 28.19640
383.6821, 29.83375
384.1642, 31.69489
384.6463, 33.74465
385.1284, 35.83976
385.6105, 37.92898
386.0927, 40.16750
386.5748, 42.68243
387.0569, 45.27943
387.5390, 47.75143
388.0211, 50.07103
388.5032, 52.39309
388.9854, 54.94695
389.4675, 57.76868
389.9496, 60.50618
390.4317, 62.93918
390.9138, 65.44497
391.3959, 68.19299
391.8781, 71.15215
392.3602, 74.23077
392.8423, 77.30434
393.3244, 80.44939
393.8065, 83.98688
394.2886, 87.94953
394.7708, 92.19110
395.2529, 96.58436
395.7350, 101.2441
396.2171, 106.2695
396.6992, 111.6035
397.1813, 117.5120
397.6635, 124.6420
398.1456, 133.0677
398.6277, 141.3052
399.1098, 148.3358
399.5919, 155.4204
400.0740, 163.7810
400.5562, 173.5266
401.0383, 183.9140
401.5204, 194.7398
402.0025, 205.9125
402.4846, 217.4473
402.9667, 229.5538
403.4489, 241.2768
403.9310, 252.2106
404.4131, 262.1296
404.8952, 269.7392
405.3773, 275.2111
405.8594, 277.9858
406.3416, 277.7000
406.8237, 274.3195
407.3058, 267.3746
407.7879, 256.2058
408.2700, 241.7169
408.7521, 226.0035
409.2343, 208.5979
409.7164, 191.4233
410.1985, 174.8345
410.6806, 158.9498
411.1627, 143.9966
411.6448, 129.9815
412.1269, 117.1064
412.6090, 105.6951
413.0912, 95.96705
413.5733, 87.20216
414.0554, 79.53418
414.5375, 72.62989
415.0196, 66.29489
415.5017, 60.52951
415.9839, 55.38925
416.4660, 50.93369
416.9481, 47.08723
417.4302, 43.50024
417.9123, 40.16496
418.3944, 37.11504
418.8766, 34.37862
419.3587, 31.91858
419.8408, 29.73001
420.3229, 27.80666
420.8050, 26.06275
421.2871, 24.38937
421.7693, 22.76414
422.2514, 21.29359
422.7335, 20.02627
423.2156, 18.84984
423.6977, 17.74220
424.1798, 16.68311
424.6620, 15.63998
425.1441, 14.57733
425.6262, 13.53166
426.1083, 12.65932
426.5904, 12.05921
427.0725, 11.44058
427.5547, 10.66647
428.0368, 9.886292
428.5189, 9.252823
429.0010, 8.796997
429.4831, 8.400047
429.9652, 7.948967
430.4474, 7.442619
430.9295, 6.901688
431.4116, 6.243721
431.8937, 5.664246
432.3758, 5.343391
432.8579, 5.192337
433.3401, 4.959206
433.8222, 4.404663
434.3043, 3.781944
434.7864, 3.562881
435.2685, 3.786751
435.7506, 3.948769
436.2328, 3.806137
436.7149, 3.470459
437.1970, 3.130829
437.6791, 2.781219
438.1612, 2.462212
438.6433, 2.197685
439.1255, 1.978165
439.6076, 1.786736
440.0897, 1.620972
440.5718, 1.478203
441.0539, 1.349670
441.5360, 1.239540
442.0182, 1.194946
442.5003, 1.308868
442.9824, 1.402596
443.4645, 1.344452
443.9466, 1.173904
444.4287, 1.005653
444.9109, 0.8914260
445.3930, 0.8311770
445.8751, 0.8221130
446.3572, 0.8986210
446.8393, 0.9543990
447.3214, 1.019020
447.8036, 1.061531
448.2857, 1.030647
448.7678, 0.9280170
449.2499, 0.8080670
449.7320, 0.7219920
450.2141, 0.6672740
450.6963, 0.6302950
451.1784, 0.6391450
451.6605, 0.6176220
452.1426, 0.5453870
452.6247, 0.4514850
453.1068, 0.3653950
453.5890, 0.3009570
454.0711, 0.2645650
454.5532, 0.2497250
455.0353, 0.2239990
455.5174, 0.2754290
455.9995, 0.5400470
456.4817, 0.7835310
456.9638, 0.8760990
457.4459, 0.8330380
457.9280, 0.7503810
458.4101, 0.6540760
458.8922, 0.5710450
459.3744, 0.6213910
459.8565, 0.8694150
460.3386, 1.054558
460.8207, 0.9124600
461.3028, 0.6867680
461.7849, 0.7007520
462.2671, 1.064690
462.7492, 1.426926
463.2313, 1.532761
463.7134, 1.433769
464.1955, 1.265663
464.6776, 1.030556
465.1598, 0.8217240
465.6419, 0.7226560
466.1240, 0.7308040
466.6061, 0.8296660
467.0882, 1.142937
467.5703, 1.441772
468.0525, 1.555252
468.5346, 1.517082
469.0167, 1.441635
469.4988, 1.374390
469.9809, 1.312637
470.4630, 1.244629
470.9452, 1.120041
471.4273, 1.088371
471.9094, 1.250877
472.3915, 1.438698
472.8736, 1.500046
473.3557, 1.438866
473.8379, 1.378815
474.3200, 1.438019
474.8021, 1.599236
475.2842, 1.593132
475.7663, 1.157639
476.2484, 0.8804170
476.7306, 0.9636310
477.2127, 1.196671
477.6948, 1.356155
478.1769, 1.381638
478.6590, 1.369446
479.1411, 1.410194
479.6233, 1.498039
480.1054, 1.717163
480.5875, 2.364090
481.0696, 2.783058
481.5517, 2.483253
482.0338, 1.759109
482.5159, 1.211884
482.9980, 1.123871
483.4802, 1.283485
483.9623, 1.446114
484.4444, 1.613136
484.9265, 1.698463
485.4086, 1.650795
485.8907, 1.533562
486.3729, 1.435913
486.8550, 1.359749
487.3371, 1.236420
487.8192, 0.9541630
488.3013, 0.6626590
488.7834, 0.5659260
489.2656, 0.6670530
489.7477, 0.7922590
490.2298, 0.8320620
490.7119, 0.7988430
491.1940, 0.7697530
491.6761, 0.8096010
492.1583, 0.7727660
492.6404, 0.5339660
493.1225, 0.2534790
493.6046, 0.1332400
494.0867, 0.2007450
494.5688, 0.3111720
495.0510, 0.3079990
495.5331, 0.1810610
496.0152, 7.9329997E-02
496.4973, 1.2749000E-02
496.9794, 3.8093999E-02
497.4615, 6.9770999E-02
497.9437, 9.1216996E-02
498.4258, 0.1152650
498.9079, 0.1468430
499.3900, 0.1731760
499.8721, 0.1650850
500.3542, 0.1131290
500.8364, 9.9220000E-02
501.3185, 0.1551700
501.8006, 0.2260700
502.2827, 0.3056870
502.7648, 0.3759270
503.2469, 0.3892100
503.7291, 0.2780040
504.2112, 0.1463890
504.6933, 0.1541980
505.1754, 0.2962950
505.6575, 0.4372750
506.1396, 0.5447080
506.6218, 0.6090160
507.1039, 0.6184350
507.5860, 0.5780640
508.0681, 0.4901050
508.5502, 0.2771450
509.0323, 6.3885003E-02
509.5145, 1.9691000E-02
509.9966, 2.2961000E-02
510.4787, 0.1352540
510.9608, 0.2983440
511.4429, 0.4781570
511.9250, 0.5312460
512.4072, 0.3923720
512.8893, 0.2119940
513.3714, 8.2695000E-02
513.8535, 0.3617780
514.3356, 0.4956320
514.8177, 0.4824490
515.2999, 0.4274100
515.7820, 0.4306950
516.2641, 0.4837990
516.7462, 0.4671330
517.2283, 0.2454870
517.7104, 0.1256220
518.1926, 0.2665060
518.6747, 0.5031280
519.1568, 0.6573140
519.6389, 0.6874580
520.1210, 0.6987190
520.6031, 0.8459320
521.0853, 1.087265
521.5674, 1.105602
522.0495, 0.7683330
522.5316, 0.4659230
523.0137, 0.5581550
523.4958, 0.8625030
523.9780, 1.029831
524.4601, 0.9699900
524.9422, 0.8242760
525.4243, 0.6077540
525.9064, 0.3805310
526.3885, 0.3195950
526.8707, 0.4819760
527.3528, 0.6849060
527.8349, 0.7246590
528.3170, 0.5761680
528.7991, 0.4785120
529.2813, 0.4532200
529.7634, 0.4395220
530.2455, 0.4126740
530.7276, 0.3912660
531.2097, 0.4043580
531.6918, 0.4628600
532.1740, 0.5475350
532.6561, 0.6386600
533.1382, 0.7606010
533.6203, 0.8039210
534.1024, 0.7354660
534.5845, 0.6160350
535.0667, 0.3796840
535.5488, 0.1198270
536.0309, 1.5850000E-02
536.5130, 0.1698000
536.9951, 0.4427570
537.4772, 0.6700480
537.9594, 0.8539350
538.4415, 0.8625640
538.9236, 0.5409810
539.4057, 0.2068020
539.8878, 0.1967240
540.3699, 0.4531750
540.8521, 0.6658480
541.3342, 0.7388990
541.8163, 0.7290610
542.2984, 0.6309240
542.7805, 0.4786150
543.2626, 0.3956910
543.7448, 0.4358750
544.2269, 0.5591090
544.7090, 0.7117310
545.1911, 0.9571800
545.6732, 1.047813
546.1553, 0.8414690
546.6375, 0.6154590
547.1196, 0.4764060
547.6017, 0.4482380
548.0838, 0.5663800
548.5659, 0.8566930
549.0480, 1.242279
549.5302, 1.563820
550.0123, 1.831333
550.4944, 2.000198
550.9765, 2.011002
551.4586, 1.961365
551.9407, 1.828579
552.4229, 1.668118
552.9050, 1.641327
553.3871, 1.935795
553.8692, 2.292583
554.3513, 2.230556
554.8334, 1.759293
555.3156, 1.442616
555.7977, 1.517365
556.2798, 1.742035
556.7619, 1.790421
557.2440, 1.669102
557.7261, 1.554344
558.2083, 1.493076
558.6904, 1.441132
559.1725, 1.356880
559.6546, 1.248295
560.1367, 1.146015
560.6188, 1.066734
561.1010, 1.000648
561.5831, 0.9291460
562.0652, 0.8445090
562.5473, 0.7670060
563.0294, 0.6900830
563.5115, 0.6090740
563.9937, 0.4803280
564.4758, 0.3545720
564.9579, 0.3629260
565.4400, 0.6018070
565.9221, 0.8970950
566.4042, 0.8714070
566.8864, 0.4638790
567.3685, 0.2380490
567.8506, 0.4029810
568.3327, 0.6277540
568.8148, 0.6117130
569.2969, 0.4260830
569.7791, 0.3557360
570.2612, 0.6846310
570.7433, 1.016838
571.2254, 0.9243350
571.7075, 0.5126840
572.1896, 0.2013930
572.6718, 0.1377530
573.1539, 0.1703260
573.6360, 8.6043999E-02
574.1181, 0.1690140
574.6002, 0.2585070
575.0823, 7.0750996E-02
575.5645, 0.1453700
576.0466, 0.3323440
576.5287, 0.4724120
577.0108, 0.5250970
577.4929, 0.4796490
577.9750, 0.4241600
578.4572, 0.5401310
578.9393, 0.8875850
579.4214, 0.9805910
579.9035, 0.5448800
580.3856, 0.1939350
580.8677, 0.3352430
581.3499, 0.6980090
581.8320, 0.8145900
582.3141, 0.4821320
582.7962, 0.1077190
583.2783, 0.1278110
583.7604, 0.4007490
584.2426, 0.4548110
584.7247, 0.1873320
585.2068, 0.1265220
585.6889, 0.2770350
586.1710, 0.2712100
586.6531, 0.2078250
587.1352, 6.3617997E-02
587.6173, 0.1071470
588.0994, 0.3619000
588.5815, 0.5966450
589.0637, 0.6637000
589.5458, 0.5555270
590.0279, 0.4179040
590.5100, 0.3966260
590.9921, 0.4756430
591.4742, 0.4619480
591.9564, 0.2808610
592.4385, 0.1287080
592.9206, 2.4483001E-02
593.4027, 2.9448999E-02
593.8848, 1.7900000E-04
594.3669, 0.1218110
594.8491, 0.2605480
595.3312, 0.3905680
595.8133, 0.4844670
596.2954, 0.4684910
596.7775, 0.3353610
597.2596, 0.1761320
597.7418, 3.4830000E-03
598.2239, 0.1056670
598.7060, 4.1779000E-02
599.1881, 0.5494350
599.6702, 0.8469510
600.1523, 0.6592140
600.6345, 0.3886570
601.1166, 0.3484270
601.5987, 0.4893950
602.0808, 0.6072960
602.5629, 0.5941770
603.0450, 0.4902610
603.5272, 0.3560030
604.0093, 0.1273230
604.4914, 5.5061001E-02
604.9735, 0.3174820
605.4556, 0.5819740
605.9377, 0.7124100
606.4199, 0.7413670
606.9020, 0.7404980
607.3841, 0.7264600
607.8662, 0.7151300
608.3483, 0.7288740
608.8304, 0.7616350
609.3126, 0.7698020
609.7947, 0.7300340
610.2768, 0.7458920
610.7589, 0.9782070
611.2410, 1.380154
611.7231, 1.473511
612.2053, 0.9185980
612.6874, 0.4888530
613.1695, 0.5197110
613.6516, 0.7370000
614.1337, 0.8251500
614.6158, 0.7356030
615.0980, 0.6102260
615.5801, 0.5652280
616.0622, 0.5998840
616.5443, 0.7264940
617.0264, 1.041615
617.5085, 1.244534
617.9907, 1.169441
618.4728, 0.7876210
618.9549, 1.174942
619.4370, 1.417458
619.9191, 1.522850
620.4012, 1.080212
620.8834, 1.345024
621.3655, 1.326294
621.8476, 1.295685
622.3297, 1.658894
622.8118, 1.295738
623.2939, 1.655369
623.7761, 1.727379
624.2582, 1.931255
624.7403, 1.849960
625.2224, 1.855431
625.7045, 2.147694
626.1866, 2.282143
626.6688, 2.168468
627.1509, 2.070023
627.6330, 2.008877
628.1151, 1.890137
628.5972, 1.800144
629.0793, 1.738731
629.5615, 1.778503
630.0436, 1.992889
630.5257, 2.161205
631.0078, 2.075905
631.4899, 1.925777
631.9720, 1.958332
632.4542, 2.252827
632.9363, 2.508015
633.4184, 2.503853
633.9005, 2.393009
634.3826, 2.363644
634.8647, 2.429302
635.3469, 2.597488
635.8290, 2.894127
636.3111, 3.265839
636.7932, 3.571564
637.2753, 3.797142
637.7574, 3.986134
638.2396, 4.091022
638.7217, 4.197750
639.2038, 4.297119
639.6859, 4.443977
640.1680, 4.733707
640.6501, 5.212173
641.1323, 5.811760
641.6144, 6.502430
642.0965, 7.261940
642.5786, 7.887512
643.0607, 8.300667
643.5428, 8.688469
644.0250, 9.173706
644.5071, 9.763599
644.9892, 10.43433
645.4713, 11.18724
645.9534, 11.99976
646.4355, 12.87781
646.9177, 13.80231
647.3998, 14.78503
647.8819, 15.80629
648.3640, 16.78909
648.8461, 17.67146
649.3282, 18.52188
649.8104, 19.54504
650.2925, 20.80971
650.7746, 22.03769
651.2567, 23.12968
651.7388, 24.25998
652.2209, 25.48916
652.7031, 26.83435
653.1852, 28.33705
653.6673, 30.04103
654.1494, 31.85977
654.6315, 33.72267
655.1136, 35.63892
655.5958, 37.59748
656.0779, 39.58956
656.5600, 41.76522
657.0421, 44.25235
657.5242, 47.01257
658.0063, 49.73118
658.4885, 52.25652
658.9706, 54.95606
659.4527, 58.05255
659.9348, 61.15382
660.4169, 64.07140
660.8990, 66.74519
661.3812, 69.14455
661.8633, 71.27071
662.3454, 73.04652
662.8275, 74.31558
663.3096, 75.08553
663.7917, 75.46676
664.2739, 75.51778
664.7560, 75.09402
665.2381, 74.03895
665.7202, 72.35567
666.2023, 70.28729
666.6844, 67.60552
667.1666, 64.83394
667.6487, 62.11264
668.1308, 59.40086
668.6129, 56.66026
669.0950, 53.88227
669.5771, 51.05449
670.0593, 48.14330
670.5414, 45.21753
671.0235, 42.45896
671.5056, 39.84991
671.9877, 37.42312
672.4698, 35.23185
672.9520, 33.17005
673.4341, 31.16662
673.9162, 29.21155
674.3983, 27.29085
674.8804, 25.36316
675.3625, 23.50467
675.8447, 21.72741
676.3268, 20.06151
676.8089, 18.59560
677.2910, 17.33216
677.7731, 16.19504
678.2552, 15.12859
678.7374, 14.12457
679.2195, 13.14059
679.7016, 12.20087
680.1837, 11.23698
680.6658, 10.14008
681.1479, 9.107880
681.6301, 8.301407
682.1122, 7.665955
682.5943, 7.010475
683.0764, 6.212997
683.5585, 5.447647
684.0406, 4.970394
684.5228, 4.686947
685.0049, 4.274567
685.4870, 3.665966
685.9691, 3.053108
686.4512, 2.595737
686.9333, 2.267612
687.4155, 1.922894
687.8976, 1.499691
688.3797, 1.146534
688.8618, 0.8736270
689.3439, 0.6701470
689.8260, 0.5928610
690.3082, 0.5792960
690.7903, 0.4589770
691.2724, 0.1170430
691.7545, 0.2666970
692.2366, 0.4086800
692.7188, 0.3389550
693.2009, 0.3062480
693.6830, 0.3498610
694.1651, 0.4223060
694.6472, 0.5111200
695.1293, 0.5987890
695.6115, 0.6119420
696.0936, 0.5122800
696.5757, 0.4145510
697.0578, 0.3300670
697.5399, 0.2591930
698.0220, 0.1959080
698.5042, 0.1466830
698.9863, 0.1384430
699.4684, 0.1885380
699.9505, 0.2427180
700.4326, 0.2027590
700.9147, 6.9279000E-02
701.3969, 4.8583999E-02
701.8790, 0.1339530
702.3611, 0.2257730
702.8432, 0.3627620
703.3253, 0.5160600
703.8074, 0.6143680
704.2896, 0.6265750
704.7717, 0.6746370
705.2538, 0.8254550
705.7359, 0.9962540
706.2180, 1.133480
706.7001, 1.231846
707.1823, 1.262070
707.6644, 1.212433
708.1465, 1.198338
708.6286, 1.460674
709.1107, 2.025536
709.5928, 2.337837
710.0750, 2.329308
710.5571, 2.200565
711.0392, 1.892929
711.5213, 1.596569
712.0034, 1.596104
712.4855, 1.943611
712.9677, 2.240971
713.4498, 2.351337
713.9319, 2.370823
714.4140, 2.350952
714.8961, 2.306614
715.3782, 2.263325
715.8604, 2.229103
716.3425, 2.177216
716.8246, 2.071873
717.3067, 1.913700
717.7888, 1.749378
718.2709, 1.533188
718.7531, 1.411808
719.2352, 1.541019
719.7173, 1.706276
720.1994, 1.692081
720.6815, 1.506573
721.1636, 1.358940
721.6458, 1.358147
722.1279, 1.378292
722.6100, 1.354630
723.0921, 1.278370
723.5742, 1.095074
724.0563, 0.8110920
724.5385, 0.5752940
725.0206, 0.5327220
725.5027, 0.6519700
725.9848, 0.7560390
726.4669, 0.8811110
726.9490, 0.8915100
727.4312, 0.5974120
727.9132, 0.3387450
728.3953, 0.4058040
728.8774, 0.7009390
729.3596, 0.8940810
729.8417, 0.8717650
730.3238, 0.7750820
730.8059, 0.6424480
731.2880, 0.5120930
731.7701, 0.4220200
732.2523, 0.3877140
732.7344, 0.4570120
733.2165, 0.6721340
733.6986, 0.9679220
734.1807, 1.158752
734.6628, 1.187901
735.1450, 1.334042
735.6271, 1.712833
736.1092, 2.082260
736.5913, 2.286118
737.0734, 2.413628
737.5555, 2.596977
738.0377, 2.850697
738.5198, 3.183723
739.0019, 3.620686
739.4840, 4.122082
739.9661, 4.687496
740.4482, 5.279995
740.9304, 5.789440
741.4125, 6.167484
741.8946, 6.526512
742.3767, 7.046112
742.8588, 7.736439
743.3409, 8.329506
743.8231, 8.726871
744.3052, 9.223774
744.7873, 9.971828
745.2694, 10.83996
745.7515, 11.69374
746.2336, 12.53484
746.7158, 13.47876
747.1979, 14.61306
747.6800, 15.82046
748.1621, 17.04331
748.6442, 18.27327
749.1263, 19.51797
749.6085, 20.74890
750.0906, 21.89558
750.5727, 22.86186
751.0548, 23.75126
751.5369, 25.02415
752.0190, 26.79179
752.5012, 28.43927
752.9833, 29.67040
753.4654, 31.00550
753.9475, 33.01485
754.4296, 35.42662
754.9117, 37.52491
755.3939, 38.91784
755.8760, 40.57337
756.3581, 42.97086
756.8402, 45.68988
757.3223, 48.47076
757.8044, 51.20288
758.2866, 53.71841
758.7687, 55.93049
759.2508, 58.13358
759.7329, 60.88712
760.2150, 64.17263
760.6971, 67.18505
761.1793, 69.84949
761.6614, 72.39221
762.1435, 75.01808
762.6256, 77.48249
763.1077, 79.38189
763.5898, 80.73881
764.0720, 81.63357
764.5541, 82.06660
765.0362, 82.04598
765.5183, 81.61111
766.0004, 80.70589
766.4825, 79.23483
766.9647, 77.20233
767.4468, 74.68659
767.9289, 71.70775
768.4110, 68.37634
768.8931, 64.90307
769.3752, 61.30386
769.8574, 57.66486
770.3395, 53.94454
770.8216, 50.32815
771.3037, 46.94468
771.7858, 43.77914
772.2679, 40.71930
772.7501, 37.64633
773.2322, 34.80062
773.7143, 32.19477
774.1964, 29.81784
774.6785, 27.72478
775.1606, 25.85061
775.6428, 24.10855
776.1249, 22.46959
776.6070, 20.89943
777.0891, 19.28828
777.5712, 17.74782
778.0533, 16.58987
778.5355, 15.80270
779.0176, 14.96358
779.4997, 13.87205
779.9818, 12.75295
780.4639, 11.94017
780.9460, 11.46374
781.4282, 10.99761
781.9103, 10.55062
782.3924, 10.10676
782.8745, 9.671928
783.3566, 9.218342
783.8387, 8.690697
784.3209, 8.121418
784.8030, 7.654354
785.2851, 7.403900
785.7672, 7.202148
786.2493, 6.933601
786.7314, 6.610905
787.2136, 6.207096
787.6957, 5.747257
788.1778, 5.409851
788.6599, 5.324833
789.1420, 5.363605
789.6241, 5.199444
790.1063, 4.768833
790.5884, 4.503689
791.0705, 4.535633
791.5526, 4.532742
792.0347, 4.284328
792.5168, 3.925961
792.9990, 3.631779
793.4811, 3.407433
793.9632, 3.271172
794.4453, 3.350014
794.9274, 3.392849
795.4095, 3.179134
795.8917, 2.861725
796.3738, 2.693531
796.8559, 2.705547
797.3380, 2.714222
797.8201, 2.568165
798.3022, 2.329300
798.7844, 2.140625
799.2665, 2.001896
799.7486, 1.861610
800.2307, 1.693588
800.7128, 1.594097
801.1949, 1.667652
801.6771, 1.854481
802.1592, 1.925060
802.6413, 1.854069
803.1234, 1.703259
803.6055, 1.322315
804.0876, 1.019035
804.5698, 1.026436
805.0519, 1.180187
805.5340, 1.212490
806.0161, 1.068394
806.4982, 0.8990140
806.9803, 0.8205680
807.4625, 0.7984160
807.9446, 0.7979970
808.4267, 0.8078690
808.9088, 0.7846870
809.3909, 0.7169880
809.8730, 0.6494520
810.3552, 0.6228830
810.8373, 0.6360970
811.3194, 0.6862340
811.8015, 0.7953070
812.2836, 0.8821070
812.7657, 0.9647750
813.2479, 0.9848590
813.7300, 0.8627590
814.2121, 0.6659470
814.6942, 0.5465580
815.1763, 0.5234030
815.6584, 0.4790500
816.1406, 0.3811260
816.6227, 0.2890090
817.1048, 0.2598530
817.5869, 0.2741930
818.0690, 0.3057710
818.5511, 0.3624800
819.0333, 0.4199370
819.5154, 0.4748460
819.9975, 0.4997290
820.4796, 0.3544120
820.9617, 4.0672000E-02
821.4438, 0.1206250
821.9260, 6.8020001E-02
822.4081, 4.5077998E-02
822.8902, 8.0292001E-02
823.3723, 6.7878999E-02
823.8544, 3.6316000E-02
824.3365, 8.1180997E-02
824.8187, 6.6582002E-02
825.3008, 0.2531170
825.7829, 0.5245550
826.2650, 0.4521030
826.7471, 0.2029300
827.2292, 3.2612000E-02
827.7114, 7.6710000E-03
828.1935, 5.1105000E-02
828.6756, 0.1973570
829.1577, 0.3231960
829.6398, 0.2375910
830.1219, 2.5269000E-02
830.6041, 6.8562001E-02
831.0862, 1.0433000E-02
831.5683, 0.1201550
832.0504, 0.1340370
832.5325, 7.9829998E-02
833.0146, 5.1250000E-02
833.4968, 4.6505000E-02
833.9789, 2.5382999E-02
834.4610, 3.2818001E-02
834.9431, 7.1964003E-02
835.4252, 5.0106000E-02
835.9073, 1.8009000E-02
836.3895, 0.1017110
836.8716, 0.2437360
837.3537, 0.2963640
837.8358, 0.1933590
838.3179, 5.7358000E-02
838.8000, 0.1033440
839.2822, 0.2365990
839.7643, 0.2896920
840.2464, 0.2498280
840.7285, 0.1151540
841.2106, 0.2427710
841.6927, 0.5759050
842.1749, 0.4950370
842.6570, 0.1537740
843.1391, 3.7085999E-02
843.6212, 9.6969996E-03
844.1033, 8.7246001E-02
844.5854, 0.1585810
845.0676, 0.1977500
845.5497, 0.1678500
846.0318, 4.0047001E-02
846.5139, 3.0933000E-02
846.9960, 0.2343710
847.4781, 0.3765600
847.9603, 0.2807080
848.4424, 8.1936002E-02
848.9245, 1.8375000E-02
849.4066, 1.5636001E-02
849.8887, 2.2280000E-03
850.3708, 3.3679999E-02
850.8530, 7.0652001E-02
851.3351, 0.1364400
851.8172, 0.1855660
852.2993, 0.1533280
852.7814, 5.9657998E-02
853.2635, 1.6768999E-02
853.7457, 4.3171000E-02
854.2278, 1.7235000E-02
854.7099, 0.1119270
855.1920, 0.2738380
855.6741, 0.2749820
856.1563, 0.1331830
856.6384, 5.3047001E-02
857.1205, 0.1311420
857.6026, 0.2566410
858.0847, 0.2643240
858.5668, 0.1697160
859.0490, 0.1465380
859.5311, 0.2342380
860.0132, 0.2952120
860.4953, 0.2731590
860.9774, 0.2513390
861.4595, 0.3488310
861.9417, 0.5087970
862.4238, 0.4877430
862.9059, 0.1038170
863.3880, 0.1291280
863.8701, 9.8150000E-03
864.3522, 0.1770630
864.8344, 0.2577740
865.3165, 0.2797700
865.7986, 0.3611450
866.2807, 0.5195540
866.7628, 0.6269800
867.2449, 0.5468030
867.7271, 0.3941150
868.2092, 0.3215100
868.6913, 0.3043710
869.1733, 0.2676050
869.6555, 0.1979480
870.1376, 0.1431620
870.6197, 0.1440240
871.1018, 0.1610370
871.5839, 5.8495000E-02
872.0660, 0.1998560
872.5482, 0.1970600
873.0303, 0.2286220
873.5124, 0.4934770
873.9945, 0.2233700
874.4766, 0.2232320
874.9587, 0.3086280
875.4409, 1.1631000E-02
875.9230, 0.2184870
876.4051, 0.2731060
876.8872, 0.2631300
877.3693, 0.1413800
877.8514, 1.8383000E-02
878.3336, 6.2599999E-04
878.8157, 0.2703210
879.2978, 7.6553002E-02
879.7799, 0.2794040
880.2620, 0.3488350
880.7441, 0.1317520
881.2263, 9.4296001E-02
881.7084, 3.8677000E-02
882.1905, 2.7065000E-02
882.6726, 0.3018800
883.1547, 9.8678999E-02
883.6368, 0.2195210
884.1190, 0.2491040
884.6011, 0.4102440
885.0832, 0.2859460
885.5653, 0.2495420
886.0474, 0.4983710
886.5295, 0.5890240
887.0117, 0.4311900
887.4938, 0.5997120
887.9759, 0.2410890
888.4580, 0.2502140
888.9401, 0.4573630
889.4222, 0.5429460
889.9044, 0.3398740
890.3865, 0.2370610
890.8686, 0.4485470
891.3507, 0.7080650
891.8328, 0.7580680
892.3149, 0.6272280
892.7971, 0.5403860
893.2792, 0.6125560
893.7613, 0.6445200
894.2434, 0.5069350
894.7255, 0.3274120
895.2076, 0.2037090
895.6898, 0.1387630
896.1719, 0.1136890
896.6540, 0.1196520
897.1361, 0.1511880
897.6182, 0.2171860
898.1003, 0.3183020
898.5825, 0.5025250
899.0646, 0.7195210
899.5467, 0.7575340
900.0288, 0.5811960
900.5109, 0.3856430
900.9930, 0.3112260
901.4752, 0.3232770
901.9573, 0.3394010
902.4394, 0.3597830
902.9215, 0.3848270
903.4036, 0.4278490
903.8857, 0.4304580
904.3679, 0.3295290
904.8500, 0.2258070
905.3321, 0.2560580
905.8142, 0.4202460
906.2963, 0.5467110
906.7784, 0.6570740
907.2606, 0.6984140
907.7427, 0.5986440
908.2248, 0.4942630
908.7069, 0.4484250
909.1890, 0.4670940
909.6711, 0.5798990
910.1533, 0.8052830
910.6354, 0.9534380
911.1175, 0.8581850
911.5996, 0.4511950
912.0817, 0.7528500
912.5638, 0.9127580
913.0460, 0.9353830
913.5281, 0.4106250
914.0102, 0.5925060
914.4923, 0.4895710
914.9744, 0.3758470
915.4565, 0.6568830
915.9387, 0.2103650
916.4208, 0.4846950
916.9029, 0.4707450
917.3850, 0.5887110
917.8671, 0.4212340
918.3492, 0.3417130
918.8314, 0.5473710
919.3135, 0.4417230
919.7956, 0.5198520
920.2777, 0.5198820
920.7598, 0.5585940
921.2419, 0.6913300
921.7241, 0.7705420
922.2062, 0.6486240
922.6883, 0.4255330
923.1704, 0.3259120
923.6525, 0.3853680
924.1346, 0.4352420
924.6168, 0.4982490
925.0989, 0.5228200
925.5810, 0.4588010
926.0631, 0.3818240
926.5452, 0.3604240
927.0273, 0.3849750
927.5095, 0.4027750
927.9916, 0.3983000
928.4737, 0.3890300
928.9558, 0.3712500
929.4379, 0.3596530
929.9200, 0.3576510
930.4022, 0.3778040
930.8843, 0.4534450
931.3664, 0.5557560
931.8485, 0.6018070
932.3306, 0.4855960
932.8127, 0.3340030
933.2949, 0.3573800
933.7770, 0.4745250
934.2591, 0.4625930
934.7412, 0.3279380
935.2233, 0.3266490
935.7054, 0.5840570
936.1876, 0.8502690
936.6697, 0.7283360
937.1518, 0.3254510
937.6339, 0.1442720
938.1160, 0.2030560
938.5981, 0.2114600
939.0803, 0.1341060
939.5624, 5.7296999E-02
940.0445, 5.1387999E-02
940.5266, 0.1148070
941.0087, 0.1736110
941.4908, 0.2630810
941.9730, 0.3559880
942.4551, 0.4975590
942.9372, 0.5745010
943.4193, 0.5062870
943.9014, 0.4052160
944.3835, 0.3721010
944.8657, 0.3845140
945.3478, 0.3386000
945.8299, 0.1487430
946.3120, 2.4055000E-02
946.7941, 5.3718999E-02
947.2762, 0.1147310
947.7584, 0.1496700
948.2405, 0.1607360
948.7226, 0.1416320
949.2047, 9.9799998E-02
949.6868, 8.7612003E-02
950.1689, 0.1430020
950.6511, 0.2211570
951.1332, 0.3070910
951.6153, 0.3848420
952.0974, 0.4524690
952.5795, 0.4894290
953.0616, 0.4312930
953.5438, 0.2562260
954.0259, 8.9507997E-02
954.5080, 0.1014400
954.9901, 0.1813740
955.4722, 5.7827000E-02
955.9543, 0.1955800
956.4365, 0.2919770
956.9186, 0.1896590
957.4007, 8.9910002E-03
957.8828, 0.1861310
958.3649, 0.3428150
958.8470, 0.3467860
959.3292, 0.2083820
959.8113, 0.1383290
960.2934, 0.1428600
960.7755, 0.2375180
961.2576, 0.4464150
961.7397, 0.6434670
962.2219, 0.7298050
962.7040, 0.7200850
963.1861, 0.6660840
963.6682, 0.5450130
964.1503, 0.4567950
964.6324, 0.4069060
965.1146, 0.3787040
965.5967, 0.3828510
966.0788, 0.3909110
966.5609, 0.3687250
967.0430, 0.3225400
967.5251, 0.2908210
968.0073, 0.2429660
968.4894, 0.2591210
968.9715, 0.4752040
969.4536, 0.6164860
969.9357, 0.4445800
970.4178, 0.1697240
970.9000, 9.4231002E-02
971.3821, 0.2366180
971.8642, 0.3783530
972.3463, 0.4402280
972.8284, 0.4854160
973.3105, 0.5807150
973.7927, 0.6442410
974.2748, 0.5828590
974.7569, 0.4478030
975.2390, 0.3675730
975.7211, 0.3753550
976.2032, 0.4136240
976.6854, 0.4487650
977.1675, 0.4917830
977.6496, 0.5954440
978.1317, 0.7029720
978.6138, 0.7035520
979.0959, 0.6062510
979.5781, 0.4912340
980.0602, 0.3966330
980.5423, 0.3272060
981.0244, 0.3208270
981.5065, 0.3388210
981.9886, 0.2458270
982.4708, 7.5043000E-02
982.9529, 2.6028000E-02
983.4350, 3.1307001E-02
983.9171, 4.1439001E-02
984.3992, 0.1958310
984.8813, 0.3566320
985.3635, 0.3616750
985.8456, 0.2279130
986.3277, 0.2307320
986.8098, 0.3841360
987.2919, 0.4637790
987.7740, 0.3992460
988.2562, 0.3262630
988.7383, 0.3599930
989.2204, 0.4466900
989.7025, 0.4221800
990.1846, 0.2404210
990.6667, 0.1901860
991.1489, 0.3273160
991.6310, 0.4530870
992.1131, 0.5107500
992.5952, 0.5286870
993.0773, 0.5323870
993.5594, 0.5189170
994.0416, 0.4699290
994.5237, 0.3384250
995.0058, 0.2713700
995.4879, 0.2998850
995.9700, 0.3525580
996.4521, 0.4366950
996.9343, 0.5065690
997.4164, 0.4880600
997.8985, 0.4103090
998.3806, 0.4293790
998.8627, 0.6346240
999.3448, 0.7956390
999.8270, 0.8771740
1000.309, 0.9017680
1000.791, 0.8839190
1001.273, 0.8133930
1001.755, 0.6352690
1002.238, 0.3750650
1002.720, 0.2032470
1003.202, 0.2028500
1003.684, 0.2403450
1004.166, 0.3139720
1004.648, 0.3475460
1005.130, 0.1747470
1005.612, 3.5439000E-02
1006.094, 5.8079001E-02
1006.577, 0.4554710
1007.059, 0.7096480
1007.541, 0.4890170
1008.023, 0.2400670
1008.505, 0.4029730
1008.987, 0.6486280
1009.469, 0.5230640
1009.951, 0.1678310
1010.433, 4.6989001E-02
1010.916, 2.3937000E-02
1011.398, 0.1070100
1011.880, 0.3078840
1012.362, 0.4667470
1012.844, 0.3715290
1013.326, 0.1679650
1013.808, 0.1344570
1014.290, 0.2569850
1014.773, 0.4015240
1015.255, 0.5120350
1015.737, 0.5570140
1016.219, 0.5043070
1016.701, 0.3701630
1017.183, 0.1157840
1017.665, 0.1895520
1018.147, 0.2742000
1018.629, 0.1391790
1019.112, 1.9428000E-02
1019.594, 0.1176260
1020.076, 0.1819080
1020.558, 0.2362100
1021.040, 0.2792850
1021.522, 0.3009410
1022.004, 0.3051530
1022.486, 0.3469050
1022.969, 0.4306720
1023.451, 0.4369740
1023.933, 0.3080290
1024.415, 0.1258810
1024.897, 3.0586001E-02
1025.379, 0.1431770
1025.861, 9.2880003E-02
1026.343, 0.1322780
1026.825, 0.2858120
1027.308, 0.3395200
1027.790, 0.3301010
1028.272, 0.2683220
1028.754, 0.1646040
1029.236, 1.0986000E-02
1029.718, 0.1664580
1030.200, 0.1337130
1030.682, 0.1768150
1031.165, 0.3700410
1031.647, 0.3792190
1032.129, 0.3607250
1032.611, 0.3910220
1033.093, 0.4217640
1033.575, 0.3869400
1034.057, 0.2909510
1034.539, 0.1906170
1035.021, 5.6671001E-02
1035.504, 1.5450000E-03
1035.986, 7.7537999E-02
1036.468, 0.1507800
1036.950, 0.1745760
1037.432, 0.1465420
1037.914, 3.9963000E-02
1038.396, 0.1376420
1038.878, 0.2204130
1039.360, 0.1503520
1039.843, 0.1003880
1040.325, 0.1306340
1040.807, 0.1136780
1041.289, 9.2041001E-02
1041.771, 0.3179890
1042.253, 0.3059390
1042.735, 7.2673999E-02
1043.217, 4.3449998E-03
1043.700, 0.2305870
1044.182, 0.3757020
1044.664, 0.3413540
1045.146, 0.3083760
1045.628, 0.4002570
1046.110, 0.4982030
1046.592, 0.4386520
1047.074, 0.2407570
1047.557, 0.1099090
1048.039, 6.1291002E-02
1048.521, 8.1138998E-02
1049.003, 0.2629780
1049.485, 0.4013790
1049.967, 0.2759400
1050.449, 0.1496660
1050.931, 0.4284130
1051.413, 1.020752
1051.896, 1.286068
1052.378, 0.9002110
1052.860, 0.6427760
1053.342, 0.7760160
1053.824, 0.9289700
1054.306, 0.9195900
1054.788, 0.8440700
1055.270, 0.8263590
1055.752, 0.8499950
1056.235, 0.7873920
1056.717, 0.5380970
1057.199, 0.3979910
1057.681, 0.5311990
1058.163, 0.6894130
1058.645, 0.6276050
1059.127, 0.6197150
1059.609, 1.179611
1060.092, 2.063513
1060.574, 2.321907
1061.056, 1.540405
1061.538, 0.8722570
1062.020, 0.7668360
1062.502, 0.7843890
1062.984, 0.6942600
1063.466, 0.6143910
1063.948, 0.7533090
1064.431, 1.014025
1064.913, 1.084393
1065.395, 0.8565860
1065.877, 0.6494750
1066.359, 0.6053500
1066.841, 0.5896190
1067.323, 0.5515120
1067.805, 0.4914460
1068.287, 0.3877490
1068.770, 0.2696840
1069.252, 0.1994250
1069.734, 0.1915130
1070.216, 0.1929510
1070.698, 0.1921920
1071.180, 0.1819800
1071.662, 0.1313530
1072.144, 9.3199000E-02
1072.627, 0.1644420
1073.109, 0.2701590
1073.591, 0.2222120
1074.073, 1.4107000E-02
1074.555, 0.1665780
1075.037, 2.4716999E-02
1075.519, 9.9165000E-02
1076.001, 2.3623001E-02
1076.484, 0.1419240
1076.966, 2.9417001E-02
1077.448, 0.3196830
1077.930, 0.3984780
1078.412, 0.2265990
1078.894, 8.1547000E-02
1079.376, 6.9977000E-02
1079.858, 0.1202580
1080.340, 0.2806490
1080.823, 0.4073600
1081.305, 0.3168180
1081.787, 0.1551570
1082.269, 0.1895350
1082.751, 0.4064870
1083.233, 0.4916040
1083.715, 0.2569220
1084.197, 6.6684999E-02
1084.679, 0.1013110
1085.161, 0.2222750
1085.644, 0.3924260
1086.126, 0.5524430
1086.608, 0.6217500
1087.090, 0.6162280
1087.572, 0.6281590
1088.054, 0.7055840
1088.536, 0.7642560
1089.018, 0.7298770
1089.501, 0.7001820
1089.983, 0.7453650
1090.465, 0.8166010
1090.947, 0.8549840
1091.429, 0.8716870
1091.911, 0.9231450
1092.393, 1.032125
1092.875, 1.094698
1093.358, 1.044748
1093.840, 0.9725720
1094.322, 0.8548370
1094.804, 0.7927650
1095.286, 0.9570500
1095.768, 1.215820
1096.250, 1.275093
1096.732, 1.085546
1097.214, 0.9430310
1097.697, 0.9715310
1098.179, 1.020794
1098.661, 1.080082
1099.143, 1.102346
1099.625, 1.006033
1100.107, 0.8713090
1100.589, 0.8332290
1101.071, 0.8932290
1101.553, 0.9136700
1102.036, 0.8061330
1102.518, 0.7497430
1103.000, 0.7613390
1103.482, 0.8711340
1103.964, 1.291534
1104.446, 1.677889
1104.928, 1.498196
1105.410, 0.9042150
1105.893, 0.7181090
1106.375, 1.306751
1106.857, 1.635536
1107.339, 1.330969
1107.821, 0.9720710
1108.303, 0.6581780
1108.785, 0.4807340
1109.267, 0.6347830
1109.750, 0.9582600
1110.232, 1.010157
1110.714, 0.6731000
1111.196, 0.5170120
1111.678, 0.8059330
1112.160, 0.9870380
1112.642, 0.8077180
1113.124, 0.6332240
1113.606, 0.7286070
1114.089, 0.9493350
1114.571, 1.064829
1115.053, 1.067883
1115.535, 1.043760
1116.017, 0.9710390
1116.499, 0.9077590
1116.981, 0.9018400
1117.463, 0.8433270
1117.945, 0.6343350
1118.428, 0.3997210
1118.910, 0.2503320
1119.392, 0.1940710
1119.874, 0.2951430
1120.356, 0.7206760
1120.838, 0.8585400
1121.320, 0.5087050
1121.802, 0.2747750
1122.285, 0.4004800
1122.767, 0.5646590
1123.249, 0.4932170
1123.731, 0.3009910
1124.213, 0.2826840
1124.695, 0.4678360
1125.177, 0.5388790
1125.659, 0.4270610
1126.141, 0.4498480
1126.624, 0.7304550
1127.106, 0.9426770
1127.588, 0.8847960
1128.070, 0.7064420
1128.552, 0.6151050
1129.034, 0.6052490
1129.516, 0.6415060
1129.998, 0.7337930
1130.480, 0.7839390
1130.963, 0.7783160
1131.445, 0.7718770
1131.927, 0.7892360
1132.409, 0.7845920
1132.891, 0.7190340
1133.373, 0.6096290
1133.855, 0.4929710
1134.337, 0.3719710
1134.820, 0.3539870
1135.302, 0.4352210
1135.784, 0.3446220
1136.266, 2.3623001E-02
1136.748, 8.2575001E-02
1137.230, 0.9487970
1137.712, 1.964046
1138.194, 2.114893
1138.677, 1.623379
1139.159, 1.156799
1139.641, 0.7421400
1140.123, 0.5152780
1140.605, 0.4793780
1141.087, 0.5477350
1141.569, 0.6792770
1142.051, 0.8281840
1142.533, 0.9619750
1143.016, 1.067858
1143.498, 1.077280
1143.980, 1.060572
1144.462, 1.226713
1144.944, 1.489573
1145.426, 1.561857
1145.908, 1.421574
1146.390, 1.287731
1146.872, 1.279823
1147.355, 1.333014
1147.837, 1.449169
1148.319, 1.543535
1148.801, 1.462568
1149.283, 1.345673
1149.765, 1.379955
1150.247, 1.547548
1150.729, 1.772528
1151.212, 2.023344
1151.694, 2.167250
1152.176, 2.026134
1152.658, 1.870104
1153.140, 1.845335
1153.622, 1.926010
1154.104, 2.186720
1154.586, 2.476658
1155.068, 2.528275
1155.551, 2.375326
1156.033, 2.312120
1156.515, 2.471224
1156.997, 2.601898
1157.479, 2.525040
1157.961, 2.519821
1158.443, 2.812458
1158.925, 3.150454
1159.407, 3.360329
1159.890, 3.423531
1160.372, 3.258944
1160.854, 2.803017
1161.336, 2.656279
1161.818, 3.174250
1162.300, 3.534983
1162.782, 3.485559
1163.264, 3.463228
1163.747, 3.753227
1164.229, 4.072252
1164.711, 4.053303
1165.193, 3.776316
1165.675, 3.687241
1166.157, 3.840544
1166.639, 4.019049
1167.121, 4.264273
1167.604, 4.399324
1168.086, 4.345518
1168.568, 4.283684
1169.050, 4.370363
1169.532, 4.435862
1170.014, 4.127157
1170.496, 3.509964
1170.978, 3.306726
1171.460, 3.528549
1171.943, 3.667587
1172.425, 3.665810
1172.907, 3.609449
1173.389, 3.529335
1173.871, 3.504276
1174.353, 3.623486
1174.835, 3.777977
1175.317, 3.729984
1175.799, 3.534882
1176.282, 3.362082
1176.764, 3.218708
1177.246, 3.130434
1177.728, 3.079916
1178.210, 2.936232
1178.692, 2.639015
1179.174, 2.347200
1179.656, 2.246466
1180.139, 2.204325
1180.621, 2.032419
1181.103, 1.825296
1181.585, 1.709188
1182.067, 1.676790
1182.549, 1.700296
1183.031, 1.758551
1183.513, 1.799389
1183.995, 1.806187
1184.478, 1.765148
1184.960, 1.596582
1185.442, 1.461155
1185.924, 1.520334
1186.406, 1.620632
1186.888, 1.569626
1187.370, 1.440346
1187.852, 1.438999
1188.334, 1.600954
1188.817, 1.713186
1189.299, 1.676157
1189.781, 1.672466
1190.263, 1.780134
1190.745, 1.870295
1191.227, 1.886774
1191.709, 1.857035
1192.191, 1.807430
1192.674, 1.733200
1193.156, 1.616760
1193.638, 1.452787
1194.120, 1.264639
1194.602, 1.034409
1195.084, 0.8392510
1195.566, 0.6994040
1196.048, 0.5744500
1196.531, 0.4449330
1197.013, 0.3162250
1197.495, 0.1932470
1197.977, 7.9369999E-02
1198.459, 1.0088000E-02
1198.941, 7.6482996E-02
1199.423, 0.1507530
1199.905, 0.2327520
1200.387, 0.3249440
1200.870, 0.4208130
1201.352, 0.4446830
1201.834, 0.3495850
1202.316, 0.1772400
1202.798, 8.4739998E-02
1203.280, 0.3347070
1203.762, 0.3284840
1204.244, 0.2046030
1204.726, 0.3058090
1205.209, 0.5210340
1205.691, 0.3870930
1206.173, 0.1269800
1206.655, 0.4454780
1207.137, 0.2061560
1207.619, 7.0698000E-02
1208.101, 3.1279001E-02
1208.583, 0.1022380
1209.066, 0.2420580
1209.548, 0.3256490
1210.030, 0.2118360
1210.512, 2.0391000E-02
1210.994, 8.5235998E-02
1211.476, 0.4545170
1211.958, 0.5499150
1212.440, 8.2723998E-02
1212.922, 0.3906940
1213.405, 0.9716510
1213.887, 1.305786
1214.369, 0.9999120
1214.851, 0.6975860
1215.333, 1.023537
1215.815, 1.716585
1216.297, 2.121895
1216.779, 2.228424
1217.261, 2.195461
1217.744, 1.954737
1218.226, 1.972706
1218.708, 2.348152
1219.190, 2.696239
1219.672, 2.846813
1220.154, 3.014610
1220.636, 3.390272
1221.118, 3.801182
1221.600, 3.807421
1222.083, 3.518976
1222.565, 3.308558
1223.047, 3.185699
1223.529, 3.158653
1224.011, 3.224436
1224.493, 3.327057
1224.975, 3.452288
1225.457, 3.657110
1225.940, 4.064377
1226.422, 4.413750
1226.904, 4.418118
1227.386, 4.268482
1227.868, 4.101475
1228.350, 3.951492
1228.832, 3.793230
1229.314, 3.707067
1229.797, 3.882370
1230.279, 4.413702
1230.761, 4.745262
1231.243, 4.510279
1231.725, 4.366648
1232.207, 4.560177
1232.689, 4.791451
1233.171, 4.908453
1233.653, 4.985325
1234.135, 5.137180
1234.618, 5.297441
1235.100, 5.193012
1235.582, 4.733135
1236.064, 4.641766
1236.546, 4.980816
1237.028, 5.415298
1237.510, 5.938057
1237.992, 6.160191
1238.475, 5.867855
1238.957, 5.586670
1239.439, 5.889429
1239.921, 6.472481
1240.403, 6.636963
1240.885, 6.551910
1241.367, 6.838390
1241.849, 7.331272
1242.332, 7.411392
1242.814, 7.085127
1243.296, 6.845888
1243.778, 6.869167
1244.260, 6.944595
1244.742, 6.944427
1245.224, 7.039515
1245.706, 7.398006
1246.188, 7.804752
1246.671, 8.010057
1247.153, 8.148272
1247.635, 8.148743
1248.117, 8.028383
1248.599, 8.054234
1249.081, 8.206884
1249.563, 8.327328
1250.045, 8.568552
1250.527, 8.702208
1251.010, 8.489431
1251.492, 8.564171
1251.974, 9.322966
1252.456, 10.09340
1252.938, 10.24164
1253.420, 10.06043
1253.902, 10.23564
1254.384, 10.73332
1254.867, 11.01384
1255.349, 11.08838
1255.831, 11.16215
1256.313, 11.25892
1256.795, 11.37014
1257.277, 11.48124
1257.759, 11.45501
1258.241, 11.17449
1258.724, 10.82957
1259.206, 10.58559
1259.688, 10.46683
1260.170, 10.58977
1260.652, 10.79887
1261.134, 10.90559
1261.616, 10.90089
1262.098, 10.80931
1262.580, 10.64398
1263.063, 10.44135
1263.545, 10.19150
1264.027, 9.961027
1264.509, 9.776550
1264.991, 9.606119
1265.473, 9.523968
1265.955, 9.355112
1266.437, 8.962811
1266.919, 8.455900
1267.402, 7.974316
1267.884, 7.514936
1268.366, 7.053371
1268.848, 6.589035
1269.330, 6.133976
1269.812, 5.698320
1270.294, 4.787870
1270.776, 3.325502
1271.259, 2.579588
1271.741, 3.187557
1272.223, 4.065859
1272.705, 4.142914
1273.187, 3.771637
1273.669, 3.401411
1274.151, 3.000439
1274.633, 2.425198
1275.115, 1.837044
1275.598, 1.648901
1276.080, 1.707809
1276.562, 1.350994
1277.044, 0.4094920
1277.526, 0.2138000
1278.008, 3.4446999E-02
1278.490, 0.2991100
1278.972, 0.3882640
1279.454, 0.4177820
1279.937, 0.4527630
1280.419, 0.4263880
1280.901, 0.1967960
1281.383, 4.5200001E-02
1281.865, 9.2832997E-02
1282.347, 0.3279570
1282.829, 0.6133040
1283.311, 0.7360190
1283.794, 0.7388590
1284.276, 0.3525750
1284.758, 0.2809940
1285.240, 0.2186390
1285.722, 0.1542570
1286.204, 0.0000000E+00
##END=



