##NAMES=Spodumene
##RRUFFID=R050252
##IDEAL CHEMISTRY=LiAlSi_2_O_6_
##LOCALITY=Minas Gerais, Brazil
##OWNER=RRUFF
##SOURCE=Marcus Origlieri
##DESCRIPTION=Pale lavendar cleavage fragment
##STATUS=The identification of this mineral has been confirmed by X-ray diffraction and chemical analysis
##URL=rruff.info/R050252
##MEASURED CHEMISTRY=Li_1.00_Al_1.00_Si_2.00_O_6_
144.5920, 0.0000000E+00
145.0741, 2.000519
145.5563, 4.934570
146.0384, 5.794983
146.5205, 4.132050
147.0026, 2.385712
147.4847, 2.240723
147.9668, 2.859558
148.4490, 3.187592
148.9311, 2.744232
149.4132, 1.830780
149.8953, 1.506104
150.3774, 2.246765
150.8595, 3.006409
151.3417, 3.288452
151.8238, 3.202057
152.3059, 2.977051
152.7880, 2.461487
153.2701, 1.003082
153.7522, 0.6716310
154.2344, 3.966461
154.7165, 6.680084
155.1986, 6.698273
155.6807, 4.526550
156.1628, 2.052704
156.6449, 0.9513550
157.1271, 1.496490
157.6092, 1.817078
158.0913, 2.071686
158.5734, 2.077240
159.0555, 1.547974
159.5376, 0.6244510
160.0198, 0.2768860
160.5019, 0.6402590
160.9840, 0.3344420
161.4661, 5.1879998E-02
161.9482, 0.3131100
162.4303, 0.5945130
162.9125, 0.6070560
163.3946, 0.3220520
163.8767, 5.8104999E-02
164.3588, 0.3151250
164.8409, 0.4588010
165.3230, 0.3966980
165.8052, 5.3100999E-02
166.2873, 0.4962460
166.7694, 1.211212
167.2515, 2.188599
167.7336, 3.063416
168.2157, 3.282806
168.6979, 2.913239
169.1800, 2.666626
169.6621, 2.869415
170.1442, 3.461426
170.6263, 4.321259
171.1084, 5.851715
171.5906, 7.316589
172.0727, 8.058105
172.5548, 8.186127
173.0369, 8.075134
173.5190, 8.409149
174.0011, 9.396210
174.4833, 9.673157
174.9654, 9.276123
175.4475, 9.539307
175.9296, 11.01752
176.4117, 12.90976
176.8938, 14.78299
177.3760, 16.23566
177.8581, 17.17587
178.3402, 18.26810
178.8223, 19.41980
179.3044, 20.72345
179.7865, 22.32742
180.2687, 24.25449
180.7508, 26.33826
181.2329, 28.32990
181.7150, 30.46631
182.1971, 32.04645
182.6792, 32.34091
183.1614, 32.55713
183.6435, 33.96606
184.1256, 36.89343
184.6077, 40.29681
185.0898, 42.15329
185.5719, 40.91196
186.0541, 40.19208
186.5362, 40.91071
187.0183, 41.88373
187.5004, 41.80188
187.9825, 40.19308
188.4646, 37.33701
188.9468, 33.55762
189.4289, 28.32928
189.9110, 23.50281
190.3931, 19.30136
190.8752, 15.79770
191.3573, 13.19821
191.8395, 11.73877
192.3216, 10.96399
192.8037, 9.935760
193.2858, 8.512848
193.7679, 7.332855
194.2500, 6.761932
194.7322, 6.699615
195.2143, 6.844513
195.6964, 7.455872
196.1785, 7.807495
196.6606, 6.779327
197.1427, 4.027618
197.6249, 1.520081
198.1070, 0.9688720
198.5891, 2.304810
199.0712, 3.502869
199.5533, 4.064667
200.0354, 4.151245
200.5176, 3.945251
200.9997, 3.473511
201.4818, 2.567261
201.9639, 0.6083980
202.4460, 2.666901
202.9281, 4.695068
203.4103, 3.664734
203.8924, 1.883698
204.3745, 0.5003050
204.8566, 0.2233890
205.3387, 0.3648070
205.8208, 0.1794430
206.3030, 1.920959
206.7851, 2.847687
207.2672, 2.364960
207.7493, 1.324524
208.2314, 0.1421810
208.7135, 1.032043
209.1957, 2.132263
209.6778, 3.075806
210.1599, 3.977783
210.6420, 4.433533
211.1241, 4.089722
211.6062, 3.572205
212.0884, 3.312164
212.5705, 3.441528
213.0526, 3.879486
213.5347, 4.508850
214.0168, 5.597534
214.4989, 6.456207
214.9811, 6.680237
215.4632, 6.911346
215.9453, 7.848175
216.4274, 9.686371
216.9095, 11.89221
217.3916, 13.49945
217.8737, 14.07779
218.3559, 14.64993
218.8380, 15.10254
219.3201, 15.67633
219.8022, 16.57224
220.2843, 17.85123
220.7664, 19.56003
221.2486, 21.84476
221.7307, 24.89001
222.2128, 28.03363
222.6949, 31.70129
223.1770, 35.29388
223.6591, 37.77103
224.1413, 38.70770
224.6234, 39.10892
225.1055, 40.76743
225.5876, 43.87372
226.0697, 46.51230
226.5518, 48.38055
227.0340, 49.42093
227.5161, 49.39856
227.9982, 48.10477
228.4803, 46.11670
228.9624, 43.95865
229.4445, 41.62976
229.9267, 39.63208
230.4088, 38.59299
230.8909, 38.02612
231.3730, 36.63852
231.8551, 33.81754
232.3372, 30.86035
232.8194, 28.71005
233.3015, 27.34271
233.7836, 27.01291
234.2657, 28.41016
234.7478, 31.03876
235.2299, 33.16623
235.7121, 34.36172
236.1942, 35.39502
236.6763, 36.81027
237.1584, 38.54507
237.6405, 40.41153
238.1227, 42.06891
238.6048, 43.68463
239.0869, 46.22464
239.5690, 50.21411
240.0511, 54.55475
240.5332, 58.63971
241.0154, 62.55994
241.4975, 66.42383
241.9796, 69.86169
242.4617, 73.13571
242.9438, 78.25568
243.4259, 86.68112
243.9081, 95.26025
244.3902, 102.6537
244.8723, 109.2252
245.3544, 115.8400
245.8365, 123.4171
246.3186, 131.6008
246.8008, 137.7751
247.2829, 141.0586
247.7650, 143.0606
248.2471, 144.4421
248.7292, 144.9386
249.2113, 144.0304
249.6935, 141.3031
250.1756, 136.9341
250.6577, 132.1120
251.1398, 126.8757
251.6219, 121.0809
252.1040, 114.3583
252.5862, 107.1854
253.0683, 100.0699
253.5504, 93.27496
254.0325, 86.96075
254.5146, 82.02811
254.9967, 80.29642
255.4789, 77.98764
255.9610, 74.00247
256.4431, 69.24481
256.9252, 64.88760
257.4073, 61.56396
257.8894, 59.09979
258.3716, 56.80603
258.8537, 55.15573
259.3358, 53.03445
259.8179, 49.75839
260.3000, 45.88931
260.7821, 42.42740
261.2643, 39.99304
261.7464, 38.32611
262.2285, 36.56097
262.7106, 34.59134
263.1927, 32.45111
263.6748, 29.58160
264.1570, 26.64136
264.6391, 24.61685
265.1212, 23.91925
265.6033, 24.06873
266.0854, 24.06918
266.5675, 24.00717
267.0497, 23.51352
267.5318, 22.17969
268.0139, 20.66428
268.4960, 19.61478
268.9781, 19.21121
269.4602, 19.23041
269.9424, 19.36591
270.4245, 19.64920
270.9066, 19.99384
271.3887, 19.94781
271.8708, 20.20801
272.3529, 21.72607
272.8351, 24.72089
273.3172, 27.91144
273.7993, 29.61438
274.2814, 29.19855
274.7635, 30.12463
275.2456, 33.62259
275.7278, 37.73227
276.2099, 40.74222
276.6920, 42.47809
277.1741, 43.95105
277.6562, 46.01572
278.1383, 48.77112
278.6205, 51.77695
279.1026, 55.18719
279.5847, 58.76520
280.0668, 62.13147
280.5489, 65.35956
281.0310, 69.21558
281.5132, 74.57205
281.9953, 81.21021
282.4774, 86.70258
282.9595, 89.63660
283.4416, 92.64246
283.9237, 97.50208
284.4059, 104.0231
284.8880, 111.0114
285.3701, 117.8829
285.8522, 124.6315
286.3343, 131.2494
286.8164, 137.1350
287.2986, 143.6245
287.7807, 151.8712
288.2628, 161.5001
288.7449, 170.8677
289.2270, 179.2348
289.7091, 186.9802
290.1913, 195.1942
290.6734, 204.1108
291.1555, 212.7100
291.6376, 220.7396
292.1197, 228.0455
292.6018, 234.5211
293.0840, 240.4589
293.5661, 244.7796
294.0482, 245.7729
294.5303, 243.4927
295.0124, 239.7708
295.4945, 235.8080
295.9767, 230.8768
296.4588, 223.0610
296.9409, 211.3937
297.4230, 198.2627
297.9051, 186.3962
298.3872, 175.5694
298.8694, 163.5465
299.3515, 148.4182
299.8336, 132.0551
300.3157, 117.2662
300.7978, 104.3568
301.2799, 92.57166
301.7621, 81.30890
302.2442, 70.62384
302.7263, 60.77844
303.2084, 51.60077
303.6905, 43.43231
304.1726, 36.61816
304.6548, 31.19836
305.1369, 27.03033
305.6190, 24.87274
306.1011, 23.75256
306.5832, 21.65204
307.0653, 17.76593
307.5475, 13.45880
308.0296, 9.573242
308.5117, 6.140991
308.9938, 3.961914
309.4759, 4.168335
309.9580, 5.409058
310.4402, 5.451904
310.9223, 3.952087
311.4044, 2.054626
311.8865, 0.1835940
312.3686, 1.542114
312.8507, 2.378662
313.3329, 1.647583
313.8150, 0.4863890
314.2971, 0.3281860
314.7792, 1.205811
315.2613, 2.187683
315.7434, 3.026611
316.2256, 3.621399
316.7077, 3.581726
317.1898, 2.589722
317.6719, 1.484619
318.1540, 1.129333
318.6361, 1.367920
319.1183, 1.601501
319.6004, 1.608215
320.0825, 1.481506
320.5646, 1.327271
321.0467, 1.117310
321.5288, 1.040405
322.0110, 1.480469
322.4931, 2.146973
322.9752, 2.384033
323.4573, 1.660278
323.9394, 0.7487180
324.4215, 0.4488530
324.9037, 0.7680050
325.3858, 1.439514
325.8679, 2.709839
326.3500, 4.066284
326.8321, 4.620850
327.3142, 4.077698
327.7964, 3.239624
328.2785, 2.812012
328.7606, 2.673035
329.2427, 1.993225
329.7248, 0.2612920
330.2069, 1.859009
330.6891, 3.328979
331.1712, 4.042114
331.6533, 5.053955
332.1354, 6.851929
332.6175, 9.328613
333.0996, 12.13574
333.5818, 15.09338
334.0639, 18.71753
334.5460, 23.75446
335.0281, 29.97498
335.5102, 36.63965
335.9923, 44.08862
336.4745, 51.64374
336.9566, 58.19727
337.4387, 63.51733
337.9208, 69.13623
338.4029, 76.62653
338.8850, 85.32269
339.3671, 92.99896
339.8492, 98.31824
340.3314, 103.4988
340.8135, 110.1985
341.2956, 118.4047
341.7777, 127.4824
342.2598, 137.0933
342.7419, 147.5187
343.2241, 158.9639
343.7062, 171.0627
344.1883, 184.9489
344.6704, 201.7173
345.1525, 220.7230
345.6346, 240.1689
346.1168, 259.2542
346.5989, 279.1469
347.0810, 301.8115
347.5631, 326.9673
348.0452, 353.3849
348.5273, 380.4203
349.0095, 408.6679
349.4916, 439.9439
349.9737, 474.5543
350.4558, 508.8574
350.9379, 540.1217
351.4200, 567.9990
351.9022, 590.5747
352.3843, 609.6410
352.8664, 621.7739
353.3485, 625.3804
353.8306, 620.0688
354.3127, 603.8865
354.7949, 574.2852
355.2770, 533.1352
355.7591, 488.8260
356.2412, 438.7316
356.7233, 389.4612
357.2054, 341.7378
357.6876, 296.6541
358.1697, 256.4209
358.6518, 221.9354
359.1339, 192.2153
359.6160, 166.1047
360.0981, 143.5865
360.5803, 123.8682
361.0624, 107.3577
361.5445, 93.40826
362.0266, 81.89435
362.5087, 72.63922
362.9908, 64.74225
363.4730, 57.24866
363.9551, 50.14691
364.4372, 44.55481
364.9193, 41.37323
365.4014, 38.75140
365.8835, 35.81897
366.3657, 32.62024
366.8478, 29.45172
367.3299, 26.46814
367.8120, 23.73370
368.2941, 21.63086
368.7762, 20.52838
369.2584, 19.54657
369.7405, 18.46173
370.2226, 17.34094
370.7047, 16.35107
371.1868, 15.63458
371.6689, 15.26294
372.1511, 15.25726
372.6332, 15.59112
373.1153, 16.23523
373.5974, 17.58362
374.0795, 18.94684
374.5616, 19.87347
375.0438, 20.40198
375.5259, 20.80255
376.0080, 21.19806
376.4901, 21.49847
376.9722, 22.58612
377.4543, 25.25635
377.9365, 27.87213
378.4186, 29.80048
378.9007, 31.36755
379.3828, 33.14996
379.8649, 35.44873
380.3470, 38.10272
380.8292, 40.66968
381.3113, 43.24591
381.7934, 45.73645
382.2755, 48.38245
382.7576, 50.71643
383.2397, 52.08484
383.7219, 52.42908
384.2040, 52.57318
384.6861, 53.66638
385.1682, 55.97296
385.6503, 58.48309
386.1324, 60.72345
386.6146, 63.54437
387.0967, 67.62573
387.5788, 72.70575
388.0609, 77.87476
388.5430, 82.53967
389.0251, 86.78741
389.5073, 91.23645
389.9894, 96.81464
390.4715, 100.8785
390.9536, 102.8651
391.4357, 103.0515
391.9178, 101.5698
392.4000, 98.39514
392.8821, 94.01263
393.3642, 89.01385
393.8463, 83.38818
394.3284, 77.11920
394.8105, 69.59192
395.2927, 61.83521
395.7748, 54.44373
396.2569, 47.48328
396.7390, 40.87115
397.2211, 34.00543
397.7032, 27.36951
398.1854, 23.02869
398.6675, 21.75714
399.1496, 21.13916
399.6317, 19.91565
400.1138, 18.19440
400.5959, 16.01837
401.0781, 12.93933
401.5602, 9.949036
402.0423, 8.079468
402.5244, 7.311951
403.0065, 7.258362
403.4886, 7.886536
403.9708, 9.109192
404.4529, 10.85675
404.9350, 13.28473
405.4171, 15.39337
405.8992, 16.50134
406.3813, 17.03699
406.8635, 17.75250
407.3456, 18.77924
407.8277, 20.01001
408.3098, 21.27899
408.7919, 22.62946
409.2740, 24.55078
409.7562, 27.35974
410.2383, 30.50726
410.7204, 34.02490
411.2025, 37.67102
411.6846, 40.59930
412.1667, 42.29572
412.6489, 43.07440
413.1310, 43.92004
413.6131, 44.88739
414.0952, 45.82690
414.5773, 46.66321
415.0594, 47.48157
415.5416, 48.69995
416.0237, 50.31537
416.5058, 51.30646
416.9879, 50.33691
417.4700, 46.89526
417.9521, 43.99933
418.4343, 42.05853
418.9164, 40.17175
419.3985, 37.76123
419.8806, 35.09656
420.3627, 32.86511
420.8448, 31.48407
421.3270, 30.76837
421.8091, 30.00006
422.2912, 28.89899
422.7733, 28.18628
423.2554, 27.74817
423.7375, 27.79456
424.2197, 28.76923
424.7018, 30.63074
425.1839, 32.59332
425.6660, 33.63544
426.1481, 33.53687
426.6302, 33.97943
427.1124, 35.10437
427.5945, 36.74878
428.0766, 38.98950
428.5587, 41.64948
429.0408, 44.50415
429.5229, 47.45807
430.0051, 50.47363
430.4872, 53.54230
430.9693, 56.78290
431.4514, 60.00348
431.9335, 62.66193
432.4156, 65.37817
432.8978, 68.58759
433.3799, 72.39160
433.8620, 76.99414
434.3441, 83.25146
434.8262, 90.59424
435.3083, 96.22589
435.7905, 99.34442
436.2726, 101.6191
436.7547, 103.9623
437.2368, 106.5138
437.7189, 109.6324
438.2010, 114.2479
438.6832, 118.6891
439.1653, 121.3383
439.6474, 122.1876
440.1295, 121.9525
440.6116, 120.8749
441.0938, 119.1237
441.5759, 116.9368
442.0580, 114.3753
442.5401, 111.1282
443.0222, 106.9022
443.5043, 102.1031
443.9865, 96.98303
444.4686, 91.63739
444.9507, 86.38208
445.4328, 81.54297
445.9149, 77.10455
446.3970, 72.38031
446.8792, 66.65558
447.3613, 61.49280
447.8434, 57.69025
448.3255, 54.75018
448.8076, 51.86639
449.2897, 48.70361
449.7719, 45.43585
450.2540, 42.36871
450.7361, 39.51917
451.2182, 36.83197
451.7003, 34.02130
452.1824, 31.59314
452.6646, 30.15631
453.1467, 29.40192
453.6288, 28.32977
454.1109, 26.04065
454.5930, 22.93268
455.0751, 21.30457
455.5573, 22.28754
456.0394, 22.92371
456.5215, 22.89978
457.0036, 22.12524
457.4857, 20.09601
457.9678, 16.78571
458.4500, 13.61859
458.9321, 12.29242
459.4142, 12.79211
459.8963, 13.35791
460.3784, 14.04956
460.8605, 14.49670
461.3427, 14.43042
461.8248, 13.98779
462.3069, 13.47424
462.7890, 13.01544
463.2711, 12.52295
463.7532, 11.74872
464.2354, 10.70758
464.7175, 10.09418
465.1996, 10.39343
465.6817, 11.00500
466.1638, 11.13623
466.6459, 10.82703
467.1281, 9.958496
467.6102, 7.870911
468.0923, 5.511597
468.5744, 4.114075
469.0565, 3.781250
469.5386, 3.942810
470.0208, 4.286072
470.5029, 4.761780
470.9850, 4.951660
471.4671, 4.510803
471.9492, 4.240051
472.4313, 4.490295
472.9135, 4.988831
473.3956, 5.557556
473.8777, 6.092102
474.3598, 6.106995
474.8419, 4.744873
475.3240, 1.268372
475.8062, 0.5230710
476.2883, 0.5588990
476.7704, 1.873474
477.2525, 2.452942
477.7346, 2.478882
478.2167, 2.460510
478.6989, 2.664673
479.1810, 3.001465
479.6631, 3.302124
480.1452, 3.661865
480.6273, 3.727783
481.1094, 3.395935
481.5916, 2.804077
482.0737, 1.811584
482.5558, 0.5468750
483.0379, 0.4506840
483.5200, 0.6313480
484.0021, 0.2678220
484.4843, 0.2884520
484.9664, 0.8304440
485.4485, 1.268555
485.9306, 1.205994
486.4127, 0.8984380
486.8948, 0.5778810
487.3770, 0.1222530
487.8591, 0.1762700
488.3412, 1.757446
488.8233, 4.069885
489.3054, 5.145447
489.7875, 4.506348
490.2697, 3.459778
490.7518, 3.179810
491.2339, 3.682129
491.7160, 4.086121
492.1981, 4.622864
492.6802, 4.820923
493.1624, 4.083435
493.6445, 2.890991
494.1266, 2.201416
494.6087, 2.385193
495.0908, 3.046692
495.5729, 3.603760
496.0551, 4.319397
496.5372, 4.126221
497.0193, 1.957520
497.5014, 2.1850999E-02
497.9835, 0.3023070
498.4656, 0.5130000
498.9478, 1.221008
499.4299, 1.096863
499.9120, 0.3195800
500.3941, 0.7162480
500.8762, 2.320435
501.3583, 3.406921
501.8405, 3.151062
502.3226, 2.807861
502.8047, 3.132141
503.2868, 4.162598
503.7689, 5.559937
504.2510, 7.128113
504.7331, 8.883667
505.2152, 11.05267
505.6974, 13.83130
506.1795, 16.11316
506.6616, 16.95923
507.1437, 17.14856
507.6258, 17.95563
508.1079, 19.61346
508.5901, 21.31213
509.0722, 22.09186
509.5543, 22.80981
510.0364, 25.21002
510.5185, 29.56909
511.0006, 34.33350
511.4828, 38.29425
511.9649, 41.44940
512.4470, 44.04663
512.9291, 45.24805
513.4113, 46.95898
513.8934, 49.77454
514.3755, 53.42798
514.8576, 57.68689
515.3397, 62.44550
515.8218, 67.34430
516.3040, 71.98944
516.7861, 76.40857
517.2682, 80.44806
517.7503, 83.89789
518.2324, 87.16711
518.7145, 90.62830
519.1967, 93.93030
519.6788, 96.73944
520.1609, 98.96692
520.6430, 100.1245
521.1251, 99.50568
521.6072, 97.07361
522.0894, 93.11389
522.5715, 86.82550
523.0536, 80.00641
523.5357, 73.96436
524.0178, 68.46051
524.4999, 62.71973
524.9821, 55.74139
525.4642, 49.08411
525.9463, 44.66925
526.4284, 42.18933
526.9105, 39.68158
527.3926, 36.44360
527.8748, 32.94031
528.3569, 29.73920
528.8390, 26.76324
529.3211, 24.56635
529.8032, 23.46973
530.2853, 22.95862
530.7675, 22.96881
531.2496, 23.28271
531.7317, 23.40424
532.2138, 23.05530
532.6959, 22.39746
533.1780, 21.79987
533.6602, 20.80347
534.1423, 20.75372
534.6244, 22.79462
535.1065, 24.65271
535.5886, 24.48938
536.0707, 22.85339
536.5529, 21.68286
537.0350, 22.27704
537.5171, 24.13928
537.9992, 26.18134
538.4813, 28.66333
538.9634, 30.21301
539.4456, 29.86426
539.9277, 28.83911
540.4098, 27.86591
540.8919, 27.01758
541.3740, 26.99243
541.8561, 28.92493
542.3383, 31.49164
542.8204, 32.79907
543.3025, 32.82501
543.7846, 32.39990
544.2667, 31.90881
544.7488, 31.28558
545.2310, 30.23151
545.7131, 28.18909
546.1952, 26.97137
546.6773, 27.94409
547.1594, 29.04272
547.6415, 28.24963
548.1237, 25.84485
548.6058, 23.61700
549.0879, 22.80505
549.5700, 23.11682
550.0521, 23.33459
550.5342, 23.31689
551.0164, 23.55933
551.4985, 24.67499
551.9806, 25.60919
552.4627, 25.34790
552.9448, 24.02576
553.4269, 22.77924
553.9091, 22.53125
554.3912, 22.93933
554.8733, 22.88239
555.3554, 22.15094
555.8375, 21.89642
556.3196, 22.96893
556.8018, 24.38147
557.2839, 24.81500
557.7660, 24.20062
558.2481, 23.75391
558.7302, 23.96588
559.2123, 24.51459
559.6945, 25.07269
560.1766, 25.61395
560.6587, 26.19434
561.1408, 26.86536
561.6229, 27.55499
562.1050, 28.06787
562.5872, 28.27307
563.0693, 28.47919
563.5514, 28.29456
564.0335, 28.42395
564.5156, 29.73987
564.9977, 31.88263
565.4799, 33.61951
565.9620, 34.05402
566.4441, 33.65710
566.9262, 33.80743
567.4083, 34.51807
567.8904, 35.75635
568.3726, 38.29449
568.8547, 40.75909
569.3368, 42.16406
569.8189, 42.62146
570.3010, 42.97900
570.7831, 43.26892
571.2653, 43.94556
571.7474, 46.13446
572.2295, 49.66052
572.7116, 52.20416
573.1937, 52.41205
573.6758, 51.99396
574.1580, 53.85065
574.6401, 58.37537
575.1222, 62.76129
575.6043, 67.11957
576.0864, 70.95050
576.5685, 73.83527
577.0507, 75.86511
577.5328, 77.10040
578.0149, 77.52887
578.4970, 77.97327
578.9791, 80.24084
579.4612, 85.32855
579.9434, 89.44098
580.4255, 91.95215
580.9076, 94.03162
581.3897, 96.36627
581.8718, 98.59680
582.3539, 99.86597
582.8361, 99.64587
583.3182, 98.88080
583.8003, 98.87439
584.2824, 99.52075
584.7645, 99.76508
585.2466, 99.50531
585.7288, 98.57104
586.2108, 96.66772
586.6929, 93.88446
587.1750, 90.80188
587.6572, 87.32129
588.1393, 83.71393
588.6214, 80.07678
589.1035, 76.56281
589.5856, 73.26459
590.0677, 70.14709
590.5499, 66.96143
591.0320, 63.24976
591.5141, 58.97034
591.9962, 55.34015
592.4783, 52.72089
592.9604, 50.42407
593.4426, 48.73877
593.9247, 47.10645
594.4068, 44.68201
594.8889, 41.40808
595.3710, 38.46161
595.8531, 37.35687
596.3353, 37.54926
596.8174, 36.59424
597.2995, 34.11072
597.7816, 31.84113
598.2637, 30.89691
598.7458, 30.57599
599.2280, 29.30768
599.7101, 26.73483
600.1922, 24.73471
600.6743, 24.46616
601.1564, 24.69101
601.6385, 24.14758
602.1207, 22.83423
602.6028, 21.33374
603.0849, 19.99792
603.5670, 18.85461
604.0491, 17.97601
604.5313, 17.45636
605.0134, 17.07245
605.4955, 16.83124
605.9776, 16.61966
606.4597, 16.39343
606.9418, 16.17065
607.4240, 16.07007
607.9061, 16.16245
608.3882, 16.17130
608.8703, 15.58002
609.3524, 14.47131
609.8345, 13.79865
610.3167, 13.88580
610.7988, 14.20609
611.2809, 14.22955
611.7630, 14.05997
612.2451, 14.20447
612.7272, 15.60831
613.2094, 16.34689
613.6915, 14.68796
614.1736, 12.07678
614.6557, 10.97418
615.1378, 11.80307
615.6199, 12.87845
616.1021, 12.43561
616.5842, 10.56427
617.0663, 9.541687
617.5484, 10.17001
618.0305, 10.48627
618.5126, 9.973694
618.9948, 9.146179
619.4769, 8.480591
619.9590, 8.004700
620.4411, 7.396912
620.9232, 6.255371
621.4053, 4.877197
621.8875, 3.881958
622.3696, 3.273407
622.8517, 2.951294
623.3338, 3.005371
623.8159, 3.154541
624.2980, 2.871399
624.7802, 2.062439
625.2623, 1.608765
625.7444, 1.905243
626.2265, 2.297058
626.7086, 2.315948
627.1907, 2.140686
627.6729, 2.250305
628.1550, 2.818237
628.6371, 3.410278
629.1192, 3.310181
629.6013, 2.381622
630.0834, 1.814911
630.5656, 1.716766
631.0477, 1.848541
631.5298, 2.564270
632.0119, 3.237823
632.4940, 2.901337
632.9761, 1.254364
633.4583, 0.3748780
633.9404, 1.116333
634.4225, 1.197998
634.9046, 0.9149480
635.3867, 0.3119810
635.8688, 0.2538760
636.3510, 0.5728450
636.8331, 0.7261050
637.3152, 0.9372860
637.7973, 1.417694
638.2794, 1.541656
638.7615, 0.8872680
639.2437, 0.2528990
639.7258, 2.2430001E-02
640.2079, 0.2094730
640.6900, 0.8656620
641.1721, 2.060150
641.6542, 3.243256
642.1364, 3.362915
642.6185, 2.377533
643.1006, 1.840332
643.5827, 2.099701
644.0648, 2.474365
644.5469, 2.855957
645.0291, 2.970612
645.5112, 2.022888
645.9933, 0.9642640
646.4754, 3.083069
646.9575, 2.103821
647.4396, 6.2042002E-02
647.9218, 0.8735660
648.4039, 0.1950990
648.8860, 0.4234310
649.3681, 0.1326600
649.8502, 1.417053
650.3323, 1.850098
650.8145, 0.9014890
651.2966, 0.1762700
651.7787, 1.5228000E-02
652.2608, 0.1641540
652.7429, 0.5170590
653.2250, 1.037323
653.7072, 1.668793
654.1893, 2.579224
654.6714, 3.117249
655.1535, 2.151398
655.6356, 0.1190800
656.1177, 1.203552
656.5999, 1.456268
657.0820, 1.206512
657.5641, 0.7782900
658.0462, 0.2310180
658.5283, 3.5064999E-02
659.0104, 5.6731999E-02
659.4926, 0.2088620
659.9747, 1.430206
660.4568, 2.451111
660.9389, 1.902893
661.4210, 0.1308900
661.9031, 1.248138
662.3853, 1.147675
662.8674, 0.1777340
663.3495, 0.3710020
663.8316, 0.4779660
664.3137, 0.2676700
664.7958, 0.6038820
665.2780, 1.247986
665.7601, 0.7909850
666.2422, 0.4654540
666.7243, 1.732361
667.2064, 3.215973
667.6885, 4.220276
668.1707, 4.017853
668.6528, 3.317291
669.1349, 3.074860
669.6170, 3.416443
670.0991, 3.955322
670.5812, 4.401917
671.0634, 4.789276
671.5455, 5.291687
672.0276, 6.107910
672.5097, 6.576111
672.9918, 6.401001
673.4739, 6.038696
673.9561, 5.477478
674.4382, 4.932770
674.9203, 4.940857
675.4024, 5.905396
675.8845, 7.114197
676.3666, 7.988342
676.8488, 8.587952
677.3309, 9.034546
677.8130, 9.347412
678.2951, 9.532928
678.7772, 9.486969
679.2593, 9.359467
679.7415, 9.987640
680.2236, 12.24802
680.7057, 14.04166
681.1878, 14.80490
681.6699, 15.49686
682.1520, 16.83362
682.6342, 18.67902
683.1163, 20.45499
683.5984, 21.85257
684.0805, 23.17386
684.5626, 24.75879
685.0447, 26.61362
685.5269, 28.80347
686.0090, 31.32407
686.4911, 34.31982
686.9732, 37.87088
687.4553, 41.94397
687.9374, 46.45892
688.4196, 51.64474
688.9017, 56.74515
689.3838, 61.42551
689.8659, 66.23807
690.3480, 71.06140
690.8301, 76.39536
691.3123, 83.72031
691.7944, 94.02173
692.2765, 105.3469
692.7586, 113.8307
693.2407, 119.4330
693.7228, 127.1988
694.2050, 138.2988
694.6871, 150.3553
695.1692, 162.1151
695.6513, 173.7466
696.1334, 185.4418
696.6155, 196.3248
697.0977, 209.4643
697.5798, 226.2386
698.0619, 245.4274
698.5440, 266.4774
699.0261, 289.0002
699.5082, 311.9195
699.9904, 334.6868
700.4725, 357.9791
700.9546, 383.4614
701.4367, 411.5338
701.9188, 438.2050
702.4009, 463.9172
702.8831, 487.1205
703.3652, 508.5925
703.8473, 526.4632
704.3294, 538.4641
704.8115, 544.9920
705.2936, 543.5888
705.7758, 532.3572
706.2579, 513.1722
706.7400, 485.9700
707.2221, 452.3827
707.7042, 414.8344
708.1863, 374.4519
708.6685, 334.0710
709.1506, 298.0610
709.6327, 266.6123
710.1148, 237.0510
710.5969, 208.9606
711.0790, 183.6272
711.5612, 161.7820
712.0433, 142.4759
712.5254, 125.0443
713.0075, 109.4574
713.4896, 96.31714
713.9717, 86.61371
714.4539, 78.69678
714.9360, 71.15329
715.4181, 63.99689
715.9002, 57.46570
716.3823, 51.62375
716.8644, 46.57816
717.3466, 42.51355
717.8287, 39.46136
718.3108, 36.64359
718.7929, 34.22952
719.2750, 31.70190
719.7571, 28.54587
720.2393, 25.57166
720.7214, 23.64240
721.2035, 22.58630
721.6856, 21.29123
722.1677, 19.11151
722.6498, 16.60516
723.1320, 14.01691
723.6141, 11.65845
724.0962, 10.30261
724.5783, 10.02536
725.0604, 10.19443
725.5425, 10.35706
726.0247, 10.40485
726.5068, 9.619324
726.9889, 7.171844
727.4710, 5.496582
727.9531, 5.373108
728.4352, 5.589386
728.9174, 5.624817
729.3995, 5.438446
729.8816, 5.049133
730.3637, 4.453918
730.8458, 3.683929
731.3279, 2.161346
731.8101, 0.6797790
732.2922, 1.304474
732.7743, 3.967957
733.2564, 5.908905
733.7385, 5.347321
734.2206, 3.217163
734.7028, 1.786316
735.1849, 1.157867
735.6670, 0.9630740
736.1491, 1.887207
736.6312, 2.491211
737.1133, 1.928864
737.5955, 0.8646850
738.0776, 0.1741330
738.5597, 2.3956001E-02
739.0418, 0.4098820
739.5239, 2.127930
740.0060, 3.883209
740.4882, 3.538940
740.9703, 1.548767
741.4524, 0.1719970
741.9345, 0.3139650
742.4166, 1.019409
742.8987, 0.9713750
743.3809, 0.1119690
743.8630, 0.5359500
744.3451, 0.9775390
744.8272, 1.187622
745.3093, 1.267426
745.7914, 1.051697
746.2736, 4.6569999E-02
746.7557, 1.558380
747.2378, 2.456573
747.7199, 1.622986
748.2020, 0.3367000
748.6841, 0.5458370
749.1663, 1.049133
749.6484, 1.160767
750.1305, 0.9046330
750.6126, 0.4129330
751.0947, 0.2693790
751.5768, 0.9922790
752.0590, 1.070740
752.5411, 0.1407470
753.0232, 0.3960880
753.5053, 1.7181000E-02
753.9874, 0.3831480
754.4695, 0.1057740
754.9517, 0.4840390
755.4338, 0.6065670
755.9159, 3.0486999E-02
756.3980, 0.7732850
756.8801, 2.019440
757.3622, 3.069489
757.8444, 3.009277
758.3265, 2.050812
758.8086, 0.9916380
759.2907, 0.2054140
759.7728, 0.2225650
760.2549, 4.2479999E-02
760.7371, 0.7901310
761.2192, 1.325684
761.7013, 1.321564
762.1834, 1.611877
762.6655, 3.094421
763.1476, 4.607605
763.6298, 4.470612
764.1119, 2.665894
764.5940, 1.715302
765.0761, 3.279633
765.5582, 4.687500
766.0403, 3.987335
766.5225, 2.405121
767.0046, 1.776672
767.4867, 2.355957
767.9688, 3.059753
768.4509, 2.961212
768.9330, 3.802551
769.4152, 3.130310
769.8973, 4.902283
770.3794, 6.180267
770.8615, 6.554962
771.3436, 6.647217
771.8257, 6.838959
772.3079, 7.121735
772.7900, 7.514709
773.2721, 8.495453
773.7542, 8.677551
774.2363, 6.527100
774.7184, 4.681549
775.2006, 5.429382
775.6827, 7.763702
776.1648, 9.410461
776.6469, 9.549500
777.1290, 9.388214
777.6111, 10.37881
778.0933, 12.09302
778.5754, 13.04150
779.0575, 13.19885
779.5396, 13.51855
780.0217, 14.49692
780.5038, 15.35696
780.9860, 14.88840
781.4681, 12.91147
781.9502, 12.22968
782.4323, 13.81705
782.9144, 15.39557
783.3965, 17.15521
783.8787, 18.31912
784.3608, 17.90698
784.8429, 16.25702
785.3250, 14.74896
785.8071, 13.99420
786.2892, 13.65402
786.7714, 13.69263
787.2535, 13.81253
787.7356, 13.11841
788.2177, 11.63141
788.6998, 10.70648
789.1819, 11.26740
789.6641, 12.42752
790.1462, 12.03543
790.6283, 9.316345
791.1104, 8.171051
791.5925, 9.903961
792.0746, 11.33240
792.5568, 10.76828
793.0389, 9.527252
793.5210, 9.036102
794.0031, 9.428040
794.4852, 10.15219
794.9673, 11.56766
795.4495, 12.69360
795.9316, 12.39301
796.4137, 11.50931
796.8958, 11.66669
797.3779, 13.00757
797.8600, 14.07935
798.3422, 13.63711
798.8243, 12.26874
799.3064, 11.52573
799.7885, 11.43967
800.2706, 11.61206
800.7527, 12.12952
801.2349, 12.45706
801.7170, 12.01123
802.1991, 11.14148
802.6812, 10.93219
803.1633, 11.50146
803.6454, 12.37933
804.1276, 13.59561
804.6097, 15.07028
805.0918, 16.98984
805.5739, 19.04034
806.0560, 20.83051
806.5381, 22.22287
807.0203, 23.30725
807.5024, 24.32397
807.9845, 25.03928
808.4666, 24.66251
808.9487, 23.49539
809.4308, 23.16098
809.9130, 24.11746
810.3951, 25.19547
810.8772, 25.29276
811.3593, 24.63690
811.8414, 24.33484
812.3235, 24.98288
812.8057, 24.63159
813.2878, 22.42325
813.7699, 19.95200
814.2520, 17.70633
814.7341, 15.77658
815.2162, 14.38950
815.6984, 13.73871
816.1805, 12.86493
816.6626, 10.81473
817.1447, 8.829773
817.6268, 8.334015
818.1089, 8.718597
818.5911, 8.519104
819.0732, 7.336853
819.5553, 5.944244
820.0374, 5.009674
820.5195, 4.532166
821.0016, 4.563232
821.4838, 5.126953
821.9659, 5.854614
822.4480, 6.873108
822.9301, 7.403717
823.4122, 6.527588
823.8943, 4.626556
824.3765, 3.544647
824.8586, 3.737122
825.3407, 3.998291
825.8228, 4.738129
826.3049, 5.080597
826.7870, 4.038055
827.2692, 2.493561
827.7513, 2.057251
828.2334, 3.114624
828.7155, 3.999054
829.1976, 3.508240
829.6797, 2.307159
830.1619, 0.7576600
830.6440, 0.7771000
831.1261, 1.040375
831.6082, 0.2084350
832.0903, 1.599243
832.5724, 1.878571
833.0546, 1.347900
833.5367, 1.221985
834.0188, 1.568207
834.5009, 2.009583
834.9830, 2.788971
835.4651, 3.143982
835.9473, 2.051727
836.4294, 0.3594970
836.9115, 8.0994003E-02
837.3936, 1.735565
837.8757, 3.057648
838.3578, 3.610199
838.8400, 3.836212
839.3221, 4.042938
839.8042, 4.030060
840.2863, 3.154053
840.7684, 1.544617
841.2505, 0.6870730
841.7327, 2.150482
842.2148, 4.225433
842.6969, 4.183960
843.1790, 2.672272
843.6611, 1.742096
844.1432, 1.736511
844.6254, 2.402374
845.1075, 3.669708
845.5896, 5.328400
846.0717, 6.482269
846.5538, 6.926575
847.0359, 7.064240
847.5181, 7.153748
848.0002, 6.652344
848.4823, 4.467987
848.9644, 2.098572
849.4465, 1.286865
849.9286, 2.119843
850.4108, 3.326965
850.8929, 5.056641
851.3750, 6.303375
851.8571, 6.477051
852.3392, 6.051697
852.8214, 5.255463
853.3035, 4.331055
853.7856, 3.830444
854.2677, 4.106781
854.7498, 4.612946
855.2319, 4.453094
855.7141, 3.813416
856.1962, 3.201660
856.6783, 2.756165
857.1604, 2.748444
857.6425, 3.341125
858.1246, 4.067169
858.6068, 4.338287
859.0889, 4.150787
859.5710, 3.643768
860.0531, 2.459656
860.5352, 1.866791
861.0173, 2.399780
861.4995, 3.343109
861.9816, 4.309235
862.4637, 5.102448
862.9458, 5.356445
863.4279, 4.816711
863.9100, 4.273468
864.3922, 3.699707
864.8743, 3.302887
865.3564, 3.425842
865.8385, 3.741821
866.3206, 3.538513
866.8027, 2.764252
867.2849, 2.369324
867.7670, 3.364410
868.2491, 4.849701
868.7312, 5.170868
869.2133, 4.660553
869.6954, 4.462341
870.1776, 4.787567
870.6597, 5.129150
871.1418, 5.101196
871.6239, 5.592346
872.1060, 5.259888
872.5881, 6.233521
873.0703, 6.840332
873.5524, 6.911743
874.0345, 6.938568
874.5166, 7.265350
874.9987, 7.545166
875.4808, 7.177368
875.9630, 6.163239
876.4451, 5.448151
876.9272, 5.096741
877.4093, 5.042969
877.8914, 5.424072
878.3735, 5.978943
878.8557, 6.569885
879.3378, 7.139618
879.8199, 7.640656
880.3020, 8.070557
880.7841, 8.346283
881.2662, 8.391327
881.7484, 8.258026
882.2305, 8.059998
882.7126, 7.750427
883.1947, 7.030029
883.6768, 5.864166
884.1589, 4.833191
884.6411, 4.497131
885.1232, 4.747070
885.6053, 5.501312
886.0874, 6.848389
886.5695, 6.727814
887.0516, 4.352722
887.5338, 2.235107
888.0159, 2.029510
888.4980, 3.010925
888.9801, 3.661804
889.4622, 4.023315
889.9443, 4.026154
890.4265, 3.113922
890.9086, 2.547607
891.3907, 3.153900
891.8728, 3.866089
892.3549, 3.500122
892.8370, 2.251831
893.3192, 1.410950
893.8013, 1.564728
894.2834, 1.815063
894.7655, 1.770203
895.2476, 1.574829
895.7297, 1.223724
896.2119, 0.8593140
896.6940, 0.8863220
897.1761, 1.411560
897.6582, 1.779419
898.1403, 1.143951
898.6224, 6.2560001E-03
899.1046, 0.5430300
899.5867, 0.5736080
900.0688, 0.5284420
900.5509, 0.5075680
901.0330, 0.3248900
901.5151, 0.2429500
901.9973, 0.8382870
902.4794, 0.2621150
902.9615, 1.950928
903.4436, 2.788300
903.9257, 1.598389
904.4078, 0.4155270
904.8900, 0.1500850
905.3721, 0.1770630
905.8542, 0.5005800
906.3363, 1.875183
906.8184, 2.154449
907.3005, 0.4097290
907.7827, 1.652985
908.2648, 0.5068360
908.7469, 2.939331
909.2290, 3.379059
909.7111, 2.483643
910.1932, 1.946472
910.6754, 2.253723
911.1575, 2.208923
911.6396, 0.5085140
912.1217, 1.264435
912.6038, 1.749207
913.0859, 1.217468
913.5681, 0.1630860
914.0502, 2.067566
914.5323, 3.353333
915.0144, 3.170868
915.4965, 3.981445
915.9786, 2.577423
916.4607, 3.377472
916.9428, 2.990173
917.4249, 1.337402
917.9070, 0.5292050
918.3892, 2.291687
918.8713, 3.125305
919.3534, 1.681396
919.8355, 1.706024
920.3176, 2.869415
920.7997, 0.8740540
921.2819, 0.1944580
921.7640, 0.7842410
922.2461, 1.970306
922.7282, 2.312469
923.2103, 1.985077
923.6924, 1.208130
924.1746, 0.4086300
924.6567, 0.9952700
925.1388, 0.5744320
925.6209, 1.881195
926.1030, 1.784393
926.5851, 1.330475
927.0673, 1.592834
927.5494, 2.458557
928.0315, 3.134094
928.5136, 3.340485
928.9957, 3.346832
929.4778, 3.044495
929.9600, 2.833374
930.4421, 3.371338
930.9242, 4.245148
931.4063, 4.578278
931.8884, 4.153625
932.3705, 3.334137
932.8527, 2.043823
933.3348, 1.035004
933.8169, 2.099213
934.2990, 4.431915
934.7811, 5.316040
935.2632, 4.527344
935.7454, 3.573669
936.2275, 3.215851
936.7096, 3.452332
937.1917, 4.498779
937.6738, 6.244080
938.1559, 6.929596
938.6381, 6.341431
939.1202, 6.176910
939.6023, 7.083466
940.0844, 7.795624
940.5665, 7.115540
941.0486, 5.562561
941.5308, 4.946930
942.0129, 5.828979
942.4950, 6.174500
942.9771, 5.193848
943.4592, 4.735352
943.9413, 5.916779
944.4235, 7.463257
944.9056, 8.252716
945.3877, 8.290833
945.8698, 7.903320
946.3519, 6.485443
946.8340, 5.666656
947.3162, 6.587830
947.7983, 7.528015
948.2804, 6.917725
948.7625, 5.648804
949.2446, 5.438263
949.7267, 6.571014
950.2089, 7.583099
950.6910, 7.314240
951.1731, 6.913177
951.6552, 7.696472
952.1373, 8.789001
952.6194, 8.612976
953.1016, 7.443939
953.5837, 6.866364
954.0658, 7.600037
954.5479, 8.830841
955.0300, 9.958191
955.5121, 10.78207
955.9943, 10.55524
956.4764, 9.501526
956.9585, 8.655457
957.4406, 8.311768
957.9227, 8.938354
958.4048, 11.00073
958.8870, 13.62979
959.3691, 14.81534
959.8512, 14.49518
960.3333, 14.58142
960.8154, 14.99106
961.2975, 15.79132
961.7797, 17.26358
962.2618, 18.78677
962.7439, 19.59097
963.2260, 19.82965
963.7081, 20.49841
964.1902, 21.70621
964.6724, 22.99475
965.1545, 24.15317
965.6366, 25.51184
966.1187, 27.58557
966.6008, 29.91415
967.0829, 32.18839
967.5651, 34.38776
968.0472, 36.08566
968.5293, 36.25122
969.0114, 37.35522
969.4935, 40.40463
969.9756, 43.84372
970.4578, 47.41345
970.9399, 50.62842
971.4220, 52.42871
971.9041, 52.59473
972.3862, 53.56973
972.8683, 56.94479
973.3505, 60.56284
973.8326, 63.58484
974.3147, 65.92548
974.7968, 67.62585
975.2789, 68.56580
975.7610, 68.22897
976.2432, 66.37378
976.7253, 64.08521
977.2074, 62.60776
977.6895, 61.17337
978.1716, 58.49307
978.6537, 54.98029
979.1359, 51.29599
979.6180, 47.72824
980.1001, 44.60989
980.5822, 42.18433
981.0643, 39.93179
981.5464, 37.03204
982.0286, 33.70081
982.5107, 30.57846
982.9928, 27.89606
983.4749, 26.35229
983.9570, 26.10907
984.4391, 25.85776
984.9213, 24.56726
985.4034, 22.60956
985.8855, 20.77988
986.3676, 19.06885
986.8497, 17.33374
987.3318, 15.49908
987.8140, 14.44327
988.2961, 14.65247
988.7782, 15.01566
989.2603, 14.34546
989.7424, 14.20255
990.2245, 13.72299
990.7067, 12.62787
991.1888, 12.23645
991.6709, 10.42435
992.1530, 9.026001
992.6351, 9.081543
993.1172, 9.535767
993.5994, 9.018860
994.0815, 7.603210
994.5636, 6.796600
995.0457, 7.013611
995.5278, 7.178101
996.0099, 7.586639
996.4921, 7.533264
996.9742, 6.173279
997.4563, 4.492950
997.9384, 3.890350
998.4205, 4.404999
998.9026, 4.664581
999.3848, 4.200775
999.8669, 3.868286
1000.349, 3.919983
1000.831, 4.095886
1001.313, 4.452576
1001.795, 4.725952
1002.277, 4.344055
1002.760, 3.233643
1003.242, 2.482422
1003.724, 2.455414
1004.206, 2.949036
1004.688, 4.084290
1005.170, 5.514740
1005.652, 6.924805
1006.134, 8.345459
1006.617, 10.07327
1007.099, 12.17520
1007.581, 13.89264
1008.063, 14.21198
1008.545, 14.50137
1009.027, 16.13544
1009.509, 18.39404
1009.991, 20.00568
1010.473, 21.27487
1010.956, 23.68173
1011.438, 27.79715
1011.920, 32.04544
1012.402, 34.78497
1012.884, 36.99142
1013.366, 39.59955
1013.848, 42.91580
1014.330, 48.13004
1014.813, 54.91977
1015.295, 61.29718
1015.777, 66.31628
1016.259, 69.96539
1016.741, 71.94098
1017.223, 72.67224
1017.705, 73.54010
1018.187, 74.16104
1018.669, 72.75000
1019.152, 69.09970
1019.634, 64.52847
1020.116, 59.77124
1020.598, 54.71155
1021.080, 49.28436
1021.562, 43.43964
1022.044, 36.54681
1022.526, 28.75665
1023.008, 22.69849
1023.491, 18.93100
1023.973, 15.97168
1024.455, 12.85306
1024.937, 10.09909
1025.419, 8.832916
1025.901, 8.980621
1026.383, 8.771423
1026.865, 8.219269
1027.348, 7.075775
1027.830, 5.195435
1028.312, 3.102142
1028.794, 1.041443
1029.276, 0.7498780
1029.758, 1.739410
1030.240, 1.897797
1030.722, 1.677521
1031.204, 0.8573610
1031.687, 0.6381230
1032.169, 1.607971
1032.651, 2.362915
1033.133, 1.696564
1033.615, 0.3687130
1034.097, 0.1531980
1034.579, 1.200531
1035.061, 2.443970
1035.544, 4.473083
1036.026, 5.235657
1036.508, 3.741455
1036.990, 1.736877
1037.472, 0.3594970
1037.954, 0.5762020
1038.436, 1.515320
1038.918, 2.505463
1039.401, 3.267334
1039.883, 3.846344
1040.365, 4.081512
1040.847, 3.293945
1041.329, 2.885010
1041.811, 4.355896
1042.293, 6.766205
1042.775, 7.725098
1043.257, 6.652924
1043.740, 6.512878
1044.222, 8.298248
1044.704, 9.633728
1045.186, 9.445160
1045.668, 9.296326
1046.150, 10.66559
1046.632, 12.71820
1047.114, 13.46179
1047.596, 12.40131
1048.079, 12.29611
1048.561, 14.06363
1049.043, 15.88129
1049.525, 17.53223
1050.007, 18.86230
1050.489, 19.65427
1050.971, 20.10010
1051.453, 20.63974
1051.936, 21.37582
1052.418, 21.65051
1052.900, 20.54605
1053.382, 20.06970
1053.864, 20.89926
1054.346, 22.45966
1054.828, 24.75052
1055.310, 27.29623
1055.792, 29.36020
1056.275, 30.85703
1056.757, 31.83228
1057.239, 31.30710
1057.721, 31.60718
1058.203, 33.88629
1058.685, 36.91113
1059.167, 39.74597
1059.649, 42.66245
1060.131, 46.48495
1060.614, 51.29483
1061.096, 55.62796
1061.578, 57.93384
1062.060, 61.12885
1062.542, 66.44153
1063.024, 72.86673
1063.506, 80.40833
1063.988, 88.17587
1064.471, 94.31274
1064.953, 98.79169
1065.435, 104.8337
1065.917, 114.3327
1066.399, 124.6105
1066.881, 135.5255
1067.363, 145.9033
1067.845, 154.2878
1068.328, 161.8422
1068.810, 171.0467
1069.292, 181.6918
1069.774, 189.8530
1070.256, 194.3738
1070.738, 195.6936
1071.220, 193.0378
1071.702, 188.1833
1072.184, 182.2172
1072.667, 175.0101
1073.149, 166.2229
1073.631, 155.8873
1074.113, 144.3506
1074.595, 130.8324
1075.077, 118.4329
1075.559, 109.0613
1076.041, 100.9519
1076.523, 93.03018
1077.006, 85.53442
1077.488, 78.80023
1077.970, 72.86505
1078.452, 67.55710
1078.934, 62.75119
1079.416, 58.83829
1079.898, 56.38257
1080.380, 54.40274
1080.862, 52.28168
1081.345, 50.26843
1081.827, 48.67831
1082.309, 47.49506
1082.791, 46.65634
1083.273, 46.22131
1083.755, 45.55380
1084.237, 44.47189
1084.719, 42.96472
1085.202, 40.32611
1085.684, 37.80426
1086.166, 36.88461
1086.648, 37.06631
1087.130, 36.81863
1087.612, 35.73096
1088.094, 34.80023
1088.576, 34.81894
1089.058, 34.63278
1089.541, 32.69690
1090.023, 31.02399
1090.505, 32.17139
1090.987, 34.84610
1091.469, 36.14551
1091.951, 35.51382
1092.433, 34.93411
1092.915, 35.35168
1093.397, 35.66782
1093.880, 35.73923
1094.362, 35.53937
1094.844, 34.56488
1095.326, 33.47095
1095.808, 33.25470
1096.290, 33.94986
1096.772, 34.84335
1097.254, 35.74207
1097.737, 36.78656
1098.219, 38.22476
1098.701, 39.58078
1099.183, 40.34668
1099.665, 41.05560
1100.147, 42.75653
1100.629, 45.11505
1101.111, 46.22800
1101.594, 45.06186
1102.076, 44.00879
1102.558, 44.40887
1103.040, 44.30887
1103.522, 42.58792
1104.004, 40.11667
1104.486, 37.45859
1104.968, 34.85767
1105.450, 32.65796
1105.932, 30.82681
1106.415, 29.80850
1106.897, 30.47177
1107.379, 30.75110
1107.861, 29.44879
1108.343, 27.86615
1108.825, 27.43985
1109.307, 27.35733
1109.789, 26.20282
1110.272, 23.78860
1110.754, 22.21509
1111.236, 22.06689
1111.718, 21.79773
1112.200, 20.99258
1112.682, 20.36884
1113.164, 20.73737
1113.646, 21.16718
1114.129, 20.17017
1114.611, 20.34726
1115.093, 20.47711
1115.575, 19.26224
1116.057, 20.24808
1116.539, 19.10818
1117.021, 18.20483
1117.503, 18.65195
1117.985, 19.19571
1118.468, 18.67307
1118.950, 17.32715
1119.432, 16.09778
1119.914, 14.90634
1120.396, 14.08948
1120.878, 13.65381
1121.360, 13.60239
1121.842, 14.07315
1122.324, 14.76666
1122.807, 15.89011
1123.289, 16.72491
1123.771, 15.35080
1124.253, 11.40668
1124.735, 9.408234
1125.217, 9.959595
1125.699, 10.64517
1126.181, 11.30844
1126.664, 11.36371
1127.146, 10.34091
1127.628, 8.874573
1128.110, 7.671112
1128.592, 6.850464
1129.074, 7.795990
1129.556, 10.98352
1130.038, 12.13513
1130.521, 10.67456
1131.003, 8.510803
1131.485, 6.130371
1131.967, 4.345215
1132.449, 3.973328
1132.931, 4.657837
1133.413, 5.684204
1133.895, 7.012329
1134.377, 7.399048
1134.859, 6.828979
1135.342, 5.819336
1135.824, 4.496094
1136.306, 3.181702
1136.788, 2.023376
1137.270, 1.494202
1137.752, 2.871033
1138.234, 5.292175
1138.716, 5.013245
1139.199, 2.661560
1139.681, 1.366394
1140.163, 1.496582
1140.645, 2.515747
1141.127, 4.126587
1141.609, 5.034729
1142.091, 3.590271
1142.573, 4.766602
1143.056, 2.125488
1143.538, 4.124084
1144.020, 3.725586
1144.502, 1.499451
1144.984, 5.1879999E-03
1145.466, 0.1724240
1145.948, 0.2659300
1146.430, 0.9258420
1146.912, 1.715759
1147.395, 2.843140
1147.877, 3.782227
1148.359, 3.921448
1148.841, 3.369324
1149.323, 1.984497
1149.805, 0.1670530
1150.287, 0.9943850
1150.769, 1.114868
1151.251, 0.8297120
1151.734, 0.2882690
1152.216, 0.1727290
1152.698, 9.5946997E-02
1153.180, 9.7699999E-04
1153.662, 0.5523070
1154.144, 1.403381
1154.626, 1.840820
1155.108, 1.807556
1155.591, 1.881775
1156.073, 2.510010
1156.555, 2.760681
1157.037, 2.105530
1157.519, 1.224915
1158.001, 4.8035000E-02
1158.483, 0.8158570
1158.965, 0.4556880
1159.448, 0.7051390
1159.930, 1.287048
1160.412, 1.025879
1160.894, 0.6867680
1161.376, 0.3800050
1161.858, 3.1555001E-02
1162.340, 0.7497560
1162.822, 1.399292
1163.304, 2.203430
1163.786, 2.495300
1164.269, 0.7553710
1164.751, 1.176514
1165.233, 1.034729
1165.715, 0.3728030
1166.197, 1.020630
1166.679, 0.8314210
1167.161, 1.821655
1167.643, 4.1499999E-03
1168.126, 1.670227
1168.608, 0.3272710
1169.090, 2.490906
1169.572, 2.720032
1170.054, 0.2556760
1170.536, 0.7091670
1171.018, 3.9246000E-02
1171.500, 8.0200002E-02
1171.983, 1.319031
1172.465, 1.651733
1172.947, 0.1240840
1173.429, 2.024231
1173.911, 1.451965
1174.393, 0.4890750
1174.875, 0.8404540
1175.357, 0.1788940
1175.839, 2.065063
1176.322, 4.435425
1176.804, 5.631104
1177.286, 5.301208
1177.768, 4.496887
1178.250, 3.874817
1178.732, 3.324158
1179.214, 2.780640
1179.696, 2.172363
1180.178, 1.077576
1180.661, 2.6250000E-03
1181.143, 8.6060002E-02
1181.625, 1.045349
1182.107, 1.500000
1182.589, 1.092163
1183.071, 1.271545
1183.553, 3.708923
1184.035, 5.753296
1184.518, 5.164978
1185.000, 3.886963
1185.482, 3.509644
1185.964, 3.572815
1186.446, 3.282410
1186.928, 2.641785
1187.410, 2.037537
1187.892, 1.394653
1188.375, 1.360168
1188.857, 2.732361
1189.339, 3.854858
1189.821, 4.116455
1190.303, 4.036621
1190.785, 3.625183
1191.267, 3.318604
1191.749, 4.044617
1192.231, 5.751282
1192.714, 6.570007
1193.196, 6.020325
1193.678, 5.745056
1194.160, 5.900391
1194.642, 6.128418
1195.124, 6.391602
1195.606, 6.481812
1196.088, 6.097168
1196.570, 5.606140
1197.053, 5.977661
1197.535, 7.146973
1198.017, 7.364441
1198.499, 6.636536
1198.981, 7.108948
1199.463, 9.048584
1199.945, 10.27289
1200.427, 9.874451
1200.910, 8.842407
1201.392, 8.057251
1201.874, 7.682373
1202.356, 8.777893
1202.838, 10.19440
1203.320, 8.417297
1203.802, 4.792053
1204.284, 3.263550
1204.766, 4.244568
1205.249, 5.961975
1205.731, 7.647339
1206.213, 8.805664
1206.695, 8.574524
1207.177, 8.231506
1207.659, 9.215515
1208.141, 10.22113
1208.623, 9.437439
1209.105, 8.064575
1209.588, 8.528137
1210.070, 10.76300
1210.552, 12.26141
1211.034, 12.21698
1211.516, 11.76086
1211.998, 10.22009
1212.480, 9.553162
1212.962, 11.71179
1213.445, 13.79523
1213.927, 13.17188
1214.409, 11.19635
1214.891, 10.00116
1215.373, 9.578796
1215.855, 9.663269
1216.337, 10.45459
1216.819, 11.02289
1217.302, 11.22015
1217.784, 11.66205
1218.266, 12.67725
1218.748, 13.46814
1219.230, 13.39148
1219.712, 12.78748
1220.194, 12.22412
1220.676, 11.75665
1221.158, 11.80084
1221.641, 12.29236
1222.123, 12.84485
1222.605, 13.18536
1223.087, 12.87140
1223.569, 11.88226
1224.051, 10.98438
1224.533, 11.09442
1225.015, 10.85699
1225.497, 11.57471
1225.980, 11.51337
1226.462, 12.52954
1226.944, 13.85706
1227.426, 13.92047
1227.908, 13.10315
1228.390, 13.24768
1228.872, 14.94025
1229.354, 15.78162
1229.837, 13.73383
1230.319, 12.68335
1230.801, 14.54858
1231.283, 16.62024
1231.765, 17.08429
1232.247, 16.72333
1232.729, 16.07812
1233.211, 15.48474
1233.693, 16.05933
1234.176, 16.10571
1234.658, 16.56439
1235.140, 18.03174
1235.622, 18.00311
1236.104, 20.21149
1236.586, 21.13940
1237.068, 18.85046
1237.550, 16.21649
1238.032, 16.49701
1238.515, 18.11450
1238.997, 16.29724
1239.479, 16.45789
1239.961, 16.59790
1240.443, 14.73389
1240.925, 16.15131
1241.407, 15.38440
1241.889, 14.28662
1242.372, 13.68042
1242.854, 13.15796
1243.336, 12.16290
1243.818, 11.67603
1244.300, 13.31592
1244.782, 15.55731
1245.264, 16.66803
1245.746, 17.07764
1246.229, 17.78821
1246.711, 18.60052
1247.193, 18.44092
1247.675, 16.98602
1248.157, 15.55048
1248.639, 13.73547
1249.121, 13.22974
1249.603, 16.43604
1250.085, 18.53015
1250.568, 16.22949
1251.050, 12.72412
1251.532, 10.93060
1252.014, 10.45386
1252.496, 10.18256
1252.978, 10.17371
1253.460, 9.308228
1253.942, 7.411987
1254.424, 6.304016
1254.907, 6.255371
1255.389, 6.975281
1255.871, 8.360107
1256.353, 8.994507
1256.835, 7.294250
1257.317, 5.320618
1257.799, 7.518555
1258.281, 11.36969
1258.764, 11.55768
1259.246, 9.334412
1259.728, 7.271301
1260.210, 5.775452
1260.692, 4.486023
1261.174, 3.349915
1261.656, 3.096497
1262.138, 4.898193
1262.620, 5.991455
1263.103, 3.681030
1263.585, 1.913879
1264.067, 3.686646
1264.549, 6.398926
1265.031, 7.911804
1265.513, 8.335205
1265.995, 8.197632
1266.477, 7.513000
1266.959, 6.304443
1267.442, 4.130493
1267.924, 2.954163
1268.406, 3.200378
1268.888, 3.137085
1269.370, 2.217041
1269.852, 0.9359740
1270.334, 0.5062870
1270.816, 1.181091
1271.299, 0.9894410
1271.781, 4.394043
1272.263, 4.034851
1272.745, 1.368347
1273.227, 0.2428590
1273.709, 0.6078490
1274.191, 1.260925
1274.673, 1.880127
1275.156, 2.728027
1275.638, 4.007141
1276.120, 4.759277
1276.602, 3.952942
1277.084, 3.010498
1277.566, 2.729797
1278.048, 2.647034
1278.530, 2.067688
1279.012, 1.462585
1279.495, 2.612854
1279.977, 1.502869
1280.459, 4.583801
1280.941, 1.129395
1281.423, 0.2514650
1281.905, 1.196228
1282.387, 2.652222
1282.869, 3.807800
1283.351, 4.328369
1283.834, 4.007629
1284.316, 3.380493
1284.798, 3.275635
1285.280, 3.086243
1285.762, 1.982056
1286.244, 0.0000000E+00
##END=



