##NAMES=Stannite
##RRUFFID=R050187
##IDEAL CHEMISTRY=Cu_2_FeSnS_4_
##LOCALITY=Yaogangxian mine, Yizhang County, Hunan Province, China
##OWNER=RRUFF
##SOURCE=Marcus Origlieri and George Guanghua Liu
##DESCRIPTION=Bluish-black octahedron associated with fluorite and quartz. According to Kissin & Owens (1989), since 2a is significantly larger than c, this sample is stannite.
##STATUS=The identification of this mineral is confirmed by single-crystal X-ray diffraction and chemical analysis.
##URL=rruff.info/R050187
##MEASURED CHEMISTRY=Cu_2.00_(Fe_0.66_Zn_0.34_)Sn_1.00_S_4.00_
99.816, 0.000
101.218, 107.962
102.619, 103.871
104.019, 247.167
105.420, 378.802
106.820, 376.333
108.220, 469.904
109.620, 688.826
111.019, 640.483
112.419, 676.201
113.818, 663.664
115.217, 572.319
116.615, 575.469
118.013, 498.031
119.412, 537.086
120.809, 607.746
122.207, 556.666
123.604, 510.750
125.002, 588.988
126.399, 587.367
127.795, 627.874
129.192, 655.497
130.588, 624.227
131.984, 629.053
133.379, 674.964
134.775, 744.956
136.170, 831.034
137.565, 828.435
138.960, 718.748
140.355, 684.019
141.749, 608.183
143.143, 619.437
144.537, 646.767
145.930, 559.167
147.324, 435.630
148.717, 455.151
150.110, 449.724
151.502, 480.344
152.895, 527.005
154.287, 548.703
155.679, 299.434
157.070, 220.192
158.462, 226.974
159.853, 210.776
161.244, 213.595
162.635, 139.428
164.025, 110.271
165.415, 77.124
166.805, 59.923
168.195, 56.100
169.585, 50.832
170.974, 47.940
172.363, 33.149
173.752, 9.554
175.141, 18.770
176.529, 68.906
177.917, 6.434
179.305, 54.211
180.693, 9.177
182.080, 51.428
183.467, 1.026
184.854, 4.399
186.241, 4.828
187.627, 27.257
189.013, 46.688
190.399, 50.119
191.785, 32.542
193.171, 114.961
194.556, 86.375
195.941, 142.783
197.326, 170.189
198.710, 120.589
200.095, 173.977
201.479, 216.352
202.863, 213.715
204.246, 188.062
205.630, 203.393
207.013, 192.707
208.396, 177.003
209.779, 116.282
211.161, 163.541
212.543, 141.780
213.925, 257.988
215.307, 273.170
216.689, 328.325
218.070, 191.460
219.451, 110.577
220.832, 102.674
222.212, 104.752
223.593, 76.179
224.973, 92.850
226.353, 65.869
227.732, 93.868
229.112, 82.848
230.491, 124.808
231.870, 96.747
233.249, 169.666
234.627, 133.679
236.005, 203.579
237.383, 246.686
238.761, 354.890
240.139, 320.303
241.516, 340.597
242.893, 547.101
244.270, 534.081
245.646, 641.442
247.023, 826.265
248.399, 823.800
249.775, 947.671
251.151, 892.621
252.526, 949.139
253.901, 866.080
255.276, 872.500
256.651, 761.509
258.025, 607.931
259.400, 663.620
260.774, 813.613
262.148, 626.921
263.521, 734.230
264.894, 434.413
266.268, 437.996
267.640, 419.058
269.013, 650.386
270.386, 768.364
271.758, 1112.838
273.130, 1473.947
274.501, 2009.653
275.873, 2819.985
277.244, 3766.158
278.615, 5012.676
279.986, 5912.785
281.356, 6554.790
282.727, 6733.012
284.097, 6064.261
285.467, 5168.398
286.836, 4080.241
288.206, 3345.817
289.575, 2815.894
290.944, 2490.809
292.313, 2230.405
293.681, 2148.306
295.049, 2149.496
296.417, 2190.504
297.785, 2179.413
299.153, 2340.158
300.520, 2433.009
301.887, 2596.854
303.254, 2863.733
304.620, 3341.494
305.987, 3962.220
307.353, 5008.856
308.719, 6630.459
310.085, 8512.149
311.450, 11936.689
312.815, 15681.252
314.180, 20295.748
315.545, 24200.434
316.910, 26104.881
318.274, 25639.316
319.638, 21513.736
321.002, 16518.141
322.365, 11542.474
323.729, 8026.850
325.092, 5568.396
326.455, 3977.742
327.818, 3152.508
329.180, 2418.822
330.542, 2062.591
331.904, 1723.853
333.266, 1633.118
334.628, 1610.367
335.989, 1525.599
337.350, 1545.815
338.711, 1670.014
340.071, 1741.197
341.432, 1885.363
342.792, 1762.512
344.152, 1832.644
345.512, 1644.760
346.871, 1737.858
348.230, 1369.940
349.589, 1210.004
350.948, 1267.052
352.307, 1177.083
353.665, 1350.096
355.023, 1367.093
356.381, 1277.073
357.739, 1084.035
359.096, 846.981
360.453, 592.910
361.810, 390.822
363.167, 304.717
364.523, 220.595
365.880, 84.457
367.236, 79.302
368.592, 22.129
369.947, 2.938
371.303, 7.450
372.658, 25.503
374.013, 32.537
375.367, 46.036
376.722, 44.338
378.076, 45.217
379.430, 48.018
380.784, 39.396
382.137, 12.799
383.491, 3.228
384.844, 85.689
386.196, 35.196
387.549, 36.744
388.901, 19.332
390.254, 5.049
391.606, 2.941
392.957, 34.301
394.309, 12.979
395.660, 3.770
397.011, 2.461
398.362, 59.330
399.712, 18.845
401.063, 48.000
402.413, 25.122
403.763, 43.777
405.112, 53.707
406.462, 44.327
407.811, 1.657
409.160, 24.667
410.509, 24.293
411.857, 1.768
413.206, 21.853
414.554, 32.967
415.902, 66.886
417.249, 4.721
418.597, 39.532
419.944, 5.677
421.291, 14.087
422.638, 29.828
423.984, 2.547
425.330, 38.241
426.676, 59.914
428.022, 23.567
429.368, 20.198
430.713, 31.806
432.058, 90.393
433.403, 2.039
434.748, 33.505
436.092, 63.028
437.437, 4.469
438.781, 63.007
440.124, 17.463
441.468, 36.896
442.811, 56.308
444.154, 89.700
445.497, 65.073
446.840, 64.427
448.182, 54.760
449.525, 78.078
450.867, 83.378
452.208, 100.659
453.550, 105.056
454.891, 84.169
456.232, 114.397
457.573, 106.606
458.914, 118.797
460.254, 74.971
461.594, 155.127
462.934, 211.266
464.274, 195.387
465.614, 170.494
466.953, 158.583
468.292, 210.658
469.631, 235.716
470.969, 181.760
472.308, 275.789
473.646, 255.805
474.984, 224.804
476.322, 177.789
477.659, 185.758
478.996, 158.709
480.333, 198.645
481.670, 167.564
483.007, 153.466
484.343, 198.351
485.679, 148.223
487.015, 215.082
488.351, 177.923
489.686, 192.750
491.022, 245.560
492.357, 205.356
493.692, 244.137
495.026, 218.899
496.360, 255.644
497.695, 232.371
499.029, 211.083
500.362, 379.783
501.696, 495.466
503.029, 234.135
504.362, 339.787
505.695, 196.423
507.027, 243.042
508.360, 241.644
509.692, 219.229
511.024, 200.759
512.355, 194.327
513.687, 202.939
515.018, 215.358
516.349, 207.026
517.680, 306.251
519.011, 248.288
520.341, 268.988
521.671, 270.706
523.001, 204.380
524.331, 229.966
525.660, 231.730
526.989, 246.091
528.318, 224.652
529.647, 229.273
530.976, 283.048
532.304, 280.765
533.632, 250.867
534.960, 226.500
536.288, 247.073
537.615, 229.766
538.943, 212.460
540.270, 253.824
541.596, 238.338
542.923, 237.370
544.249, 222.170
545.576, 274.594
546.902, 254.301
548.227, 192.003
549.553, 260.144
550.878, 190.191
552.203, 259.436
553.528, 226.127
554.852, 202.883
556.177, 245.304
557.501, 300.323
558.825, 259.942
560.149, 270.764
561.472, 221.532
562.795, 271.142
564.118, 208.198
565.441, 232.830
566.764, 326.328
568.086, 286.537
569.408, 256.155
570.730, 269.156
572.052, 275.554
573.374, 256.093
574.695, 251.827
576.016, 339.549
577.337, 238.988
578.657, 224.750
579.978, 275.386
581.298, 211.359
582.618, 213.005
583.938, 223.403
585.257, 244.975
586.577, 249.643
587.896, 260.509
589.215, 219.103
590.533, 175.756
591.852, 219.288
593.170, 194.076
594.488, 226.146
595.806, 228.466
597.123, 210.827
598.441, 232.524
599.758, 261.267
601.075, 257.128
602.391, 288.974
603.708, 236.779
605.024, 275.602
606.340, 222.378
607.656, 244.587
608.971, 308.482
610.287, 316.570
611.602, 319.410
612.917, 320.100
614.232, 351.300
615.546, 368.063
616.860, 429.806
618.174, 447.636
619.488, 419.416
620.802, 393.068
622.115, 423.201
623.429, 414.680
624.742, 469.108
626.054, 509.791
627.367, 537.459
628.679, 603.595
629.991, 621.501
631.303, 682.236
632.615, 697.839
633.926, 714.963
635.237, 800.612
636.548, 757.877
637.859, 821.299
639.170, 759.610
640.480, 773.476
641.790, 813.811
643.100, 849.049
644.410, 800.396
645.719, 612.667
647.029, 554.125
648.338, 558.412
649.647, 512.687
650.955, 507.994
652.264, 327.316
653.572, 343.561
654.880, 393.858
656.188, 294.201
657.495, 346.478
658.802, 236.640
660.110, 237.711
661.416, 290.917
662.723, 252.207
664.030, 321.312
665.336, 224.395
666.642, 281.450
667.948, 255.665
669.253, 226.738
670.559, 179.892
671.864, 227.933
673.169, 243.970
674.473, 240.116
675.778, 140.146
677.082, 282.167
678.386, 144.181
679.690, 134.192
680.994, 166.194
682.297, 81.190
683.600, 119.178
684.903, 62.167
686.206, 51.146
687.509, 100.121
688.811, 5.089
690.113, 71.051
691.415, 28.012
692.717, 85.961
694.018, 97.904
695.320, 50.844
696.621, 35.775
697.922, 17.697
699.222, 44.612
700.523, 73.523
701.823, 3.575
703.123, 96.315
704.423, 72.196
705.722, 25.072
707.022, 94.938
708.321, 68.797
709.620, 64.648
710.918, 2.491
712.217, 79.322
713.515, 39.145
714.813, 16.958
716.111, 77.761
717.409, 4.445
718.706, 4.338
720.003, 59.110
721.300, 50.873
722.597, 50.630
723.893, 37.377
725.190, 34.178
726.486, 29.844
727.782, 17.562
729.078, 48.270
730.373, 31.968
731.668, 33.344
732.963, 10.326
734.258, 9.015
735.553, 0.371
736.847, 38.260
738.142, 23.881
739.436, 41.492
740.729, 5.091
742.023, 17.679
743.316, 3.745
744.609, 21.819
745.902, 29.372
747.195, 13.085
748.487, 0.441
749.780, 9.045
751.072, 4.455
752.364, 33.943
753.655, 15.580
754.947, 12.881
756.238, 14.332
757.529, 1.229
758.820, 1.198
760.110, 25.612
761.401, 8.985
762.691, 21.404
763.981, 65.782
765.271, 8.151
766.560, 41.491
767.849, 19.154
769.139, 24.167
770.427, 17.523
771.716, 11.772
773.005, 20.944
774.293, 0.676
775.581, 77.579
776.869, 39.827
778.156, 61.065
779.444, 12.706
780.731, 33.491
782.018, 68.705
783.305, 35.107
784.591, 56.062
785.878, 13.223
787.164, 47.372
788.450, 47.512
789.735, 37.644
791.021, 31.768
792.306, 45.881
793.591, 32.034
794.876, 20.081
796.161, 32.166
797.445, 55.243
798.729, 84.311
800.013, 43.371
801.297, 24.423
802.581, 63.465
803.864, 67.499
805.147, 73.524
806.430, 37.543
807.713, 66.553
808.996, 47.555
810.278, 125.548
811.560, 99.534
812.842, 47.512
814.124, 141.481
815.405, 133.443
816.687, 121.402
817.968, 146.354
819.248, 84.299
820.529, 179.237
821.810, 131.139
823.090, 108.061
824.370, 137.860
825.650, 73.601
826.929, 138.509
828.209, 146.024
829.488, 143.845
830.767, 166.462
832.046, 160.455
833.324, 134.303
834.602, 164.006
835.881, 136.632
837.159, 146.172
838.436, 85.830
839.714, 171.616
840.991, 120.938
842.268, 142.763
843.545, 139.524
844.822, 139.091
846.098, 150.896
847.374, 155.622
848.650, 152.322
849.926, 203.717
851.202, 136.473
852.477, 196.036
853.752, 208.490
855.027, 169.221
856.302, 178.457
857.577, 215.835
858.851, 170.462
860.125, 193.066
861.399, 128.649
862.673, 157.155
863.947, 164.688
865.220, 169.148
866.493, 187.733
867.766, 186.881
869.039, 167.720
870.311, 202.474
871.583, 197.812
872.856, 228.873
874.127, 206.126
875.399, 188.578
876.671, 230.008
877.942, 230.461
879.213, 191.740
880.484, 228.153
881.754, 265.302
883.025, 127.787
884.295, 173.296
885.565, 252.212
886.835, 165.423
888.104, 136.423
889.374, 222.852
890.643, 196.213
891.912, 198.047
893.180, 224.544
894.449, 190.798
895.717, 205.946
896.986, 127.134
898.253, 194.430
899.521, 239.395
900.789, 155.663
902.056, 218.132
903.323, 182.503
904.590, 189.696
905.857, 256.407
907.123, 173.773
908.389, 211.514
909.655, 211.790
910.921, 208.444
912.187, 178.555
913.452, 173.102
914.718, 192.406
915.983, 130.842
917.247, 158.757
918.512, 231.100
919.777, 182.609
921.041, 147.906
922.305, 167.262
923.569, 138.435
924.832, 172.741
926.095, 195.228
927.359, 181.256
928.622, 189.895
929.884, 180.267
931.147, 142.483
932.409, 152.691
933.671, 136.081
934.933, 132.535
936.195, 119.887
937.457, 139.155
938.718, 154.417
939.979, 169.750
941.240, 207.097
942.501, 160.620
943.761, 133.013
945.022, 231.344
946.282, 117.679
947.541, 107.064
948.801, 140.405
950.061, 80.629
951.320, 147.959
952.579, 172.522
953.838, 155.128
955.096, 154.441
956.355, 172.069
957.613, 161.890
958.871, 164.668
960.129, 157.017
961.387, 138.423
962.644, 121.240
963.901, 192.653
965.158, 161.934
966.415, 80.901
967.672, 143.163
968.928, 39.422
970.184, 124.742
971.440, 135.264
972.696, 93.504
973.952, 151.868
975.207, 127.144
976.462, 122.492
977.717, 92.714
978.972, 60.239
980.227, 52.637
981.481, 70.962
982.735, 104.339
983.989, 72.583
985.243, 115.843
986.496, 104.292
987.750, 107.700
989.003, 110.684
990.256, 111.403
991.509, 97.650
992.761, 93.255
994.013, 93.514
995.266, 54.831
996.517, 58.150
997.769, 66.286
999.021, 49.689
1000.272, 128.033
1001.523, 19.152
1002.774, 68.739
1004.025, 103.844
1005.275, 7.092
1006.525, 182.190
1007.776, 96.735
1009.025, 86.637
1010.275, 59.880
1011.525, 48.962
1012.774, 69.084
1014.023, 61.252
1015.272, 42.506
1016.521, 95.815
1017.769, 28.866
1019.017, 30.061
1020.265, 102.097
1021.513, 64.262
1022.761, 122.436
1024.008, 17.573
1025.256, 61.833
1026.503, 120.927
1027.749, 7.998
1028.996, 75.217
1030.243, 61.299
1031.489, 59.353
1032.735, 137.795
1033.981, 83.776
1035.226, 94.373
1036.472, 104.508
1037.717, 24.471
1038.962, 71.621
1040.207, 95.298
1041.452, 39.558
1042.696, 118.711
1043.940, 44.801
1045.184, 72.988
1046.428, 76.036
1047.672, 48.000
1048.915, 121.255
1050.158, 55.874
1051.401, 44.776
1052.644, 83.031
1053.887, 44.927
1055.129, 114.115
1056.371, 75.210
1057.613, 59.228
1058.855, 124.208
1060.097, 24.082
1061.338, 23.197
1062.579, 95.120
1063.820, 45.961
1065.061, 83.958
1066.302, 53.829
1067.542, 25.768
1068.782, 66.826
1070.022, 42.739
1071.262, 60.530
1072.502, 43.128
1073.741, 69.902
1074.980, 82.729
1076.220, 33.104
1077.458, 24.854
1078.697, 83.736
1079.935, 45.612
1081.174, 58.335
1082.412, 107.244
1083.649, 78.979
1084.887, 66.750
1086.124, 39.508
1087.362, 5.159
1088.599, 74.835
1089.835, 0.705
1091.072, 69.338
1092.308, 73.166
1093.545, 54.781
1094.781, 41.386
1096.016, 51.871
1097.252, 37.700
1098.487, 65.589
1099.723, 15.830
1100.958, 111.885
1102.192, 85.075
1103.427, 53.612
1104.661, 9.118
1105.896, 28.269
1107.130, 41.205
1108.363, 58.743
1109.597, 42.197
1110.831, 92.639
1112.064, 3.784
1113.297, 29.204
1114.530, 43.625
1115.762, 31.023
1116.995, 58.409
1118.227, 53.861
1119.459, 12.428
1120.691, 32.781
1121.922, 18.143
1123.154, 29.472
1124.385, 50.790
1125.616, 3.677
1126.847, 46.615
1128.077, 32.965
1129.308, 31.212
1130.538, 81.463
1131.768, 10.711
1132.998, 21.924
1134.228, 81.147
1135.457, 4.618
1136.686, 93.580
1137.915, 37.768
1139.144, 115.990
1140.373, 79.156
1141.601, 12.413
1142.830, 35.556
1144.058, 68.686
1145.286, 58.882
1146.513, 47.991
1147.741, 28.089
1148.968, 15.461
1150.195, 76.535
1151.422, 37.471
1152.649, 72.381
1153.875, 41.422
1155.101, 38.677
1156.327, 45.694
1157.553, 17.679
1158.779, 53.423
1160.005, 57.405
1161.230, 24.325
1162.455, 52.293
1163.680, 57.245
1164.905, 45.740
1166.129, 71.381
1167.353, 9.714
1168.577, 35.318
1169.801, 79.194
1171.025, 28.924
1172.249, 14.000
1173.472, 6.834
1174.695, 25.875
1175.918, 38.682
1177.141, 16.394
1178.363, 45.319
1179.586, 62.088
1180.808, 3.778
1182.030, 13.188
1183.252, 95.504
1184.473, 2.324
1185.694, 96.428
1186.916, 8.033
1188.137, 25.735
1189.357, 40.409
1190.578, 47.040
1191.798, 69.709
1193.019, 16.153
1194.239, 28.421
1195.458, 88.177
1196.678, 35.673
1197.897, 61.364
1199.117, 45.031
1200.336, 17.399
1201.554, 46.936
1202.773, 76.356
1203.991, 17.152
1205.210, 72.320
1206.428, 57.804
1207.646, 8.610
1208.863, 98.276
1210.081, 40.527
1211.298, 40.217
1212.515, 99.539
1213.732, 28.909
1214.949, 64.398
1216.165, 54.783
1217.381, 59.156
1218.597, 104.279
1219.813, 65.343
1221.029, 21.727
1222.245, 101.735
1223.460, 26.051
1224.675, 90.354
1225.890, 98.588
1227.105, 37.749
1228.319, 77.483
1229.533, 4.603
1230.748, 61.839
1231.962, 29.373
1233.175, 11.405
1234.389, 43.800
1235.602, 74.927
1236.815, 41.835
1238.028, 118.009
1239.241, 51.044
1240.454, 78.149
1241.666, 76.167
1242.878, 13.705
1244.090, 70.107
1245.302, 57.024
1246.514, 107.997
1247.725, 128.900
1248.936, 49.921
1250.147, 22.909
1251.358, 144.692
1252.569, 61.559
1253.779, 91.347
1254.990, 144.177
1256.200, 17.097
1257.410, 174.644
1258.619, 50.522
1259.829, 99.326
1261.038, 86.184
1262.247, 90.179
1263.456, 59.849
1264.665, 89.561
1265.873, 19.482
1267.082, 97.918
1268.290, 95.820
1269.498, 6.565
1270.705, 133.448
1271.913, 42.323
1273.120, 69.920
1274.328, 108.615
1275.535, 36.457
1276.741, 158.242
1277.948, 98.022
1279.154, 0.640
1280.361, 130.190
1281.567, 58.982
1282.772, 73.615
1283.978, 109.390
1285.183, 14.022
1286.389, 121.631
1287.594, 24.660
1288.799, 15.846
1290.003, 108.797
1291.208, 22.365
1292.412, 61.853
1293.616, 130.463
1294.820, 45.081
1296.024, 17.295
1297.227, 111.956
1298.431, 29.988
1299.634, 84.466
1300.837, 52.100
1302.039, 12.532
1303.242, 100.423
1304.444, 1.730
1305.647, 95.115
1306.848, 117.551
1308.050, 28.876
1309.252, 215.327
1310.453, 139.654
1311.654, 4.158
1312.856, 118.993
1314.056, 17.803
1315.257, 2.026
1316.457, 124.492
1317.658, 52.892
1318.858, 56.186
1320.058, 120.541
1321.257, 29.080
1322.457, 129.389
1323.656, 67.603
1324.855, 55.990
1326.054, 119.447
1327.253, 31.359
1328.451, 22.755
1329.650, 112.067
1330.848, 67.305
1332.046, 70.613
1333.244, 102.027
1334.441, 37.617
1335.639, 110.017
1336.836, 30.349
1338.033, 10.884
1339.230, 142.493
1340.426, 4.721
1341.623, 110.937
1342.819, 71.289
1344.015, 33.429
1345.211, 157.727
1346.407, 98.973
1347.602, 59.408
1348.797, 122.722
1349.993, 43.010
1351.188, 70.090
1352.382, 142.388
1353.577, 76.476
1354.771, 70.756
1355.965, 150.031
1357.159, 80.217
1358.353, 140.483
1359.547, 63.416
1360.740, 61.763
1361.933, 243.823
1363.126, 226.149
1364.319, 463.504
1365.512, 357.723
1366.704, 98.816
1367.897, 101.028
1369.089, 150.158
1370.281, 91.357
1371.472, 232.545
1372.664, 47.014
1373.855, 68.190
1375.046, 145.315
1376.237, 84.476
1377.428, 149.631
1378.618, 92.699
1379.809, 175.635
1380.999, 140.724
1382.189, 156.873
1383.379, 77.005
1384.568, 168.120
1385.758, 99.003
1386.947, 137.451
1388.136, 117.483
1389.325, 30.579
1390.514, 36.781
1391.702, 113.800
1392.891, 130.711
1394.079, 185.565
1395.267, 183.766
1396.454, 47.741
1397.642, 157.962
1398.829, 75.280
1400.016, 44.455
1401.203, 149.363
1402.390, 80.630
1403.577, 76.909
1404.763, 147.931
1405.949, 30.167
1407.135, 141.191
1408.321, 107.406
1409.507, 80.298
1410.692, 159.350
1411.878, 103.515
1413.063, 88.461
1414.248, 112.277
1415.433, 5.698
1416.617, 60.490
1417.801, 213.322
1418.986, 28.234
1420.170, 148.900
1421.353, 102.050
1422.537, 63.881
1423.720, 202.018
1424.904, 69.999
1426.087, 135.914
1427.270, 189.032
1428.452, 46.037
1429.635, 115.993
1430.817, 133.284
1431.999, 35.015
1433.181, 145.968
1434.363, 127.049
1435.544, 63.123
1436.726, 216.124
1437.907, 16.188
1439.088, 156.247
1440.269, 187.301
1441.449, 1.647
1442.630, 146.405
1443.810, 132.459
1444.990, 2.509
1446.170, 155.557
1447.349, 95.593
1448.529, 61.643
1449.708, 140.689
1450.887, 43.734
1452.066, 142.778
1453.245, 201.818
1454.424, 17.143
1455.602, 127.754
1456.780, 125.699
1457.958, 20.729
1459.136, 158.757
1460.314, 95.779
1461.491, 104.795
1462.668, 122.805
1463.845, 66.689
1465.022, 60.706
1466.199, 169.724
1467.376, 89.737
1468.552, 132.796
1469.728, 179.791
1470.904, 92.476
1472.080, 102.437
1473.255, 144.407
1474.431, 1.376
1475.606, 165.342
1476.781, 65.294
1477.956, 45.283
1479.131, 188.268
1480.305, 28.951
1481.479, 97.038
1482.653, 225.971
1483.827, 13.249
1485.001, 115.144
1486.175, 134.027
1487.348, 4.898
1488.521, 239.304
1489.694, 122.816
1490.867, 44.544
1492.040, 163.247
1493.212, 97.927
1494.384, 106.576
1495.556, 191.236
1496.728, 42.977
1497.900, 67.735
1499.071, 113.370
1500.243, 49.962
1501.414, 138.551
1502.585, 83.668
1503.756, 31.204
1504.926, 231.800
1506.097, 151.379
1507.267, 88.932
1508.437, 196.459
1509.607, 18.992
1510.776, 92.548
1511.946, 94.116
1513.115, 7.214
1514.284, 184.561
1515.453, 116.125
1516.622, 5.018
1517.791, 163.279
1518.959, 81.774
1520.127, 0.000
##END=



