##NAMES=Staurolite
##RRUFFID=R050079
##IDEAL CHEMISTRY=Fe^2+^_2_Al_9_Si_4_O_23_(OH)
##LOCALITY=Keivy, Kola Peninsula, Russia
##OWNER=RRUFF
##SOURCE=Rock Currier
##DESCRIPTION=Brown cruciform twins
##STATUS=The identification of this mineral has been confirmed by X-ray diffraction and chemical analysis
##URL=rruff.info/R050079
##MEASURED CHEMISTRY=(Fe^2+^_0.77_Mg_0.23_)_2_(Al_0.99_Ti_0.01_)_9_(Si_0.99_Al_0.01_)_4_O_20_(O_0.76_(OH)_0.24_)_4_
179.354, 0.000
180.734, 77.058
182.114, 1.015
183.493, 53.682
184.872, 129.374
186.251, 206.284
187.630, 159.980
189.008, 156.233
190.387, 171.273
191.765, 223.119
193.143, 228.817
194.520, 235.486
195.898, 235.491
197.275, 343.304
198.652, 335.531
200.029, 386.158
201.405, 405.072
202.782, 371.916
204.158, 412.773
205.534, 536.837
206.909, 654.297
208.285, 590.927
209.660, 406.854
211.035, 149.182
212.410, 12.995
213.784, 2.635
215.159, 10.650
216.533, 65.001
217.907, 24.361
219.281, 47.470
220.654, 33.363
222.027, 3.663
223.400, 44.517
224.773, 96.927
226.146, 144.863
227.518, 139.266
228.891, 174.737
230.263, 220.748
231.634, 192.580
233.006, 232.854
234.377, 247.208
235.748, 254.638
237.119, 200.144
238.490, 200.722
239.860, 228.373
241.231, 309.092
242.601, 304.880
243.970, 245.732
245.340, 295.642
246.709, 224.602
248.079, 221.612
249.448, 253.672
250.816, 161.783
252.185, 212.945
253.553, 189.159
254.921, 197.427
256.289, 196.753
257.657, 186.142
259.024, 199.598
260.391, 195.121
261.758, 163.725
263.125, 121.429
264.492, 82.220
265.858, 60.095
267.224, 37.050
268.590, 8.076
269.956, 37.832
271.321, 42.683
272.687, 38.482
274.052, 78.234
275.416, 39.939
276.781, 64.602
278.146, 105.230
279.510, 24.868
280.874, 23.508
282.237, 13.907
283.601, 115.315
284.964, 125.755
286.327, 224.224
287.690, 315.719
289.053, 412.242
290.416, 607.795
291.778, 924.376
293.140, 1108.988
294.502, 1486.630
295.863, 1912.303
297.225, 2487.006
298.586, 3122.740
299.947, 4093.503
301.308, 4818.300
302.668, 5296.126
304.029, 5651.984
305.389, 5631.868
306.749, 5062.755
308.108, 4368.599
309.468, 3832.381
310.827, 3119.092
312.186, 2575.780
313.545, 2125.503
314.903, 1782.263
316.262, 1572.060
317.620, 1281.895
318.978, 1141.767
320.336, 1069.676
321.693, 861.620
323.051, 816.601
324.408, 844.623
325.765, 766.693
327.121, 768.827
328.478, 677.034
329.834, 693.284
331.190, 739.641
332.546, 697.310
333.902, 668.691
335.257, 697.388
336.612, 655.137
337.967, 662.940
339.322, 681.784
340.677, 686.683
342.031, 693.844
343.385, 707.495
344.739, 718.665
346.093, 729.125
347.446, 770.095
348.799, 776.122
350.153, 872.093
351.505, 880.014
352.858, 939.870
354.210, 956.663
355.563, 986.412
356.915, 920.125
358.267, 920.795
359.618, 822.400
360.969, 783.833
362.321, 831.211
363.672, 717.567
365.022, 668.858
366.373, 677.161
367.723, 607.442
369.073, 635.712
370.423, 556.978
371.773, 503.245
373.122, 510.533
374.471, 458.191
375.821, 463.558
377.169, 403.319
378.518, 480.299
379.866, 442.161
381.215, 472.590
382.563, 496.354
383.910, 521.977
385.258, 464.614
386.605, 555.434
387.952, 653.526
389.299, 621.664
390.646, 596.579
391.992, 665.377
393.339, 693.364
394.685, 593.947
396.031, 722.720
397.376, 796.155
398.722, 817.233
400.067, 629.043
401.412, 711.133
402.757, 709.921
404.101, 719.118
405.446, 711.340
406.790, 623.586
408.134, 652.857
409.478, 585.152
410.821, 547.472
412.165, 507.815
413.508, 478.182
414.851, 566.572
416.193, 567.985
417.536, 652.423
418.878, 709.882
420.220, 858.365
421.562, 938.870
422.904, 1034.396
424.245, 1319.945
425.586, 1258.515
426.927, 1284.036
428.268, 1422.502
429.609, 1352.835
430.949, 1351.823
432.289, 1391.223
433.629, 1429.413
434.969, 1384.961
436.309, 1427.106
437.648, 1549.746
438.987, 1683.928
440.326, 1695.647
441.665, 1687.499
443.003, 1827.182
444.342, 1987.828
445.680, 2013.696
447.018, 1954.583
448.355, 1892.490
449.693, 1768.416
451.030, 1707.361
452.367, 1674.325
453.704, 1619.308
455.041, 1388.310
456.377, 1374.331
457.713, 1317.370
459.049, 1253.429
460.385, 1257.505
461.721, 1253.601
463.056, 1318.714
464.391, 1267.847
465.726, 1064.996
467.061, 1134.841
468.395, 1010.027
469.730, 918.894
471.064, 945.117
472.398, 808.091
473.731, 913.542
475.065, 904.863
476.398, 918.129
477.731, 934.876
479.064, 990.976
480.397, 974.618
481.729, 975.215
483.062, 1103.835
484.394, 1133.112
485.725, 1214.483
487.057, 1267.384
488.389, 1356.838
489.720, 1415.909
491.051, 1466.099
492.382, 1614.465
493.712, 1695.979
495.043, 1704.010
496.373, 1803.551
497.703, 1848.953
499.032, 1835.657
500.362, 1874.470
501.691, 1945.062
503.020, 1815.667
504.349, 1722.812
505.678, 1761.504
507.007, 1696.123
508.335, 1682.878
509.663, 1612.521
510.991, 1537.575
512.319, 1617.540
513.646, 1571.695
514.973, 1548.503
516.300, 1523.980
517.627, 1521.676
518.954, 1518.297
520.280, 1535.025
521.607, 1557.254
522.933, 1567.778
524.259, 1602.003
525.584, 1686.958
526.910, 1664.723
528.235, 1703.829
529.560, 1725.541
530.885, 1673.694
532.209, 1558.635
533.534, 1504.783
534.858, 1434.081
536.182, 1298.929
537.506, 1175.382
538.829, 1041.263
540.152, 1003.156
541.476, 843.063
542.799, 884.983
544.121, 730.916
545.444, 774.867
546.766, 728.831
548.088, 750.806
549.410, 698.792
550.732, 743.792
552.053, 788.804
553.375, 780.830
554.696, 834.271
556.017, 765.918
557.337, 888.980
558.658, 889.055
559.978, 881.143
561.298, 966.242
562.618, 1044.354
563.938, 947.479
565.257, 1099.615
566.576, 1196.764
567.895, 1181.731
569.214, 1296.099
570.533, 1241.284
571.851, 1199.481
573.170, 1237.691
574.488, 1232.913
575.805, 1173.147
577.123, 1161.393
578.440, 1129.651
579.758, 1020.922
581.075, 1115.205
582.391, 939.500
583.708, 956.808
585.024, 829.127
586.341, 795.459
587.657, 767.602
588.972, 697.611
590.288, 698.538
591.603, 629.938
592.918, 567.367
594.233, 562.822
595.548, 561.314
596.863, 483.832
598.177, 504.383
599.491, 475.977
600.805, 419.592
602.119, 505.220
603.432, 477.861
604.746, 430.516
606.059, 459.184
607.372, 372.863
608.685, 300.556
609.997, 348.260
611.309, 243.979
612.621, 242.708
613.933, 261.452
615.245, 208.208
616.557, 186.977
617.868, 187.758
619.179, 117.553
620.490, 137.360
621.801, 58.180
623.111, 80.014
624.421, 2.860
625.731, 69.711
627.041, 16.423
628.351, 45.438
629.660, 54.688
630.970, 7.834
632.279, 4.980
633.588, 42.875
634.896, 2.745
636.205, 88.379
637.513, 47.540
638.821, 101.716
640.129, 46.934
641.437, 22.168
642.744, 97.407
644.051, 124.684
645.358, 24.988
646.665, 18.327
647.972, 20.643
649.278, 23.961
650.584, 50.717
651.890, 17.590
653.196, 33.103
654.502, 5.189
655.807, 67.570
657.113, 6.690
658.418, 47.788
659.722, 57.509
661.027, 58.162
662.331, 11.909
663.636, 30.551
664.940, 51.856
666.244, 17.179
667.547, 20.031
668.851, 38.303
670.154, 22.581
671.457, 72.857
672.760, 67.153
674.062, 20.534
675.365, 95.762
676.667, 66.086
677.969, 5.427
679.271, 106.756
680.572, 26.118
681.874, 97.477
683.175, 6.136
684.476, 25.234
685.777, 17.599
687.077, 26.955
688.378, 99.306
689.678, 27.683
690.978, 51.055
692.278, 4.570
693.577, 54.786
694.877, 74.854
696.176, 91.513
697.475, 88.193
698.774, 173.894
700.072, 184.615
701.371, 151.357
702.669, 275.121
703.967, 223.906
705.265, 290.711
706.562, 387.539
707.860, 428.388
709.157, 348.258
710.454, 512.151
711.751, 499.065
713.047, 608.002
714.344, 560.961
715.640, 719.942
716.936, 730.946
718.232, 725.973
719.527, 870.022
720.823, 949.094
722.118, 996.189
723.413, 1108.309
724.708, 1208.450
726.002, 1151.615
727.297, 1470.804
728.591, 1337.017
729.885, 1537.253
731.179, 1667.514
732.472, 1734.797
733.766, 1798.106
735.059, 1955.439
736.352, 2011.796
737.645, 2189.178
738.937, 2362.584
740.230, 2378.016
741.522, 2460.473
742.814, 2525.953
744.106, 2738.460
745.397, 2896.992
746.689, 2948.549
747.980, 2902.131
749.271, 3273.738
750.562, 3108.372
751.853, 3509.031
753.143, 3482.715
754.433, 3783.425
755.723, 3788.161
757.013, 3921.921
758.303, 4204.708
759.592, 4287.521
760.881, 4768.359
762.170, 4923.223
763.459, 5080.113
764.748, 5108.030
766.036, 5394.973
767.325, 5665.941
768.613, 5724.938
769.901, 6128.959
771.188, 6232.007
772.476, 6351.084
773.763, 6691.186
775.050, 6752.315
776.337, 7040.471
777.624, 7219.655
778.910, 7367.866
780.196, 7727.427
781.482, 8021.692
782.768, 7967.325
784.054, 8297.646
785.339, 8498.270
786.625, 8837.461
787.910, 8974.836
789.195, 9278.283
790.479, 9623.138
791.764, 9776.146
793.048, 9815.423
794.332, 9744.805
795.616, 9873.210
796.900, 9499.028
798.183, 9253.800
799.467, 8748.107
800.750, 8214.930
802.033, 7682.296
803.316, 6829.402
804.598, 6399.483
805.880, 5632.471
807.163, 4958.005
808.445, 4312.082
809.726, 3770.850
811.008, 3161.387
812.289, 2826.371
813.570, 2440.646
814.851, 2030.969
816.132, 1943.798
817.413, 1677.133
818.693, 1425.592
819.973, 1278.958
821.253, 1194.485
822.533, 1084.644
823.813, 1051.933
825.092, 850.073
826.371, 690.604
827.650, 680.521
828.929, 680.270
830.208, 695.789
831.486, 512.988
832.764, 537.362
834.042, 482.502
835.320, 513.024
836.598, 314.836
837.875, 372.903
839.152, 300.691
840.429, 264.934
841.706, 342.798
842.983, 198.934
844.259, 250.938
845.536, 266.839
846.812, 135.247
848.088, 161.111
849.363, 119.605
850.639, 163.138
851.914, 201.725
853.189, 157.352
854.464, 193.025
855.739, 196.736
857.013, 265.487
858.288, 233.278
859.562, 129.121
860.836, 315.008
862.110, 324.933
863.383, 261.898
864.656, 454.902
865.930, 405.945
867.203, 447.029
868.475, 515.150
869.748, 543.316
871.020, 534.518
872.292, 658.759
873.564, 671.040
874.836, 788.357
876.108, 900.714
877.379, 953.110
878.650, 1070.543
879.922, 1222.013
881.192, 1341.524
882.463, 1461.072
883.733, 1608.660
885.004, 1768.290
886.274, 1965.956
887.544, 2154.658
888.813, 2366.777
890.083, 2561.172
891.352, 2759.984
892.621, 2931.833
893.890, 3009.717
895.159, 3195.638
896.427, 3267.592
897.695, 3181.581
898.964, 3194.604
900.232, 3270.661
901.499, 3225.752
902.767, 3070.577
904.034, 3130.856
905.301, 3138.886
906.568, 3097.481
907.835, 2858.472
909.102, 2874.707
910.368, 2812.331
911.634, 2721.689
912.900, 2845.081
914.166, 2908.506
915.432, 3049.964
916.697, 3006.454
917.962, 3096.976
919.227, 3260.529
920.492, 3475.113
921.757, 3591.727
923.021, 3707.373
924.285, 4073.050
925.550, 4230.759
926.813, 4645.497
928.077, 4857.265
929.341, 5170.064
930.604, 5415.894
931.867, 5748.752
933.130, 5906.647
934.393, 6121.890
935.655, 6477.984
936.918, 6261.974
938.180, 6475.698
939.442, 6312.420
940.703, 6192.528
941.965, 6107.031
943.226, 5813.651
944.488, 5573.312
945.749, 5481.994
947.009, 4937.690
948.270, 4510.731
949.530, 4245.242
950.791, 4057.490
952.051, 3919.136
953.311, 3746.771
954.570, 3584.521
955.830, 3498.849
957.089, 3290.261
958.348, 3184.853
959.607, 3102.787
960.866, 3089.334
962.124, 3066.681
963.383, 3057.527
964.641, 3129.319
965.899, 2967.658
967.156, 3076.233
968.414, 2974.126
969.671, 2866.404
970.928, 2865.735
972.185, 2842.169
973.442, 2871.132
974.699, 2837.118
975.955, 2816.138
977.211, 2787.937
978.468, 2613.894
979.723, 2665.503
980.979, 2563.889
982.234, 2411.383
983.490, 2716.910
984.745, 2411.602
986.000, 2521.586
987.254, 2448.582
988.509, 2324.312
989.763, 2646.319
991.017, 2637.541
992.271, 2328.928
993.525, 2435.349
994.779, 2359.967
996.032, 2480.202
997.285, 2468.077
998.538, 2471.302
999.791, 2490.395
1001.044, 2413.975
1002.296, 2448.339
1003.548, 2306.764
1004.800, 2243.440
1006.052, 2269.416
1007.304, 2150.802
1008.555, 2097.014
1009.807, 2046.338
1011.058, 2003.601
1012.309, 1948.557
1013.559, 1953.114
1014.810, 1796.235
1016.060, 1697.676
1017.310, 1748.370
1018.560, 1722.527
1019.810, 1547.904
1021.060, 1544.769
1022.309, 1556.206
1023.558, 1502.603
1024.807, 1480.811
1026.056, 1423.232
1027.305, 1389.762
1028.553, 1302.700
1029.801, 1344.993
1031.049, 1204.177
1032.297, 1089.071
1033.545, 1030.933
1034.793, 1035.197
1036.040, 890.361
1037.287, 894.186
1038.534, 812.491
1039.781, 740.824
1041.027, 789.908
1042.274, 682.058
1043.520, 605.233
1044.766, 648.422
1046.012, 488.236
1047.257, 524.140
1048.503, 434.784
1049.748, 430.670
1050.993, 379.448
1052.238, 355.182
1053.483, 363.904
1054.727, 328.791
1055.971, 329.479
1057.216, 329.719
1058.459, 320.479
1059.703, 310.866
1060.947, 318.520
1062.190, 298.693
1063.433, 305.667
1064.676, 337.614
1065.919, 276.255
1067.162, 197.946
1068.404, 278.538
1069.646, 163.949
1070.888, 160.459
1072.130, 172.055
1073.372, 104.846
1074.613, 5.406
1075.855, 142.868
1077.096, 31.302
1078.337, 54.056
1079.578, 101.635
1080.818, 37.266
1082.059, 92.844
1083.299, 13.619
1084.539, 6.153
1085.779, 27.332
1087.018, 22.135
1088.258, 20.640
1089.497, 46.840
1090.736, 93.740
1091.975, 30.087
1093.213, 12.298
1094.452, 43.111
1095.690, 8.994
1096.928, 76.799
1098.166, 0.651
1099.404, 60.444
1100.642, 80.629
1101.879, 44.897
1103.116, 29.213
1104.353, 11.532
1105.590, 22.816
1106.827, 56.101
1108.063, 12.196
1109.299, 36.497
1110.536, 47.762
1111.771, 38.122
1113.007, 83.687
1114.243, 43.292
1115.478, 13.934
1116.713, 32.465
1117.948, 7.271
1119.183, 12.823
1120.418, 5.994
1121.652, 83.263
1122.886, 170.262
1124.120, 75.248
1125.354, 140.259
1126.588, 19.793
1127.821, 0.718
1129.055, 59.732
1130.288, 37.272
1131.521, 39.391
1132.753, 28.729
1133.986, 47.833
1135.218, 0.957
1136.450, 40.667
1137.682, 28.688
1138.914, 15.072
1140.146, 32.583
1141.377, 16.133
1142.609, 65.833
1143.840, 29.328
1145.071, 53.415
1146.301, 7.466
1147.532, 94.469
1148.762, 47.573
1149.992, 24.334
1151.222, 32.573
1152.452, 4.302
1153.682, 63.163
1154.911, 39.035
1156.140, 49.918
1157.369, 19.063
1158.598, 16.652
1159.827, 76.188
1161.055, 38.990
1162.284, 65.602
1163.512, 46.948
1164.740, 37.484
1165.967, 67.924
1167.195, 20.208
1168.422, 101.475
1169.650, 53.669
1170.877, 57.338
1172.103, 71.514
1173.330, 58.510
1174.557, 53.832
1175.783, 102.852
1177.009, 70.323
1178.235, 32.542
1179.461, 112.523
1180.686, 44.484
1181.912, 32.531
1183.137, 86.375
1184.362, 127.205
1185.587, 77.096
1186.811, 75.847
1188.036, 97.505
1189.260, 92.118
1190.484, 90.866
1191.708, 90.515
1192.932, 134.159
1194.155, 122.652
1195.378, 175.345
1196.602, 125.889
1197.825, 143.299
1199.047, 137.559
1200.270, 171.907
1201.492, 127.090
1202.715, 163.634
1203.937, 91.675
1205.159, 144.851
1206.380, 144.091
1207.602, 160.047
1208.823, 142.268
1210.044, 117.107
1211.265, 119.887
1212.486, 166.851
1213.707, 153.585
1214.927, 175.260
1216.147, 217.090
1217.367, 192.074
1218.587, 169.849
1219.807, 135.521
1221.027, 174.625
1222.246, 195.991
1223.465, 200.336
1224.684, 136.933
1225.903, 161.050
1227.121, 149.872
1228.340, 156.055
1229.558, 163.273
1230.776, 175.975
1231.994, 168.089
1233.212, 154.744
1234.429, 157.047
1235.646, 158.461
1236.864, 169.592
1238.081, 210.363
1239.297, 175.962
1240.514, 191.412
1241.730, 196.881
1242.947, 172.084
1244.163, 165.307
1245.378, 146.893
1246.594, 223.936
1247.810, 235.219
1249.025, 236.267
1250.240, 211.670
1251.455, 194.866
1252.670, 184.699
1253.885, 127.663
1255.099, 163.113
1256.313, 140.672
1257.527, 147.577
1258.741, 181.751
1259.955, 168.134
1261.168, 160.983
1262.382, 123.574
1263.595, 174.959
1264.808, 190.650
1266.021, 166.704
1267.233, 138.329
1268.446, 194.489
1269.658, 191.310
1270.870, 178.980
1272.082, 187.873
1273.294, 143.165
1274.505, 153.393
1275.716, 127.151
1276.928, 100.599
1278.139, 142.051
1279.349, 121.063
1280.560, 125.567
1281.770, 132.185
1282.981, 139.627
1284.191, 128.264
1285.401, 142.904
1286.610, 133.464
1287.820, 152.637
1289.029, 160.606
1290.239, 168.758
1291.448, 170.352
1292.656, 187.833
1293.865, 134.736
1295.073, 128.229
1296.282, 153.335
1297.490, 26.530
1298.698, 139.274
1299.906, 127.804
1301.113, 115.378
1302.320, 76.599
1303.528, 126.315
1304.735, 155.725
1305.942, 165.395
1307.148, 90.606
1308.355, 124.514
1309.561, 114.592
1310.767, 125.900
1311.973, 202.930
1313.179, 143.028
1314.384, 218.859
1315.590, 163.405
1316.795, 60.975
1318.000, 125.684
1319.205, 77.144
1320.410, 137.461
1321.614, 45.485
1322.819, 70.035
1324.023, 112.602
1325.227, 107.371
1326.431, 74.138
1327.634, 108.467
1328.838, 100.857
1330.041, 76.309
1331.244, 98.536
1332.447, 109.228
1333.650, 109.332
1334.852, 65.928
1336.055, 78.510
1337.257, 68.474
1338.459, 58.010
1339.661, 78.480
1340.862, 62.581
1342.064, 83.108
1343.265, 108.479
1344.466, 76.718
1345.667, 106.162
1346.868, 35.234
1348.068, 118.583
1349.269, 74.219
1350.469, 54.300
1351.669, 105.331
1352.869, 45.391
1354.069, 111.337
1355.268, 114.033
1356.468, 58.713
1357.667, 102.653
1358.866, 154.606
1360.065, 46.506
1361.263, 36.150
1362.462, 55.941
1363.660, 67.435
1364.858, 71.383
1366.056, 46.577
1367.254, 58.756
1368.451, 120.492
1369.649, 30.866
1370.846, 89.365
1372.043, 57.608
1373.240, 85.837
1374.436, 124.013
1375.633, 22.164
1376.829, 33.196
1378.025, 93.089
1379.221, 22.066
1380.417, 42.719
1381.613, 35.935
1382.808, 41.092
1384.003, 60.228
1385.199, 50.125
1386.393, 124.646
1387.588, 36.146
1388.783, 64.394
1389.977, 32.245
1391.171, 122.122
1392.365, 7.346
1393.559, 56.333
1394.753, 81.698
1395.946, 32.701
1397.140, 32.033
1398.333, 14.219
1399.526, 45.069
1400.719, 23.591
1401.911, 61.298
1403.104, 30.054
1404.296, 25.861
1405.488, 25.781
1406.680, 18.994
1407.872, 11.642
1409.063, 33.464
1410.255, 34.610
1411.446, 23.671
1412.637, 81.549
1413.828, 87.197
1415.018, 41.494
1416.209, 52.244
1417.399, 67.127
1418.589, 13.329
1419.779, 38.568
1420.969, 32.069
1422.159, 88.791
1423.348, 35.750
1424.537, 99.492
1425.726, 90.025
1426.915, 111.523
1428.104, 37.206
1429.293, 23.679
1430.481, 113.964
1431.669, 17.121
1432.857, 23.347
1434.045, 120.827
1435.233, 49.818
1436.420, 124.331
1437.608, 77.571
1438.795, 89.724
1439.982, 47.096
1441.169, 115.892
1442.355, 60.333
1443.542, 0.752
1444.728, 164.053
1445.914, 58.397
1447.100, 90.098
1448.286, 88.182
1449.472, 49.004
1450.657, 98.832
1451.842, 121.590
1453.027, 108.922
1454.212, 54.703
1455.397, 118.702
1456.581, 54.188
1457.766, 114.504
1458.950, 75.427
1460.134, 92.430
1461.318, 85.221
1462.501, 91.351
1463.685, 41.077
1464.868, 59.517
1466.051, 57.147
1467.234, 96.546
1468.417, 91.997
1469.600, 76.127
1470.782, 85.465
1471.965, 70.811
1473.147, 47.770
1474.329, 50.405
1475.510, 39.331
1476.692, 55.854
1477.873, 30.064
1479.055, 69.892
1480.236, 27.031
1481.416, 77.671
1482.597, 33.416
1483.778, 8.323
1484.958, 44.835
1486.138, 122.118
1487.318, 35.982
1488.498, 104.408
1489.678, 30.730
1490.857, 116.375
1492.037, 57.037
1493.216, 116.935
1494.395, 109.095
1495.574, 120.013
1496.752, 115.920
1497.931, 62.404
1499.109, 141.200
1500.287, 31.889
1501.465, 76.669
1502.643, 21.466
1503.820, 4.354
1504.998, 116.385
1506.175, 66.917
1507.352, 19.347
1508.529, 77.854
1509.706, 77.290
1510.882, 106.696
1512.059, 112.717
1513.235, 67.251
1514.411, 127.312
1515.587, 34.342
1516.762, 78.938
1517.938, 11.497
1519.113, 27.842
1520.288, 22.325
1521.463, 0.000
##END=



