##NAMES=Stibarsen
##RRUFFID=R060115
##IDEAL CHEMISTRY=SbAs
##LOCALITY=Moctezuma, Sonora, Mexico
##OWNER=RRUFF
##SOURCE=University of Arizona Mineral Museum
##DESCRIPTION=Tin-white reniform mass with many small inclusions of antimony
##STATUS=The identification of this mineral is confirmed by single-crystal X-ray diffraction and chemical analysis.
##URL=rruff.info/R060115
##MEASURED CHEMISTRY=gray phase: Sb_1.00_As_1.00_; light inclusions: Sb_2.00_(Sb_1.12_As_0.88_)_Σ=2_
125.4582, 0.0000000E+00
125.9404, 0.1322480
126.4225, 0.2742350
126.9046, 3.7349999E-02
127.3867, 0.1442180
127.8688, 5.9312999E-02
128.3509, 0.2862130
128.8331, 0.6486850
129.3152, 0.5729120
129.7973, 0.1863120
130.2794, 0.1549990
130.7615, 0.9892350
131.2436, 2.444061
131.7258, 3.653891
132.2079, 4.531565
132.6900, 5.310049
133.1721, 6.282839
133.6542, 7.443207
134.1364, 8.861553
134.6185, 10.59812
135.1006, 12.65818
135.5827, 14.90689
136.0648, 17.29563
136.5469, 19.92911
137.0291, 23.23410
137.5112, 27.36433
137.9933, 31.43321
138.4754, 35.01136
138.9575, 38.08655
139.4396, 40.52505
139.9218, 42.20472
140.4039, 43.22631
140.8860, 44.10167
141.3681, 45.01801
141.8502, 45.43520
142.3323, 44.87445
142.8145, 43.09758
143.2966, 40.91574
143.7787, 38.27542
144.2608, 35.17036
144.7429, 32.62236
145.2250, 30.78898
145.7072, 29.34289
146.1893, 27.95673
146.6714, 26.47324
147.1535, 25.28611
147.6356, 24.49759
148.1178, 24.13792
148.5999, 23.97471
149.0820, 23.94974
149.5641, 24.14800
150.0462, 24.67897
150.5283, 26.12164
151.0105, 27.31303
151.4926, 27.36945
151.9747, 26.46504
152.4568, 25.88869
152.9389, 25.92952
153.4210, 26.25087
153.9032, 26.38304
154.3853, 26.61420
154.8674, 26.36924
155.3495, 25.31223
155.8316, 22.81068
156.3137, 20.92879
156.7959, 20.26482
157.2780, 20.39289
157.7601, 20.51802
158.2422, 20.72844
158.7243, 20.70086
159.2065, 20.21837
159.6886, 18.85355
160.1707, 17.73368
160.6528, 17.36843
161.1349, 17.51173
161.6170, 17.51652
162.0992, 17.12983
162.5813, 16.54452
163.0634, 15.87302
163.5455, 15.03283
164.0276, 14.25655
164.5097, 13.46958
164.9919, 12.76882
165.4740, 12.54465
165.9561, 13.25537
166.4382, 14.40091
166.9203, 15.53682
167.4024, 16.47219
167.8846, 17.43143
168.3667, 18.47156
168.8488, 19.61783
169.3309, 21.04597
169.8130, 23.17375
170.2952, 25.56424
170.7773, 27.64874
171.2594, 29.03484
171.7415, 30.20744
172.2236, 31.66999
172.7057, 33.40387
173.1879, 34.94434
173.6700, 35.86612
174.1521, 36.42263
174.6342, 36.95271
175.1163, 37.75479
175.5984, 38.60764
176.0806, 39.15930
176.5627, 39.49141
177.0448, 39.81272
177.5269, 40.44956
178.0090, 41.29135
178.4911, 42.00544
178.9733, 42.08687
179.4554, 42.05528
179.9375, 42.79214
180.4196, 44.28560
180.9017, 46.25751
181.3838, 48.32561
181.8660, 50.56753
182.3481, 53.34408
182.8302, 56.69983
183.3123, 60.67419
183.7944, 65.33912
184.2766, 70.69821
184.7587, 76.92280
185.2408, 84.67319
185.7229, 93.70710
186.2050, 102.9718
186.6871, 112.5308
187.1693, 122.0500
187.6514, 130.2500
188.1335, 137.6345
188.6156, 142.3016
189.0977, 141.3553
189.5798, 134.9089
190.0620, 125.2478
190.5441, 111.8790
191.0262, 95.50623
191.5083, 80.95038
191.9904, 68.26610
192.4725, 57.34622
192.9547, 48.05720
193.4368, 40.32499
193.9189, 33.87955
194.4010, 28.74949
194.8831, 24.89040
195.3652, 21.65901
195.8474, 19.07535
196.3295, 16.99616
196.8116, 15.18820
197.2937, 13.66507
197.7758, 12.32382
198.2579, 11.15113
198.7401, 10.14874
199.2222, 9.183208
199.7043, 8.216244
200.1864, 7.352716
200.6685, 6.902060
201.1507, 6.935263
201.6328, 6.854866
202.1149, 6.279991
202.5970, 5.169476
203.0791, 4.168968
203.5612, 3.303392
204.0434, 2.609324
204.5255, 2.269310
205.0076, 2.371952
205.4897, 2.512743
205.9718, 2.394308
206.4539, 1.941465
206.9361, 1.759491
207.4182, 2.028311
207.9003, 2.514814
208.3824, 2.464485
208.8645, 1.699963
209.3466, 0.9081920
209.8288, 0.5177730
210.3109, 0.5777510
210.7930, 0.6233010
211.2751, 0.6245230
211.7572, 0.6162640
212.2393, 0.7596930
212.7215, 1.159521
213.2036, 1.475813
213.6857, 1.456917
214.1678, 0.9852560
214.6499, 0.5616840
215.1320, 0.1719840
215.6142, 0.1354180
216.0963, 9.0250000E-02
216.5784, 0.4907930
217.0605, 1.071436
217.5426, 1.292063
218.0247, 1.044151
218.5069, 0.7313960
218.9890, 0.3156700
219.4711, 0.1372220
219.9532, 0.2810730
220.4353, 6.9695003E-02
220.9175, 0.4221080
221.3996, 0.4144000
221.8817, 0.1930180
222.3638, 0.5160240
222.8459, 0.3388750
223.3280, 0.2035270
223.8102, 0.3870510
224.2923, 1.3399000E-02
224.7744, 0.4108620
225.2565, 0.5252460
225.7386, 0.1328890
226.2207, 5.7144001E-02
226.7029, 0.1099780
227.1850, 0.5386580
227.6671, 0.7259290
228.1492, 0.5808430
228.6313, 0.3244990
229.1134, 7.0620999E-02
229.5956, 0.2367230
230.0777, 0.4102310
230.5598, 0.3634720
231.0419, 0.1623100
231.5240, 0.1575870
232.0062, 0.5297570
232.4883, 0.8535900
232.9704, 0.8366490
233.4525, 0.2391780
233.9346, 0.1618770
234.4167, 0.2331710
234.8989, 5.3824998E-02
235.3810, 3.8379999E-03
235.8631, 0.1120450
236.3452, 0.2822880
236.8273, 0.4556830
237.3094, 0.6845840
237.7916, 0.8049370
238.2737, 0.8053530
238.7558, 0.6913030
239.2379, 0.4730510
239.7200, 7.3875003E-02
240.2021, 0.3256090
240.6843, 0.6490750
241.1664, 0.9506030
241.6485, 1.046654
242.1306, 0.8396090
242.6127, 0.4219840
243.0948, 0.1663280
243.5770, 0.1889060
244.0591, 0.2122190
244.5412, 6.9132000E-02
245.0233, 0.4109250
245.5054, 0.6704430
245.9876, 0.6142920
246.4697, 0.3359600
246.9518, 0.1316150
247.4339, 4.4535000E-02
247.9160, 3.3978999E-02
248.3981, 0.1709060
248.8803, 0.4467720
249.3624, 0.5800360
249.8445, 0.4944990
250.3266, 0.2812710
250.8087, 0.1973690
251.2908, 0.3108310
251.7730, 0.4447020
252.2551, 0.5179230
252.7372, 0.5034350
253.2193, 0.4956700
253.7014, 0.4890230
254.1835, 0.4917260
254.6657, 0.5349200
255.1478, 0.6671070
255.6299, 0.7547780
256.1120, 0.7461990
256.5941, 0.6366580
257.0763, 0.4166240
257.5584, 4.8452001E-02
258.0405, 0.5423160
258.5226, 0.5763030
259.0047, 8.1871003E-02
259.4868, 0.7200890
259.9690, 1.064972
260.4511, 1.066753
260.9332, 0.9885060
261.4153, 0.7796840
261.8974, 0.5334700
262.3795, 0.4307610
262.8617, 0.5468900
263.3438, 0.6183610
263.8259, 0.5075930
264.3080, 0.1579610
264.7901, 7.9535998E-02
265.2722, 0.4147090
265.7544, 0.8519080
266.2365, 0.8620380
266.7186, 0.2417070
267.2007, 0.1732960
267.6828, 2.7300000E-02
268.1649, 0.7307780
268.6471, 1.137733
269.1292, 1.093063
269.6113, 0.8674350
270.0934, 0.8022990
270.5755, 0.9422300
271.0576, 1.069199
271.5398, 1.131773
272.0219, 1.130424
272.5040, 1.058500
272.9861, 0.8877200
273.4682, 0.7085700
273.9503, 0.6073740
274.4325, 0.5831680
274.9146, 0.6535130
275.3967, 0.8394790
275.8788, 1.129539
276.3610, 1.471830
276.8431, 1.922115
277.3252, 2.245415
277.8073, 2.114498
278.2894, 1.483128
278.7715, 1.068367
279.2537, 1.051947
279.7358, 1.346834
280.2179, 1.666452
280.7000, 2.077744
281.1821, 2.327858
281.6642, 2.064388
282.1464, 1.282656
282.6285, 0.7564410
283.1106, 0.6639440
283.5927, 0.9012030
284.0748, 1.170578
284.5569, 1.476940
285.0391, 1.687601
285.5212, 1.681011
286.0033, 1.495823
286.4854, 1.401096
286.9675, 1.447300
287.4496, 1.559633
287.9318, 1.578558
288.4139, 1.502056
288.8960, 1.471428
289.3781, 1.635050
289.8602, 1.938833
290.3423, 2.098421
290.8245, 2.072046
291.3066, 1.940987
291.7887, 1.750120
292.2708, 1.522253
292.7529, 1.442957
293.2350, 1.712336
293.7172, 2.198221
294.1993, 2.509157
294.6814, 2.618391
295.1635, 2.593811
295.6456, 2.464485
296.1277, 2.267782
296.6099, 2.142830
297.0920, 2.226553
297.5741, 2.425865
298.0562, 2.518536
298.5383, 2.484980
299.0204, 2.412291
299.5026, 2.339417
299.9847, 2.290495
300.4668, 2.329300
300.9489, 2.550692
301.4311, 2.837864
301.9132, 3.000334
302.3953, 3.038857
302.8774, 3.059582
303.3595, 3.267883
303.8416, 3.548935
304.3238, 3.677544
304.8059, 3.476038
305.2880, 3.172108
305.7701, 2.987690
306.2522, 2.912544
306.7343, 2.883039
307.2165, 2.798885
307.6986, 2.747061
308.1807, 2.860340
308.6628, 3.300175
309.1449, 3.711750
309.6270, 3.730247
310.1092, 3.468502
310.5913, 3.293301
311.0734, 3.518250
311.5555, 3.858536
312.0376, 4.041893
312.5197, 3.950911
313.0019, 3.889778
313.4840, 4.179253
313.9661, 4.618959
314.4482, 4.802755
314.9303, 4.216122
315.4124, 3.541279
315.8946, 3.220945
316.3767, 3.394152
316.8588, 3.693907
317.3409, 4.079281
317.8230, 4.415134
318.3051, 4.546293
318.7873, 4.156204
319.2694, 3.789337
319.7515, 3.725100
320.2336, 4.008600
320.7157, 4.208998
321.1978, 4.060287
321.6800, 3.808815
322.1621, 3.669346
322.6442, 3.892365
323.1263, 4.121454
323.6084, 4.288387
324.0905, 4.380722
324.5727, 4.369427
325.0548, 4.222225
325.5369, 4.010929
326.0190, 3.778749
326.5012, 3.284081
326.9833, 2.995602
327.4654, 3.110031
327.9475, 3.500372
328.4296, 3.664719
328.9117, 3.320971
329.3939, 3.002119
329.8760, 2.944001
330.3581, 3.423688
330.8402, 3.637962
331.3223, 3.411373
331.8044, 2.969029
332.2866, 2.783047
332.7687, 3.064067
333.2508, 3.303457
333.7329, 3.319537
334.2150, 3.044499
334.6971, 2.848364
335.1793, 2.761133
335.6614, 2.720723
336.1435, 2.649092
336.6256, 2.530622
337.1077, 2.417912
337.5898, 2.319693
338.0720, 2.237217
338.5541, 2.238827
339.0362, 2.334468
339.5183, 2.425458
340.0004, 2.435329
340.4825, 2.337917
340.9647, 2.315791
341.4468, 2.435192
341.9289, 2.639372
342.4110, 2.739937
342.8931, 2.723009
343.3752, 2.685780
343.8574, 2.709163
344.3395, 2.791984
344.8216, 2.832163
345.3037, 2.827946
345.7858, 2.751213
346.2679, 2.477629
346.7501, 2.024634
347.2322, 1.704083
347.7143, 1.763717
348.1964, 2.073659
348.6785, 2.231602
349.1607, 2.213171
349.6428, 2.110574
350.1249, 1.980671
350.6070, 1.844283
351.0891, 1.766962
351.5713, 1.799867
352.0534, 1.898470
352.5355, 2.044131
353.0176, 2.230410
353.4997, 2.331775
353.9818, 2.125292
354.4640, 1.797216
354.9461, 1.652497
355.4282, 1.924548
355.9103, 2.225120
356.3924, 2.156761
356.8745, 1.795345
357.3567, 1.479332
357.8388, 1.460477
358.3209, 1.536673
358.8030, 1.516473
359.2851, 1.311692
359.7672, 1.136847
360.2494, 1.192500
360.7315, 1.352385
361.2136, 1.383420
361.6957, 0.9938080
362.1778, 0.6203290
362.6599, 0.4960780
363.1421, 0.6623500
363.6242, 0.8854380
364.1063, 1.231637
364.5884, 1.546582
365.0705, 1.669592
365.5526, 1.393015
366.0348, 1.105913
366.5169, 0.8483900
366.9990, 0.6285320
367.4811, 0.5514120
367.9632, 0.7787260
368.4453, 1.048915
368.9275, 1.212174
369.4096, 1.223327
369.8917, 1.184818
370.3738, 1.032455
370.8559, 0.8328030
371.3380, 0.7881110
371.8202, 1.051723
372.3023, 1.267652
372.7844, 1.238543
373.2665, 0.8305450
373.7487, 0.7362350
374.2308, 1.135874
374.7129, 1.671576
375.1950, 1.842535
375.6771, 1.549359
376.1592, 1.199698
376.6414, 0.8903720
377.1235, 0.6161000
377.6056, 0.2617030
378.0877, 0.2390520
378.5698, 0.6131860
379.0519, 0.5338200
379.5341, 2.3540000E-03
380.0162, 0.3848630
380.4983, 0.4712510
380.9804, 0.3943750
381.4625, 0.4735160
381.9446, 0.6815800
382.4268, 0.8621900
382.9089, 0.9418520
383.3910, 0.9199040
383.8731, 0.7420420
384.3552, 0.3676880
384.8373, 1.9913999E-02
385.3195, 2.6817000E-02
385.8016, 0.2843780
386.2837, 0.4883820
386.7658, 0.4144900
387.2479, 0.2553840
387.7300, 0.2928620
388.2122, 0.5183000
388.6943, 0.7117330
389.1764, 0.6973300
389.6585, 0.5600940
390.1406, 0.3966270
390.6227, 0.1844450
391.1049, 2.2934999E-02
391.5870, 1.9726999E-02
392.0691, 4.3887001E-02
392.5512, 0.1742500
393.0333, 0.5057260
393.5154, 0.7926400
393.9976, 0.8538570
394.4797, 0.6042010
394.9618, 0.3367660
395.4439, 4.4940002E-03
395.9260, 0.2528510
396.4081, 0.2495780
396.8903, 0.4280020
397.3724, 0.9991030
397.8545, 1.197807
398.3366, 1.002491
398.8188, 0.8653180
399.3009, 0.9491740
399.7830, 1.012510
400.2651, 0.8929580
400.7472, 0.3638110
401.2293, 7.6330001E-03
401.7115, 0.1630010
402.1936, 0.1467270
402.6757, 7.9994000E-02
403.1578, 9.3043998E-02
403.6399, 0.2159570
404.1220, 0.1713840
404.6042, 0.1142130
405.0863, 8.2387000E-02
405.5684, 0.4158780
406.0505, 0.9918460
406.5326, 1.064342
407.0147, 0.5531240
407.4969, 0.1493380
407.9790, 5.2196998E-02
408.4611, 0.1992570
408.9432, 0.3681160
409.4253, 0.5623580
409.9074, 0.7244500
410.3896, 0.8188760
410.8717, 0.8463360
411.3538, 0.8021680
411.8359, 0.6759410
412.3180, 0.5046560
412.8001, 0.2872070
413.2823, 5.5227000E-02
413.7644, 8.1874996E-02
414.2465, 3.3831999E-02
414.7286, 0.2359500
415.2107, 0.2537370
415.6928, 6.9724999E-02
416.1750, 4.4450998E-02
416.6571, 0.2253420
417.1392, 0.6694410
417.6213, 1.014741
418.1034, 1.202167
418.5855, 1.229208
419.0677, 0.9729440
419.5498, 0.5180440
420.0319, 0.1877400
420.5140, 0.1970890
420.9961, 0.3080540
421.4782, 0.3796660
421.9604, 0.3816390
422.4425, 0.3724220
422.9246, 0.3399810
423.4067, 0.3122630
423.8889, 0.3223970
424.3710, 0.4620190
424.8531, 0.5539250
425.3352, 0.5402200
425.8173, 0.4212800
426.2994, 0.3331740
426.7816, 0.2835360
427.2637, 0.2579470
427.7458, 0.2571880
428.2279, 0.3209470
428.7100, 0.2965670
429.1921, 0.1098840
429.6743, 0.1287260
430.1564, 0.1069790
430.6385, 0.2612600
431.1206, 0.5543850
431.6027, 0.5252240
432.0848, 0.1959230
432.5670, 0.1551100
433.0491, 0.4545840
433.5312, 0.8317220
434.0133, 1.045047
434.4954, 1.100360
434.9775, 1.001628
435.4597, 0.6447850
435.9418, 0.2480960
436.4239, 0.3832070
436.9060, 0.9754790
437.3881, 1.399933
437.8702, 0.9321170
438.3524, 0.1156140
438.8345, 0.2568500
439.3166, 5.3075999E-02
439.7987, 0.3202760
440.2808, 0.7095000
440.7629, 1.024443
441.2451, 1.120996
441.7272, 0.7049720
442.2093, 0.2698430
442.6914, 7.8764997E-02
443.1735, 0.1114140
443.6556, 0.1907240
444.1378, 0.3066180
444.6199, 0.4104840
445.1020, 0.4662670
445.5841, 0.4734690
446.0662, 0.4399300
446.5483, 0.3001720
447.0305, 0.1325930
447.5126, 6.8827003E-02
447.9947, 0.1687870
448.4768, 0.3030660
448.9590, 0.4837590
449.4411, 0.7144070
449.9232, 0.7739590
450.4053, 0.5559870
450.8874, 0.3212330
451.3695, 0.2580730
451.8517, 0.3866750
452.3338, 0.6264350
452.8159, 1.056073
453.2980, 1.487121
453.7801, 1.430401
454.2622, 0.8625120
454.7444, 0.4183420
455.2265, 0.4767380
455.7086, 0.8848550
456.1907, 0.9339700
456.6728, 0.5980130
457.1549, 0.2500190
457.6371, 0.3229220
458.1192, 0.6422750
458.6013, 0.7681000
459.0834, 0.5159510
459.5655, 0.1639050
460.0476, 1.9779999E-03
460.5298, 7.5019998E-03
461.0119, 6.8570003E-02
461.4940, 0.2744290
461.9761, 0.4766900
462.4582, 0.5347010
462.9403, 0.4383960
463.4225, 0.3907950
463.9046, 0.5977950
464.3867, 0.8430950
464.8688, 0.9186300
465.3509, 0.5520180
465.8330, 0.2679200
466.3152, 0.2048640
466.7973, 0.3016740
467.2794, 0.4175420
467.7615, 0.6245190
468.2436, 0.8011510
468.7257, 0.9126270
469.2079, 0.9598970
469.6900, 0.9302620
470.1721, 0.7951580
470.6542, 0.6129900
471.1363, 0.4353590
471.6184, 0.2504530
472.1006, 0.1020320
472.5827, 3.1328999E-02
473.0648, 0.1128410
473.5469, 5.4093000E-02
474.0291, 0.4996680
474.5112, 0.8293940
474.9933, 0.6640570
475.4754, 0.1560570
475.9575, 2.6746999E-02
476.4396, 0.3385420
476.9218, 0.7410440
477.4039, 0.8686900
477.8860, 0.7980850
478.3681, 0.7096120
478.8502, 0.6758650
479.3323, 0.6284600
479.8145, 0.4065760
480.2966, 8.6014003E-02
480.7787, 4.8439998E-02
481.2608, 0.3412850
481.7429, 0.8305520
482.2250, 1.129051
482.7072, 1.184938
483.1893, 1.156591
483.6714, 1.049291
484.1535, 0.9056860
484.6356, 0.7691480
485.1177, 0.5717770
485.5999, 0.4664900
486.0820, 0.5694270
486.5641, 0.8010190
487.0462, 0.8609150
487.5283, 0.6341750
488.0104, 0.3828510
488.4926, 0.1879630
488.9747, 3.3932999E-02
489.4568, 1.5857000E-02
489.9389, 0.1842090
490.4210, 0.3958330
490.9031, 0.4720570
491.3853, 0.4017160
491.8674, 0.3783760
492.3495, 0.4504420
492.8316, 0.5805860
493.3137, 0.7519290
493.7958, 0.9526680
494.2780, 1.003148
494.7601, 0.5981740
495.2422, 1.3029000E-02
495.7243, 0.1533340
496.2064, 0.1372300
496.6885, 0.4464140
497.1707, 0.4025120
497.6528, 0.1984400
498.1349, 0.1089330
498.6170, 0.2621970
499.0992, 0.4714750
499.5813, 0.7436800
500.0634, 0.9985280
500.5455, 1.046137
501.0276, 0.5067580
501.5097, 3.3502001E-02
501.9919, 6.9179997E-02
502.4740, 0.2788040
502.9561, 0.5758910
503.4382, 0.8271380
503.9203, 0.9871120
504.4024, 1.010831
504.8846, 0.8015580
505.3667, 0.6564000
505.8488, 0.6072940
506.3309, 0.6242900
506.8130, 0.6478990
507.2951, 0.6798650
507.7773, 0.7025040
508.2594, 0.6688030
508.7415, 0.6138950
509.2236, 0.8202600
509.7057, 1.315806
510.1878, 1.745304
510.6700, 1.700665
511.1521, 1.319768
511.6342, 1.060149
512.1163, 1.019827
512.5984, 1.016970
513.0806, 0.8349160
513.5627, 0.5495080
514.0448, 0.3193040
514.5269, 0.1158830
515.0090, 7.0926003E-02
515.4911, 0.3892000
515.9733, 1.008452
516.4554, 1.503129
516.9375, 1.752669
517.4196, 1.799216
517.9017, 1.638440
518.3839, 1.169372
518.8660, 0.7448400
519.3481, 0.3427640
519.8302, 3.2528002E-02
520.3123, 9.1541000E-02
520.7944, 8.0955997E-02
521.2766, 0.2442150
521.7587, 0.3864340
522.2408, 0.4797930
522.7229, 0.3605270
523.2050, 5.9195999E-02
523.6871, 0.3666020
524.1693, 0.2704540
524.6514, 0.1875720
525.1335, 0.4750820
525.6156, 0.5791890
526.0977, 0.5989410
526.5798, 0.6306900
527.0620, 0.6602720
527.5441, 0.6318300
528.0262, 0.4962080
528.5083, 0.3726350
528.9904, 0.4465200
529.4725, 0.6365990
529.9547, 0.7454910
530.4368, 0.5585050
530.9189, 0.3480510
531.4010, 0.3065540
531.8831, 0.4357910
532.3652, 0.5881650
532.8474, 0.7654950
533.3295, 0.9164670
533.8116, 1.010773
534.2937, 1.028397
534.7758, 1.016883
535.2579, 0.9543890
535.7401, 0.8751000
536.2222, 0.8342770
536.7043, 0.8570770
537.1864, 0.8558190
537.6685, 0.7987520
538.1506, 0.7037550
538.6328, 0.6428560
539.1149, 0.6107380
539.5970, 0.6729920
540.0791, 1.010745
540.5612, 1.512471
541.0433, 1.542785
541.5255, 1.037350
542.0076, 0.4737850
542.4897, 0.3465960
542.9718, 0.4997650
543.4539, 0.6217590
543.9360, 0.6276690
544.4182, 0.5746150
544.9003, 0.4351480
545.3824, 0.2789660
545.8645, 0.2349960
546.3466, 0.5098050
546.8287, 0.7743850
547.3109, 0.8389570
547.7930, 0.6917540
548.2751, 0.6254130
548.7572, 0.8627190
549.2393, 1.050140
549.7214, 0.9799180
550.2036, 0.4742120
550.6857, 0.1139640
551.1678, 7.4533001E-02
551.6499, 0.1465430
552.1320, 0.1706370
552.6141, 0.1463760
553.0963, 6.5559000E-02
553.5784, 9.0134002E-02
554.0605, 0.2944240
554.5426, 0.4407210
555.0247, 0.5297150
555.5068, 0.5913700
555.9890, 0.6618450
556.4711, 0.7247300
556.9532, 0.6731590
557.4353, 0.5128640
557.9174, 0.4079930
558.3995, 0.5487150
558.8817, 0.7804380
559.3638, 0.9249080
559.8459, 0.8860860
560.3281, 0.8732200
560.8102, 1.064938
561.2923, 1.308815
561.7744, 1.363825
562.2565, 0.8217230
562.7386, 0.4939660
563.2208, 0.6619670
563.7029, 1.233152
564.1850, 1.560283
564.6671, 1.555354
565.1492, 1.459533
565.6313, 1.441049
566.1135, 1.513641
566.5956, 1.232411
567.0777, 0.5243430
567.5598, 0.1227210
568.0419, 8.0526002E-02
568.5240, 0.5114570
569.0062, 0.9319430
569.4883, 1.017576
569.9704, 0.9386900
570.4525, 0.9007420
570.9346, 0.8923890
571.4167, 0.8762090
571.8989, 0.8346720
572.3810, 0.7781320
572.8631, 0.6688690
573.3452, 0.5382510
573.8273, 0.5237810
574.3094, 0.8749790
574.7916, 1.186744
575.2737, 1.195785
575.7558, 0.7112350
576.2379, 0.4709220
576.7200, 0.6968140
577.2021, 1.007169
