##NAMES=Stibnite
##RRUFFID=R050016
##IDEAL CHEMISTRY=Sb_2_S_3_
##LOCALITY=Romania
##OWNER=RRUFF
##SOURCE=Eugene Schlepp
##DESCRIPTION=Group of lead-gray prismatic crystals
##STATUS=The identification of this mineral has been confirmed by X-ray diffraction and chemical analysis
##URL=rruff.info/R050016
##MEASURED CHEMISTRY=(Sb_.996_As_.004_)_2_S_3_
90.190, 0.000
90.673, 0.050
91.155, 0.314
91.637, 3.355
92.119, 4.711
92.601, 0.763
93.083, 5.758
93.565, 10.099
94.047, 9.419
94.529, 5.029
95.012, 2.263
95.494, 2.828
95.976, 4.893
96.458, 6.372
96.940, 7.523
97.422, 7.593
97.904, 5.317
98.386, 1.202
98.869, 1.518
99.351, 0.231
99.833, 1.488
100.315, 3.359
100.797, 15.524
101.279, 27.450
101.761, 31.042
102.243, 29.153
102.726, 29.382
103.208, 33.678
103.690, 40.759
104.172, 48.463
104.654, 57.596
105.136, 68.328
105.618, 82.166
106.100, 99.755
106.582, 122.126
107.064, 150.346
107.547, 179.286
108.029, 209.538
108.511, 242.000
108.993, 275.086
109.475, 309.521
109.957, 344.293
110.439, 375.787
110.921, 399.387
111.404, 415.215
111.886, 434.283
112.368, 460.590
112.850, 487.847
113.332, 513.431
113.814, 537.125
114.296, 559.617
114.778, 581.637
115.260, 603.132
115.743, 624.050
116.225, 641.629
116.707, 660.490
117.189, 685.828
117.671, 717.430
118.153, 748.296
118.635, 769.636
119.117, 783.844
119.600, 781.231
120.082, 764.187
120.564, 732.792
121.046, 690.822
121.528, 638.467
122.010, 567.963
122.492, 462.602
122.974, 314.511
123.456, 138.192
123.939, 64.814
124.421, 292.320
124.903, 551.246
125.385, 841.991
125.867, 1152.182
126.349, 1442.210
126.831, 1725.793
127.313, 1972.039
127.796, 2173.725
128.278, 2337.638
128.760, 2472.454
129.242, 2580.615
129.724, 2665.485
130.206, 2736.383
130.688, 2816.021
131.170, 2860.043
131.652, 2847.884
132.135, 2793.202
132.617, 2720.665
133.099, 2642.754
133.581, 2558.904
134.063, 2466.953
134.545, 2348.855
135.027, 2242.124
135.509, 2156.103
135.992, 2092.406
136.474, 2056.018
136.956, 2052.634
137.438, 2081.467
137.920, 2122.768
138.402, 2159.731
138.884, 2221.581
139.366, 2322.512
139.848, 2462.251
140.331, 2640.280
140.813, 2855.841
141.295, 3114.740
141.777, 3409.017
142.259, 3744.618
142.741, 4110.555
143.223, 4497.336
143.705, 4904.575
144.188, 5332.749
144.670, 5793.879
145.152, 6279.530
145.634, 6761.799
146.116, 7231.792
146.598, 7699.205
147.080, 8176.940
147.562, 8669.679
148.044, 9159.313
148.527, 9626.744
149.009, 10080.821
149.491, 10533.464
149.973, 10999.528
150.455, 11466.980
150.937, 11919.768
151.419, 12364.154
151.901, 12779.265
152.383, 13147.559
152.866, 13479.987
153.348, 13791.410
153.830, 14100.715
154.312, 14389.983
154.794, 14628.703
155.276, 14826.121
155.758, 14943.818
156.240, 14962.373
156.723, 14893.188
157.205, 14746.605
157.687, 14502.072
158.169, 14181.947
158.651, 13845.985
159.133, 13466.029
159.615, 13120.642
160.097, 12828.971
160.579, 12594.450
161.062, 12432.300
161.544, 12361.648
162.026, 12373.505
162.508, 12425.443
162.990, 12528.499
163.472, 12660.992
163.954, 12801.996
164.436, 12957.705
164.919, 13145.843
165.401, 13385.729
165.883, 13671.715
166.365, 13955.824
166.847, 14233.783
167.329, 14513.044
167.811, 14799.948
168.293, 15089.371
168.775, 15371.830
169.258, 15636.774
169.740, 15885.477
170.222, 16136.961
170.704, 16392.996
171.186, 16650.338
171.668, 16911.820
172.150, 17174.816
172.632, 17433.623
173.115, 17677.391
173.597, 17907.842
174.079, 18168.480
174.561, 18494.160
175.043, 18821.588
175.525, 19120.344
176.007, 19401.801
176.489, 19691.750
176.971, 20012.135
177.454, 20363.178
177.936, 20723.545
178.418, 21081.057
178.900, 21459.887
179.382, 21851.154
179.864, 22269.709
180.346, 22745.129
180.828, 23309.152
181.311, 23961.492
181.793, 24621.887
182.275, 25237.191
182.757, 25909.090
183.239, 26670.215
183.721, 27513.598
184.203, 28408.465
184.685, 29333.209
185.167, 30285.088
185.650, 31301.387
186.132, 32434.740
186.614, 33586.059
187.096, 34735.344
187.578, 35886.293
188.060, 37048.340
188.542, 38257.230
189.024, 39505.957
189.507, 40649.246
189.989, 41677.910
190.471, 42591.613
190.953, 43368.047
191.435, 44024.414
191.917, 44600.562
192.399, 45134.617
192.881, 45623.922
193.363, 45981.535
193.846, 46154.406
194.328, 46238.160
194.810, 46212.246
195.292, 46113.809
195.774, 46002.992
196.256, 45921.758
196.738, 45868.332
197.220, 45809.891
197.702, 45735.215
198.185, 45667.469
198.667, 45618.504
199.149, 45579.711
199.631, 45538.816
200.113, 45489.848
200.595, 45430.578
201.077, 45339.984
201.559, 45196.926
202.042, 45038.953
202.524, 44886.824
203.006, 44721.758
203.488, 44514.617
203.970, 44246.848
204.452, 43922.855
204.934, 43573.902
205.416, 43208.113
205.898, 42803.203
206.381, 42358.098
206.863, 41870.266
207.345, 41334.000
207.827, 40742.672
208.309, 40108.258
208.791, 39485.941
209.273, 38916.977
209.755, 38306.926
210.238, 37628.461
210.720, 36910.883
211.202, 36185.852
211.684, 35471.656
212.166, 34769.883
212.648, 34082.426
213.130, 33424.289
213.612, 32769.359
214.094, 32101.482
214.577, 31445.314
215.059, 30818.777
215.541, 30234.496
216.023, 29687.859
216.505, 29159.625
216.987, 28619.908
217.469, 28158.934
217.951, 27819.730
218.434, 27534.508
218.916, 27232.408
219.398, 26889.926
219.880, 26549.344
220.362, 26294.373
220.844, 26157.898
221.326, 26054.395
221.808, 25967.865
222.290, 25911.734
222.773, 25892.258
223.255, 25912.309
223.737, 25978.604
224.219, 26104.617
224.701, 26309.086
225.183, 26535.766
225.665, 26750.145
226.147, 27004.326
226.629, 27333.547
227.112, 27742.900
227.594, 28213.227
228.076, 28723.064
228.558, 29264.434
229.040, 29866.486
229.522, 30557.195
230.004, 31280.109
230.486, 31994.707
230.969, 32704.717
231.451, 33448.184
231.933, 34280.652
232.415, 35219.777
232.897, 36137.262
233.379, 37040.199
233.861, 37907.664
234.343, 38741.523
234.825, 39536.109
235.307, 40277.773
235.790, 40962.719
236.272, 41592.324
236.754, 42149.102
237.236, 42700.438
237.718, 43098.203
238.200, 43283.227
238.682, 43279.000
239.165, 43143.785
239.647, 42917.277
240.129, 42594.031
240.611, 42139.059
241.093, 41511.441
241.575, 40786.617
242.057, 39988.422
242.539, 39121.039
243.021, 38188.133
243.503, 37177.844
243.986, 36117.355
244.468, 35086.371
244.950, 34087.152
245.432, 33119.844
245.914, 32169.842
246.396, 31255.373
246.878, 30388.652
247.361, 29572.508
247.843, 28814.375
248.325, 28127.727
248.807, 27513.346
249.289, 26968.963
249.771, 26504.723
250.253, 26100.738
250.735, 25738.816
251.217, 25415.977
251.699, 25140.742
252.182, 24932.328
252.664, 24798.322
253.146, 24674.605
253.628, 24532.816
254.110, 24405.684
254.592, 24328.500
255.074, 24306.875
255.556, 24285.812
256.039, 24211.404
256.521, 24086.525
257.003, 23969.275
257.485, 23864.301
257.967, 23777.119
258.449, 23713.711
258.931, 23672.783
259.413, 23635.078
259.896, 23578.232
260.378, 23513.506
260.860, 23480.029
261.342, 23481.141
261.824, 23518.090
262.306, 23597.949
262.788, 23713.623
263.270, 23843.945
263.752, 23958.002
264.235, 24089.273
264.717, 24284.500
265.199, 24540.209
265.681, 24890.934
266.163, 25383.590
266.645, 25995.688
267.127, 26677.127
267.609, 27384.846
268.091, 28180.234
268.574, 29119.154
269.056, 30199.451
269.538, 31414.041
270.020, 32741.453
270.502, 34215.152
270.984, 35844.949
271.466, 37621.176
271.948, 39565.609
272.431, 41695.898
272.913, 44011.500
273.395, 46485.938
273.877, 49125.551
274.359, 51918.215
274.841, 54880.477
275.323, 58051.508
275.805, 61276.871
276.288, 64540.891
276.770, 67827.203
277.252, 71096.992
277.734, 74363.109
278.216, 77562.250
278.698, 80618.508
279.180, 83585.219
279.662, 86237.328
280.144, 88688.820
280.626, 90750.766
281.109, 92297.078
281.591, 93291.742
282.073, 93671.391
282.555, 93357.578
283.037, 92267.633
283.519, 90642.570
284.001, 88406.289
284.483, 85766.492
284.966, 82723.070
285.448, 79363.898
285.930, 75805.180
286.412, 72145.438
286.894, 68377.672
287.376, 64813.348
287.858, 61500.945
288.340, 58319.367
288.823, 55195.512
289.305, 52211.645
289.787, 49499.973
290.269, 47132.090
290.751, 45081.797
291.233, 43240.832
291.715, 41602.449
292.197, 40234.105
292.679, 39170.898
293.162, 38345.949
293.644, 37700.008
294.126, 37215.188
294.608, 36893.461
295.090, 36742.008
295.572, 36767.473
296.054, 36953.992
296.536, 37332.715
297.018, 37835.703
297.501, 38446.789
297.983, 39153.977
298.465, 39927.070
298.947, 40730.953
299.429, 41566.820
299.911, 42466.812
300.393, 43452.871
300.875, 44481.195
301.358, 45527.711
301.840, 46595.750
302.322, 47697.539
302.804, 48821.363
303.286, 49989.605
303.768, 51273.035
304.250, 52699.594
304.732, 54189.711
305.215, 55708.922
305.697, 57271.000
306.179, 58889.105
306.661, 60584.715
307.143, 62333.402
307.625, 64133.922
308.107, 65980.797
308.589, 67826.797
309.071, 69761.625
309.553, 71581.695
310.036, 73082.570
310.518, 74304.320
311.000, 75044.789
311.482, 75425.156
311.964, 75249.516
312.446, 73990.469
312.928, 71525.117
313.410, 67956.578
313.893, 63065.230
314.375, 56893.879
314.857, 50589.480
315.339, 44029.453
315.821, 37665.227
316.303, 31882.350
316.785, 26753.744
317.267, 22311.742
317.750, 18605.967
318.232, 15682.859
318.714, 13212.121
319.196, 11305.894
319.678, 9711.850
320.160, 8361.039
320.642, 7233.007
321.124, 6285.226
321.606, 5508.377
322.089, 4878.329
322.571, 4328.392
323.053, 3883.493
323.535, 3488.069
324.017, 3153.764
324.499, 2861.560
324.981, 2595.454
325.463, 2350.955
325.945, 2125.365
326.428, 1918.647
326.910, 1730.382
327.392, 1564.276
327.874, 1430.446
328.356, 1306.431
328.838, 1183.041
329.320, 1059.752
329.802, 940.618
330.284, 827.612
330.767, 721.265
331.249, 630.038
331.731, 567.004
332.213, 502.334
332.695, 415.737
333.177, 324.746
333.659, 254.863
334.142, 221.748
334.624, 206.553
335.106, 175.486
335.588, 124.824
336.070, 76.781
336.552, 39.636
337.034, 7.199
337.516, 25.858
337.998, 60.348
338.480, 92.755
338.963, 119.306
339.445, 141.338
339.927, 166.882
340.409, 201.499
340.891, 231.434
341.373, 237.169
341.855, 223.487
342.337, 216.794
342.819, 232.519
343.302, 254.067
343.784, 262.970
344.266, 258.763
344.748, 248.462
345.230, 232.682
345.712, 215.202
346.194, 214.593
346.677, 253.420
347.159, 282.978
347.641, 275.720
348.123, 248.295
348.605, 232.644
349.087, 241.557
349.569, 262.183
350.051, 269.704
350.533, 252.906
351.016, 242.274
351.498, 244.382
351.980, 247.717
352.462, 241.193
352.944, 225.605
353.426, 212.126
353.908, 212.519
354.390, 227.696
354.872, 235.399
355.355, 223.546
355.837, 216.136
356.319, 222.569
356.801, 236.602
357.283, 247.769
357.765, 250.460
358.247, 248.749
358.729, 252.068
359.211, 261.708
359.694, 272.402
360.176, 290.658
360.658, 304.592
361.140, 300.055
361.622, 275.486
362.104, 255.072
362.586, 263.901
363.069, 296.158
363.551, 318.397
364.033, 322.342
364.515, 324.086
364.997, 340.476
365.479, 366.326
365.961, 384.013
366.443, 378.463
366.925, 369.158
367.408, 379.027
367.890, 406.288
368.372, 431.219
368.854, 444.250
369.336, 446.474
369.818, 441.002
370.300, 420.825
370.782, 405.391
371.264, 403.758
371.747, 408.588
372.229, 409.569
372.711, 404.094
373.193, 397.281
373.675, 396.294
374.157, 404.404
374.639, 405.742
375.121, 390.657
375.603, 378.837
376.086, 384.993
376.568, 402.836
377.050, 414.788
377.532, 408.146
378.014, 388.148
378.496, 378.387
378.978, 386.836
379.460, 392.544
379.943, 390.385
380.425, 384.794
380.907, 377.530
381.389, 369.383
381.871, 365.951
382.353, 379.382
382.835, 409.558
383.317, 421.819
383.799, 402.140
384.282, 376.975
384.764, 365.265
385.246, 363.963
385.728, 362.606
386.210, 354.361
386.692, 345.153
387.174, 343.488
387.656, 349.370
388.138, 357.199
388.621, 365.500
389.103, 372.975
389.585, 376.770
390.067, 377.340
390.549, 373.931
391.031, 360.952
391.513, 345.711
391.996, 340.243
392.478, 347.283
392.960, 358.207
393.442, 362.717
393.924, 359.130
394.406, 357.967
394.888, 362.516
395.370, 365.891
395.852, 363.948
396.335, 358.412
396.817, 353.713
397.299, 352.677
397.781, 353.243
398.263, 347.971
398.745, 330.856
399.227, 319.892
399.709, 320.865
400.191, 326.022
400.674, 330.341
401.156, 332.823
401.638, 334.593
402.120, 336.836
402.602, 339.319
403.084, 341.143
403.566, 344.207
404.048, 342.617
404.530, 326.239
405.013, 303.035
405.495, 289.514
405.977, 295.874
406.459, 306.503
406.941, 308.809
407.423, 303.833
407.905, 295.234
408.387, 283.125
408.870, 270.237
409.352, 262.520
409.834, 263.238
410.316, 257.774
410.798, 235.091
411.280, 211.706
411.762, 205.338
412.244, 214.416
412.727, 222.019
413.209, 214.529
413.691, 193.112
414.173, 172.752
414.655, 149.492
415.137, 132.420
415.619, 127.137
416.101, 126.594
416.583, 123.715
417.065, 116.224
417.548, 105.623
418.030, 92.701
418.512, 76.843
418.994, 64.514
419.476, 59.392
419.958, 53.993
420.440, 43.948
420.922, 30.444
421.405, 16.619
421.887, 3.352
422.369, 9.334
422.851, 23.396
423.333, 38.492
423.815, 44.500
424.297, 30.168
424.779, 11.400
425.262, 22.568
425.744, 75.150
426.226, 114.072
426.708, 115.859
427.190, 102.041
427.672, 92.325
428.154, 90.577
428.636, 97.831
429.118, 116.991
429.601, 147.497
430.083, 165.034
430.565, 158.238
431.047, 152.057
431.529, 150.231
432.011, 151.983
432.493, 156.931
432.975, 164.823
433.457, 173.372
433.940, 178.050
434.422, 177.442
434.904, 183.477
435.386, 205.425
435.868, 224.585
436.350, 229.978
436.832, 224.758
437.314, 217.653
437.797, 208.876
438.279, 203.461
438.761, 210.814
439.243, 230.292
439.725, 247.526
440.207, 255.927
440.689, 260.341
441.171, 270.679
441.654, 289.513
442.136, 302.992
442.618, 304.772
443.100, 301.821
443.582, 298.208
444.064, 295.645
444.546, 298.157
445.028, 309.115
445.510, 327.616
445.992, 346.910
446.475, 375.274
446.957, 393.661
447.439, 393.213
447.921, 385.710
448.403, 381.782
448.885, 384.097
449.367, 389.697
449.849, 396.961
450.332, 405.755
450.814, 409.599
451.296, 405.552
451.778, 401.335
452.260, 399.359
452.742, 400.268
453.224, 405.700
453.706, 417.346
454.189, 431.641
454.671, 446.566
455.153, 461.799
455.635, 476.911
456.117, 492.417
456.599, 505.466
457.081, 511.354
457.563, 507.807
458.045, 508.049
458.528, 517.063
459.010, 525.504
459.492, 525.237
459.974, 520.125
460.456, 520.080
460.938, 530.530
461.420, 547.474
461.902, 561.132
462.384, 570.309
462.867, 579.111
463.349, 589.422
463.831, 598.002
464.313, 603.479
464.795, 605.590
465.277, 603.691
465.759, 592.035
466.241, 578.469
466.724, 584.648
467.206, 613.515
467.688, 638.141
468.170, 644.921
468.652, 642.314
469.134, 645.267
469.616, 654.580
470.098, 665.884
470.581, 681.603
471.063, 696.556
471.545, 703.827
472.027, 703.227
472.509, 700.159
472.991, 698.493
473.473, 698.037
473.955, 697.936
474.437, 699.968
474.919, 700.101
475.402, 691.284
475.884, 684.226
476.366, 693.257
476.848, 719.083
477.330, 744.327
477.812, 750.485
478.294, 738.764
478.776, 723.801
479.259, 698.699
479.741, 684.860
480.223, 706.328
480.705, 742.532
481.187, 763.823
481.669, 761.354
482.151, 752.209
482.633, 741.169
483.116, 732.359
483.598, 736.914
484.080, 757.628
484.562, 781.052
485.044, 793.763
485.526, 795.110
486.008, 798.674
486.490, 807.160
486.972, 814.398
487.455, 815.677
487.937, 815.633
488.419, 821.954
488.901, 836.772
489.383, 852.745
489.865, 859.249
490.347, 855.205
490.829, 852.657
491.311, 854.321
491.794, 854.025
492.276, 845.092
492.758, 832.732
493.240, 827.206
493.722, 833.128
494.204, 843.454
494.686, 854.043
495.168, 864.173
495.651, 870.673
496.133, 872.305
496.615, 872.990
497.097, 877.620
497.579, 887.107
498.061, 892.512
498.543, 890.144
499.025, 887.948
499.508, 890.677
499.990, 895.344
500.472, 896.116
500.954, 890.896
501.436, 884.476
501.918, 884.158
502.400, 890.737
502.882, 898.938
503.364, 912.581
503.846, 922.719
504.329, 922.820
504.811, 916.795
505.293, 913.060
505.775, 915.498
506.257, 919.043
506.739, 918.806
507.221, 915.733
507.703, 913.042
508.186, 911.616
508.668, 910.696
509.150, 909.529
509.632, 908.071
510.114, 906.538
510.596, 904.197
511.078, 902.588
511.560, 900.727
512.042, 900.457
512.525, 906.791
513.007, 921.128
513.489, 934.841
513.971, 934.057
514.453, 916.929
514.935, 902.672
515.417, 895.119
515.899, 886.125
516.382, 866.414
516.864, 843.362
517.346, 831.138
517.828, 837.051
518.310, 848.081
518.792, 858.357
519.274, 865.674
519.756, 861.367
520.239, 842.686
520.721, 824.316
521.203, 823.262
521.685, 841.117
522.167, 843.877
522.649, 822.333
523.131, 798.871
523.613, 773.266
524.096, 752.071
524.578, 744.853
525.060, 753.405
525.542, 766.728
526.024, 773.720
526.506, 774.465
526.988, 769.385
527.470, 755.412
527.952, 741.959
528.435, 733.698
528.917, 729.255
529.399, 727.875
529.881, 732.424
530.363, 732.429
530.845, 716.130
531.327, 694.568
531.809, 686.679
532.291, 693.951
532.774, 701.248
533.256, 696.317
533.738, 680.470
534.220, 664.300
534.702, 640.816
535.184, 626.994
535.666, 630.884
536.148, 640.626
536.630, 646.782
537.113, 648.171
537.595, 648.794
538.077, 652.373
538.559, 657.336
539.041, 659.146
539.523, 657.549
540.005, 654.533
540.487, 649.629
540.969, 644.781
541.452, 644.440
541.934, 650.639
542.416, 652.106
542.898, 643.386
543.380, 631.661
543.862, 622.534
544.344, 615.624
544.826, 607.512
545.309, 596.111
545.791, 584.051
546.273, 578.103
546.755, 580.320
547.237, 582.413
547.719, 583.556
548.201, 584.567
548.683, 585.823
549.166, 587.310
549.648, 588.984
550.130, 591.515
550.612, 593.318
551.094, 593.239
551.576, 591.143
552.058, 585.678
552.540, 576.087
553.023, 566.026
553.505, 559.291
553.987, 555.933
554.469, 555.889
554.951, 563.665
555.433, 568.964
555.915, 566.782
556.397, 561.321
556.879, 558.040
557.362, 558.315
557.844, 559.204
558.326, 558.030
558.808, 554.810
559.290, 549.751
559.772, 542.531
560.254, 534.358
560.736, 523.922
561.218, 513.844
561.701, 509.482
562.183, 513.198
562.665, 516.125
563.147, 517.044
563.629, 514.836
564.111, 505.957
564.593, 492.164
565.075, 480.956
565.557, 477.257
566.040, 478.932
566.522, 480.252
567.004, 482.503
567.486, 480.984
567.968, 468.764
568.450, 458.165
568.932, 457.104
569.414, 463.761
569.896, 471.036
570.379, 477.410
570.861, 481.718
571.343, 483.036
571.825, 481.343
572.307, 475.120
572.789, 463.438
573.271, 452.315
573.753, 448.240
574.236, 451.647
574.718, 457.564
575.200, 471.675
575.682, 481.327
576.164, 480.204
576.646, 474.928
577.128, 472.907
577.610, 475.699
578.093, 479.733
578.575, 481.610
579.057, 482.177
579.539, 485.436
580.021, 492.072
580.503, 495.882
580.985, 493.975
581.467, 487.513
581.950, 477.311
582.432, 460.259
582.914, 450.430
583.396, 453.347
583.878, 460.693
584.360, 470.247
584.842, 479.266
585.324, 481.807
585.806, 474.609
586.289, 464.251
586.771, 462.695
587.253, 470.906
587.735, 478.038
588.217, 484.463
588.699, 487.568
589.181, 484.928
589.663, 477.825
590.145, 468.141
590.628, 453.537
591.110, 441.072
591.592, 435.594
592.074, 433.448
592.556, 429.076
593.038, 422.152
593.520, 416.962
594.002, 417.037
594.484, 421.208
594.967, 424.006
595.449, 425.129
595.931, 425.473
596.413, 428.934
596.895, 428.597
597.377, 416.991
597.859, 396.440
598.341, 378.717
598.823, 369.786
599.306, 364.695
599.788, 358.601
600.270, 352.441
600.752, 349.828
601.234, 351.908
601.716, 354.529
602.198, 353.161
602.680, 347.728
603.162, 340.143
603.645, 328.966
604.127, 317.330
604.609, 301.864
605.091, 288.627
605.573, 286.315
606.055, 294.980
606.537, 301.088
607.019, 292.967
607.502, 277.322
607.984, 264.442
608.466, 254.590
608.948, 249.627
609.430, 251.014
609.912, 255.443
610.394, 258.479
610.876, 261.716
611.359, 257.009
611.841, 235.942
612.323, 217.068
612.805, 207.122
613.287, 203.799
613.769, 204.440
614.251, 208.117
614.733, 211.947
615.216, 215.138
615.698, 216.221
616.180, 207.742
616.662, 188.498
617.144, 173.009
617.626, 169.915
618.108, 174.250
618.590, 175.053
619.072, 170.779
619.555, 166.760
620.037, 163.661
620.519, 160.357
621.001, 156.523
621.483, 151.953
621.965, 145.963
622.447, 138.244
622.929, 130.307
623.411, 124.115
623.894, 119.472
624.376, 115.281
624.858, 111.640
625.340, 107.027
625.822, 98.547
626.304, 89.096
626.786, 88.573
627.268, 104.198
627.750, 113.211
628.233, 111.267
628.715, 102.823
629.197, 85.855
629.679, 65.377
630.161, 52.632
630.643, 53.973
631.125, 61.928
631.607, 65.870
632.089, 65.911
632.572, 64.232
633.054, 61.284
633.536, 56.006
634.018, 47.425
634.500, 35.926
634.982, 22.856
635.464, 4.599
635.946, 9.136
636.429, 15.482
636.911, 17.355
637.393, 15.769
637.875, 11.891
638.357, 7.221
638.839, 2.105
639.321, 1.132
639.803, 3.911
640.286, 17.005
640.768, 23.052
641.250, 17.542
641.732, 11.054
642.214, 10.427
642.696, 15.289
643.178, 22.992
643.660, 37.245
644.143, 48.580
644.625, 54.831
645.107, 57.727
645.589, 57.734
646.071, 55.659
646.553, 52.757
647.035, 49.380
647.517, 46.987
647.999, 49.016
648.482, 55.326
648.964, 60.355
649.446, 63.369
649.928, 64.730
650.410, 64.104
650.892, 61.944
651.374, 60.580
651.856, 61.295
652.338, 60.908
652.821, 56.531
653.303, 52.691
653.785, 54.988
654.267, 61.318
654.749, 64.143
655.231, 58.545
655.713, 50.064
656.195, 48.570
656.677, 53.140
657.160, 53.432
657.642, 46.866
658.124, 40.348
658.606, 39.074
659.088, 42.010
659.570, 44.108
660.052, 45.847
660.534, 46.123
661.016, 44.341
661.499, 41.475
661.981, 37.618
662.463, 33.299
662.945, 29.494
663.427, 26.639
663.909, 24.562
664.391, 22.867
664.873, 21.732
665.356, 22.611
665.838, 25.988
666.320, 28.181
666.802, 26.587
667.284, 22.093
667.766, 17.598
668.248, 11.123
668.730, 7.760
669.213, 10.248
669.695, 13.153
670.177, 13.659
670.659, 12.231
671.141, 9.896
671.623, 6.633
672.105, 4.742
672.587, 7.432
673.070, 12.960
673.552, 17.853
674.034, 21.639
674.516, 22.054
674.998, 17.057
675.480, 9.718
675.962, 7.694
676.444, 14.035
676.926, 18.396
677.409, 19.318
677.891, 19.775
678.373, 20.600
678.855, 21.759
679.337, 23.102
679.819, 24.576
680.301, 26.365
680.783, 28.448
681.265, 30.930
681.748, 34.209
682.230, 38.081
682.712, 41.542
683.194, 44.105
683.676, 46.721
684.158, 51.457
684.640, 58.959
685.122, 63.752
685.604, 65.325
686.087, 65.215
686.569, 62.181
687.051, 58.722
687.533, 57.793
688.015, 59.751
688.497, 62.427
688.979, 67.073
689.461, 70.443
689.943, 67.805
690.426, 62.424
690.908, 61.947
691.390, 68.355
691.872, 75.151
692.354, 73.876
692.836, 66.297
693.318, 66.332
693.800, 76.247
694.283, 82.978
694.765, 81.125
695.247, 75.716
695.729, 72.661
696.211, 71.979
696.693, 70.721
697.175, 67.484
697.657, 65.133
698.140, 66.318
698.622, 67.966
699.104, 65.418
699.586, 59.087
700.068, 54.707
700.550, 57.315
701.032, 63.201
701.514, 65.220
701.997, 63.970
702.479, 64.095
702.961, 66.790
703.443, 70.112
703.925, 72.431
704.407, 73.889
704.889, 75.598
705.371, 80.671
705.853, 81.199
706.336, 72.247
706.818, 62.915
707.300, 59.201
707.782, 59.792
708.264, 60.382
708.746, 59.420
709.228, 58.161
709.710, 57.503
710.192, 57.199
710.675, 56.702
711.157, 56.114
711.639, 56.485
712.121, 58.565
712.603, 61.000
713.085, 60.832
713.567, 57.611
714.049, 53.962
714.531, 48.720
715.014, 45.281
715.496, 47.943
715.978, 52.249
716.460, 50.333
716.942, 39.713
717.424, 33.519
717.906, 38.857
718.388, 45.737
718.870, 48.104
719.353, 47.073
719.835, 44.455
720.317, 41.102
720.799, 38.910
721.281, 41.025
721.763, 45.572
722.245, 45.806
722.727, 41.749
723.210, 39.584
723.692, 42.176
724.174, 44.258
724.656, 38.789
725.138, 25.541
725.620, 18.414
726.102, 22.633
726.584, 26.316
727.067, 28.094
727.549, 28.759
728.031, 28.855
728.513, 28.397
728.995, 27.263
729.477, 24.959
729.959, 22.746
730.441, 20.809
730.924, 20.007
731.406, 23.393
731.888, 30.296
732.370, 34.720
732.852, 32.640
733.334, 26.464
733.816, 21.433
734.298, 17.557
734.780, 15.023
735.263, 14.173
735.745, 13.980
736.227, 14.442
736.709, 14.985
737.191, 14.243
737.673, 11.693
738.155, 9.752
738.637, 9.313
739.119, 8.957
739.602, 7.631
740.084, 6.025
740.566, 4.839
741.048, 4.381
741.530, 5.524
742.012, 11.854
742.494, 18.895
742.976, 16.697
743.458, 6.990
743.941, 0.960
744.423, 4.586
744.905, 3.569
745.387, 3.514
745.869, 15.633
746.351, 21.739
746.833, 19.524
747.315, 16.222
747.797, 10.944
748.280, 6.799
748.762, 6.995
749.244, 10.063
749.726, 11.142
750.208, 6.995
750.690, 5.115
751.172, 11.438
751.654, 19.143
752.137, 22.137
752.619, 20.707
753.101, 16.993
753.583, 11.884
754.065, 7.041
754.547, 4.585
755.029, 4.123
755.511, 4.430
755.994, 5.475
756.476, 6.642
756.958, 7.942
757.440, 8.226
757.922, 5.309
758.404, 1.540
758.886, 4.506
759.368, 0.055
759.851, 3.122
760.333, 2.196
760.815, 0.119
761.297, 0.979
761.779, 0.956
762.261, 0.052
762.743, 2.596
763.225, 4.997
763.707, 6.497
764.190, 6.763
764.672, 4.613
765.154, 0.734
765.636, 2.330
766.118, 3.201
766.600, 2.117
767.082, 1.904
767.564, 7.998
768.046, 10.138
768.529, 7.513
769.011, 4.306
769.493, 2.560
769.975, 1.646
770.457, 0.305
770.939, 1.826
771.421, 2.859
771.903, 2.347
772.385, 1.301
772.868, 1.007
773.350, 3.097
773.832, 3.249
774.314, 1.466
774.796, 0.411
775.278, 1.503
775.760, 2.699
776.242, 6.102
776.724, 9.108
777.207, 7.441
777.689, 1.493
778.171, 4.747
778.653, 9.054
779.135, 11.271
779.617, 10.279
780.099, 6.679
780.581, 3.921
781.064, 2.395
781.546, 1.703
782.028, 1.878
782.510, 2.183
782.992, 1.045
783.474, 1.961
783.956, 4.509
784.438, 8.394
784.920, 9.202
785.403, 1.422
785.885, 7.262
786.367, 7.734
786.849, 0.176
787.331, 4.180
787.813, 0.838
788.295, 5.829
788.778, 6.033
789.260, 3.965
789.742, 1.828
790.224, 0.246
790.706, 0.393
791.188, 0.129
791.670, 1.643
792.152, 5.208
792.634, 9.474
793.117, 9.765
793.599, 5.956
794.081, 1.625
794.563, 1.661
795.045, 3.099
795.527, 0.643
796.009, 6.311
796.491, 9.892
796.973, 9.088
797.456, 7.194
797.938, 4.127
798.420, 1.445
798.902, 1.766
799.384, 4.688
799.866, 5.174
800.348, 0.259
800.830, 4.001
801.312, 2.305
801.795, 0.174
802.277, 1.400
802.759, 5.409
803.241, 6.021
803.723, 0.022
804.205, 5.206
804.687, 1.222
805.169, 5.721
805.652, 5.432
806.134, 0.490
806.616, 4.414
807.098, 3.466
807.580, 0.047
808.062, 3.942
808.544, 7.963
809.026, 11.192
809.508, 13.777
809.991, 13.002
810.473, 7.182
810.955, 1.042
811.437, 1.235
811.919, 0.202
812.401, 1.056
812.883, 3.068
813.365, 4.368
813.847, 3.967
814.330, 3.809
814.812, 5.747
815.294, 8.155
815.776, 7.764
816.258, 3.472
816.740, 0.966
817.222, 4.036
817.705, 7.581
818.187, 7.353
818.669, 5.879
819.151, 8.399
819.633, 14.747
820.115, 17.821
820.597, 11.011
821.079, 1.088
821.561, 2.359
822.044, 1.119
822.526, 0.154
823.008, 0.722
823.490, 0.835
823.972, 0.592
824.454, 0.324
824.936, 0.815
825.418, 2.133
825.901, 2.637
826.383, 1.867
826.865, 2.190
827.347, 5.202
827.829, 8.666
828.311, 9.459
828.793, 7.435
829.275, 7.018
829.757, 11.368
830.240, 12.937
830.722, 7.636
831.204, 2.120
831.686, 1.573
832.168, 4.428
832.650, 5.873
833.132, 4.180
833.614, 2.995
834.096, 4.883
834.579, 7.038
835.061, 6.946
835.543, 5.401
836.025, 3.891
836.507, 2.909
836.989, 2.596
837.471, 4.117
837.953, 5.488
838.435, 1.895
838.918, 4.592
839.400, 6.674
839.882, 3.326
840.364, 0.645
840.846, 2.067
841.328, 1.473
841.810, 0.603
842.292, 4.321
842.774, 5.718
843.257, 4.098
843.739, 2.530
844.221, 2.586
844.703, 2.730
845.185, 0.533
845.667, 4.288
846.149, 7.065
846.631, 6.764
847.114, 6.016
847.596, 3.829
848.078, 2.600
848.560, 5.469
849.042, 10.544
849.524, 11.996
850.006, 6.827
850.488, 3.167
850.971, 5.985
851.453, 8.658
851.935, 4.564
852.417, 1.926
852.899, 2.330
853.381, 4.506
853.863, 9.898
854.345, 6.188
854.828, 0.158
855.310, 0.796
855.792, 1.255
856.274, 2.753
856.756, 3.045
857.238, 2.288
857.720, 0.418
858.202, 0.993
858.684, 1.074
859.167, 5.811
859.649, 9.504
860.131, 11.990
860.613, 11.464
861.095, 6.798
861.577, 1.601
862.059, 0.231
862.541, 2.195
863.023, 2.365
863.506, 0.013
863.988, 1.712
864.470, 2.493
864.952, 2.235
865.434, 0.032
865.916, 2.937
866.398, 3.528
866.880, 0.892
867.362, 1.937
867.845, 6.936
868.327, 9.707
868.809, 6.470
869.291, 1.908
869.773, 1.173
870.255, 4.080
870.737, 6.356
871.219, 7.003
871.701, 6.461
872.184, 4.025
872.666, 1.227
873.148, 0.939
873.630, 2.233
874.112, 2.327
874.594, 1.106
875.076, 0.467
875.558, 2.661
876.041, 4.037
876.523, 1.341
877.005, 3.225
877.487, 4.484
877.969, 1.702
878.451, 2.265
878.933, 5.687
879.415, 8.100
879.898, 8.424
880.380, 6.957
880.862, 4.444
881.344, 1.087
881.826, 0.016
882.308, 2.861
882.790, 5.778
883.272, 3.086
883.755, 4.196
884.237, 4.986
884.719, 2.528
885.201, 6.195
885.683, 2.718
886.165, 2.446
886.647, 6.005
887.129, 8.016
887.611, 8.422
888.094, 6.152
888.576, 5.520
889.058, 8.701
889.540, 10.484
890.022, 7.725
890.504, 3.856
890.986, 1.996
891.468, 2.058
891.950, 2.691
892.433, 3.865
892.915, 5.446
893.397, 9.389
893.879, 11.774
894.361, 7.986
894.843, 1.624
895.325, 0.886
895.807, 1.929
896.289, 5.903
896.772, 12.097
897.254, 15.563
897.736, 10.144
898.218, 1.930
898.700, 0.994
899.182, 1.164
899.664, 3.172
900.146, 2.593
900.628, 0.888
901.111, 1.970
901.593, 4.242
902.075, 2.374
902.557, 2.182
903.039, 5.065
903.521, 5.090
904.003, 4.170
904.485, 3.668
904.968, 3.717
905.450, 5.058
905.932, 7.223
906.414, 8.407
906.896, 8.384
907.378, 7.131
907.860, 4.569
908.342, 1.525
908.825, 0.929
909.307, 2.788
909.789, 4.353
910.271, 5.740
910.753, 4.534
911.235, 0.391
911.717, 4.999
912.199, 6.125
912.682, 4.944
913.164, 4.949
913.646, 6.881
914.128, 6.869
914.610, 4.650
915.092, 0.790
915.574, 6.623
916.056, 12.712
916.538, 11.343
917.021, 3.192
917.503, 2.912
917.985, 7.922
918.467, 9.223
918.949, 2.395
919.431, 3.377
919.913, 2.635
920.395, 1.149
920.877, 2.377
921.360, 0.408
921.842, 0.998
922.324, 7.207
922.806, 12.861
923.288, 18.633
923.770, 21.199
924.252, 14.546
924.734, 3.201
925.216, 1.208
925.699, 5.327
926.181, 11.161
926.663, 12.141
927.145, 11.199
927.627, 8.397
928.109, 5.723
928.591, 6.465
929.073, 9.869
929.555, 10.976
930.038, 6.349
930.520, 2.467
931.002, 4.349
931.484, 8.593
931.966, 12.934
932.448, 16.427
932.930, 18.091
933.412, 17.587
933.895, 14.268
934.377, 5.017
934.859, 3.141
935.341, 0.129
935.823, 8.844
936.305, 13.349
936.787, 13.259
937.269, 11.378
937.752, 8.922
938.234, 6.533
938.716, 4.553
939.198, 3.307
939.680, 3.909
940.162, 5.773
940.644, 7.118
941.126, 7.697
941.609, 8.225
942.091, 9.165
942.573, 9.448
943.055, 6.837
943.537, 2.206
944.019, 0.836
944.501, 2.316
944.983, 2.846
945.465, 2.575
945.948, 0.281
946.430, 5.475
946.912, 12.214
947.394, 13.960
947.876, 10.863
948.358, 6.631
948.840, 1.135
949.322, 0.079
949.804, 5.699
950.287, 11.872
950.769, 11.562
951.251, 6.282
951.733, 2.764
952.215, 1.376
952.697, 1.786
953.179, 8.493
953.661, 10.348
954.143, 1.913
954.626, 9.132
955.108, 12.501
955.590, 8.696
956.072, 6.455
956.554, 6.614
957.036, 5.373
957.518, 1.081
958.000, 2.040
958.482, 1.274
958.965, 1.664
959.447, 4.013
959.929, 5.810
960.411, 6.803
960.893, 6.934
961.375, 6.211
961.857, 3.122
962.339, 1.345
962.822, 4.888
963.304, 10.812
963.786, 11.701
964.268, 5.333
964.750, 2.605
965.232, 7.030
965.714, 10.005
966.196, 8.742
966.679, 6.243
967.161, 4.483
967.643, 3.331
968.125, 2.215
968.607, 0.031
969.089, 0.621
969.571, 7.771
970.053, 13.063
970.536, 12.921
971.018, 10.525
971.500, 8.387
971.982, 6.568
972.464, 4.792
972.946, 2.441
973.428, 1.351
973.910, 3.097
974.392, 4.595
974.875, 3.414
975.357, 2.081
975.839, 4.115
976.321, 9.040
976.803, 12.393
977.285, 13.105
977.767, 12.703
978.249, 10.803
978.731, 8.590
979.214, 7.107
979.696, 5.492
980.178, 1.396
980.660, 4.750
981.142, 6.913
981.624, 0.316
982.106, 6.136
982.588, 6.476
983.070, 5.325
983.553, 4.924
984.035, 4.970
984.517, 4.650
984.999, 3.889
985.481, 3.480
985.963, 4.328
986.445, 4.690
986.927, 3.005
987.409, 1.470
987.892, 2.851
988.374, 5.148
988.856, 3.959
989.338, 1.373
989.820, 4.448
990.302, 0.767
990.784, 2.930
991.266, 4.067
991.749, 3.627
992.231, 1.115
992.713, 1.850
993.195, 2.358
993.677, 0.206
994.159, 4.080
994.641, 11.698
995.123, 16.515
995.606, 12.083
996.088, 5.993
996.570, 5.976
997.052, 9.878
997.534, 11.964
998.016, 10.832
998.498, 8.250
998.980, 2.989
999.463, 1.097
999.945, 1.489
1000.427, 0.034
1000.909, 1.252
1001.391, 2.883
1001.873, 7.374
1002.355, 15.708
1002.837, 21.246
1003.319, 19.449
1003.802, 15.883
1004.284, 12.565
1004.766, 9.912
1005.248, 8.411
1005.730, 7.795
1006.212, 7.379
1006.694, 6.965
1007.176, 6.951
1007.658, 8.755
1008.141, 9.549
1008.623, 6.421
1009.105, 2.505
1009.587, 0.879
1010.069, 1.239
1010.551, 2.098
1011.033, 3.116
1011.515, 4.006
1011.997, 4.822
1012.480, 5.317
1012.962, 4.313
1013.444, 3.765
1013.926, 7.169
1014.408, 12.419
1014.890, 12.704
1015.372, 5.194
1015.854, 2.569
1016.337, 17.801
1016.819, 29.421
1017.301, 22.598
1017.783, 10.252
1018.265, 2.797
1018.747, 0.772
1019.229, 3.190
1019.711, 10.694
1020.193, 15.602
1020.676, 14.544
1021.158, 11.229
1021.640, 4.734
1022.122, 1.018
1022.604, 2.017
1023.086, 0.361
1023.568, 2.840
1024.050, 5.190
1024.533, 4.662
1025.015, 3.363
1025.497, 9.421
1025.979, 9.425
1026.461, 6.359
1026.943, 0.175
1027.425, 6.442
1027.907, 7.415
1028.390, 0.868
1028.872, 3.615
1029.354, 3.518
1029.836, 1.913
1030.318, 1.416
1030.800, 4.783
1031.282, 7.951
1031.764, 9.949
1032.246, 8.185
1032.729, 1.632
1033.211, 2.307
1033.693, 0.042
1034.175, 1.169
1034.657, 2.555
1035.139, 5.533
1035.621, 2.941
1036.103, 2.474
1036.585, 5.529
1037.068, 5.736
1037.550, 6.188
1038.032, 7.661
1038.514, 8.405
1038.996, 8.505
1039.478, 7.512
1039.960, 3.398
1040.442, 1.017
1040.925, 0.515
1041.407, 5.370
1041.889, 7.926
1042.371, 3.016
1042.853, 2.891
1043.335, 13.750
1043.817, 21.652
1044.299, 17.832
1044.781, 9.139
1045.264, 4.635
1045.746, 4.209
1046.228, 5.291
1046.710, 8.601
1047.192, 11.677
1047.674, 14.942
1048.156, 16.118
1048.638, 13.113
1049.120, 9.628
1049.603, 10.694
1050.085, 15.279
1050.567, 15.911
1051.049, 11.777
1051.531, 7.418
1052.013, 2.695
1052.495, 0.383
1052.977, 0.950
1053.460, 0.059
1053.942, 1.692
1054.424, 4.118
1054.906, 9.052
1055.388, 16.805
1055.870, 18.156
1056.352, 12.193
1056.834, 6.540
1057.317, 3.557
1057.799, 2.353
1058.281, 2.325
1058.763, 3.092
1059.245, 3.318
1059.727, 3.350
1060.209, 7.238
1060.691, 14.533
1061.173, 18.566
1061.656, 17.691
1062.138, 13.485
1062.620, 6.597
1063.102, 0.198
1063.584, 1.148
1064.066, 6.275
1064.548, 4.758
1065.030, 1.332
1065.512, 2.780
1065.995, 1.335
1066.477, 4.930
1066.959, 4.760
1067.441, 3.530
1067.923, 4.479
1068.405, 6.285
1068.887, 6.320
1069.369, 5.717
1069.852, 7.539
1070.334, 11.151
1070.816, 12.998
1071.298, 11.731
1071.780, 9.023
1072.262, 3.860
1072.744, 0.379
1073.226, 5.519
1073.708, 12.634
1074.191, 12.563
1074.673, 7.421
1075.155, 3.741
1075.637, 3.186
1076.119, 3.446
1076.601, 3.049
1077.083, 3.556
1077.565, 6.859
1078.047, 10.450
1078.530, 12.836
1079.012, 13.786
1079.494, 12.113
1079.976, 8.420
1080.458, 7.528
1080.940, 13.824
1081.422, 17.109
1081.904, 10.976
1082.386, 5.489
1082.869, 6.732
1083.351, 10.343
1083.833, 12.326
1084.315, 12.455
1084.797, 10.627
1085.279, 4.698
1085.761, 2.174
1086.243, 7.178
1086.726, 9.863
1087.208, 5.679
1087.690, 1.287
1088.172, 2.144
1088.654, 5.784
1089.136, 6.104
1089.618, 2.245
1090.100, 2.522
1090.583, 8.837
1091.065, 13.401
1091.547, 15.150
1092.029, 13.892
1092.511, 8.627
1092.993, 2.528
1093.475, 0.328
1093.957, 1.560
1094.439, 3.083
1094.922, 4.917
1095.404, 5.861
1095.886, 5.789
1096.368, 4.275
1096.850, 1.025
1097.332, 1.006
1097.814, 1.176
1098.296, 6.299
1098.778, 13.270
1099.261, 20.519
1099.743, 21.803
1100.225, 17.767
1100.707, 11.896
1101.189, 5.479
1101.671, 0.229
1102.153, 4.630
1102.635, 6.727
1103.118, 2.945
1103.600, 1.949
1104.082, 0.750
1104.564, 6.524
1105.046, 6.389
1105.528, 0.714
1106.010, 4.956
1106.492, 8.630
1106.974, 9.869
1107.457, 6.024
1107.939, 2.449
1108.421, 3.912
1108.903, 6.280
1109.385, 4.229
1109.867, 0.575
1110.349, 2.332
1110.831, 10.178
1111.313, 14.245
1111.796, 6.859
1112.278, 3.071
1112.760, 10.104
1113.242, 16.769
1113.724, 16.814
1114.206, 14.080
1114.688, 12.733
1115.170, 12.571
1115.653, 12.352
1116.135, 12.515
1116.617, 11.200
1117.099, 6.707
1117.581, 4.922
1118.063, 8.619
1118.545, 12.187
1119.027, 11.117
1119.510, 8.468
1119.992, 11.052
1120.474, 18.473
1120.956, 19.707
1121.438, 14.495
1121.920, 11.119
1122.402, 10.781
1122.884, 9.728
1123.366, 6.166
1123.849, 3.812
1124.331, 7.452
1124.813, 13.705
1125.295, 14.996
1125.777, 12.808
1126.259, 10.649
1126.741, 8.937
1127.223, 7.953
1127.705, 7.697
1128.188, 7.881
1128.670, 8.519
1129.152, 8.610
1129.634, 5.736
1130.116, 3.310
1130.598, 6.177
1131.080, 10.840
1131.562, 12.817
1132.045, 11.939
1132.527, 9.066
1133.009, 4.234
1133.491, 0.998
1133.973, 1.387
1134.455, 2.670
1134.937, 3.238
1135.419, 5.052
1135.901, 12.346
1136.384, 19.992
1136.866, 19.430
1137.348, 11.097
1137.830, 5.524
1138.312, 3.801
1138.794, 2.446
1139.276, 0.701
1139.758, 1.303
1140.240, 6.517
1140.723, 10.927
1141.205, 10.055
1141.687, 5.791
1142.169, 1.676
1142.651, 2.165
1143.133, 2.444
1143.615, 0.766
1144.097, 4.838
1144.580, 9.268
1145.062, 12.795
1145.544, 14.833
1146.026, 14.803
1146.508, 11.179
1146.990, 6.868
1147.472, 7.736
1147.954, 11.229
1148.437, 13.009
1148.919, 12.772
1149.401, 9.731
1149.883, 4.753
1150.365, 2.213
1150.847, 4.463
1151.329, 8.225
1151.811, 13.663
1152.293, 17.119
1152.776, 14.139
1153.258, 9.589
1153.740, 8.167
1154.222, 9.189
1154.704, 11.054
1155.186, 13.758
1155.668, 12.716
1156.150, 1.882
1156.632, 3.957
1157.115, 0.799
1157.597, 3.540
1158.079, 7.013
1158.561, 8.947
1159.043, 8.139
1159.525, 5.626
1160.007, 4.948
1160.489, 6.319
1160.972, 7.517
1161.454, 8.586
1161.936, 7.812
1162.418, 4.812
1162.900, 3.664
1163.382, 6.648
1163.864, 11.417
1164.346, 16.116
1164.828, 19.405
1165.311, 17.259
1165.793, 12.253
1166.275, 9.597
1166.757, 9.246
1167.239, 10.145
1167.721, 11.678
1168.203, 12.290
1168.685, 11.012
1169.167, 9.331
1169.650, 7.373
1170.132, 6.242
1170.614, 8.527
1171.096, 10.402
1171.578, 6.482
1172.060, 0.345
1172.542, 2.996
1173.024, 0.373
1173.507, 1.756
1173.989, 2.628
1174.471, 4.003
1174.953, 8.031
1175.435, 7.948
1175.917, 1.410
1176.399, 10.043
1176.881, 8.086
1177.364, 0.578
1177.846, 6.246
1178.328, 8.901
1178.810, 7.644
1179.292, 2.907
1179.774, 0.919
1180.256, 2.927
1180.738, 2.161
1181.220, 1.700
1181.703, 4.929
1182.185, 3.530
1182.667, 0.575
1183.149, 0.792
1183.631, 0.724
1184.113, 1.116
1184.595, 3.985
1185.077, 7.020
1185.559, 9.835
1186.042, 12.149
1186.524, 14.374
1187.006, 13.600
1187.488, 3.222
1187.970, 2.378
1188.452, 7.751
1188.934, 17.268
1189.416, 13.093
1189.899, 4.555
1190.381, 4.940
1190.863, 12.510
1191.345, 13.637
1191.827, 6.743
1192.309, 2.325
1192.791, 0.780
1193.273, 1.626
1193.755, 4.850
1194.238, 8.649
1194.720, 12.040
1195.202, 13.724
1195.684, 9.833
1196.166, 4.960
1196.648, 11.534
1197.130, 22.832
1197.612, 25.042
1198.094, 19.872
1198.577, 14.333
1199.059, 10.503
1199.541, 8.909
1200.023, 10.752
1200.505, 11.652
1200.987, 7.528
1201.469, 4.467
1201.951, 6.646
1202.434, 10.132
1202.916, 12.236
1203.398, 12.944
1203.880, 12.695
1204.362, 11.476
1204.844, 8.160
1205.326, 1.195
1205.808, 1.520
1206.291, 1.218
1206.773, 4.134
1207.255, 5.863
1207.737, 5.014
1208.219, 0.136
1208.701, 4.688
1209.183, 1.574
1209.665, 5.341
1210.147, 5.606
1210.630, 1.851
1211.112, 0.613
1211.594, 1.512
1212.076, 2.385
1212.558, 3.360
1213.040, 2.231
1213.522, 3.366
1214.004, 7.212
1214.486, 4.064
1214.969, 1.209
1215.451, 2.466
1215.933, 5.456
1216.415, 9.016
1216.897, 12.318
1217.379, 13.939
1217.861, 13.955
1218.343, 14.269
1218.826, 15.597
1219.308, 12.699
1219.790, 4.265
1220.272, 1.652
1220.754, 8.385
1221.236, 13.378
1221.718, 8.971
1222.200, 2.033
1222.682, 2.264
1223.165, 5.993
1223.647, 7.671
1224.129, 7.161
1224.611, 1.641
1225.093, 5.408
1225.575, 5.465
1226.057, 1.970
1226.539, 10.509
1227.021, 19.666
1227.504, 23.679
1227.986, 15.008
1228.468, 8.487
1228.950, 12.012
1229.432, 16.300
1229.914, 16.171
1230.396, 13.307
1230.878, 9.255
1231.361, 4.752
1231.843, 3.833
1232.325, 6.612
1232.807, 9.429
1233.289, 12.112
1233.771, 14.040
1234.253, 14.990
1234.735, 13.928
1235.218, 10.337
1235.700, 6.546
1236.182, 4.075
1236.664, 3.445
1237.146, 7.476
1237.628, 11.541
1238.110, 9.134
1238.592, 4.493
1239.074, 4.290
1239.557, 8.028
1240.039, 11.369
1240.521, 14.221
1241.003, 13.658
1241.485, 7.114
1241.967, 2.516
1242.449, 1.155
1242.931, 0.549
1243.413, 0.180
1243.896, 0.557
1244.378, 0.059
1244.860, 0.742
1245.342, 0.449
1245.824, 0.459
1246.306, 0.633
1246.788, 0.064
1247.270, 2.716
1247.753, 6.472
1248.235, 8.903
1248.717, 9.242
1249.199, 7.358
1249.681, 1.378
1250.163, 1.684
1250.645, 4.491
1251.127, 10.003
1251.609, 10.506
1252.092, 8.144
1252.574, 3.074
1253.056, 2.280
1253.538, 3.786
1254.020, 2.322
1254.502, 4.994
1254.984, 12.265
1255.466, 12.606
1255.948, 5.913
1256.431, 0.836
1256.913, 5.857
1257.395, 8.267
1257.877, 7.638
1258.359, 5.387
1258.841, 1.500
1259.323, 1.357
1259.805, 0.665
1260.288, 2.296
1260.770, 9.554
1261.252, 15.833
1261.734, 11.462
1262.216, 0.687
1262.698, 0.532
1263.180, 10.777
1263.662, 16.038
1264.145, 13.128
1264.627, 9.325
1265.109, 4.931
1265.591, 4.878
1266.073, 11.440
1266.555, 16.348
1267.037, 13.536
1267.519, 7.852
1268.001, 5.840
1268.484, 6.126
1268.966, 6.866
1269.448, 7.755
1269.930, 8.734
1270.412, 9.330
1270.894, 8.566
1271.376, 6.546
1271.858, 4.264
1272.340, 1.455
1272.823, 0.000
##END=



