##NAMES=Stilbite-Ca
##RRUFFID=R050012
##IDEAL CHEMISTRY=NaCa_4_(Si_27_Al_9_)O_72_&#183;28H_2_O
##LOCALITY=Harborville, Nova Scotia, Canada
##OWNER=RRUFF
##SOURCE=University of Arizona Mineral Museum
##DESCRIPTION=Globular aggregate of thin tabular white single crystals
##STATUS=The identification of this mineral has been confirmed by X-ray diffraction and chemical analysis
##URL=rruff.info/R050012
##MEASURED CHEMISTRY=(Na_1.50_K_0.03_)_Σ=1.53_Ca_4.15_(Si_26.17_Al_9.83_)O_72_·27.91H_2_O; H_2_O estimated by difference
129.534, 0.000
130.922, 12.109
132.309, 331.260
133.696, 23.803
135.083, 377.838
136.470, 535.020
137.857, 1185.287
139.243, 1605.773
140.630, 2226.943
142.016, 2631.305
143.401, 3116.336
144.787, 3722.947
146.172, 4736.656
147.557, 5500.543
148.942, 6359.375
150.327, 6836.574
151.711, 7553.953
153.096, 8467.260
154.480, 8467.289
155.863, 8814.502
157.247, 8256.314
158.630, 8054.461
160.013, 8039.855
161.396, 7543.449
162.779, 6966.602
164.161, 6300.266
165.544, 5978.234
166.926, 5282.863
168.308, 4786.582
169.689, 4245.787
171.070, 3994.473
172.452, 3571.020
173.833, 3332.883
175.213, 3010.670
176.594, 2566.322
177.974, 2467.180
179.354, 1962.148
180.734, 1914.535
182.114, 1600.506
183.493, 1226.039
184.872, 1142.066
186.251, 984.164
187.630, 852.906
189.008, 752.463
190.387, 613.637
191.765, 515.816
193.143, 442.572
194.520, 346.299
195.898, 352.062
197.275, 297.895
198.652, 363.025
200.029, 453.129
201.405, 592.709
202.782, 589.951
204.158, 632.329
205.534, 662.470
206.909, 811.594
208.285, 986.554
209.660, 735.622
211.035, 747.130
212.410, 282.734
213.784, 1.944
215.159, 79.187
216.533, 71.472
217.907, 23.468
219.281, 184.423
220.654, 0.243
222.027, 19.814
223.400, 22.456
224.773, 81.270
226.146, 65.315
227.518, 190.625
228.891, 5.845
230.263, 143.865
231.634, 111.712
233.006, 181.657
234.377, 281.655
235.748, 173.661
237.119, 221.640
238.490, 231.562
239.860, 184.408
241.231, 456.160
242.601, 205.778
243.970, 362.226
245.340, 261.470
246.709, 437.495
248.079, 308.288
249.448, 177.834
250.816, 367.108
252.185, 20.113
253.553, 355.815
254.921, 97.056
256.289, 15.783
257.657, 179.117
259.024, 23.013
260.391, 28.570
261.758, 60.797
263.125, 32.709
264.492, 89.653
265.858, 18.729
267.224, 65.139
268.590, 106.236
269.956, 85.563
271.321, 285.105
272.687, 60.885
274.052, 208.929
275.416, 221.230
276.781, 345.793
278.146, 225.629
279.510, 155.776
280.874, 323.258
282.237, 48.140
283.601, 235.514
284.964, 66.359
286.327, 93.785
287.690, 103.695
289.053, 14.023
290.416, 7.703
291.778, 35.682
293.140, 272.115
294.502, 219.002
295.863, 559.324
297.225, 403.922
298.586, 510.514
299.947, 642.950
301.308, 642.128
302.668, 784.970
304.029, 811.422
305.389, 977.441
306.749, 1138.988
308.108, 1361.038
309.468, 1403.574
310.827, 1688.578
312.186, 1670.033
313.545, 1762.930
314.903, 1791.258
316.262, 1892.986
317.620, 2026.092
318.978, 1908.568
320.336, 2124.427
321.693, 2190.684
323.051, 2127.347
324.408, 1976.390
325.765, 2093.787
327.121, 1862.536
328.478, 2062.640
329.834, 1870.123
331.190, 1937.981
332.546, 1895.217
333.902, 1931.854
335.257, 1828.838
336.612, 1994.952
337.967, 1838.149
339.322, 1866.626
340.677, 1850.297
342.031, 1834.353
343.385, 1850.808
344.739, 1788.746
346.093, 2028.238
347.446, 1813.295
348.799, 1944.937
350.153, 1859.206
351.505, 1961.511
352.858, 2012.010
354.210, 2090.537
355.563, 2187.196
356.915, 2224.079
358.267, 2284.141
359.618, 2347.779
360.969, 2490.615
362.321, 2532.205
363.672, 2748.496
365.022, 2843.549
366.373, 3038.734
367.723, 3359.111
369.073, 3503.754
370.423, 3909.410
371.773, 4139.360
373.122, 4360.015
374.471, 4600.384
375.821, 4936.171
377.169, 5445.512
378.518, 5521.922
379.866, 6160.848
381.215, 6036.682
382.563, 6264.896
383.910, 6741.742
385.258, 6931.127
386.605, 7220.605
387.952, 7597.379
389.299, 8078.822
390.646, 8278.713
391.992, 8925.736
393.339, 9274.770
394.685, 9870.332
396.031, 10807.070
397.376, 11536.109
398.722, 12737.675
400.067, 13414.010
401.412, 14525.226
402.757, 15409.788
404.101, 16656.773
405.446, 17983.207
406.790, 18642.129
408.134, 19226.242
409.478, 19823.590
410.821, 20115.707
412.165, 20428.141
413.508, 19880.494
414.851, 18914.582
416.193, 18598.803
417.536, 17651.178
418.878, 16619.422
420.220, 15813.386
421.562, 15365.163
422.904, 14313.060
424.245, 13532.795
425.586, 12594.823
426.927, 11822.418
428.268, 11042.772
429.609, 10516.533
430.949, 9602.401
432.289, 8710.414
433.629, 8291.945
434.969, 7749.592
436.309, 7080.990
437.648, 6749.664
438.987, 6108.567
440.326, 5959.061
441.665, 5400.990
443.003, 5007.463
444.342, 4937.266
445.680, 4830.380
447.018, 4627.187
448.355, 4550.344
449.693, 4567.018
451.030, 4437.406
452.367, 4319.302
453.704, 4535.556
455.041, 4741.756
456.377, 4503.354
457.713, 4618.984
459.049, 4773.803
460.385, 4633.903
461.721, 4546.395
463.056, 4473.719
464.391, 4369.475
465.726, 4161.182
467.061, 3964.423
468.395, 3898.181
469.730, 3847.710
471.064, 3900.264
472.398, 4015.875
473.731, 3498.353
475.065, 3858.697
476.398, 3681.913
477.731, 3858.002
479.064, 4389.967
480.397, 5055.808
481.729, 5503.531
483.062, 5565.137
484.394, 6065.627
485.725, 6891.008
487.057, 8081.275
488.389, 9310.436
489.720, 10774.466
491.051, 12493.831
492.382, 13992.308
493.712, 15889.067
495.043, 17409.730
496.373, 18290.305
497.703, 18597.785
499.032, 17964.189
500.362, 16885.504
501.691, 15124.168
503.020, 12941.397
504.349, 11201.491
505.678, 9099.947
507.007, 7830.697
508.335, 6394.580
509.663, 5342.398
510.991, 4520.312
512.319, 3857.427
513.646, 3299.717
514.973, 2903.190
516.300, 2611.066
517.627, 2077.121
518.954, 1949.553
520.280, 1801.289
521.607, 1536.649
522.933, 1344.982
524.259, 1211.178
525.584, 938.940
526.910, 738.157
528.235, 717.582
529.560, 599.094
530.885, 652.474
532.209, 480.945
533.534, 491.549
534.858, 412.594
536.182, 337.020
537.506, 298.133
538.829, 168.720
540.152, 166.508
541.476, 223.235
542.799, 114.191
544.121, 185.646
545.444, 163.171
546.766, 74.295
548.088, 41.387
549.410, 66.589
550.732, 46.562
552.053, 35.536
553.375, 43.017
554.696, 52.133
556.017, 25.745
557.337, 52.901
558.658, 4.176
559.978, 52.211
561.298, 53.915
562.618, 87.323
563.938, 126.408
565.257, 122.848
566.576, 100.427
567.895, 142.720
569.214, 162.673
570.533, 221.616
571.851, 197.091
573.170, 208.201
574.488, 178.913
575.805, 157.491
577.123, 123.716
578.440, 41.945
579.758, 86.160
581.075, 72.385
582.391, 363.607
583.708, 169.845
585.024, 450.081
586.341, 166.372
587.657, 276.681
588.972, 358.018
590.288, 501.434
591.603, 483.889
592.918, 724.433
594.233, 548.009
595.548, 490.653
596.863, 657.368
598.177, 733.191
599.491, 682.124
600.805, 844.110
602.119, 927.192
603.432, 949.297
604.746, 936.475
606.059, 1095.683
607.372, 1191.923
608.685, 1312.200
609.997, 1372.158
611.309, 1426.168
612.621, 1473.102
613.933, 1525.726
615.245, 1570.698
616.557, 1612.971
617.868, 1656.230
619.179, 1681.473
620.490, 1814.696
621.801, 1755.902
623.111, 1645.089
624.421, 1842.254
625.731, 1754.394
627.041, 1840.506
628.351, 1486.593
629.660, 1735.648
630.970, 1478.674
632.279, 1452.671
633.588, 1618.638
634.896, 1434.576
636.205, 1453.485
637.513, 1274.365
638.821, 1345.215
640.129, 1068.035
641.437, 1146.826
642.744, 1071.588
644.051, 1143.320
645.358, 758.026
646.665, 974.704
647.972, 806.354
649.278, 1069.976
650.584, 876.568
651.890, 615.135
653.196, 416.674
654.502, 654.186
655.807, 551.671
657.113, 438.129
658.418, 242.561
659.722, 326.962
661.027, 376.335
662.331, 237.683
663.636, 150.999
664.940, 512.282
666.244, 576.539
667.547, 62.770
668.851, 238.964
670.154, 51.872
671.457, 126.232
672.760, 85.696
674.062, 69.700
675.365, 101.228
676.667, 18.120
677.969, 40.987
679.271, 19.275
680.572, 26.547
681.874, 104.174
683.175, 74.157
684.476, 41.929
685.777, 15.270
687.077, 77.302
688.378, 12.768
689.678, 41.498
690.978, 105.215
692.278, 17.832
693.577, 44.365
694.877, 315.922
696.176, 185.576
697.475, 77.428
698.774, 152.271
700.072, 89.672
701.371, 112.048
702.669, 47.254
703.967, 81.105
705.265, 158.201
706.562, 155.808
707.860, 175.739
709.157, 18.837
710.454, 149.171
711.751, 259.787
713.047, 46.512
714.344, 306.714
715.640, 23.756
716.936, 272.427
718.232, 103.325
719.527, 205.780
720.823, 332.251
722.118, 313.806
723.413, 378.974
724.708, 416.750
726.002, 302.868
727.297, 338.703
728.591, 369.660
729.885, 248.520
731.179, 439.881
732.472, 484.560
733.766, 427.948
735.059, 428.753
736.352, 535.985
737.645, 657.366
738.937, 639.625
740.230, 593.622
741.522, 814.836
742.814, 655.956
744.106, 719.433
745.397, 856.105
746.689, 845.323
747.980, 830.111
749.271, 849.013
750.562, 943.871
751.853, 931.803
753.143, 1030.978
754.433, 1011.237
755.723, 1151.180
757.013, 1183.186
758.303, 1411.597
759.592, 1380.417
760.881, 1299.015
762.170, 1551.187
763.459, 1547.620
764.748, 1798.742
766.036, 1796.930
767.325, 1604.291
768.613, 2036.184
769.901, 2020.104
771.188, 2315.527
772.476, 2440.828
773.763, 2388.377
775.050, 2750.213
776.337, 2691.133
777.624, 3277.818
778.910, 3167.980
780.196, 3402.170
781.482, 3702.201
782.768, 4088.889
784.054, 4082.320
785.339, 4182.098
786.625, 4599.541
787.910, 4691.219
789.195, 4560.430
790.479, 4957.600
791.764, 4663.125
793.048, 4742.602
794.332, 4774.025
795.616, 4568.400
796.900, 4786.725
798.183, 4510.059
799.467, 4587.375
800.750, 4241.729
802.033, 4193.852
803.316, 4075.031
804.598, 3711.055
805.880, 3949.027
807.163, 3253.967
808.445, 3224.840
809.726, 2863.660
811.008, 2556.604
812.289, 2213.324
813.570, 1989.574
814.851, 1825.129
816.132, 1544.699
817.413, 1319.785
818.693, 1072.459
819.973, 957.881
821.253, 823.424
822.533, 860.414
823.813, 625.264
825.092, 731.832
826.371, 565.115
827.650, 613.896
828.929, 505.400
830.208, 415.438
831.486, 375.357
832.764, 270.719
834.042, 259.266
835.320, 247.795
836.598, 285.059
837.875, 247.787
839.152, 177.229
840.429, 146.506
841.706, 210.836
842.983, 247.000
844.259, 59.955
845.536, 2.396
846.812, 301.385
848.088, 93.926
849.363, 112.430
850.639, 21.016
851.914, 91.547
853.189, 130.824
854.464, 23.424
855.739, 100.443
857.013, 101.170
858.288, 161.883
859.562, 35.887
860.836, 46.834
862.110, 7.182
863.383, 9.084
864.656, 160.273
865.930, 126.754
867.203, 39.621
868.475, 129.641
869.748, 42.299
871.020, 3.703
872.292, 142.877
873.564, 97.213
874.836, 47.205
876.108, 10.209
877.379, 68.156
878.650, 22.578
879.922, 69.561
881.192, 20.807
882.463, 57.137
883.733, 5.922
885.004, 24.256
886.274, 40.545
887.544, 90.795
888.813, 20.994
890.083, 207.156
891.352, 20.727
892.621, 141.324
893.890, 35.660
895.159, 35.715
896.427, 109.162
897.695, 132.004
898.964, 40.715
900.232, 131.387
901.499, 93.020
902.767, 91.430
904.034, 62.158
905.301, 8.666
906.568, 131.875
907.835, 23.469
909.102, 193.771
910.368, 165.035
911.634, 14.264
912.900, 54.447
914.166, 143.594
915.432, 67.701
916.697, 128.770
917.962, 100.801
919.227, 45.793
920.492, 143.746
921.757, 124.664
923.021, 230.549
924.285, 6.398
925.550, 173.211
926.813, 90.990
928.077, 57.736
929.341, 100.449
930.604, 212.125
931.867, 191.770
933.130, 216.385
934.393, 45.969
935.655, 93.512
936.918, 285.025
938.180, 63.510
939.442, 283.963
940.703, 92.387
941.965, 88.777
943.226, 286.137
944.488, 304.469
945.749, 307.885
947.009, 314.896
948.270, 273.312
949.530, 207.539
950.791, 199.746
952.051, 175.926
953.311, 293.076
954.570, 191.203
955.830, 226.441
957.089, 230.389
958.348, 208.445
959.607, 272.477
960.866, 270.479
962.124, 167.461
963.383, 234.420
964.641, 247.365
965.899, 337.307
967.156, 313.227
968.414, 359.129
969.671, 333.014
970.928, 424.879
972.185, 477.723
973.442, 406.572
974.699, 687.406
975.955, 556.232
977.211, 636.051
978.468, 637.855
979.723, 501.662
980.979, 603.467
982.234, 753.258
983.490, 769.004
984.745, 1065.316
986.000, 614.570
987.254, 962.768
988.509, 979.150
989.763, 733.393
991.017, 1172.330
992.271, 1001.127
993.525, 963.215
994.779, 1005.447
996.032, 1142.693
997.285, 1138.674
998.538, 1067.129
999.791, 1433.734
1001.044, 1026.582
1002.296, 1419.898
1003.548, 1165.678
1004.800, 1455.617
1006.052, 1320.160
1007.304, 1429.990
1008.555, 1407.883
1009.807, 1339.020
1011.058, 1534.398
1012.309, 1631.000
1013.559, 1658.521
1014.810, 1651.002
1016.060, 1544.477
1017.310, 1580.061
1018.560, 1740.221
1019.810, 1832.816
1021.060, 1589.943
1022.309, 1795.354
1023.558, 1927.354
1024.807, 1732.467
1026.056, 2007.447
1027.305, 1786.686
1028.553, 1839.467
1029.801, 1772.951
1031.049, 1942.928
1032.297, 2024.598
1033.545, 1793.555
1034.793, 1867.777
1036.040, 1951.559
1037.287, 1852.447
1038.534, 1929.590
1039.781, 1916.449
1041.027, 1909.068
1042.274, 2172.992
1043.520, 1846.328
1044.766, 1948.426
1046.012, 2004.547
1047.257, 1833.742
1048.503, 1785.061
1049.748, 1875.980
1050.993, 2228.273
1052.238, 2002.404
1053.483, 2065.527
1054.727, 1803.527
1055.971, 1830.229
1057.216, 1787.789
1058.459, 2033.441
1059.703, 1774.971
1060.947, 1664.377
1062.190, 1752.148
1063.433, 2071.504
1064.676, 1782.984
1065.919, 1577.205
1067.162, 1777.525
1068.404, 1518.287
1069.646, 1994.238
1070.888, 1542.598
1072.130, 1658.562
1073.372, 1881.576
1074.613, 1716.004
1075.855, 1819.949
1077.096, 1780.859
1078.337, 1814.654
1079.578, 1921.611
1080.818, 1957.955
1082.059, 2101.002
1083.299, 2171.891
1084.539, 2192.674
1085.779, 2374.248
1087.018, 2350.832
1088.258, 2456.607
1089.497, 2491.477
1090.736, 2551.867
1091.975, 2667.096
1093.213, 2814.883
1094.452, 2700.500
1095.690, 2717.729
1096.928, 2973.867
1098.166, 2944.381
1099.404, 3121.203
1100.642, 3128.430
1101.879, 3209.420
1103.116, 3140.195
1104.353, 3316.744
1105.590, 3444.439
1106.827, 3404.492
1108.063, 3405.768
1109.299, 3623.488
1110.536, 3271.969
1111.771, 3681.402
1113.007, 3620.635
1114.243, 3594.166
1115.478, 3713.262
1116.713, 3871.365
1117.948, 3780.324
1119.183, 3643.262
1120.418, 3991.414
1121.652, 3847.232
1122.886, 3665.717
1124.120, 3846.895
1125.354, 3938.334
1126.588, 3947.771
1127.821, 3624.395
1129.055, 3723.477
1130.288, 3410.686
1131.521, 3634.545
1132.753, 3287.424
1133.986, 3308.336
1135.218, 3030.549
1136.450, 3096.273
1137.682, 3397.162
1138.914, 2914.102
1140.146, 3149.174
1141.377, 2832.848
1142.609, 2940.803
1143.840, 2796.207
1145.071, 2659.945
1146.301, 2785.805
1147.532, 2561.309
1148.762, 2571.742
1149.992, 2589.916
1151.222, 2229.109
1152.452, 2298.600
1153.682, 2358.549
1154.911, 2211.547
1156.140, 2213.312
1157.369, 2227.998
1158.598, 1986.926
1159.827, 1914.375
1161.055, 1676.951
1162.284, 1662.764
1163.512, 1706.307
1164.740, 1618.951
1165.967, 1573.113
1167.195, 1659.850
1168.422, 1523.527
1169.650, 1352.697
1170.877, 1355.346
1172.103, 1268.102
1173.330, 1163.975
1174.557, 1099.609
1175.783, 1008.572
1177.009, 1138.711
1178.235, 997.125
1179.461, 640.379
1180.686, 985.580
1181.912, 806.812
1183.137, 909.865
1184.362, 932.178
1185.587, 766.982
1186.811, 734.092
1188.036, 677.543
1189.260, 605.639
1190.484, 788.959
1191.708, 591.100
1192.932, 549.994
1194.155, 674.582
1195.378, 359.832
1196.602, 546.957
1197.825, 490.551
1199.047, 489.027
1200.270, 378.266
1201.492, 480.904
1202.715, 300.592
1203.937, 432.025
1205.159, 87.365
1206.380, 460.451
1207.602, 370.408
1208.823, 403.293
1210.044, 192.062
1211.265, 251.746
1212.486, 237.074
1213.707, 274.451
1214.927, 141.094
1216.147, 279.527
1217.367, 281.059
1218.587, 117.445
1219.807, 212.201
1221.027, 127.828
1222.246, 170.969
1223.465, 97.043
1224.684, 91.180
1225.903, 147.203
1227.121, 250.176
1228.340, 215.637
1229.558, 227.193
1230.776, 325.609
1231.994, 179.807
1233.212, 81.766
1234.429, 102.449
1235.646, 251.396
1236.864, 224.723
1238.081, 23.676
1239.297, 267.213
1240.514, 66.803
1241.730, 158.203
1242.947, 177.775
1244.163, 86.203
1245.378, 17.096
1246.594, 130.281
1247.810, 253.537
1249.025, 164.627
1250.240, 16.963
1251.455, 271.010
1252.670, 182.910
1253.885, 124.049
1255.099, 257.781
1256.313, 74.389
1257.527, 49.924
1258.741, 22.615
1259.955, 58.697
1261.168, 155.217
1262.382, 2.436
1263.595, 12.318
1264.808, 184.709
1266.021, 129.900
1267.233, 92.193
1268.446, 45.283
1269.658, 16.316
1270.870, 143.980
1272.082, 9.127
1273.294, 232.191
1274.505, 161.180
1275.716, 83.076
1276.928, 10.861
1278.139, 101.992
1279.349, 26.598
1280.560, 75.404
1281.770, 175.600
1282.981, 130.977
1284.191, 114.455
1285.401, 85.213
1286.610, 25.377
1287.820, 96.457
1289.029, 44.031
1290.239, 140.088
1291.448, 7.688
1292.656, 1.916
1293.865, 80.229
1295.073, 60.350
1296.282, 57.828
1297.490, 0.787
1298.698, 135.490
1299.906, 40.320
1301.113, 106.742
1302.320, 112.719
1303.528, 11.607
1304.735, 34.402
1305.942, 122.105
1307.148, 68.277
1308.355, 95.773
1309.561, 108.609
1310.767, 152.113
1311.973, 98.027
1313.179, 58.918
1314.384, 60.967
1315.590, 143.119
1316.795, 94.598
1318.000, 16.234
1319.205, 103.787
1320.410, 13.258
1321.614, 193.637
1322.819, 122.928
1324.023, 136.871
1325.227, 156.445
1326.431, 25.562
1327.634, 48.336
1328.838, 115.150
1330.041, 131.115
1331.244, 132.500
1332.447, 23.393
1333.650, 219.846
1334.852, 56.229
1336.055, 110.533
1337.257, 141.766
1338.459, 2.072
1339.661, 28.992
1340.862, 100.990
1342.064, 184.906
1343.265, 60.756
1344.466, 76.518
1345.667, 47.611
1346.868, 129.242
1348.068, 172.812
1349.269, 193.326
1350.469, 241.961
1351.669, 83.320
1352.869, 266.412
1354.069, 91.307
1355.268, 290.607
1356.468, 417.123
1357.667, 355.229
1358.866, 286.840
1360.065, 331.350
1361.263, 106.600
1362.462, 331.242
1363.660, 237.684
1364.858, 262.209
1366.056, 372.875
1367.254, 449.979
1368.451, 360.266
1369.649, 380.557
1370.846, 445.416
1372.043, 261.314
1373.240, 456.406
1374.436, 337.756
1375.633, 299.295
1376.829, 348.814
1378.025, 170.316
1379.221, 132.465
1380.417, 220.184
1381.613, 297.732
1382.808, 416.469
1384.003, 348.838
1385.199, 552.479
1386.393, 326.762
1387.588, 351.459
1388.783, 224.512
1389.977, 598.641
1391.171, 352.234
1392.365, 529.047
1393.559, 291.771
1394.753, 412.881
1395.946, 460.258
1397.140, 290.658
1398.333, 459.637
1399.526, 347.512
1400.719, 368.963
1401.911, 372.246
1403.104, 451.133
1404.296, 270.834
1405.488, 283.395
1406.680, 98.395
1407.872, 139.865
1409.063, 167.467
1410.255, 215.838
1411.446, 281.059
1412.637, 248.465
1413.828, 317.000
1415.018, 389.576
1416.209, 338.801
1417.399, 313.959
1418.589, 247.770
1419.779, 146.576
1420.969, 173.467
1422.159, 207.611
1423.348, 256.305
1424.537, 198.930
1425.726, 355.168
1426.915, 155.592
1428.104, 70.967
1429.293, 329.041
1430.481, 234.766
1431.669, 74.959
1432.857, 131.020
1434.045, 94.006
1435.233, 261.852
1436.420, 187.471
1437.608, 291.959
1438.795, 392.086
1439.982, 428.568
1441.169, 326.033
1442.355, 323.049
1443.542, 364.260
1444.728, 149.809
1445.914, 290.262
1447.100, 245.412
1448.286, 395.549
1449.472, 260.764
1450.657, 266.848
1451.842, 120.072
1453.027, 489.221
1454.212, 286.844
1455.397, 172.092
1456.581, 595.611
1457.766, 224.326
1458.950, 364.193
1460.134, 288.594
1461.318, 162.467
1462.501, 348.625
1463.685, 289.102
1464.868, 232.566
1466.051, 432.174
1467.234, 20.215
1468.417, 452.271
1469.600, 121.453
1470.782, 322.664
1471.965, 516.977
1473.147, 317.426
1474.329, 2.986
1475.510, 464.891
1476.692, 259.111
1477.873, 147.381
1479.055, 273.746
1480.236, 299.178
1481.416, 128.934
1482.597, 449.854
1483.778, 166.195
1484.958, 156.861
1486.138, 252.408
1487.318, 13.689
1488.498, 173.496
1489.678, 411.010
1490.857, 81.197
1492.037, 234.232
1493.216, 9.836
1494.395, 202.438
1495.574, 142.883
1496.752, 0.000
##END=



