##NAMES=Stilbite-Ca
##RRUFFID=R050012
##IDEAL CHEMISTRY=NaCa_4_(Si_27_Al_9_)O_72_&#183;28H_2_O
##LOCALITY=Harborville, Nova Scotia, Canada
##OWNER=RRUFF
##SOURCE=University of Arizona Mineral Museum
##DESCRIPTION=Globular aggregate of thin tabular white single crystals
##STATUS=The identification of this mineral has been confirmed by X-ray diffraction and chemical analysis
##URL=rruff.info/R050012
##MEASURED CHEMISTRY=(Na_1.50_K_0.03_)_Σ=1.53_Ca_4.15_(Si_26.17_Al_9.83_)O_72_·27.91H_2_O; H_2_O estimated by difference
148.2155, 0.0000000E+00
148.6976, 1.217773
149.1797, 38.20508
149.6618, 93.26562
150.1439, 144.6968
150.6261, 179.0005
151.1082, 212.8594
151.5903, 249.7427
152.0724, 292.2148
152.5545, 328.8472
153.0366, 354.0425
153.5188, 372.0376
154.0009, 391.4048
154.4830, 421.1147
154.9651, 446.4927
155.4472, 461.3652
155.9293, 462.2197
156.4115, 456.3525
156.8936, 439.7886
157.3757, 416.0640
157.8578, 397.5596
158.3399, 388.8091
158.8221, 385.7363
159.3042, 385.6938
159.7863, 399.9102
160.2684, 405.3706
160.7505, 384.3027
161.2326, 341.3037
161.7148, 313.1372
162.1969, 331.0513
162.6790, 365.0264
163.1611, 386.1440
163.6432, 374.8965
164.1253, 356.7681
164.6075, 342.9429
165.0896, 333.1050
165.5717, 328.2998
166.0538, 334.6270
166.5359, 345.2480
167.0180, 350.6753
167.5002, 344.7412
167.9823, 333.3765
168.4644, 318.8569
168.9465, 300.4360
169.4286, 286.1611
169.9107, 288.3896
170.3929, 299.1836
170.8750, 301.8896
171.3571, 280.7798
171.8392, 250.9009
172.3213, 225.9546
172.8034, 207.8525
173.2856, 195.9790
173.7677, 195.5835
174.2498, 205.0508
174.7319, 208.2388
175.2140, 189.2485
175.6961, 161.7085
176.1783, 140.3159
176.6604, 128.9614
177.1425, 123.7847
177.6246, 117.1138
178.1067, 112.5190
178.5888, 112.7222
179.0710, 111.1377
179.5531, 114.1685
180.0352, 124.4419
180.5173, 135.7393
180.9994, 135.2124
181.4815, 139.9761
181.9637, 151.8457
182.4458, 160.1064
182.9279, 156.0752
183.4100, 137.2642
183.8921, 115.2026
184.3742, 91.16260
184.8564, 68.61523
185.3385, 56.61816
185.8206, 51.15674
186.3027, 48.52588
186.7848, 50.66748
187.2669, 55.38770
187.7491, 60.77197
188.2312, 70.61816
188.7133, 81.97021
189.1954, 77.46289
189.6775, 55.93066
190.1596, 33.62646
190.6418, 27.94043
191.1239, 45.36035
191.6060, 61.40088
192.0881, 61.33838
192.5702, 48.64941
193.0524, 43.28906
193.5345, 47.59961
194.0166, 53.16650
194.4987, 42.54443
194.9808, 14.16211
195.4629, 6.644043
195.9451, 2.251953
196.4272, 26.73975
196.9093, 43.29932
197.3914, 44.70654
197.8735, 36.12793
198.3556, 25.49658
198.8378, 12.29053
199.3199, 0.4760740
199.8020, 8.620605
200.2841, 15.13428
200.7662, 15.03369
201.2483, 5.295898
201.7305, 9.115234
202.2126, 12.43506
202.6947, 1.336426
203.1768, 9.311523
203.6589, 8.125488
204.1410, 7.833496
204.6232, 15.56055
205.1053, 11.12549
205.5874, 1.600586
206.0695, 11.21240
206.5516, 15.03955
207.0337, 18.84229
207.5159, 28.85498
207.9980, 48.45605
208.4801, 57.14795
208.9622, 48.44971
209.4443, 27.10254
209.9264, 16.53857
210.4086, 19.17188
210.8907, 27.70947
211.3728, 39.66455
211.8549, 60.69922
212.3370, 65.91113
212.8191, 45.04736
213.3013, 2.864258
213.7834, 21.06738
214.2655, 20.85596
214.7476, 11.86426
215.2297, 7.195313
215.7118, 8.649902
216.1940, 8.681641
216.6761, 4.329590
217.1582, 3.859375
217.6403, 3.795898
218.1224, 8.335938
218.6045, 23.55957
219.0867, 33.58398
219.5688, 37.55469
220.0509, 37.97510
220.5330, 34.55957
221.0151, 27.21533
221.4972, 19.35400
221.9794, 7.720703
222.4615, 0.8798830
222.9436, 2.771973
223.4257, 27.88379
223.9078, 46.08740
224.3899, 47.82422
224.8721, 31.13379
225.3542, 25.39502
225.8363, 36.67578
226.3184, 53.12109
226.8005, 60.68066
227.2827, 55.67236
227.7648, 48.54297
228.2469, 41.29736
228.7290, 33.75928
229.2111, 27.76709
229.6932, 24.61279
230.1754, 21.97510
230.6575, 14.63477
231.1396, 8.212891
231.6217, 15.80713
232.1038, 7.842773
232.5859, 74.44482
233.0681, 106.8550
233.5502, 86.66602
234.0323, 45.50146
234.5144, 30.37451
234.9965, 57.33496
235.4786, 83.38330
235.9608, 94.50488
236.4429, 86.11230
236.9250, 83.44629
237.4071, 88.37793
237.8892, 97.85742
238.3713, 107.4180
238.8535, 117.7715
239.3356, 127.1724
239.8177, 135.4956
240.2998, 143.5439
240.7819, 147.0356
241.2640, 143.3818
241.7462, 136.8228
242.2283, 134.3140
242.7104, 135.4819
243.1925, 141.4497
243.6746, 155.1978
244.1567, 183.2197
244.6389, 196.0972
245.1210, 187.6191
245.6031, 167.7344
246.0852, 153.6997
246.5673, 147.3423
247.0494, 143.7158
247.5316, 141.1387
248.0137, 139.3320
248.4958, 139.9302
248.9779, 144.9517
249.4600, 151.2153
249.9421, 152.1948
250.4243, 145.0854
250.9064, 137.7686
251.3885, 132.7466
251.8706, 129.8018
252.3527, 131.0078
252.8348, 141.2700
253.3170, 152.4458
253.7991, 147.4795
254.2812, 116.1362
254.7633, 88.04395
255.2454, 74.92334
255.7275, 80.59717
256.2097, 87.42969
256.6918, 95.03369
257.1739, 103.9028
257.6560, 117.1694
258.1381, 142.1118
258.6202, 156.4863
259.1024, 147.4194
259.5845, 104.0576
260.0666, 82.67188
260.5487, 92.75879
261.0308, 117.1401
261.5129, 124.5850
261.9951, 107.5723
262.4772, 92.39111
262.9593, 92.04443
263.4414, 111.9956
263.9235, 118.1157
264.4056, 105.1885
264.8878, 83.99707
265.3699, 72.75391
265.8520, 72.58057
266.3341, 77.50635
266.8162, 89.83350
267.2983, 113.5557
267.7805, 119.9233
268.2626, 98.40771
268.7447, 69.02832
269.2268, 72.94678
269.7089, 122.0933
270.1910, 159.9648
270.6732, 161.8760
271.1553, 124.3896
271.6374, 95.46875
272.1195, 74.19629
272.6016, 60.67383
273.0837, 56.70850
273.5659, 63.66309
274.0480, 74.55518
274.5301, 88.49609
275.0122, 105.3862
275.4943, 117.9844
275.9764, 127.6934
276.4586, 133.5161
276.9407, 129.3403
277.4228, 112.5830
277.9049, 100.4048
278.3870, 101.0063
278.8691, 113.5083
279.3513, 124.0605
279.8334, 131.9473
280.3155, 136.5195
280.7976, 134.3633
281.2798, 125.8379
281.7619, 122.6919
282.2440, 133.7568
282.7261, 155.7280
283.2082, 162.2271
283.6903, 150.8506
284.1725, 134.8271
284.6546, 130.6274
285.1367, 139.7505
285.6188, 152.0264
286.1009, 164.9702
286.5830, 176.5083
287.0652, 178.4805
287.5473, 169.5815
288.0294, 160.4414
288.5115, 165.7324
288.9936, 182.7124
289.4757, 195.2114
289.9579, 198.7935
290.4400, 196.2920
290.9221, 192.0830
291.4042, 185.7017
291.8863, 178.9526
292.3684, 173.2612
292.8506, 170.7207
293.3327, 173.0503
293.8148, 182.6812
294.2969, 195.0884
294.7790, 202.1870
295.2611, 203.7271
295.7433, 201.9204
296.2254, 200.9780
296.7075, 200.0698
297.1896, 190.1270
297.6717, 157.1206
298.1538, 123.5410
298.6360, 130.3945
299.1181, 175.1743
299.6002, 222.2451
300.0823, 247.7861
300.5644, 255.9497
301.0465, 254.6724
301.5287, 242.9492
302.0108, 226.3032
302.4929, 206.4609
302.9750, 186.2246
303.4571, 172.4351
303.9392, 169.9404
304.4214, 176.4668
304.9035, 191.3188
305.3856, 221.8042
305.8677, 247.7417
306.3498, 245.2603
306.8319, 221.1606
307.3141, 199.4468
307.7962, 194.9551
308.2783, 199.5288
308.7604, 206.3716
309.2425, 216.1743
309.7246, 223.0156
310.2068, 220.7979
310.6889, 212.3882
311.1710, 205.3066
311.6531, 205.5747
312.1352, 207.0996
312.6173, 204.1450
313.0995, 193.0869
313.5816, 185.3823
314.0637, 191.8999
314.5458, 205.0713
315.0279, 210.8003
315.5100, 195.4507
315.9922, 177.3882
316.4743, 166.5449
316.9564, 165.3867
317.4385, 165.9614
317.9206, 166.1401
318.4027, 166.4795
318.8849, 167.2666
319.3670, 170.1870
319.8491, 171.9902
320.3312, 170.0039
320.8133, 162.8696
321.2954, 160.0742
321.7776, 169.6904
322.2597, 182.0122
322.7418, 186.5601
323.2239, 176.9404
323.7060, 164.5220
324.1881, 150.5854
324.6703, 134.8628
325.1524, 121.8521
325.6345, 112.6299
326.1166, 105.8799
326.5987, 100.4043
327.0808, 101.0811
327.5630, 97.74219
328.0451, 84.20117
328.5272, 61.50439
329.0093, 53.49756
329.4914, 74.32129
329.9735, 96.99658
330.4557, 102.9629
330.9378, 78.77344
331.4199, 62.11182
331.9020, 60.85059
332.3841, 70.08594
332.8662, 64.81689
333.3484, 36.39502
333.8305, 6.572754
334.3126, 12.98242
334.7947, 19.80762
335.2768, 23.91309
335.7589, 26.96680
336.2411, 26.91846
336.7232, 15.66846
337.2053, 11.99805
337.6874, 35.29004
338.1695, 41.03271
338.6516, 25.88770
339.1338, 23.38721
339.6159, 38.47852
340.0980, 59.31494
340.5801, 66.39404
341.0622, 59.25049
341.5443, 43.24170
342.0265, 13.23633
342.5086, 27.40869
342.9907, 46.82812
343.4728, 42.30322
343.9549, 26.78711
344.4370, 12.67627
344.9192, 0.3754880
345.4013, 6.810059
345.8834, 6.283691
346.3655, 9.7660003E-03
346.8476, 8.912598
347.3297, 20.64795
347.8119, 30.34814
348.2940, 28.82861
348.7761, 20.95264
349.2582, 22.22461
349.7403, 42.37061
350.2225, 68.06104
350.7046, 81.48877
351.1867, 83.35059
351.6688, 78.43945
352.1509, 70.13037
352.6331, 57.28564
353.1152, 35.82764
353.5973, 2.261230
354.0794, 35.79395
354.5615, 42.99609
355.0436, 29.46240
355.5258, 12.20361
356.0079, 5.326172
356.4900, 19.22119
356.9721, 24.25049
357.4542, 16.49414
357.9363, 10.42969
358.4185, 24.04541
358.9006, 43.81738
359.3827, 46.35107
359.8648, 1.812500
360.3469, 50.29150
360.8290, 67.90039
361.3112, 46.86963
361.7933, 33.38623
362.2754, 47.14844
362.7575, 74.11182
363.2396, 99.14893
363.7217, 125.7139
364.2039, 142.7578
364.6860, 139.9390
365.1681, 117.0283
365.6502, 109.2217
366.1323, 135.7656
366.6144, 169.3794
367.0966, 191.3730
367.5787, 192.4448
368.0608, 192.0015
368.5429, 186.6748
369.0250, 179.3604
369.5071, 184.9082
369.9893, 208.5137
370.4714, 238.7441
370.9535, 271.5161
371.4356, 311.0737
371.9177, 342.5703
372.3998, 364.9512
372.8820, 379.6909
373.3641, 387.7383
373.8462, 384.6719
374.3283, 386.3223
374.8104, 399.9243
375.2925, 426.7246
375.7747, 452.5254
376.2568, 476.4072
376.7389, 501.6514
377.2210, 537.9043
377.7031, 587.0610
378.1852, 618.4604
378.6674, 613.1973
379.1495, 583.2432
379.6316, 580.9395
380.1137, 607.6958
380.5958, 649.0713
381.0779, 696.7676
381.5601, 749.5459
382.0422, 797.7939
382.5243, 841.9980
383.0064, 878.9297
383.4885, 894.6133
383.9706, 893.1182
384.4528, 902.8950
384.9349, 956.8003
385.4170, 1031.398
385.8991, 1089.124
386.3812, 1123.467
386.8633, 1145.468
387.3455, 1152.814
387.8276, 1155.119
388.3097, 1174.873
388.7918, 1234.477
389.2739, 1308.861
389.7560, 1382.613
390.2382, 1455.482
390.7203, 1516.167
391.2024, 1543.087
391.6845, 1558.445
392.1666, 1589.271
392.6487, 1653.280
393.1309, 1727.692
393.6130, 1810.010
394.0951, 1898.859
394.5772, 1976.083
395.0593, 2024.479
395.5414, 2068.193
396.0236, 2121.787
396.5057, 2196.341
396.9878, 2270.378
397.4699, 2335.800
397.9520, 2398.224
398.4341, 2475.341
398.9163, 2588.191
399.3984, 2693.693
399.8805, 2772.435
400.3626, 2806.343
400.8447, 2861.871
401.3268, 2952.733
401.8090, 3058.095
402.2911, 3153.427
402.7732, 3244.233
403.2553, 3305.520
403.7374, 3318.571
404.2195, 3287.272
404.7017, 3292.144
405.1838, 3342.832
405.6659, 3403.581
406.1480, 3447.319
406.6301, 3474.763
407.1122, 3479.387
407.5944, 3452.240
408.0765, 3407.218
408.5586, 3382.719
409.0407, 3378.853
409.5228, 3370.879
410.0049, 3344.638
410.4871, 3302.070
410.9692, 3245.307
411.4513, 3172.579
411.9334, 3093.800
412.4155, 3017.541
412.8976, 2944.201
413.3798, 2877.642
413.8619, 2833.004
414.3440, 2786.402
414.8261, 2704.826
415.3082, 2588.137
415.7903, 2478.260
416.2725, 2401.314
416.7546, 2344.655
417.2367, 2294.749
417.7188, 2269.234
418.2009, 2228.579
418.6830, 2142.893
419.1652, 2024.201
419.6473, 1919.804
420.1294, 1853.115
420.6115, 1798.391
421.0937, 1740.968
421.5758, 1678.139
422.0579, 1616.696
422.5400, 1553.048
423.0221, 1492.105
423.5042, 1440.858
423.9864, 1411.065
424.4685, 1378.502
424.9506, 1336.731
425.4327, 1285.543
425.9148, 1232.261
426.3969, 1165.836
426.8791, 1109.873
427.3612, 1092.339
427.8433, 1133.352
428.3254, 1148.921
428.8075, 1122.932
429.2896, 1065.159
429.7718, 1005.938
430.2539, 943.6729
430.7360, 887.6191
431.2181, 844.4629
431.7002, 813.6895
432.1823, 789.4814
432.6645, 773.1484
433.1466, 757.9893
433.6287, 732.8623
434.1108, 700.0459
434.5929, 670.7842
435.0750, 651.8633
435.5572, 638.6924
436.0393, 624.0371
436.5214, 607.9111
437.0035, 590.4814
437.4856, 567.1299
437.9677, 544.0713
438.4499, 531.3428
438.9320, 537.4512
439.4141, 544.3096
439.8962, 535.8457
440.3783, 517.7920
440.8604, 504.7529
441.3426, 508.9678
441.8247, 515.7705
442.3068, 516.9580
442.7889, 510.8340
443.2710, 502.9189
443.7531, 488.7363
444.2353, 475.8398
444.7174, 472.3828
445.1995, 492.6895
445.6816, 508.1211
446.1637, 509.8516
446.6458, 499.7783
447.1280, 499.0322
447.6101, 512.2246
448.0922, 529.7422
448.5743, 547.5713
449.0564, 569.8604
449.5385, 580.8594
450.0207, 576.1240
450.5028, 563.6338
450.9849, 558.6807
451.4670, 562.6709
451.9491, 567.0879
452.4312, 567.4736
452.9134, 564.9600
453.3955, 568.4863
453.8776, 578.2148
454.3597, 592.4707
454.8418, 614.6299
455.3239, 641.3057
455.8061, 656.7324
456.2882, 654.8594
456.7703, 644.3994
457.2524, 638.1699
457.7345, 634.5205
458.2166, 626.5117
458.6988, 606.8701
459.1809, 582.3232
459.6630, 560.3896
460.1451, 541.9824
460.6272, 524.0146
461.1093, 505.1797
461.5915, 486.6133
462.0736, 470.1016
462.5557, 461.8584
463.0378, 450.2832
463.5199, 429.6943
464.0020, 401.1016
464.4842, 372.5615
464.9663, 334.3535
465.4484, 305.4922
465.9305, 298.0850
466.4126, 339.7217
466.8947, 354.1582
467.3769, 327.3203
467.8590, 279.7051
468.3411, 245.1494
468.8232, 233.7012
469.3053, 215.5879
469.7874, 176.4307
470.2696, 118.7725
470.7517, 92.80762
471.2338, 105.8447
471.7159, 129.6377
472.1980, 137.0225
472.6801, 127.8203
473.1623, 128.2637
473.6444, 144.0547
474.1265, 170.3154
474.6086, 199.6846
475.0907, 230.3535
475.5728, 254.9795
476.0550, 266.5498
476.5371, 272.2861
477.0192, 281.1719
477.5013, 293.2910
477.9834, 313.0488
478.4655, 352.8721
478.9477, 401.3896
479.4298, 442.5215
479.9119, 460.5840
480.3940, 484.7529
480.8761, 533.5273
481.3582, 599.8037
481.8404, 664.0977
482.3225, 718.3389
482.8046, 770.7197
483.2867, 824.3311
483.7688, 877.5469
484.2509, 935.8320
484.7331, 1001.512
485.2152, 1071.766
485.6973, 1146.244
486.1794, 1229.358
486.6615, 1309.119
487.1436, 1383.654
487.6258, 1454.530
488.1079, 1525.744
488.5900, 1593.236
489.0721, 1668.383
489.5542, 1764.537
490.0363, 1882.431
490.5185, 1986.428
491.0006, 2076.254
491.4827, 2151.018
491.9648, 2200.949
492.4470, 2227.896
492.9291, 2249.147
493.4112, 2268.595
493.8933, 2292.420
494.3754, 2341.466
494.8575, 2407.932
495.3397, 2448.338
495.8218, 2421.410
496.3039, 2362.584
496.7860, 2310.522
497.2681, 2272.324
497.7502, 2229.290
498.2324, 2181.005
498.7145, 2119.283
499.1966, 2032.098
499.6787, 1888.303
500.1608, 1747.353
500.6429, 1627.456
501.1251, 1528.033
501.6072, 1433.195
502.0893, 1347.177
502.5714, 1259.461
503.0535, 1164.130
503.5356, 1055.733
504.0178, 951.8379
504.4999, 846.7520
504.9820, 752.4062
505.4641, 692.2988
505.9462, 675.5479
506.4283, 645.2148
506.9105, 575.5654
507.3926, 481.5273
507.8747, 430.6797
508.3568, 425.1445
508.8389, 423.5078
509.3210, 391.5098
509.8032, 339.3291
510.2853, 294.2725
510.7674, 259.7539
511.2495, 231.7676
511.7316, 209.0400
512.2137, 189.7334
512.6959, 170.4170
513.1780, 142.6650
513.6601, 119.9805
514.1422, 118.9414
514.6243, 135.1084
515.1064, 138.1064
515.5886, 104.4219
516.0707, 61.93555
516.5528, 25.56445
517.0349, 11.59668
517.5170, 24.80371
517.9991, 15.31250
518.4813, 69.86621
518.9634, 89.27441
519.4455, 50.45801
519.9276, 15.81641
520.4097, 3.418945
520.8918, 8.156250
521.3740, 4.862305
521.8561, 8.313477
522.3382, 23.38477
522.8203, 39.52734
523.3024, 55.71582
523.7845, 51.80859
524.2667, 21.99609
524.7488, 10.16992
525.2309, 11.61133
525.7130, 9.413086
526.1951, 24.00391
526.6772, 18.49609
527.1594, 5.272461
527.6415, 0.4599610
528.1236, 0.7343750
528.6057, 4.720703
529.0878, 24.77148
529.5699, 45.81641
530.0521, 53.69238
530.5342, 42.35645
531.0163, 37.64648
531.4984, 59.33691
531.9805, 86.90332
532.4626, 98.62598
532.9448, 77.03906
533.4269, 56.79492
533.9090, 42.25684
534.3911, 31.90820
534.8732, 19.51758
535.3553, 0.5283200
535.8375, 12.15527
536.3196, 11.37891
536.8017, 3.555664
537.2838, 18.41211
537.7659, 34.52344
538.2480, 46.64844
538.7302, 47.92578
539.2123, 39.51465
539.6944, 29.85547
540.1765, 21.95020
540.6586, 11.41992
541.1407, 16.69043
541.6229, 55.17773
542.1050, 78.68066
542.5871, 58.59668
543.0692, 27.27051
543.5513, 15.34082
544.0334, 24.38086
544.5156, 32.28613
544.9977, 21.51855
545.4798, 9.502930
545.9619, 11.22168
546.4440, 50.34766
546.9261, 72.20117
547.4083, 58.93848
547.8904, 25.62012
548.3725, 1.618164
548.8546, 29.00684
549.3367, 39.40918
549.8188, 20.26953
550.3010, 24.01758
550.7831, 37.57129
551.2652, 12.10645
551.7473, 16.48730
552.2294, 19.35938
552.7115, 0.3681640
553.1937, 10.41406
553.6758, 6.534180
554.1579, 2.9300000E-03
554.6400, 3.624023
555.1221, 15.85352
555.6042, 32.31250
556.0864, 55.00781
556.5685, 77.89062
557.0506, 98.06250
557.5327, 114.2139
558.0148, 120.9434
558.4969, 103.2031
558.9791, 84.58105
559.4612, 81.65918
559.9433, 99.98535
560.4254, 113.8633
560.9075, 116.1904
561.3896, 113.3740
561.8718, 111.6064
562.3539, 116.1855
562.8360, 111.6533
563.3181, 89.81738
563.8002, 61.57910
564.2823, 55.63477
564.7645, 76.91406
565.2466, 98.73633
565.7287, 112.2617
566.2108, 117.7715
566.6929, 112.7139
567.1750, 96.56836
567.6572, 82.24316
568.1393, 81.69824
568.6214, 90.70996
569.1035, 101.8057
569.5856, 114.7285
570.0677, 126.3154
570.5499, 135.0420
571.0320, 140.6211
571.5141, 142.7119
571.9962, 130.7744
572.4783, 125.6797
572.9604, 148.9492
573.4426, 191.2637
573.9247, 205.0322
574.4068, 143.8184
574.8889, 87.83594
575.3710, 69.48926
575.8531, 97.40234
576.3353, 124.1445
576.8174, 152.8516
577.2995, 175.3320
577.7816, 181.8643
578.2637, 170.8301
578.7458, 157.8262
579.2280, 141.6631
579.7101, 131.1797
580.1922, 148.8496
580.6743, 189.5713
581.1564, 224.5410
581.6385, 243.1064
582.1207, 247.0146
582.6028, 228.1064
583.0849, 190.6143
583.5670, 165.3311
584.0491, 184.9688
584.5313, 214.1338
585.0134, 222.7617
585.4955, 197.6299
585.9776, 180.3750
586.4597, 186.0107
586.9418, 201.9521
587.4240, 215.1748
587.9061, 228.0352
588.3882, 236.8584
588.8703, 238.3271
589.3524, 234.0000
589.8345, 232.6143
590.3167, 235.2979
590.7988, 243.9180
591.2809, 261.3154
591.7630, 284.4316
592.2451, 296.9971
592.7272, 298.8594
593.2094, 297.6260
593.6915, 301.8750
594.1736, 305.4375
594.6557, 291.4580
595.1378, 251.1504
595.6199, 219.8643
596.1021, 238.6758
596.5842, 280.5566
597.0663, 306.7139
597.5485, 288.7754
598.0306, 268.7080
598.5127, 258.0156
598.9948, 256.7236
599.4769, 259.4434
599.9590, 273.1387
600.4412, 281.0664
600.9233, 273.9375
601.4054, 249.6572
601.8875, 242.6182
602.3696, 257.6953
602.8517, 277.3506
603.3339, 286.3477
603.8160, 286.1211
604.2981, 287.5000
604.7802, 290.4854
605.2623, 294.9873
605.7444, 303.3027
606.2266, 311.9580
606.7087, 312.5654
607.1908, 296.7441
607.6729, 281.6973
608.1550, 282.2461
608.6371, 293.0996
609.1193, 302.5664
609.6014, 304.8330
610.0835, 306.0850
610.5656, 312.0605
611.0477, 324.1523
611.5298, 323.7266
612.0120, 291.7588
612.4941, 265.8018
612.9762, 277.5059
613.4583, 347.0850
613.9404, 377.2900
614.4225, 353.2793
614.9047, 307.0234
615.3868, 284.0762
615.8689, 282.6250
616.3510, 279.3867
616.8331, 261.2295
617.3152, 246.0039
617.7974, 276.9941
618.2795, 339.4258
618.7616, 377.9033
619.2437, 334.7100
619.7258, 276.1396
620.2079, 252.0801
620.6901, 265.2764
621.1722, 283.2881
621.6543, 304.2959
622.1364, 319.3604
622.6185, 321.7842
623.1006, 304.7568
623.5828, 289.4541
624.0649, 279.2998
624.5470, 267.7275
625.0291, 242.3555
625.5112, 197.0840
625.9933, 170.7715
626.4755, 172.6934
626.9576, 194.5908
627.4397, 229.5898
627.9218, 274.3145
628.4039, 303.0010
628.8860, 294.4326
629.3682, 266.9453
629.8503, 241.6113
630.3324, 218.7588
630.8145, 200.3291
631.2966, 189.0469
631.7787, 181.6504
632.2609, 177.2451
632.7430, 177.3477
633.2251, 173.1475
633.7072, 152.2666
634.1893, 134.4951
634.6714, 137.4766
635.1536, 170.8008
635.6357, 200.8857
636.1178, 227.3936
636.5999, 245.7354
637.0820, 246.8906
637.5641, 230.3906
638.0463, 209.7607
638.5284, 187.3096
639.0105, 165.0996
639.4926, 140.7363
639.9747, 117.1162
640.4568, 111.4912
640.9390, 157.0840
641.4211, 210.7881
641.9032, 227.6777
642.3853, 204.1230
642.8674, 183.1602
643.3495, 191.3389
643.8317, 201.6768
644.3138, 194.9561
644.7959, 155.2178
645.2780, 122.5742
645.7601, 93.21680
646.2422, 74.72754
646.7244, 82.00098
647.2065, 123.2363
647.6886, 145.4395
648.1707, 133.7314
648.6528, 106.0811
649.1349, 99.49316
649.6171, 111.1963
650.0992, 122.4990
650.5813, 118.4209
651.0634, 111.0420
651.5455, 119.8730
652.0276, 141.2041
652.5098, 155.7090
652.9919, 148.0859
653.4740, 133.7930
653.9561, 121.0381
654.4382, 110.2559
654.9203, 103.5576
655.4025, 101.5352
655.8846, 103.3545
656.3667, 109.3223
656.8488, 122.0400
657.3309, 132.5391
657.8130, 143.5537
658.2952, 146.9805
658.7773, 126.0010
659.2594, 82.83008
659.7415, 44.76953
660.2236, 16.40332
660.7057, 0.5859380
661.1879, 5.022461
661.6700, 25.82031
662.1521, 52.18750
662.6342, 96.70020
663.1163, 129.7109
663.5984, 122.0371
664.0806, 79.62500
664.5627, 52.93652
665.0448, 72.12695
665.5269, 93.68359
666.0090, 97.11230
666.4911, 78.45117
666.9733, 71.66602
667.4554, 80.87207
667.9375, 93.81934
668.4196, 101.4014
668.9017, 103.6914
669.3839, 102.9209
669.8660, 99.53418
670.3481, 92.05664
670.8302, 71.85938
671.3123, 46.81934
671.7944, 35.53613
672.2766, 54.11328
672.7587, 71.17969
673.2408, 61.75781
673.7229, 36.68750
674.2050, 17.11914
674.6871, 12.46484
675.1693, 10.16211
675.6514, 6.787109
676.1335, 2.845703
676.6156, 1.579102
677.0977, 4.323242
677.5798, 6.542969
678.0620, 4.084961
678.5441, 1.673828
679.0262, 5.547852
679.5083, 26.71680
679.9904, 46.44727
680.4725, 50.84375
680.9547, 45.92285
681.4368, 42.18555
681.9189, 41.00000
682.4010, 39.38379
682.8831, 33.08398
683.3652, 26.43359
683.8474, 24.07227
684.3295, 31.10547
684.8116, 35.96582
685.2937, 32.30371
685.7758, 27.69141
686.2579, 34.64551
686.7401, 63.41699
687.2222, 73.72363
687.7043, 51.52930
688.1864, 13.11816
688.6685, 1.189453
689.1506, 7.340820
689.6328, 18.69629
690.1149, 30.00000
690.5970, 35.03223
691.0791, 17.63770
691.5612, 17.30664
692.0433, 44.53809
692.5255, 50.84668
693.0076, 45.38672
693.4897, 30.06543
693.9718, 3.874023
694.4539, 15.52246
694.9360, 25.40918
695.4182, 28.16699
695.9003, 22.46289
696.3824, 3.465820
696.8645, 0.5507810
697.3466, 15.67480
697.8287, 33.07910
698.3109, 23.15039
698.7930, 6.493164
699.2751, 10.09766
699.7572, 27.49023
700.2393, 65.79297
700.7214, 54.50488
701.2036, 16.56348
701.6857, 9.816406
702.1678, 7.059570
702.6499, 4.915039
703.1320, 26.70020
703.6141, 52.13086
704.0963, 65.21484
704.5784, 55.21094
705.0605, 49.46484
705.5426, 59.60449
706.0247, 78.01465
706.5068, 64.97070
706.9890, 16.06543
707.4711, 27.76953
707.9532, 45.90332
708.4353, 43.20898
708.9174, 24.72168
709.3995, 7.583008
709.8817, 33.40918
710.3638, 32.69824
710.8459, 23.06543
711.3280, 18.47949
711.8101, 20.43750
712.2922, 27.81738
712.7744, 50.34082
713.2565, 70.74023
713.7386, 77.61816
714.2207, 66.30859
714.7028, 52.13086
715.1849, 31.73828
715.6671, 14.11621
716.1492, 11.98730
716.6313, 23.80273
717.1134, 30.23730
717.5955, 26.61328
718.0776, 21.06348
718.5598, 25.32910
719.0419, 34.66699
719.5240, 39.50879
720.0061, 29.06250
720.4882, 22.46387
720.9703, 34.41602
721.4525, 56.24414
721.9346, 68.17871
722.4167, 57.46191
722.8988, 50.18555
723.3809, 52.61523
723.8630, 61.95117
724.3452, 67.05469
724.8273, 67.58984
725.3094, 66.26953
725.7915, 65.28809
726.2736, 62.99316
726.7557, 50.29102
727.2379, 29.38770
727.7200, 17.68848
728.2021, 37.61230
728.6842, 63.56055
729.1663, 73.89355
729.6484, 66.32910
730.1306, 57.59180
730.6127, 45.94922
731.0948, 40.06934
731.5769, 45.78418
732.0590, 67.38086
732.5411, 82.70312
733.0233, 90.43945
733.5054, 94.84375
733.9875, 99.10645
734.4696, 103.3350
734.9517, 109.4180
735.4338, 118.5352
735.9160, 123.9102
736.3981, 113.7393
736.8802, 96.98242
737.3623, 86.74219
737.8444, 88.65820
738.3266, 93.38672
738.8087, 96.01758
739.2908, 99.84180
739.7729, 110.6406
740.2551, 141.4727
740.7372, 155.1162
741.2193, 141.8662
741.7014, 113.7930
742.1835, 93.74316
742.6656, 81.83398
743.1478, 80.20996
743.6299, 94.81445
744.1120, 113.4160
744.5941, 115.4619
745.0762, 104.9746
745.5583, 94.57227
746.0405, 84.78613
746.5226, 82.12500
747.0047, 95.75098
747.4868, 121.9736
747.9689, 139.6084
748.4510, 142.4629
748.9332, 141.0205
749.4153, 137.1689
749.8974, 130.2412
750.3795, 120.4941
750.8616, 108.0000
751.3438, 98.31641
751.8259, 93.45117
752.3080, 93.40723
752.7901, 106.0439
753.2722, 130.2861
753.7543, 145.0000
754.2365, 119.1260
754.7186, 89.57910
755.2007, 90.23047
755.6828, 131.4229
756.1649, 162.8594
756.6470, 176.3037
757.1292, 177.4961
757.6113, 165.9082
758.0934, 133.6885
758.5755, 125.1328
759.0576, 145.3701
759.5397, 171.6777
760.0219, 180.5254
760.5040, 176.8711
760.9861, 174.8535
761.4682, 176.5410
761.9503, 180.9258
762.4324, 189.0410
762.9146, 198.6865
763.3967, 206.8799
763.8788, 206.8242
764.3609, 215.2832
764.8430, 245.4160
765.3251, 278.2666
765.8073, 293.7695
766.2894, 289.7100
766.7715, 282.1670
767.2536, 271.3848
767.7357, 260.5820
768.2178, 253.3760
768.7000, 251.5098
769.1821, 264.7412
769.6642, 310.2969
770.1463, 349.2227
770.6284, 332.9443
771.1105, 287.7920
771.5927, 264.6641
772.0748, 297.2314
772.5569, 333.0625
773.0390, 363.6182
773.5211, 388.0283
774.0032, 403.1338
774.4854, 407.9678
774.9675, 407.2002
775.4496, 402.1611
775.9317, 393.8828
776.4138, 379.0410
776.8959, 360.6035
777.3781, 353.0107
777.8602, 376.6123
778.3423, 404.5059
778.8244, 405.1084
779.3065, 384.4990
779.7886, 381.7061
780.2708, 433.0605
780.7529, 479.3281
781.2350, 501.7549
781.7171, 501.8262
782.1992, 490.3594
782.6813, 457.5039
783.1635, 442.7539
783.6456, 484.0088
784.1277, 555.0254
784.6098, 560.3477
785.0919, 506.2031
785.5740, 455.2695
786.0562, 450.9180
786.5383, 464.5195
787.0204, 475.1533
787.5025, 481.3896
787.9846, 484.5029
788.4667, 485.1348
788.9489, 481.5586
789.4310, 469.0059
789.9131, 446.0449
790.3952, 447.2461
790.8773, 478.2100
791.3594, 507.1270
791.8416, 510.1543
792.3237, 492.6748
792.8058, 464.6084
793.2879, 426.5234
793.7700, 392.2402
794.2521, 366.7568
794.7343, 352.2695
795.2164, 356.1875
795.6985, 387.1650
796.1806, 397.3271
796.6627, 366.2363
797.1448, 331.2764
797.6270, 316.9990
798.1091, 326.1455
798.5912, 335.1416
799.0733, 344.6309
799.5554, 349.9199
800.0375, 345.5000
800.5197, 333.9629
801.0018, 317.1562
801.4839, 293.9316
801.9660, 278.6592
802.4481, 291.3066
802.9302, 308.8057
803.4124, 310.3965
803.8945, 280.9082
804.3766, 263.6016
804.8587, 263.9189
805.3408, 269.2539
805.8229, 270.9365
806.3051, 268.9170
806.7872, 250.1934
807.2693, 210.0303
807.7514, 175.1543
808.2335, 180.8623
808.7156, 207.2002
809.1978, 225.5439
809.6799, 231.1885
810.1620, 224.3135
810.6441, 192.9102
811.1262, 155.7129
811.6083, 131.9453
812.0905, 129.6982
812.5726, 122.4229
813.0547, 108.0459
813.5368, 91.72266
814.0189, 74.82715
814.5010, 59.89941
814.9832, 66.63574
815.4653, 104.3623
815.9474, 136.3105
816.4295, 122.4424
816.9116, 85.48633
817.3937, 52.33203
817.8759, 25.11816
818.3580, 11.25391
818.8401, 21.51953
819.3222, 40.00000
819.8043, 52.91211
820.2864, 59.81055
820.7686, 63.45996
821.2507, 64.51465
821.7328, 61.00977
822.2149, 42.81152
822.6970, 18.59180
823.1791, 13.40430
823.6613, 41.49023
824.1434, 66.51660
824.6255, 64.22754
825.1076, 49.75391
825.5897, 38.55371
826.0718, 36.75098
826.5540, 32.91699
827.0361, 24.10645
827.5182, 16.55566
828.0003, 19.62012
828.4824, 33.16992
828.9645, 49.19141
829.4467, 68.80566
829.9288, 80.59473
830.4109, 64.53516
830.8930, 34.33984
831.3751, 11.06152
831.8572, 2.534180
832.3394, 3.755859
832.8215, 24.13379
833.3036, 37.41797
833.7857, 15.25977
834.2678, 71.15918
834.7499, 101.7148
835.2321, 53.49609
835.7142, 15.68555
836.1963, 28.47754
836.6784, 5.4687999E-02
837.1605, 14.77637
837.6426, 3.429688
838.1248, 15.05371
838.6069, 37.61523
839.0890, 53.20410
839.5711, 47.41602
840.0532, 3.271484
840.5353, 37.68848
841.0175, 47.97754
841.4996, 44.86621
841.9817, 35.31738
842.4638, 18.56934
842.9459, 17.29199
843.4280, 36.72754
843.9102, 55.53613
844.3923, 41.76953
844.8744, 14.40723
845.3565, 6.520508
845.8386, 30.63379
846.3207, 51.49707
846.8029, 51.78711
847.2850, 44.48828
847.7671, 41.03809
848.2492, 43.21582
848.7313, 45.49023
849.2134, 48.67285
849.6956, 49.77441
850.1777, 44.85254
850.6598, 35.31055
851.1419, 24.86914
851.6240, 13.51172
852.1061, 5.923828
852.5883, 3.025391
853.0704, 7.074219
853.5525, 22.75879
854.0346, 58.38086
854.5167, 80.15332
854.9988, 78.21680
855.4810, 72.70508
855.9631, 81.95605
856.4452, 106.4824
856.9273, 110.0127
857.4094, 90.39746
857.8915, 67.86523
858.3737, 59.88867
858.8558, 59.79688
859.3379, 57.08691
859.8200, 49.08105
860.3021, 53.28125
860.7842, 101.3145
861.2664, 140.8506
861.7485, 138.4131
862.2306, 88.66406
862.7127, 58.00195
863.1948, 47.14648
863.6769, 43.10254
864.1591, 33.72852
864.6412, 25.85156
865.1233, 42.65137
865.6054, 82.02246
866.0875, 111.0498
866.5696, 102.3398
867.0518, 83.65332
867.5339, 72.51953
868.0160, 70.54004
868.4981, 63.40137
868.9802, 45.35156
869.4623, 32.33691
869.9445, 37.01855
870.4266, 53.64648
870.9087, 48.24707
871.3908, 23.44727
871.8729, 10.24219
872.3550, 40.06055
872.8372, 79.49121
873.3193, 103.2051
873.8014, 111.4326
874.2835, 111.7529
874.7656, 95.10645
875.2477, 84.37793
875.7299, 87.05176
876.2120, 99.46680
876.6941, 109.9941
877.1762, 118.6035
877.6583, 116.7324
878.1404, 90.06445
878.6226, 61.95605
879.1047, 78.41211
879.5869, 118.5869
880.0690, 129.3037
880.5511, 38.43652
881.0332, 24.10840
881.5153, 1.322266
881.9974, 67.69434
882.4796, 107.4521
882.9617, 115.2910
883.4438, 104.2197
883.9259, 67.35059
884.4080, 33.32227
884.8901, 63.96387
885.3723, 133.2471
885.8544, 177.0576
886.3365, 154.5557
886.8186, 124.2588
887.3007, 108.3213
887.7828, 101.7188
888.2650, 97.40039
888.7471, 96.41797
889.2292, 91.27344
889.7113, 76.95605
890.1934, 68.16309
890.6755, 98.50000
891.1577, 149.8184
891.6398, 159.6621
892.1219, 107.5361
892.6040, 59.39648
893.0861, 73.02539
893.5682, 102.8623
894.0504, 105.6777
894.5325, 57.31445
895.0146, 40.17090
895.4967, 69.93652
895.9788, 100.2334
896.4609, 84.11230
896.9431, 31.61328
897.4252, 2.945313
897.9073, 4.034180
898.3894, 20.94824
898.8715, 60.12012
899.3536, 100.6924
899.8358, 124.9473
900.3179, 130.7080
900.8000, 132.8125
901.2821, 127.0762
901.7642, 123.9258
902.2463, 128.8330
902.7285, 141.7109
903.2106, 148.7461
903.6927, 150.3350
904.1748, 150.0742
904.6569, 151.8740
905.1390, 151.8037
905.6212, 144.7900
906.1033, 133.1240
906.5854, 122.3926
907.0675, 117.6846
907.5496, 113.7354
908.0317, 107.6963
908.5139, 102.0400
908.9960, 107.1758
909.4781, 122.8916
909.9602, 133.9238
910.4423, 136.3906
910.9244, 129.4219
911.4066, 99.10059
911.8887, 60.75293
912.3708, 42.54688
912.8529, 78.68945
913.3350, 104.2119
913.8171, 97.92480
914.2993, 82.38770
914.7814, 94.58008
915.2635, 138.9434
915.7456, 143.8281
916.2277, 89.88086
916.7098, 34.90625
917.1920, 66.70898
917.6741, 133.1016
918.1562, 153.0449
918.6383, 95.91797
919.1204, 42.77148
919.6025, 8.514648
920.0847, 5.128906
920.5668, 10.41309
921.0489, 64.57227
921.5310, 83.50781
922.0131, 62.16992
922.4952, 42.35449
922.9774, 67.76074
923.4595, 110.2051
923.9416, 129.9209
924.4237, 124.7764
924.9058, 105.9707
925.3879, 55.08789
925.8701, 15.41406
926.3522, 8.558594
926.8343, 29.67188
927.3164, 38.42578
927.7985, 33.30566
928.2806, 32.49121
928.7628, 51.77930
929.2449, 72.58887
929.7270, 58.82715
930.2091, 23.25195
930.6912, 2.067383
931.1733, 7.769531
931.6555, 3.652344
932.1376, 46.77734
932.6197, 100.0527
933.1018, 127.7188
933.5839, 127.9355
934.0660, 114.6621
934.5482, 85.60156
935.0303, 58.73145
935.5124, 64.63184
935.9945, 86.82324
936.4766, 95.50879
936.9587, 79.16211
937.4409, 62.45605
937.9230, 40.66211
938.4051, 31.51172
938.8872, 52.99219
939.3693, 121.0010
939.8514, 150.9385
940.3336, 137.6992
940.8157, 110.5703
941.2978, 92.22559
941.7799, 75.91406
942.2620, 44.14062
942.7441, 1.286133
943.2263, 26.09180
943.7084, 7.692383
944.1905, 39.62402
944.6726, 43.09668
945.1547, 23.49121
945.6368, 13.34668
946.1190, 12.81055
946.6011, 19.66602
947.0832, 39.99902
947.5653, 59.45410
948.0474, 56.97168
948.5295, 38.86133
949.0117, 19.58398
949.4938, 7.519531
949.9759, 19.39160
950.4580, 3.934570
950.9401, 22.18457
951.4222, 31.65820
951.9044, 24.13477
952.3865, 24.64551
952.8686, 38.47461
953.3507, 54.58398
953.8328, 63.23340
954.3149, 65.50195
954.7971, 60.89160
955.2792, 45.96777
955.7613, 36.82422
956.2434, 44.29199
956.7255, 48.55859
957.2076, 33.53711
957.6898, 9.7655997E-02
958.1719, 19.83398
958.6540, 26.35840
959.1361, 18.29004
959.6182, 21.47559
960.1003, 63.47559
960.5825, 81.23926
961.0646, 76.45898
961.5467, 64.55078
962.0288, 43.28711
962.5109, 21.54980
962.9930, 4.235352
963.4752, 24.13379
963.9573, 1.253906
964.4394, 61.74023
964.9215, 93.04199
965.4036, 60.66797
965.8857, 19.40820
966.3679, 11.23535
966.8500, 21.63477
967.3321, 32.11914
967.8142, 43.72070
968.2963, 47.31836
968.7784, 39.66309
969.2606, 30.37207
969.7427, 27.95312
970.2248, 31.85254
970.7069, 44.79785
971.1890, 66.48730
971.6711, 79.85449
972.1533, 63.27637
972.6354, 43.01465
973.1175, 39.02734
973.5996, 51.45605
974.0817, 52.82129
974.5638, 37.04004
975.0460, 32.26855
975.5281, 57.90137
976.0102, 94.04102
976.4923, 99.21484
976.9744, 79.09570
977.4565, 50.15625
977.9387, 3.090820
978.4208, 35.57422
978.9029, 21.69238
979.3850, 16.43457
979.8671, 56.33594
980.3492, 102.5781
980.8314, 117.2207
981.3135, 91.10645
981.7956, 54.51953
982.2777, 31.14062
982.7598, 22.71875
983.2419, 38.78418
983.7241, 85.39355
984.2062, 115.7598
984.6883, 95.13770
985.1704, 76.19043
985.6525, 85.14844
986.1346, 118.2842
986.6168, 135.3184
987.0989, 136.3896
987.5810, 130.9844
988.0631, 122.1289
988.5452, 110.0107
989.0273, 89.06934
989.5095, 67.34473
989.9916, 63.71875
990.4737, 93.78418
990.9558, 123.1094
991.4379, 154.3037
991.9200, 173.3564
992.4022, 142.0908
992.8843, 76.38184
993.3664, 46.79492
993.8485, 70.00586
994.3306, 107.8076
994.8127, 162.9297
995.2949, 201.3311
995.7770, 178.4277
996.2591, 78.35547
996.7412, 36.45996
997.2233, 66.13965
997.7054, 105.2402
998.1876, 114.4502
998.6697, 107.3027
999.1518, 112.5195
999.6339, 128.9141
1000.116, 149.3438
1000.598, 183.1514
1001.080, 201.5146
1001.562, 189.0664
1002.044, 162.5078
1002.527, 153.4766
1003.009, 163.3643
1003.491, 169.0186
1003.973, 166.3008
1004.455, 155.6787
1004.937, 125.2471
1005.419, 92.36816
1005.901, 79.47949
1006.384, 92.35449
1006.866, 120.2432
1007.348, 182.1973
1007.830, 224.2266
1008.312, 205.9697
1008.794, 142.2988
1009.276, 113.3857
1009.758, 117.2520
1010.240, 134.4688
1010.723, 169.4854
1011.205, 200.0557
1011.687, 208.0469
1012.169, 197.2656
1012.651, 179.2471
1013.133, 144.7256
1013.615, 134.8203
1014.097, 162.5293
1014.580, 198.3125
1015.062, 199.2168
1015.544, 178.0781
1016.026, 157.9316
1016.508, 142.8105
1016.990, 138.0195
1017.472, 149.0146
1017.954, 169.4834
1018.436, 206.8770
1018.919, 257.9746
1019.401, 242.1953
1019.883, 159.3125
1020.365, 93.06445
1020.847, 105.0039
1021.329, 143.5820
1021.811, 173.7197
1022.293, 191.2607
1022.776, 188.0166
1023.258, 139.0674
1023.740, 108.5439
1024.222, 104.9922
1024.704, 118.0518
1025.186, 143.3037
1025.668, 173.2227
1026.150, 174.8984
1026.632, 141.2383
1027.115, 115.7354
1027.597, 144.4580
1028.079, 173.4775
1028.561, 162.0137
1029.043, 112.0957
1029.525, 66.88477
1030.007, 24.49805
1030.489, 9.589844
1030.972, 52.96777
1031.454, 108.3418
1031.936, 106.5029
1032.418, 67.75195
1032.900, 35.70898
1033.382, 22.69043
1033.864, 19.26074
1034.346, 22.66797
1034.828, 36.24414
1035.311, 77.32129
1035.793, 136.3213
1036.275, 139.9102
1036.757, 84.90039
1037.239, 30.33887
1037.721, 9.657227
1038.203, 8.193359
1038.685, 27.32812
1039.167, 61.67188
1039.650, 65.57422
1040.132, 31.27539
1040.614, 1.375000
1041.096, 22.21680
1041.578, 28.22461
1042.060, 1.756836
1042.542, 40.56250
1043.024, 67.87012
1043.507, 66.63867
1043.989, 57.19727
1044.471, 36.26562
1044.953, 16.69238
1045.435, 7.250977
1045.917, 7.809570
1046.399, 21.65430
1046.881, 47.91504
1047.364, 69.33105
1047.846, 74.88672
1048.328, 70.96289
1048.810, 52.15918
1049.292, 26.52344
1049.774, 28.79883
1050.256, 73.05469
1050.738, 93.05957
1051.220, 69.50488
1051.703, 33.31055
1052.185, 24.92578
1052.667, 36.58105
1053.149, 61.84766
1053.631, 108.0537
1054.113, 125.7021
1054.595, 76.33984
1055.077, 24.22852
1055.559, 3.388672
1056.042, 8.477539
1056.524, 0.4609380
1057.006, 21.14062
1057.488, 34.84473
1057.970, 35.65625
1058.452, 21.79199
1058.934, 31.50781
1059.416, 92.93164
1059.899, 98.43848
1060.381, 21.39453
1060.863, 14.47754
1061.345, 7.839844
1061.827, 42.01074
1062.309, 39.18359
1062.791, 18.06738
1063.273, 4.813477
1063.755, 1.741211
1064.238, 3.079102
1064.720, 16.75879
1065.202, 20.88672
1065.684, 1.754883
1066.166, 26.06836
1066.648, 8.939453
1067.130, 39.93164
1067.612, 56.00488
1068.094, 0.1503910
1068.577, 48.07520
1069.059, 32.95996
1069.541, 9.867188
1070.023, 49.92578
1070.505, 91.55566
1070.987, 94.46973
1071.469, 54.66406
1071.951, 16.03027
1072.434, 3.097656
1072.916, 11.99805
1073.398, 57.56445
1073.880, 123.1660
1074.362, 151.1396
1074.844, 95.38281
1075.326, 59.81641
1075.808, 61.34473
1076.291, 79.49316
1076.773, 84.34277
1077.255, 82.44531
1077.737, 96.82129
1078.219, 131.7588
1078.701, 156.5508
1079.183, 142.0547
1079.665, 126.6846
1080.147, 132.1162
1080.630, 153.6133
1081.112, 160.8662
1081.594, 154.4814
1082.076, 153.0781
1082.558, 163.6982
1083.040, 181.8789
1083.522, 211.5947
1084.004, 242.9229
1084.486, 262.3926
1084.969, 269.3154
1085.451, 260.1191
1085.933, 228.4355
1086.415, 204.8545
1086.897, 224.6455
1087.379, 262.2686
1087.861, 271.8330
1088.343, 257.9609
1088.826, 244.2705
1089.308, 234.9629
1089.790, 233.2773
1090.272, 242.6436
1090.754, 256.0605
1091.236, 263.8320
1091.718, 266.1738
1092.200, 259.3984
1092.682, 241.4043
1093.165, 237.0742
1093.647, 280.8984
1094.129, 326.2051
1094.611, 344.7021
1095.093, 338.7197
1095.575, 319.2891
1096.057, 285.4932
1096.539, 259.3408
1097.022, 246.3408
1097.504, 250.3926
1097.986, 297.3066
1098.468, 354.7783
1098.950, 373.4902
1099.432, 321.3496
1099.914, 303.9551
1100.396, 329.6084
1100.879, 360.2598
1101.361, 369.8926
1101.843, 364.9873
1102.325, 354.2842
1102.807, 339.8428
1103.289, 328.9023
1103.771, 322.4541
1104.253, 322.0859
1104.735, 325.8408
1105.218, 337.7666
1105.700, 376.3643
1106.182, 430.5225
1106.664, 437.8115
1107.146, 390.7920
1107.628, 344.4746
1108.110, 320.6572
1108.592, 319.3135
1109.074, 351.7188
1109.557, 405.6455
1110.039, 435.0137
1110.521, 439.9736
1111.003, 422.6338
1111.485, 375.9863
1111.967, 331.3008
1112.449, 320.5693
1112.931, 327.3330
1113.414, 335.1338
1113.896, 342.6875
1114.378, 346.9678
1114.860, 346.1592
1115.342, 347.4990
1115.824, 361.3516
1116.306, 375.9004
1116.788, 361.8701
1117.271, 333.7295
1117.753, 325.0889
1118.235, 382.1387
1118.717, 402.9121
1119.199, 370.9629
1119.681, 323.5020
1120.163, 289.5215
1120.645, 271.1523
1121.127, 280.6846
1121.609, 315.8066
1122.092, 351.2295
1122.574, 394.0830
1123.056, 408.1553
1123.538, 366.2275
1124.020, 302.4111
1124.502, 294.1357
1124.984, 333.4160
1125.466, 353.9160
1125.949, 342.0361
1126.431, 322.3965
1126.913, 308.6777
1127.395, 302.1143
1127.877, 307.5000
1128.359, 321.6533
1128.841, 316.0479
1129.323, 289.1689
1129.806, 269.6104
1130.288, 270.7490
1130.770, 277.3760
1131.252, 274.8721
1131.734, 266.3770
1132.216, 255.2705
1132.698, 237.7314
1133.180, 233.5312
1133.662, 243.4492
1134.145, 263.8848
1134.627, 304.4775
1135.109, 346.5000
1135.591, 358.2588
1136.073, 347.2559
1136.555, 332.1133
1137.037, 308.1904
1137.519, 297.3340
1138.001, 307.6104
1138.484, 318.1904
1138.966, 301.7842
1139.448, 270.9121
1139.930, 253.1367
1140.412, 249.4482
1140.894, 254.2314
1141.376, 279.3203
1141.858, 293.4414
1142.341, 284.3193
1142.823, 265.5332
1143.305, 259.3320
1143.787, 265.1885
1144.269, 285.8613
1144.751, 324.2559
1145.233, 349.3164
1145.715, 332.8633
1146.198, 308.3047
1146.680, 293.8213
1147.162, 287.1650
1147.644, 276.3535
1148.126, 265.5244
1148.608, 266.2607
1149.090, 285.3203
1149.572, 301.6621
1150.054, 298.2881
1150.536, 286.0039
1151.019, 275.4434
1151.501, 267.2861
1151.983, 260.5049
1152.465, 256.6396
1152.947, 249.8135
1153.429, 236.5586
1153.911, 219.5771
1154.393, 195.8633
1154.876, 172.0801
1155.358, 161.2881
1155.840, 170.3389
1156.322, 169.8223
1156.804, 156.2705
1157.286, 149.9854
1157.768, 176.2373
1158.250, 211.4932
1158.733, 232.2656
1159.215, 239.1992
1159.697, 233.3770
1160.179, 208.3379
1160.661, 185.5146
1161.143, 166.4834
1161.625, 152.7324
1162.107, 148.2949
1162.589, 148.9551
1163.072, 149.7070
1163.554, 149.6816
1164.036, 141.8457
1164.518, 107.4102
1165.000, 96.88770
1165.482, 133.2275
1165.964, 181.9336
1166.446, 178.0088
1166.928, 139.2744
1167.411, 101.1611
1167.893, 68.04688
1168.375, 52.44043
1168.857, 75.43359
1169.339, 94.85742
1169.821, 89.38867
1170.303, 73.02344
1170.785, 97.12695
1171.268, 145.6523
1171.750, 164.4668
1172.232, 121.6885
1172.714, 87.39160
1173.196, 102.1475
1173.678, 121.9727
1174.160, 118.8584
1174.642, 96.78711
1175.125, 91.06348
1175.607, 98.81836
1176.089, 104.4463
1176.571, 98.00098
1177.053, 91.26562
1177.535, 87.11719
1178.017, 87.06641
1178.499, 95.75586
1178.981, 112.8428
1179.464, 114.8809
1179.946, 102.2578
1180.428, 86.21484
1180.910, 55.58105
1181.392, 44.04590
1181.874, 100.6348
1182.356, 169.7988
1182.838, 162.8232
1183.320, 76.23535
1183.803, 19.94434
1184.285, 2.794922
1184.767, 5.466797
1185.249, 30.29395
1185.731, 53.45703
1186.213, 57.52637
1186.695, 46.51074
1187.177, 29.79199
1187.660, 6.348633
1188.142, 6.458008
1188.624, 5.303711
1189.106, 3.470703
1189.588, 20.49902
1190.070, 37.70410
1190.552, 50.13770
1191.034, 56.87891
1191.516, 51.33105
1191.999, 30.97266
1192.481, 25.52344
1192.963, 47.22852
1193.445, 67.85645
1193.927, 55.85449
1194.409, 31.08594
1194.891, 10.21191
1195.373, 5.720703
1195.855, 5.649414
1196.338, 12.84180
1196.820, 27.33203
1197.302, 28.04883
1197.784, 23.11230
1198.266, 13.45801
1198.748, 7.443359
1199.230, 20.96191
1199.712, 62.04590
1200.195, 73.28320
1200.677, 50.39062
1201.159, 27.59863
1201.641, 22.79590
1202.123, 29.27637
1202.605, 40.27637
1203.087, 54.00000
1203.569, 67.80859
1204.052, 93.00098
1204.534, 78.14160
1205.016, 16.01270
1205.498, 45.14062
1205.980, 79.77539
1206.462, 89.71094
1206.944, 65.10938
1207.426, 19.64648
1207.908, 16.03320
1208.391, 44.42383
1208.873, 44.89453
1209.355, 11.19141
1209.837, 20.51367
1210.319, 16.77051
1210.801, 3.120117
1211.283, 19.09668
1211.765, 32.16504
1212.247, 49.71680
1212.730, 80.16113
1213.212, 88.96582
1213.694, 69.85938
1214.176, 41.48535
1214.658, 8.959961
1215.140, 13.96973
1215.622, 2.385742
1216.104, 36.69531
1216.587, 54.82812
1217.069, 40.08203
1217.551, 38.92773
1218.033, 62.52539
1218.515, 85.58203
1218.997, 72.50391
1219.479, 48.34473
1219.961, 42.81738
1220.443, 56.94043
1220.926, 66.13770
1221.408, 69.79297
1221.890, 64.28711
1222.372, 44.50000
1222.854, 30.28320
1223.336, 58.90430
1223.818, 97.72559
1224.300, 106.9590
1224.782, 80.42871
1225.265, 59.64355
1225.747, 45.67969
1226.229, 32.94238
1226.711, 18.84473
1227.193, 7.615234
1227.675, 2.064453
1228.157, 3.666016
1228.639, 16.94238
1229.122, 43.95117
1229.604, 64.80176
1230.086, 79.70312
1230.568, 78.37109
1231.050, 44.50977
1231.532, 18.43945
1232.014, 65.86426
1232.496, 137.4102
1232.979, 171.6953
1233.461, 162.0518
1233.943, 141.1094
1234.425, 108.5254
1234.907, 77.38867
1235.389, 50.93359
1235.871, 33.41895
1236.353, 31.40332
1236.835, 39.04590
1237.318, 52.25098
1237.800, 74.25488
1238.282, 64.02148
1238.764, 18.93555
1239.246, 2.583008
1239.728, 50.08301
1240.210, 116.6699
1240.692, 159.2109
1241.175, 176.8516
1241.657, 162.9805
1242.139, 107.7598
1242.621, 98.30762
1243.103, 135.0137
1243.585, 165.5684
1244.067, 153.4229
1244.549, 129.3975
1245.031, 102.7451
1245.514, 83.99121
1245.996, 87.50879
1246.478, 116.8359
1246.960, 137.0498
1247.442, 147.3105
1247.924, 150.4277
1248.406, 139.0850
1248.888, 127.9541
1249.370, 134.3828
1249.853, 139.8818
1250.335, 113.3252
1250.817, 57.44629
1251.299, 24.83887
1251.781, 16.50391
1252.263, 22.32324
1252.745, 49.44336
1253.227, 74.42383
1253.710, 83.63477
1254.192, 87.80762
1254.674, 102.6016
1255.156, 125.2080
1255.638, 124.8203
1256.120, 109.3896
1256.602, 102.0420
1257.084, 105.0430
1257.567, 96.72070
1258.049, 72.00293
1258.531, 44.69531
1259.013, 13.29688
1259.495, 10.85449
1259.977, 40.30078
1260.459, 157.7432
1260.941, 224.0518
1261.423, 107.9658
1261.906, 26.37988
1262.388, 36.97363
1262.870, 85.98730
1263.352, 100.4268
1263.834, 92.04297
1264.316, 87.73340
1264.798, 89.76562
1265.280, 85.95508
1265.762, 67.76465
1266.245, 47.25684
1266.727, 22.71094
1267.209, 10.62695
1267.691, 41.07324
1268.173, 87.09863
1268.655, 102.0918
1269.137, 85.74512
1269.619, 77.99121
1270.102, 89.36035
1270.584, 92.43652
1271.066, 80.00781
1271.548, 65.54297
1272.030, 63.72949
1272.512, 65.77832
1272.994, 66.28711
1273.476, 62.22754
1273.958, 63.92871
1274.441, 71.46094
1274.923, 88.94238
1275.405, 121.9629
1275.887, 142.9658
1276.369, 100.1553
1276.851, 49.37793
1277.333, 52.90430
1277.815, 101.9121
1278.297, 125.2930
1278.780, 121.9600
1279.262, 102.4053
1279.744, 61.28125
1280.226, 30.12598
1280.708, 49.22852
1281.190, 75.21973
1281.672, 74.60156
1282.154, 54.14355
1282.637, 36.94336
1283.119, 30.71973
1283.601, 41.49902
1284.083, 74.52930
1284.565, 107.8906
1285.047, 150.2754
1285.529, 160.5762
1286.011, 105.1465
1286.494, 16.90332
1286.976, 4.911133
1287.458, 22.38672
1287.940, 46.25195
1288.422, 55.72168
1288.904, 64.06445
1289.386, 89.09082
1289.868, 91.83398
1290.350, 45.53809
1290.833, 10.59082
1291.315, 19.15918
1291.797, 92.64746
1292.279, 124.4717
1292.761, 93.99902
1293.243, 65.18652
1293.725, 43.87891
1294.207, 31.30859
1294.689, 29.26758
1295.172, 31.81543
1295.654, 30.87988
1296.136, 25.77637
1296.618, 25.81934
1297.100, 28.82227
1297.582, 33.11719
1298.064, 32.31836
1298.546, 39.45996
1299.029, 50.72852
1299.511, 58.18262
1299.993, 42.92090
1300.475, 27.43164
1300.957, 45.98828
1301.439, 88.89062
1301.921, 80.71777
1302.403, 23.38281
1302.885, 1.017578
1303.368, 39.30664
1303.850, 76.74707
1304.332, 43.38965
1304.814, 0.0000000E+00
##END=



