##NAMES=Stilbite-Ca
##RRUFFID=R050106
##IDEAL CHEMISTRY=NaCa_4_(Si_27_Al_9_)O_72_&#183;28H_2_O
##LOCALITY=Corea, Sonora, Mexico
##OWNER=RRUFF
##SOURCE=Fred Devito
##DESCRIPTION=White to colorless sheaflike aggregates of flattened single crystals
##STATUS=The identification of this mineral has been confirmed by X-ray diffraction and chemical analysis
##URL=rruff.info/R050106
##MEASURED CHEMISTRY=Na_1.42_Ca_4.28_(Si_26.02_Al_9.98_)O_72_Â·27.61H_2_O; trace amounts of K; H_2_O estimated by difference
187.630, 0.000
189.008, 1.894
190.387, 86.680
191.765, 212.321
193.143, 132.147
194.520, 267.848
195.898, 1.268
197.275, 81.089
198.652, 80.150
200.029, 293.894
201.405, 241.127
202.782, 258.159
204.158, 88.755
205.534, 228.888
206.909, 446.987
208.285, 128.854
209.660, 91.889
211.035, 143.085
212.410, 34.547
213.784, 22.003
215.159, 5.276
216.533, 42.640
217.907, 176.748
219.281, 91.048
220.654, 206.533
222.027, 258.200
223.400, 438.803
224.773, 415.781
226.146, 597.943
227.518, 445.723
228.891, 543.187
230.263, 616.291
231.634, 607.546
233.006, 724.941
234.377, 746.467
235.748, 633.125
237.119, 683.911
238.490, 443.840
239.860, 686.913
241.231, 467.137
242.601, 505.510
243.970, 522.033
245.340, 482.701
246.709, 390.504
248.079, 364.350
249.448, 321.469
250.816, 213.615
252.185, 186.855
253.553, 60.186
254.921, 128.598
256.289, 149.088
257.657, 103.646
259.024, 15.270
260.391, 94.951
261.758, 170.691
263.125, 96.520
264.492, 83.316
265.858, 67.195
267.224, 90.111
268.590, 271.066
269.956, 20.064
271.321, 310.104
272.687, 437.164
274.052, 522.223
275.416, 446.271
276.781, 721.328
278.146, 670.404
279.510, 565.504
280.874, 800.674
282.237, 742.012
283.601, 893.363
284.964, 870.625
286.327, 622.398
287.690, 767.238
289.053, 687.219
290.416, 574.377
291.778, 921.633
293.140, 560.045
294.502, 920.529
295.863, 750.133
297.225, 697.857
298.586, 518.664
299.947, 466.525
301.308, 624.385
302.668, 491.264
304.029, 491.141
305.389, 673.012
306.749, 608.875
308.108, 687.670
309.468, 718.457
310.827, 483.217
312.186, 503.951
313.545, 528.668
314.903, 644.359
316.262, 589.031
317.620, 646.678
318.978, 666.305
320.336, 694.910
321.693, 649.498
323.051, 628.059
324.408, 620.342
325.765, 515.121
327.121, 563.617
328.478, 485.094
329.834, 410.547
331.190, 558.977
332.546, 611.381
333.902, 452.766
335.257, 638.123
336.612, 461.459
337.967, 554.770
339.322, 567.057
340.677, 431.318
342.031, 633.557
343.385, 361.768
344.739, 500.955
346.093, 429.121
347.446, 402.266
348.799, 550.383
350.153, 523.480
351.505, 546.223
352.858, 605.482
354.210, 529.840
355.563, 615.859
356.915, 763.664
358.267, 769.504
359.618, 803.537
360.969, 828.973
362.321, 1044.395
363.672, 1071.271
365.022, 1213.729
366.373, 1318.014
367.723, 1329.035
369.073, 1617.348
370.423, 1607.264
371.773, 1842.600
373.122, 1940.043
374.471, 2072.627
375.821, 2634.582
377.169, 2551.773
378.518, 3052.846
379.866, 3009.975
381.215, 3178.789
382.563, 3637.076
383.910, 3778.137
385.258, 4116.221
386.605, 4638.748
387.952, 4957.293
389.299, 5192.281
390.646, 5939.543
391.992, 6453.301
393.339, 7099.301
394.685, 7807.430
396.031, 8544.947
397.376, 9703.641
398.722, 10181.500
400.067, 11266.549
401.412, 11751.656
402.757, 12861.154
404.101, 13988.598
405.446, 14221.172
406.790, 14412.826
408.134, 14679.941
409.478, 14902.881
410.821, 14598.879
412.165, 13975.494
413.508, 13017.418
414.851, 12880.510
416.193, 12007.918
417.536, 10944.051
418.878, 10453.617
420.220, 9883.668
421.562, 9052.320
422.904, 8778.031
424.245, 7932.309
425.586, 8024.594
426.927, 7318.498
428.268, 6850.070
429.609, 6164.008
430.949, 5932.830
432.289, 5667.516
433.629, 5601.316
434.969, 5250.107
436.309, 5206.885
437.648, 4998.648
438.987, 4813.029
440.326, 4958.141
441.665, 4601.867
443.003, 4682.580
444.342, 4839.281
445.680, 4963.969
447.018, 4867.643
448.355, 4919.299
449.693, 5013.941
451.030, 5236.562
452.367, 5236.164
453.704, 5642.744
455.041, 5232.309
456.377, 5674.846
457.713, 5555.363
459.049, 5473.857
460.385, 5323.326
461.721, 5015.771
463.056, 4897.191
464.391, 4405.588
465.726, 3948.959
467.061, 3950.301
468.395, 3363.617
469.730, 3088.910
471.064, 3027.176
472.398, 2583.416
473.731, 2694.629
475.065, 2314.816
476.398, 2438.977
477.731, 2374.111
479.064, 2659.223
480.397, 2701.303
481.729, 2961.355
483.062, 2985.385
484.394, 3384.387
485.725, 3796.359
487.057, 4309.305
488.389, 5025.221
489.720, 5790.113
491.051, 6239.979
492.382, 7125.812
493.712, 7653.621
495.043, 8085.492
496.373, 8041.277
497.703, 7712.236
499.032, 7295.967
500.362, 6585.188
501.691, 5602.865
503.020, 4798.516
504.349, 3773.254
505.678, 3189.852
507.007, 2741.834
508.335, 2145.398
509.663, 1799.010
510.991, 1510.518
512.319, 1416.789
513.646, 1007.842
514.973, 997.373
516.300, 687.545
517.627, 846.363
518.954, 696.514
520.280, 436.371
521.607, 404.932
522.933, 265.004
524.259, 340.783
525.584, 147.049
526.910, 135.283
528.235, 158.482
529.560, 262.242
530.885, 145.799
532.209, 76.279
533.534, 58.104
534.858, 45.787
536.182, 38.150
537.506, 94.014
538.829, 31.873
540.152, 16.965
541.476, 202.814
542.799, 83.980
544.121, 117.064
545.444, 59.785
546.766, 94.250
548.088, 138.086
549.410, 65.234
550.732, 157.492
552.053, 108.641
553.375, 87.584
554.696, 120.182
556.017, 4.998
557.337, 13.141
558.658, 21.613
559.978, 16.359
561.298, 116.512
562.618, 63.125
563.938, 69.373
565.257, 6.764
566.576, 110.758
567.895, 26.762
569.214, 137.883
570.533, 229.559
571.851, 32.705
573.170, 26.416
574.488, 277.662
575.805, 103.656
577.123, 236.904
578.440, 120.719
579.758, 174.746
581.075, 325.934
582.391, 174.689
583.708, 407.613
585.024, 386.301
586.341, 225.328
587.657, 374.928
588.972, 570.486
590.288, 661.002
591.603, 490.715
592.918, 406.445
594.233, 497.838
595.548, 537.197
596.863, 744.514
598.177, 669.920
599.491, 767.434
600.805, 667.629
602.119, 822.797
603.432, 874.910
604.746, 1002.889
606.059, 942.914
607.372, 1005.211
608.685, 934.146
609.997, 957.111
611.309, 933.926
612.621, 1068.738
613.933, 889.553
615.245, 1125.277
616.557, 1024.957
617.868, 1102.811
619.179, 932.400
620.490, 1038.945
621.801, 857.445
623.111, 1225.900
624.421, 872.312
625.731, 1108.678
627.041, 647.996
628.351, 1015.268
629.660, 740.494
630.970, 615.676
632.279, 1053.812
633.588, 799.904
634.896, 814.947
636.205, 754.947
637.513, 920.900
638.821, 555.803
640.129, 761.662
641.437, 725.473
642.744, 680.234
644.051, 441.953
645.358, 587.627
646.665, 612.250
647.972, 681.826
649.278, 502.703
650.584, 511.188
651.890, 401.486
653.196, 738.875
654.502, 367.662
655.807, 502.525
657.113, 292.588
658.418, 421.285
659.722, 609.938
661.027, 388.477
662.331, 436.525
663.636, 318.213
664.940, 577.551
666.244, 159.447
667.547, 596.490
668.851, 227.014
670.154, 273.359
671.457, 151.717
672.760, 231.346
674.062, 309.664
675.365, 224.273
676.667, 289.049
677.969, 354.287
679.271, 361.582
680.572, 435.473
681.874, 423.219
683.175, 462.988
684.476, 427.205
685.777, 284.930
687.077, 325.438
688.378, 63.854
689.678, 392.342
690.978, 350.107
692.278, 626.732
693.577, 149.949
694.877, 442.516
696.176, 58.324
697.475, 336.500
698.774, 145.877
700.072, 347.121
701.371, 243.922
702.669, 273.902
703.967, 44.930
705.265, 412.604
706.562, 519.035
707.860, 406.000
709.157, 48.074
710.454, 351.055
711.751, 84.412
713.047, 383.990
714.344, 151.154
715.640, 313.232
716.936, 5.875
718.232, 352.727
719.527, 449.662
720.823, 316.162
722.118, 317.570
723.413, 317.098
724.708, 262.283
726.002, 248.127
727.297, 478.342
728.591, 215.559
729.885, 311.309
731.179, 426.236
732.472, 287.777
733.766, 140.629
735.059, 315.434
736.352, 265.566
737.645, 384.207
738.937, 304.701
740.230, 408.773
741.522, 262.740
742.814, 401.057
744.106, 453.947
745.397, 369.910
746.689, 293.441
747.980, 278.424
749.271, 419.596
750.562, 362.031
751.853, 451.881
753.143, 77.799
754.433, 280.135
755.723, 347.588
757.013, 102.068
758.303, 491.000
759.592, 125.406
760.881, 395.404
762.170, 265.584
763.459, 450.494
764.748, 505.666
766.036, 93.869
767.325, 485.637
768.613, 326.557
769.901, 561.238
771.188, 595.332
772.476, 281.930
773.763, 644.480
775.050, 423.703
776.337, 651.334
777.624, 447.990
778.910, 608.930
780.196, 753.271
781.482, 789.576
782.768, 671.836
784.054, 595.053
785.339, 649.729
786.625, 698.865
787.910, 596.395
789.195, 790.662
790.479, 619.674
791.764, 559.645
793.048, 746.574
794.332, 598.465
795.616, 591.316
796.900, 594.125
798.183, 577.225
799.467, 337.955
800.750, 540.662
802.033, 483.381
803.316, 225.992
804.598, 731.799
805.880, 76.668
807.163, 615.752
808.445, 197.143
809.726, 166.293
811.008, 105.602
812.289, 179.887
813.570, 178.107
814.851, 192.633
816.132, 403.656
817.413, 4.758
818.693, 26.604
819.973, 306.377
821.253, 16.238
822.533, 116.135
823.813, 144.191
825.092, 127.420
826.371, 47.080
827.650, 107.170
828.929, 23.406
830.208, 208.244
831.486, 83.314
832.764, 105.381
834.042, 22.174
835.320, 67.229
836.598, 17.588
837.875, 53.910
839.152, 16.807
840.429, 80.844
841.706, 209.627
842.983, 89.021
844.259, 125.047
845.536, 628.660
846.812, 464.674
848.088, 376.697
849.363, 214.342
850.639, 84.266
851.914, 130.662
853.189, 91.646
854.464, 102.213
855.739, 154.762
857.013, 314.883
858.288, 159.691
859.562, 58.918
860.836, 40.502
862.110, 184.105
863.383, 162.768
864.656, 206.189
865.930, 99.492
867.203, 8.961
868.475, 13.400
869.748, 73.189
871.020, 85.100
872.292, 5.484
873.564, 65.930
874.836, 55.170
876.108, 11.590
877.379, 85.381
878.650, 63.223
879.922, 57.373
881.192, 3.346
882.463, 27.295
883.733, 134.326
885.004, 39.539
886.274, 85.430
887.544, 205.684
888.813, 167.660
890.083, 184.371
891.352, 55.523
892.621, 127.402
893.890, 129.475
895.159, 110.139
896.427, 111.168
897.695, 104.705
898.964, 196.162
900.232, 76.895
901.499, 18.543
902.767, 39.533
904.034, 72.357
905.301, 44.229
906.568, 13.053
907.835, 129.520
909.102, 111.350
910.368, 0.857
911.634, 103.926
912.900, 348.785
914.166, 133.543
915.432, 414.969
916.697, 111.695
917.962, 52.594
919.227, 282.055
920.492, 136.715
921.757, 230.318
923.021, 72.949
924.285, 290.568
925.550, 387.953
926.813, 8.545
928.077, 138.141
929.341, 121.727
930.604, 42.291
931.867, 327.842
933.130, 173.383
934.393, 204.910
935.655, 317.424
936.918, 51.920
938.180, 464.408
939.442, 65.881
940.703, 118.340
941.965, 205.795
943.226, 216.229
944.488, 260.564
945.749, 204.066
947.009, 257.465
948.270, 195.852
949.530, 86.227
950.791, 182.588
952.051, 159.936
953.311, 147.271
954.570, 189.869
955.830, 105.605
957.089, 240.930
958.348, 144.379
959.607, 207.680
960.866, 286.525
962.124, 212.232
963.383, 25.709
964.641, 282.482
965.899, 70.244
967.156, 235.109
968.414, 320.410
969.671, 280.008
970.928, 389.898
972.185, 203.172
973.442, 296.236
974.699, 190.775
975.955, 143.539
977.211, 293.049
978.468, 114.340
979.723, 362.885
980.979, 504.082
982.234, 378.057
983.490, 708.510
984.745, 214.881
986.000, 797.395
987.254, 759.811
988.509, 420.016
989.763, 776.373
991.017, 392.268
992.271, 527.746
993.525, 600.764
994.779, 516.469
996.032, 581.943
997.285, 645.270
998.538, 812.590
999.791, 229.963
1001.044, 833.404
1002.296, 435.082
1003.548, 822.961
1004.800, 660.309
1006.052, 705.039
1007.304, 652.092
1008.555, 467.523
1009.807, 797.791
1011.058, 831.492
1012.309, 620.131
1013.559, 805.400
1014.810, 737.596
1016.060, 590.979
1017.310, 874.920
1018.560, 930.059
1019.810, 566.047
1021.060, 770.105
1022.309, 1095.018
1023.558, 599.594
1024.807, 771.424
1026.056, 620.209
1027.305, 887.410
1028.553, 850.074
1029.801, 1073.957
1031.049, 965.367
1032.297, 724.928
1033.545, 685.229
1034.793, 638.100
1036.040, 863.352
1037.287, 746.416
1038.534, 731.701
1039.781, 985.545
1041.027, 921.703
1042.274, 966.400
1043.520, 949.211
1044.766, 1022.508
1046.012, 825.234
1047.257, 995.025
1048.503, 887.053
1049.748, 1112.406
1050.993, 887.773
1052.238, 1140.949
1053.483, 1039.898
1054.727, 825.641
1055.971, 751.547
1057.216, 776.449
1058.459, 922.664
1059.703, 896.297
1060.947, 973.273
1062.190, 1024.102
1063.433, 940.070
1064.676, 996.625
1065.919, 967.688
1067.162, 754.910
1068.404, 1187.309
1069.646, 796.242
1070.888, 1130.758
1072.130, 1227.133
1073.372, 956.055
1074.613, 1175.836
1075.855, 1298.023
1077.096, 1269.379
1078.337, 1113.672
1079.578, 1547.699
1080.818, 1351.094
1082.059, 1589.633
1083.299, 1489.750
1084.539, 1769.148
1085.779, 1634.613
1087.018, 1779.887
1088.258, 1751.613
1089.497, 1679.535
1090.736, 1672.812
1091.975, 1628.824
1093.213, 1498.145
1094.452, 1674.902
1095.690, 1854.363
1096.928, 1665.977
1098.166, 1720.652
1099.404, 1732.812
1100.642, 1804.102
1101.879, 1804.230
1103.116, 1908.703
1104.353, 1807.898
1105.590, 1835.809
1106.827, 1679.777
1108.063, 2030.273
1109.299, 1830.969
1110.536, 1908.719
1111.771, 1759.754
1113.007, 1782.457
1114.243, 2007.660
1115.478, 1965.062
1116.713, 1904.500
1117.948, 1747.031
1119.183, 2005.316
1120.418, 1765.602
1121.652, 2014.766
1122.886, 2148.516
1124.120, 2165.832
1125.354, 1743.566
1126.588, 1893.891
1127.821, 1810.945
1129.055, 1718.910
1130.288, 1822.359
1131.521, 1724.219
1132.753, 1740.504
1133.986, 1438.543
1135.218, 1470.023
1136.450, 1887.191
1137.682, 1424.512
1138.914, 1776.910
1140.146, 1534.000
1141.377, 1464.293
1142.609, 1423.676
1143.840, 1189.375
1145.071, 1622.535
1146.301, 1646.664
1147.532, 1565.641
1148.762, 1494.922
1149.992, 1304.570
1151.222, 1368.824
1152.452, 1261.938
1153.682, 1511.664
1154.911, 1229.426
1156.140, 1592.887
1157.369, 1175.312
1158.598, 1053.848
1159.827, 1147.797
1161.055, 1168.090
1162.284, 909.922
1163.512, 1046.266
1164.740, 830.980
1165.967, 945.934
1167.195, 644.355
1168.422, 921.617
1169.650, 876.816
1170.877, 733.160
1172.103, 617.211
1173.330, 622.949
1174.557, 538.711
1175.783, 774.625
1177.009, 748.801
1178.235, 317.523
1179.461, 500.957
1180.686, 326.348
1181.912, 516.219
1183.137, 761.535
1184.362, 526.840
1185.587, 301.395
1186.811, 381.996
1188.036, 558.914
1189.260, 481.297
1190.484, 277.922
1191.708, 491.793
1192.932, 360.723
1194.155, 346.441
1195.378, 291.188
1196.602, 307.715
1197.825, 424.891
1199.047, 176.641
1200.270, 395.387
1201.492, 95.414
1202.715, 641.602
1203.937, 80.363
1205.159, 411.340
1206.380, 398.117
1207.602, 432.945
1208.823, 104.777
1210.044, 154.152
1211.265, 197.805
1212.486, 367.750
1213.707, 252.246
1214.927, 191.812
1216.147, 392.480
1217.367, 203.836
1218.587, 281.676
1219.807, 279.293
1221.027, 178.688
1222.246, 316.613
1223.465, 61.559
1224.684, 246.125
1225.903, 529.715
1227.121, 125.043
1228.340, 216.406
1229.558, 311.691
1230.776, 480.262
1231.994, 461.359
1233.212, 31.473
1234.429, 389.699
1235.646, 234.453
1236.864, 53.203
1238.081, 546.637
1239.297, 228.137
1240.514, 358.551
1241.730, 423.605
1242.947, 381.496
1244.163, 361.777
1245.378, 160.441
1246.594, 441.004
1247.810, 470.453
1249.025, 44.301
1250.240, 445.273
1251.455, 211.086
1252.670, 246.090
1253.885, 347.594
1255.099, 302.828
1256.313, 282.930
1257.527, 35.094
1258.741, 389.727
1259.955, 389.359
1261.168, 142.152
1262.382, 316.273
1263.595, 285.457
1264.808, 336.250
1266.021, 180.176
1267.233, 306.973
1268.446, 0.879
1269.658, 434.398
1270.870, 89.000
1272.082, 59.457
1273.294, 119.527
1274.505, 84.469
1275.716, 92.254
1276.928, 149.898
1278.139, 73.602
1279.349, 289.723
1280.560, 184.898
1281.770, 237.938
1282.981, 82.836
1284.191, 24.574
1285.401, 223.273
1286.610, 180.711
1287.820, 45.996
1289.029, 286.520
1290.239, 58.477
1291.448, 183.355
1292.656, 194.164
1293.865, 60.719
1295.073, 252.141
1296.282, 59.684
1297.490, 188.203
1298.698, 89.711
1299.906, 192.488
1301.113, 104.137
1302.320, 101.648
1303.528, 53.969
1304.735, 2.250
1305.942, 67.684
1307.148, 59.219
1308.355, 87.164
1309.561, 58.797
1310.767, 243.305
1311.973, 68.703
1313.179, 171.980
1314.384, 173.543
1315.590, 113.207
1316.795, 99.160
1318.000, 95.031
1319.205, 132.176
1320.410, 168.145
1321.614, 57.195
1322.819, 259.539
1324.023, 105.504
1325.227, 14.098
1326.431, 160.414
1327.634, 113.023
1328.838, 24.008
1330.041, 94.797
1331.244, 31.586
1332.447, 291.555
1333.650, 99.891
1334.852, 168.168
1336.055, 262.922
1337.257, 123.855
1338.459, 278.914
1339.661, 13.215
1340.862, 78.668
1342.064, 186.805
1343.265, 124.496
1344.466, 227.664
1345.667, 361.906
1346.868, 312.391
1348.068, 588.059
1349.269, 397.664
1350.469, 364.723
1351.669, 602.016
1352.869, 325.184
1354.069, 420.219
1355.268, 673.871
1356.468, 255.574
1357.667, 687.402
1358.866, 542.961
1360.065, 504.996
1361.263, 565.816
1362.462, 419.547
1363.660, 425.309
1364.858, 463.562
1366.056, 612.902
1367.254, 555.746
1368.451, 636.641
1369.649, 662.777
1370.846, 342.730
1372.043, 653.562
1373.240, 573.191
1374.436, 439.824
1375.633, 566.336
1376.829, 485.453
1378.025, 415.602
1379.221, 506.234
1380.417, 482.980
1381.613, 558.656
1382.808, 440.727
1384.003, 434.453
1385.199, 807.148
1386.393, 476.109
1387.588, 321.949
1388.783, 786.105
1389.977, 666.273
1391.171, 613.887
1392.365, 529.699
1393.559, 294.844
1394.753, 465.168
1395.946, 273.184
1397.140, 454.367
1398.333, 576.277
1399.526, 504.609
1400.719, 586.707
1401.911, 515.047
1403.104, 505.492
1404.296, 342.480
1405.488, 245.230
1406.680, 462.496
1407.872, 84.742
1409.063, 299.746
1410.255, 460.031
1411.446, 6.805
1412.637, 313.379
1413.828, 177.605
1415.018, 161.758
1416.209, 411.926
1417.399, 349.789
1418.589, 381.207
1419.779, 489.336
1420.969, 272.254
1422.159, 351.000
1423.348, 167.441
1424.537, 236.777
1425.726, 149.488
1426.915, 226.031
1428.104, 107.840
1429.293, 263.988
1430.481, 212.184
1431.669, 19.461
1432.857, 147.742
1434.045, 216.207
1435.233, 70.480
1436.420, 283.398
1437.608, 450.789
1438.795, 8.207
1439.982, 117.449
1441.169, 203.211
1442.355, 520.051
1443.542, 141.012
1444.728, 249.191
1445.914, 143.598
1447.100, 364.578
1448.286, 267.379
1449.472, 263.438
1450.657, 4.316
1451.842, 453.285
1453.027, 280.652
1454.212, 220.488
1455.397, 452.895
1456.581, 40.289
1457.766, 446.355
1458.950, 371.418
1460.134, 143.266
1461.318, 420.305
1462.501, 1.223
1463.685, 0.000
##END=



