##NAMES=Strengite
##RRUFFID=R070590
##IDEAL CHEMISTRY=Fe^3+^PO_4_&#183;2H_2_O
##LOCALITY=Foddersack Mountain, near Norman, Montgomery County, Arkansas, USA
##OWNER=RRUFF
##SOURCE=James Shigley
##DESCRIPTION=Radiating aggregates of bladed pale purple crystals
##STATUS=The identification of this mineral has been confirmed by single-crystal X-ray diffraction.
##URL=rruff.info/R070590
137.3161, 0.0000000E+00
137.7982, 3.382813
138.2803, 0.9357910
138.7624, 12.45605
139.2445, 19.03174
139.7266, 44.25635
140.2088, 88.09912
140.6909, 147.9456
141.1730, 217.4238
141.6551, 298.0232
142.1372, 374.1833
142.6193, 425.5713
143.1015, 492.9919
143.5836, 535.7148
144.0657, 543.5789
144.5478, 517.2104
145.0299, 495.8701
145.5120, 487.4548
145.9942, 478.2351
146.4763, 453.8267
146.9584, 393.1328
147.4405, 343.0767
147.9226, 312.9307
148.4047, 304.4917
148.8869, 308.3892
149.3690, 331.3975
149.8511, 365.3472
150.3332, 396.6606
150.8153, 417.6587
151.2974, 441.8599
151.7796, 475.1348
152.2617, 539.9297
152.7438, 582.1284
153.2259, 596.6113
153.7080, 585.3262
154.1901, 556.6343
154.6722, 510.0132
155.1544, 447.5103
155.6365, 371.2827
156.1186, 251.1348
156.6007, 147.0903
157.0828, 72.92041
157.5649, 28.67334
158.0471, 2.779785
158.5292, 5.262207
159.0113, 20.00684
159.4934, 30.11523
159.9755, 9.264648
160.4576, 0.5263670
160.9398, 17.44727
161.4219, 65.38525
161.9040, 141.5269
162.3861, 252.3286
162.8682, 389.6777
163.3503, 539.6851
163.8325, 687.4043
164.3146, 847.9365
164.7967, 1033.116
165.2788, 1252.239
165.7609, 1482.252
166.2430, 1711.206
166.7252, 1940.131
167.2073, 2173.847
167.6894, 2438.518
168.1715, 2698.697
168.6536, 2915.590
169.1357, 3071.001
169.6179, 3186.583
170.1000, 3268.595
170.5821, 3319.441
171.0642, 3361.086
171.5463, 3404.528
172.0284, 3449.972
172.5106, 3497.818
172.9927, 3534.831
173.4748, 3580.938
173.9569, 3659.592
174.4390, 3771.594
174.9211, 3907.614
175.4033, 4059.142
175.8854, 4227.527
176.3675, 4417.401
176.8496, 4626.753
177.3317, 4862.159
177.8138, 5130.894
178.2959, 5435.098
178.7781, 5774.060
179.2602, 6150.778
179.7423, 6566.497
180.2244, 6991.604
180.7065, 7419.774
181.1886, 7851.679
181.6708, 8288.420
182.1529, 8756.184
182.6350, 9203.554
183.1171, 9541.812
183.5992, 9768.865
184.0813, 9949.906
184.5635, 10118.21
185.0456, 10289.74
185.5277, 10491.08
186.0098, 10709.92
186.4919, 10961.36
186.9740, 11302.50
187.4562, 11734.11
187.9383, 12227.47
188.4204, 12767.11
188.9025, 13344.42
189.3846, 13912.29
189.8667, 14510.95
190.3489, 15122.30
190.8310, 15617.11
191.3131, 16010.93
191.7952, 16262.61
192.2773, 16315.64
192.7594, 16169.49
193.2416, 15849.47
193.7237, 15339.30
194.2058, 14646.82
194.6879, 13861.47
195.1700, 12963.37
195.6521, 12012.83
196.1343, 11124.10
196.6164, 10308.37
197.0985, 9545.855
197.5806, 8837.612
198.0627, 8184.062
198.5448, 7570.993
199.0269, 6991.984
199.5091, 6454.381
199.9912, 5990.866
200.4733, 5618.226
200.9554, 5280.385
201.4375, 4937.134
201.9196, 4584.420
202.4018, 4255.460
202.8839, 3955.963
203.3660, 3685.705
203.8481, 3441.767
204.3302, 3222.747
204.8123, 3032.258
205.2945, 2872.257
205.7766, 2744.193
206.2587, 2640.303
206.7408, 2561.032
207.2229, 2506.126
207.7050, 2467.104
208.1872, 2444.131
208.6693, 2436.612
209.1514, 2439.772
209.6335, 2446.417
210.1156, 2484.458
210.5977, 2565.417
211.0799, 2693.928
211.5620, 2842.438
212.0441, 3017.442
212.5262, 3209.123
213.0083, 3396.540
213.4904, 3591.964
213.9726, 3761.112
214.4547, 3895.357
214.9368, 4004.837
215.4189, 4040.671
215.9010, 3990.524
216.3831, 3868.337
216.8653, 3715.297
217.3474, 3526.793
217.8295, 3313.471
218.3116, 3073.416
218.7937, 2787.437
219.2758, 2521.836
219.7580, 2274.988
220.2401, 2050.570
220.7222, 1864.769
221.2043, 1722.250
221.6864, 1609.585
222.1685, 1515.850
222.6507, 1440.298
223.1328, 1388.865
223.6149, 1373.362
224.0970, 1391.108
224.5791, 1382.913
225.0612, 1343.002
225.5434, 1283.880
226.0255, 1214.504
226.5076, 1130.136
226.9897, 1045.839
227.4718, 965.3779
227.9539, 890.2476
228.4361, 803.8789
228.9182, 700.1045
229.4003, 592.2207
229.8824, 495.5713
230.3645, 417.2769
230.8466, 338.9404
231.3288, 253.4409
231.8109, 157.8169
232.2930, 72.84131
232.7751, 0.6362300
233.2572, 62.17920
233.7393, 121.3979
234.2215, 181.5972
234.7036, 230.4258
235.1857, 263.9014
235.6678, 279.5771
236.1499, 286.3491
236.6320, 282.0649
237.1142, 269.8330
237.5963, 255.6577
238.0784, 243.4165
238.5605, 223.7905
239.0426, 193.6318
239.5247, 153.5884
240.0069, 101.2856
240.4890, 33.17920
240.9711, 46.07471
241.4532, 127.6030
241.9353, 217.6538
242.4174, 300.8584
242.8996, 369.1577
243.3817, 416.5991
243.8638, 460.9453
244.3459, 501.2134
244.8280, 538.8911
245.3101, 579.5591
245.7922, 629.1519
246.2744, 674.5376
246.7565, 708.7925
247.2386, 732.0684
247.7207, 744.4927
248.2028, 745.6797
248.6849, 736.0049
249.1671, 716.6240
249.6492, 682.2827
250.1313, 645.2583
250.6134, 614.1685
251.0955, 592.2803
251.5776, 568.9790
252.0598, 540.4116
252.5419, 507.8623
253.0240, 486.9165
253.5061, 479.9087
253.9882, 481.6279
254.4703, 489.2085
254.9525, 506.2505
255.4346, 520.9463
255.9167, 529.7480
256.3988, 533.0625
256.8809, 542.3608
257.3630, 553.9131
257.8452, 575.9233
258.3273, 616.3896
258.8094, 679.5767
259.2915, 751.8555
259.7736, 831.5767
260.2557, 919.5864
260.7379, 1006.878
261.2200, 1092.713
261.7021, 1178.409
262.1842, 1267.732
262.6663, 1362.812
263.1484, 1454.391
263.6306, 1543.310
264.1127, 1631.381
264.5948, 1694.127
265.0769, 1732.672
265.5590, 1745.652
266.0411, 1730.449
266.5233, 1682.874
267.0054, 1619.683
267.4875, 1543.120
267.9696, 1453.326
268.4517, 1354.610
268.9338, 1240.383
269.4160, 1127.212
269.8981, 1035.299
270.3802, 968.6489
270.8623, 910.5132
271.3444, 855.6265
271.8265, 804.1162
272.3087, 756.4429
272.7908, 712.1973
273.2729, 672.3550
273.7550, 639.1499
274.2371, 612.4492
274.7192, 592.5303
275.2014, 580.5684
275.6835, 576.8862
276.1656, 574.6587
276.6477, 572.4189
277.1298, 574.4478
277.6119, 589.3975
278.0940, 619.0308
278.5761, 649.3857
279.0583, 667.5698
279.5404, 672.8071
280.0225, 713.4272
280.5046, 798.4790
280.9867, 901.7095
281.4688, 975.6885
281.9510, 1018.265
282.4331, 1065.756
282.9152, 1128.490
283.3973, 1207.268
283.8794, 1321.416
284.3615, 1478.618
284.8437, 1654.894
285.3258, 1811.543
285.8079, 1946.982
286.2900, 2084.093
286.7721, 2234.959
287.2542, 2397.565
287.7364, 2553.793
288.2185, 2701.308
288.7006, 2846.716
289.1827, 3003.271
289.6648, 3168.364
290.1469, 3325.311
290.6291, 3469.767
291.1112, 3599.843
291.5933, 3708.271
292.0754, 3793.316
292.5575, 3861.107
293.0396, 3922.047
293.5218, 3977.405
294.0039, 4022.140
294.4860, 4057.987
294.9681, 4083.524
295.4502, 4093.638
295.9323, 4086.862
296.4145, 4066.634
296.8966, 4040.602
297.3787, 4006.845
297.8608, 3954.488
298.3429, 3867.011
298.8250, 3759.693
299.3072, 3663.638
299.7893, 3585.030
300.2714, 3499.041
300.7535, 3375.869
301.2356, 3221.592
301.7177, 3058.133
302.1999, 2888.164
302.6820, 2718.513
303.1641, 2555.727
303.6462, 2402.746
304.1283, 2253.874
304.6104, 2102.206
305.0926, 1951.571
305.5747, 1811.914
306.0568, 1703.220
306.5389, 1602.850
307.0210, 1479.910
307.5031, 1322.130
307.9853, 1170.677
308.4674, 1058.771
308.9495, 979.1719
309.4316, 914.6323
309.9137, 859.5898
310.3958, 814.6704
310.8780, 780.4019
311.3601, 757.5498
311.8422, 737.7661
312.3243, 719.2827
312.8064, 701.3008
313.2885, 681.7705
313.7707, 653.4702
314.2528, 626.8086
314.7349, 609.7998
315.2170, 605.8530
315.6991, 599.7388
316.1812, 576.7358
316.6634, 549.1392
317.1455, 536.3389
317.6276, 558.2065
318.1097, 585.4360
318.5918, 602.2456
319.0739, 601.3447
319.5561, 612.6323
320.0382, 652.4814
320.5203, 707.5562
321.0024, 759.4116
321.4845, 781.0396
321.9666, 818.3154
322.4487, 891.4858
322.9308, 1011.086
323.4130, 1128.192
323.8951, 1233.662
324.3772, 1333.880
324.8593, 1437.248
325.3414, 1536.470
325.8235, 1645.497
326.3057, 1773.179
326.7878, 1927.434
327.2699, 2067.823
327.7520, 2185.830
328.2341, 2293.801
328.7162, 2403.764
329.1984, 2527.884
329.6805, 2640.917
330.1626, 2734.833
330.6447, 2806.379
331.1268, 2881.114
331.6089, 2959.294
332.0911, 3041.782
332.5732, 3132.375
333.0553, 3243.478
333.5374, 3337.181
334.0195, 3401.399
334.5016, 3435.167
334.9838, 3481.229
335.4659, 3546.764
335.9480, 3615.418
336.4301, 3674.614
336.9122, 3726.980
337.3943, 3762.220
337.8765, 3774.762
338.3586, 3767.435
338.8407, 3763.242
339.3228, 3763.913
339.8049, 3763.437
340.2870, 3758.114
340.7692, 3748.377
341.2513, 3727.004
341.7334, 3689.047
342.2155, 3639.425
342.6976, 3598.069
343.1797, 3565.660
343.6619, 3535.847
344.1440, 3513.032
344.6261, 3493.784
345.1082, 3444.845
345.5903, 3350.734
346.0724, 3231.675
346.5546, 3130.394
347.0367, 3045.586
347.5188, 2956.963
348.0009, 2845.469
348.4830, 2717.200
348.9651, 2593.477
349.4473, 2481.985
349.9294, 2372.403
350.4115, 2250.963
350.8936, 2119.762
351.3757, 1990.711
351.8578, 1874.356
352.3400, 1763.212
352.8221, 1640.834
353.3042, 1498.866
353.7863, 1363.299
354.2684, 1262.866
354.7505, 1188.758
355.2327, 1119.154
355.7148, 1047.020
356.1969, 971.0010
356.6790, 888.5107
357.1611, 796.8667
357.6432, 706.0718
358.1254, 614.2373
358.6075, 527.2056
359.0896, 455.7246
359.5717, 423.5010
360.0538, 393.7822
360.5359, 341.8281
361.0181, 258.0620
361.5002, 183.6133
361.9823, 140.1201
362.4644, 111.3540
362.9465, 75.83252
363.4286, 2.765137
363.9108, 54.63525
364.3929, 68.95898
364.8750, 30.12891
365.3571, 9.950195
365.8392, 30.62305
366.3214, 70.30811
366.8035, 107.0771
367.2856, 153.9224
367.7677, 182.6875
368.2498, 181.2598
368.7319, 147.7637
369.2140, 129.3804
369.6961, 138.5586
370.1783, 153.1094
370.6604, 156.0449
371.1425, 144.2603
371.6246, 126.4043
372.1067, 101.4985
372.5888, 70.49219
373.0710, 41.81543
373.5531, 15.28613
374.0352, 8.944824
374.5173, 30.08008
374.9994, 47.61816
375.4815, 65.47168
375.9637, 83.32080
376.4458, 102.4277
376.9279, 129.0850
377.4100, 166.8569
377.8921, 196.9175
378.3742, 207.4121
378.8564, 198.7231
379.3385, 183.8301
379.8206, 162.7251
380.3027, 137.2207
380.7848, 106.6055
381.2669, 71.25293
381.7491, 41.35205
382.2312, 24.37744
382.7133, 16.48145
383.1954, 4.247070
383.6775, 14.52441
384.1596, 29.52295
384.6418, 20.78174
385.1239, 3.224609
385.6060, 16.89062
386.0881, 4.610352
386.5702, 36.40576
387.0523, 49.70801
387.5345, 43.28857
388.0166, 24.43652
388.4987, 16.61230
388.9808, 63.73682
389.4629, 92.66211
389.9450, 70.21191
390.4272, 46.58691
390.9093, 60.46143
391.3914, 108.1792
391.8735, 147.0176
392.3556, 150.2764
392.8377, 139.3364
393.3199, 132.0796
393.8020, 132.6245
394.2841, 137.6665
394.7662, 147.5054
395.2483, 161.5630
395.7304, 177.1890
396.2126, 205.0972
396.6947, 226.4219
397.1768, 230.5957
397.6589, 195.7285
398.1410, 175.4653
398.6231, 176.8340
399.1053, 193.7563
399.5874, 213.7803
400.0695, 250.2114
400.5516, 273.5415
401.0337, 268.7812
401.5158, 222.9746
401.9980, 198.6860
402.4801, 204.2305
402.9622, 223.5410
403.4443, 233.2324
403.9264, 229.7061
404.4085, 227.6191
404.8907, 234.4980
405.3728, 249.3628
405.8549, 242.4395
406.3370, 205.0298
406.8191, 173.3706
407.3012, 194.1362
407.7834, 266.7280
408.2655, 328.0801
408.7476, 359.2075
409.2297, 372.0679
409.7118, 397.3262
410.1939, 434.8652
410.6761, 475.1465
411.1582, 505.8882
411.6403, 533.5229
412.1224, 575.5005
412.6045, 637.4609
413.0866, 710.5781
413.5687, 789.3687
414.0508, 872.9019
414.5330, 956.2500
415.0151, 1033.360
415.4972, 1110.931
415.9793, 1198.383
416.4614, 1298.061
416.9435, 1398.991
417.4257, 1495.068
417.9078, 1586.428
418.3899, 1674.573
418.8720, 1751.144
419.3541, 1831.127
419.8362, 1922.347
420.3184, 2025.688
420.8005, 2131.585
421.2826, 2250.512
421.7647, 2361.702
422.2468, 2447.224
422.7289, 2476.285
423.2111, 2514.882
423.6932, 2578.106
424.1753, 2663.277
424.6574, 2738.982
425.1395, 2808.306
425.6216, 2865.229
426.1038, 2901.926
426.5859, 2888.564
427.0680, 2923.683
427.5501, 3022.906
428.0322, 3166.969
428.5143, 3311.002
428.9965, 3461.564
429.4786, 3600.233
429.9607, 3714.002
430.4428, 3800.448
430.9249, 3898.963
431.4070, 4006.210
431.8892, 4131.478
432.3713, 4299.387
432.8534, 4507.992
433.3355, 4698.536
433.8176, 4836.357
434.2997, 4945.776
434.7819, 5091.772
435.2640, 5274.934
435.7461, 5469.991
436.2282, 5659.984
436.7103, 5846.374
437.1924, 6028.985
437.6746, 6208.981
438.1567, 6386.450
438.6388, 6566.721
439.1209, 6746.417
439.6030, 6911.631
440.0851, 7048.766
440.5673, 7171.723
441.0494, 7292.287
441.5315, 7417.787
442.0136, 7526.908
442.4957, 7617.737
442.9778, 7686.097
443.4600, 7724.075
443.9421, 7723.705
444.4242, 7696.021
444.9063, 7644.787
445.3884, 7571.409
445.8705, 7474.193
446.3527, 7362.062
446.8348, 7221.318
447.3169, 7039.637
447.7990, 6800.220
448.2811, 6544.743
448.7632, 6268.138
449.2454, 5976.455
449.7275, 5707.192
450.2096, 5472.728
450.6917, 5231.584
451.1738, 4955.062
451.6559, 4635.744
452.1381, 4324.872
452.6202, 4023.261
453.1023, 3739.725
453.5844, 3496.786
454.0665, 3293.053
454.5486, 3101.652
455.0308, 2919.354
455.5129, 2740.335
455.9950, 2544.668
456.4771, 2325.630
456.9592, 2119.442
457.4413, 1956.932
457.9234, 1830.850
458.4055, 1720.953
458.8877, 1629.629
459.3698, 1545.164
459.8519, 1446.433
460.3340, 1338.808
460.8161, 1252.805
461.2982, 1219.441
461.7804, 1207.975
462.2625, 1191.781
462.7446, 1159.136
463.2267, 1133.693
463.7088, 1127.083
464.1909, 1133.468
464.6731, 1141.345
465.1552, 1147.214
465.6373, 1154.328
466.1194, 1157.607
466.6015, 1148.259
467.0836, 1174.524
467.5658, 1261.591
468.0479, 1366.989
468.5300, 1448.830
469.0121, 1496.708
469.4942, 1542.118
469.9763, 1586.415
470.4585, 1631.935
470.9406, 1692.800
471.4227, 1770.436
471.9048, 1859.707
472.3869, 1964.464
472.8690, 2082.510
473.3512, 2183.204
473.8333, 2258.505
474.3154, 2326.426
474.7975, 2417.580
475.2796, 2528.524
475.7617, 2637.040
476.2439, 2725.370
476.7260, 2807.275
477.2081, 2907.585
477.6902, 3027.000
478.1723, 3153.263
478.6544, 3279.499
479.1366, 3404.510
479.6187, 3526.070
480.1008, 3642.511
480.5829, 3756.436
481.0650, 3874.375
481.5471, 3992.792
482.0293, 4099.238
482.5114, 4185.746
482.9935, 4260.379
483.4756, 4327.772
483.9577, 4392.078
484.4398, 4441.797
484.9220, 4472.782
485.4041, 4489.895
485.8862, 4498.515
486.3683, 4497.694
486.8504, 4490.323
487.3326, 4479.884
487.8147, 4465.808
488.2968, 4429.465
488.7789, 4365.480
489.2610, 4291.982
489.7431, 4224.832
490.2253, 4163.930
490.7074, 4100.298
491.1895, 4036.784
491.6716, 3962.170
492.1537, 3849.334
492.6358, 3700.997
493.1180, 3549.087
493.6001, 3407.694
494.0822, 3274.098
494.5643, 3141.204
495.0464, 3010.236
495.5285, 2875.207
496.0107, 2726.308
496.4928, 2572.919
496.9749, 2429.821
497.4570, 2310.983
497.9391, 2193.335
498.4212, 2054.743
498.9034, 1902.654
499.3855, 1768.188
499.8676, 1674.446
500.3497, 1590.839
500.8318, 1500.391
501.3139, 1399.639
501.7961, 1293.208
502.2781, 1164.281
502.7603, 1035.598
503.2424, 942.2888
503.7245, 908.3289
504.2066, 869.7664
504.6887, 809.8406
505.1708, 730.2649
505.6530, 654.6516
506.1351, 581.7263
506.6172, 516.2136
507.0993, 462.3889
507.5814, 420.5261
508.0635, 381.1370
508.5457, 344.0154
509.0278, 308.1768
509.5099, 272.0852
509.9920, 236.2395
510.4741, 201.7656
510.9562, 171.9417
511.4384, 143.1145
511.9205, 107.2654
512.4026, 63.94800
512.8847, 27.70386
513.3668, 13.13477
513.8489, 9.737549
514.3311, 5.706543
514.8132, 1.179688
515.2953, 10.73730
515.7774, 26.49829
516.2595, 45.43091
516.7416, 58.36499
517.2238, 57.58374
517.7059, 55.71265
518.1880, 58.09863
518.6701, 66.70435
519.1522, 72.96655
519.6343, 76.40625
520.1165, 77.92676
520.5986, 78.16626
521.0807, 76.49243
521.5628, 76.00000
522.0449, 78.51953
522.5270, 82.24658
523.0092, 78.46509
523.4913, 66.23999
523.9734, 55.47681
524.4555, 55.26880
524.9376, 62.19824
525.4197, 61.92822
525.9019, 52.45044
526.3840, 40.95166
526.8661, 37.01367
527.3482, 37.11938
527.8303, 32.97998
528.3124, 14.42676
528.7946, 3.880127
529.2767, 8.058838
529.7588, 0.5815430
530.2409, 3.637695
530.7230, 0.9772950
531.2051, 11.70923
531.6873, 27.10913
532.1694, 48.19653
532.6515, 71.21631
533.1336, 102.9128
533.6157, 133.9398
534.0978, 150.3590
534.5800, 143.8754
535.0621, 135.0161
535.5442, 124.7140
536.0263, 114.1740
536.5084, 118.8885
536.9905, 143.1434
537.4727, 170.6848
537.9548, 191.3032
538.4369, 205.1514
538.9190, 211.3701
539.4011, 206.8673
539.8832, 203.2268
540.3654, 224.1616
540.8475, 262.4675
541.3296, 289.9069
541.8117, 283.2054
542.2938, 265.3813
542.7759, 261.4500
543.2581, 271.0582
543.7402, 288.5510
544.2223, 317.6067
544.7044, 349.1660
545.1865, 375.3894
545.6686, 392.4525
546.1508, 408.5018
546.6329, 424.3662
547.1150, 440.8948
547.5971, 459.4912
548.0792, 477.8444
548.5613, 501.2876
549.0435, 532.6549
549.5256, 571.7205
550.0077, 607.7627
550.4898, 640.2959
550.9719, 670.8258
551.4540, 699.6150
551.9362, 726.6250
552.4183, 754.0781
552.9004, 781.5454
553.3825, 811.0094
553.8646, 845.8035
554.3467, 885.5607
554.8289, 928.1864
555.3110, 976.1449
555.7931, 1024.555
556.2752, 1064.365
556.7573, 1096.546
557.2394, 1128.650
557.7216, 1165.065
558.2037, 1203.940
558.6858, 1243.070
559.1679, 1278.498
559.6500, 1320.562
560.1321, 1373.959
560.6143, 1435.871
561.0964, 1501.071
561.5785, 1585.221
562.0606, 1654.572
562.5427, 1697.045
563.0248, 1714.385
563.5070, 1743.470
563.9891, 1790.959
564.4712, 1837.967
564.9533, 1873.948
565.4354, 1898.777
565.9175, 1914.376
566.3997, 1920.325
566.8818, 1918.747
567.3639, 1907.897
567.8460, 1890.509
568.3281, 1880.222
568.8102, 1888.519
569.2924, 1901.925
569.7744, 1902.489
570.2565, 1890.857
570.7386, 1874.133
571.2208, 1857.693
571.7029, 1838.236
572.1850, 1811.180
572.6671, 1771.909
573.1492, 1737.259
573.6313, 1714.811
574.1135, 1698.309
574.5956, 1681.463
575.0777, 1666.181
575.5598, 1648.831
576.0419, 1625.842
576.5240, 1599.481
577.0062, 1583.835
577.4883, 1584.407
577.9704, 1582.926
578.4525, 1567.187
578.9346, 1537.651
579.4167, 1516.420
579.8989, 1503.967
580.3810, 1497.038
580.8631, 1495.508
581.3452, 1498.116
581.8273, 1498.398
582.3094, 1490.940
582.7916, 1483.836
583.2737, 1488.657
583.7558, 1502.390
584.2379, 1514.591
584.7200, 1520.645
585.2021, 1522.182
585.6843, 1520.076
586.1664, 1515.078
586.6485, 1509.141
587.1306, 1501.382
587.6127, 1491.318
588.0948, 1479.234
588.5770, 1464.667
589.0591, 1450.693
589.5412, 1436.991
590.0233, 1424.294
590.5054, 1414.869
590.9875, 1409.411
591.4697, 1403.228
591.9518, 1395.601
592.4339, 1385.168
592.9160, 1367.074
593.3981, 1341.210
593.8802, 1313.316
594.3624, 1289.351
594.8445, 1266.331
595.3266, 1237.197
595.8087, 1198.658
596.2908, 1161.574
596.7729, 1133.289
597.2551, 1111.000
597.7372, 1090.462
598.2193, 1075.405
598.7014, 1058.820
599.1835, 1035.508
599.6656, 1006.548
600.1478, 980.7034
600.6299, 959.5647
601.1120, 940.9419
601.5941, 925.3230
602.0762, 914.5808
602.5583, 896.0078
603.0405, 867.5186
603.5226, 837.0500
604.0047, 811.4672
604.4868, 791.2766
604.9689, 779.0850
605.4510, 778.7212
605.9332, 780.1504
606.4153, 767.1555
606.8974, 743.4504
607.3795, 720.6160
607.8616, 707.8669
608.3438, 697.3514
608.8259, 682.1864
609.3080, 662.2012
609.7901, 645.9735
610.2722, 640.4796
610.7543, 636.9995
611.2365, 630.1409
611.7186, 619.1980
612.2007, 603.9377
612.6828, 578.9688
613.1649, 553.2175
613.6470, 542.3888
614.1292, 551.4265
614.6113, 556.5410
615.0934, 551.8209
615.5755, 538.4598
616.0576, 519.6033
616.5397, 495.3496
617.0219, 472.6748
617.5040, 454.8359
617.9861, 441.4305
618.4682, 434.0197
618.9503, 433.8029
619.4324, 431.7698
619.9146, 416.2043
620.3967, 397.7352
620.8788, 388.2979
621.3609, 402.5171
621.8430, 409.8804
622.3251, 397.6364
622.8073, 373.5931
623.2894, 355.2582
623.7715, 347.3906
624.2536, 339.4292
624.7357, 328.0099
625.2178, 313.3228
625.7000, 301.6008
626.1821, 292.7537
626.6642, 287.7822
627.1463, 289.9396
627.6284, 297.4310
628.1105, 300.0526
628.5927, 296.8026
629.0748, 290.5726
629.5569, 284.0432
630.0390, 276.9249
630.5211, 268.7310
631.0032, 258.4683
631.4854, 248.1603
631.9675, 238.9034
632.4496, 230.2148
632.9317, 221.4463
633.4138, 213.9514
633.8959, 205.0776
634.3781, 191.8353
634.8602, 173.8787
635.3423, 164.8909
635.8244, 169.5760
636.3065, 175.7828
636.7886, 175.4106
637.2708, 168.2217
637.7529, 157.5094
638.2350, 141.8292
638.7171, 128.0250
639.1992, 129.0248
639.6813, 139.9286
640.1635, 143.2438
640.6456, 128.7430
641.1277, 110.2656
641.6098, 102.0360
642.0919, 100.9944
642.5740, 98.38586
643.0562, 88.28210
643.5383, 77.46082
644.0204, 68.07922
644.5025, 60.07886
644.9846, 56.87646
645.4667, 63.90320
645.9489, 70.20190
646.4310, 68.19092
646.9131, 54.36572
647.3952, 45.41748
647.8773, 43.29016
648.3594, 43.15967
648.8416, 36.22327
649.3237, 23.77283
649.8058, 18.38306
650.2879, 27.87537
650.7700, 40.48035
651.2521, 37.75317
651.7343, 23.68567
652.2164, 11.71765
652.6985, 9.557007
653.1806, 11.24219
653.6627, 16.13770
654.1448, 24.37073
654.6270, 23.60620
655.1091, 3.258789
655.5912, 28.96362
656.0733, 37.12073
656.5554, 19.23645
657.0375, 4.563232
657.5197, 7.236694
658.0018, 15.33655
658.4839, 18.84998
658.9660, 17.77222
659.4481, 10.50952
659.9302, 6.745728
660.4123, 25.10388
660.8944, 26.37976
661.3765, 14.91772
661.8586, 6.858154
662.3408, 16.36877
662.8229, 28.36279
663.3050, 30.80554
663.7871, 23.70837
664.2692, 14.61523
664.7513, 0.2667240
665.2335, 11.67017
665.7156, 12.39453
666.1977, 3.107788
666.6798, 11.98120
667.1619, 11.52930
667.6440, 7.675171
668.1262, 6.975952
668.6083, 9.813110
669.0904, 10.72766
669.5725, 8.140747
670.0546, 4.547241
670.5367, 3.057983
671.0189, 3.927856
671.5010, 8.121216
671.9831, 21.99951
672.4652, 34.90955
672.9473, 35.27185
673.4294, 25.29956
673.9116, 17.10156
674.3937, 19.50562
674.8758, 21.64453
675.3579, 16.41223
675.8400, 0.3814700
676.3221, 8.520752
676.8043, 6.895386
677.2864, 2.168579
677.7685, 0.2298580
678.2506, 0.2513430
678.7327, 2.356201
679.2148, 8.885620
679.6970, 14.76245
680.1791, 11.84302
680.6612, 2.367554
681.1433, 5.692627
681.6254, 10.94739
682.1075, 12.12549
682.5897, 4.968994
683.0718, 7.502441
683.5539, 16.95850
684.0360, 20.08240
684.5181, 19.38867
685.0002, 13.41809
685.4824, 1.703857
685.9645, 2.366699
686.4466, 6.828613
686.9287, 16.09802
687.4108, 17.58923
687.8929, 10.29724
688.3751, 3.561890
688.8572, 3.079346
689.3393, 7.027344
689.8214, 4.783691
690.3035, 2.604370
690.7856, 13.15063
691.2678, 28.91577
691.7499, 41.57874
692.2320, 42.40149
692.7141, 35.39673
693.1962, 27.45703
693.6783, 17.05823
694.1605, 10.28979
694.6426, 10.91565
695.1247, 17.45154
695.6068, 22.09570
696.0889, 24.41174
696.5710, 25.37720
697.0532, 24.47693
697.5353, 22.08423
698.0174, 24.34363
698.4995, 31.74622
698.9816, 39.20789
699.4637, 43.48547
699.9459, 44.95483
700.4280, 42.97913
700.9101, 36.72913
701.3922, 33.03528
701.8743, 42.49768
702.3564, 54.89294
702.8386, 58.80310
703.3207, 41.92200
703.8028, 29.81201
704.2849, 30.49963
704.7670, 37.48132
705.2491, 40.73840
705.7313, 38.27148
706.2134, 36.88245
706.6955, 37.65332
707.1776, 40.60120
707.6597, 47.19250
708.1418, 57.36267
708.6240, 65.97168
709.1061, 68.60535
709.5882, 68.63696
710.0703, 73.36255
710.5524, 81.93860
711.0345, 85.04956
711.5167, 69.43921
711.9988, 52.12512
712.4809, 44.68994
712.9630, 50.00696
713.4451, 58.29639
713.9272, 75.61938
714.4094, 92.45068
714.8915, 99.65649
715.3736, 94.82202
715.8557, 87.41602
716.3378, 76.59680
716.8199, 66.83252
717.3021, 66.02612
717.7842, 72.06348
718.2663, 75.74866
718.7484, 73.33826
719.2305, 72.02917
719.7126, 78.48474
720.1948, 90.04028
720.6769, 101.9222
721.1590, 120.3051
721.6411, 132.3292
722.1232, 129.3219
722.6053, 112.9490
723.0875, 102.1292
723.5696, 97.28528
724.0517, 96.85083
724.5338, 101.0337
725.0159, 109.9301
725.4980, 119.8474
725.9802, 130.9447
726.4623, 138.2499
726.9444, 133.3481
727.4265, 123.1372
727.9086, 121.2089
728.3907, 130.2422
728.8729, 140.8274
729.3550, 146.6832
729.8371, 150.3973
730.3192, 154.9896
730.8013, 170.7313
731.2834, 175.6735
731.7656, 160.9351
732.2477, 138.7230
732.7298, 128.4153
733.2119, 132.8090
733.6940, 138.9711
734.1761, 143.0083
734.6583, 147.1128
735.1404, 158.4978
735.6225, 175.3999
736.1046, 188.4773
736.5867, 192.1726
737.0688, 190.5073
737.5510, 183.7366
738.0331, 173.6136
738.5152, 169.2169
738.9973, 180.4224
739.4794, 192.0773
739.9615, 195.8804
740.4437, 191.1832
740.9258, 193.1698
741.4079, 204.7517
741.8900, 216.6791
742.3721, 222.9666
742.8542, 223.7800
743.3364, 221.1158
743.8185, 214.3389
744.3006, 209.7482
744.7827, 217.4154
745.2648, 229.9080
745.7469, 234.5780
746.2291, 224.6199
746.7112, 217.5295
747.1933, 225.6906
747.6754, 240.1473
748.1575, 249.2743
748.6396, 247.3032
749.1217, 246.0503
749.6038, 246.5375
750.0859, 248.0345
750.5681, 248.4280
751.0502, 247.4060
751.5323, 250.0400
752.0144, 260.6925
752.4965, 272.9388
752.9786, 271.6764
753.4608, 260.7145
753.9429, 254.4357
754.4250, 267.7035
754.9071, 282.0797
755.3892, 285.4803
755.8713, 278.2174
756.3535, 269.2570
756.8356, 256.8593
757.3177, 246.4467
757.7998, 239.3829
758.2819, 235.5076
758.7640, 240.9701
759.2462, 258.4111
759.7283, 273.1801
760.2104, 269.1899
760.6925, 253.5736
761.1746, 246.9169
761.6567, 251.5316
762.1389, 257.3859
762.6210, 255.8337
763.1031, 252.0682
763.5852, 252.1263
764.0673, 261.5697
764.5494, 265.6493
765.0316, 255.2556
765.5137, 242.1337
765.9958, 239.2278
766.4779, 250.6995
766.9600, 256.7925
767.4421, 254.7513
767.9243, 247.3044
768.4064, 235.7323
768.8885, 221.6881
769.3706, 212.4402
769.8527, 210.1033
770.3348, 214.1329
770.8170, 231.9717
771.2991, 255.7599
771.7812, 266.9486
772.2633, 245.9968
772.7454, 226.7401
773.2275, 218.4431
773.7097, 219.6110
774.1918, 225.9170
774.6739, 240.2772
775.1560, 249.7444
775.6381, 247.5626
776.1202, 236.9153
776.6024, 227.7740
777.0845, 219.8030
777.5666, 212.5469
778.0487, 206.9315
778.5308, 201.8831
779.0129, 194.1659
779.4951, 182.5665
779.9772, 175.5176
780.4593, 179.8553
780.9414, 187.0503
781.4235, 193.0531
781.9056, 198.5009
782.3878, 198.2822
782.8699, 189.8542
783.3520, 182.1193
783.8341, 186.2223
784.3162, 198.5441
784.7983, 201.4160
785.2805, 192.3391
785.7626, 179.9197
786.2447, 167.5548
786.7268, 158.1383
787.2089, 155.3168
787.6910, 163.5571
788.1732, 171.6388
788.6553, 178.2388
789.1374, 182.0703
789.6195, 180.5365
790.1016, 169.2927
790.5837, 168.4851
791.0659, 184.6534
791.5480, 204.5789
792.0301, 203.1783
792.5122, 184.9972
792.9943, 170.9370
793.4764, 170.1979
793.9586, 172.2550
794.4407, 166.4490
794.9228, 156.6808
795.4049, 150.8778
795.8870, 156.1807
796.3691, 160.2665
796.8513, 159.2625
797.3334, 155.2205
797.8155, 154.9760
798.2976, 160.3517
798.7797, 160.6946
799.2618, 149.2336
799.7440, 132.3730
800.2261, 128.1346
800.7082, 134.4707
801.1903, 140.0328
801.6724, 136.7922
802.1545, 131.5614
802.6367, 130.7834
803.1188, 133.7682
803.6009, 132.2458
804.0830, 117.2080
804.5651, 104.8691
805.0472, 101.1499
805.5294, 105.9153
806.0115, 111.3499
806.4936, 117.8777
806.9757, 122.6571
807.4578, 123.3313
807.9399, 120.9446
808.4221, 117.1686
808.9042, 112.1287
809.3863, 107.8046
809.8684, 106.2079
810.3505, 105.2035
810.8326, 102.6097
811.3148, 96.95264
811.7969, 95.46667
812.2790, 101.6759
812.7611, 107.9581
813.2432, 109.4519
813.7253, 106.1006
814.2075, 97.49329
814.6896, 82.61816
815.1717, 69.09912
815.6538, 67.24988
816.1359, 71.12817
816.6180, 70.59314
817.1002, 62.63818
817.5823, 55.41443
818.0644, 51.87476
818.5465, 51.28491
819.0286, 53.47864
819.5107, 62.57690
819.9929, 65.38867
820.4750, 59.81653
820.9571, 50.97656
821.4392, 44.50134
821.9213, 40.22266
822.4034, 37.08459
822.8856, 34.75134
823.3677, 34.11133
823.8498, 40.44495
824.3319, 47.76013
824.8140, 46.52441
825.2961, 24.00281
825.7783, 7.092041
826.2604, 4.372681
826.7425, 9.429443
827.2246, 15.16150
827.7067, 22.47192
828.1888, 27.50037
828.6710, 29.38281
829.1531, 28.24622
829.6352, 22.53003
830.1173, 13.85901
830.5994, 7.112427
831.0815, 3.191772
831.5637, 3.404785
832.0458, 13.41528
832.5279, 26.98816
833.0100, 32.51550
833.4921, 17.31104
833.9742, 7.714966
834.4564, 9.855591
834.9385, 17.78589
835.4206, 14.67090
835.9027, 5.7128999E-02
836.3848, 5.467773
836.8669, 9.477295
837.3491, 31.09717
837.8312, 39.30103
838.3133, 37.55310
838.7953, 35.05566
839.2775, 34.25281
839.7596, 35.12842
840.2417, 37.98926
840.7238, 42.69653
841.2059, 48.63599
841.6880, 56.51794
842.1702, 63.27319
842.6523, 67.71899
843.1344, 70.50635
843.6165, 73.83252
844.0986, 77.64209
844.5807, 79.99011
845.0629, 72.57275
845.5450, 67.74768
846.0271, 78.98315
846.5092, 102.4741
846.9913, 123.0320
847.4734, 139.0927
847.9556, 148.6432
848.4377, 148.6558
848.9198, 141.5146
849.4019, 138.3242
849.8840, 139.6382
850.3661, 142.6364
850.8483, 145.1135
851.3304, 148.9073
851.8125, 160.8820
852.2946, 178.1101
852.7767, 188.9155
853.2589, 184.3795
853.7410, 174.7080
854.2231, 159.5421
854.7052, 141.4761
855.1873, 140.0098
855.6694, 162.8622
856.1516, 184.3669
856.6337, 193.9462
857.1158, 194.3893
857.5979, 197.0117
858.0800, 202.0416
858.5621, 206.8356
859.0443, 208.2610
859.5264, 208.6313
860.0085, 210.7148
860.4906, 214.5776
860.9727, 217.5404
861.4548, 215.8553
861.9370, 215.7047
862.4191, 218.9957
862.9012, 225.7712
863.3833, 236.8301
863.8654, 252.5936
864.3475, 263.5990
864.8297, 262.1494
865.3118, 253.6698
865.7939, 244.7452
866.2760, 236.6248
866.7581, 233.2689
867.2402, 237.5984
867.7224, 245.9934
868.2045, 261.2762
868.6866, 281.1859
869.1687, 287.3816
869.6508, 276.2562
870.1329, 263.0741
870.6151, 254.9844
871.0972, 249.6661
871.5793, 239.1344
872.0614, 224.5654
872.5435, 213.1582
873.0256, 211.9142
873.5078, 212.8070
873.9899, 210.7924
874.4720, 206.0240
874.9541, 201.0703
875.4362, 195.6504
875.9183, 191.1101
876.4005, 188.9680
876.8826, 187.8972
877.3647, 180.8499
877.8468, 168.0831
878.3289, 155.2109
878.8110, 144.7107
879.2932, 135.9087
879.7753, 128.4994
880.2574, 122.2914
880.7395, 116.5310
881.2216, 110.7648
881.7037, 105.6840
882.1859, 101.1918
882.6680, 97.43933
883.1501, 96.72058
883.6322, 99.80957
884.1143, 97.66699
884.5964, 81.20654
885.0786, 61.51428
885.5607, 59.45117
886.0428, 70.49963
886.5249, 79.65540
887.0070, 82.88843
887.4891, 79.94873
887.9713, 65.58350
888.4534, 44.46838
888.9355, 33.44373
889.4176, 36.12927
889.8997, 37.62817
890.3818, 32.74524
890.8640, 24.19800
891.3461, 16.66162
891.8282, 10.41455
892.3103, 6.932617
892.7924, 12.39331
893.2745, 15.21033
893.7567, 4.477783
894.2388, 13.95972
894.7209, 22.60266
895.2030, 15.19556
895.6851, 9.836792
896.1672, 10.61157
896.6494, 14.78625
897.1315, 15.43225
897.6136, 13.43311
898.0957, 14.06982
898.5778, 21.74805
899.0599, 29.05347
899.5421, 28.38245
900.0242, 23.10449
900.5063, 19.63708
900.9884, 16.89160
901.4705, 20.51489
901.9526, 36.44995
902.4348, 54.23718
902.9169, 51.35681
903.3990, 29.08655
903.8811, 14.51929
904.3632, 15.75598
904.8453, 23.59851
905.3275, 32.59387
905.8096, 40.27942
906.2917, 42.74915
906.7738, 32.14307
907.2559, 25.99634
907.7380, 29.50720
908.2202, 36.59253
908.7023, 40.23303
909.1844, 40.20154
909.6665, 40.34656
910.1486, 41.47949
910.6307, 41.85181
911.1129, 37.78003
911.5950, 32.13159
912.0771, 29.19690
912.5592, 30.17053
913.0413, 33.38489
913.5234, 42.61951
914.0056, 50.68689
914.4877, 50.04712
914.9698, 36.87256
915.4519, 35.41577
915.9340, 48.95349
916.4161, 62.49524
916.8983, 56.87012
917.3804, 42.10547
917.8625, 37.11609
918.3446, 45.46240
918.8267, 51.68665
919.3088, 44.30798
919.7910, 35.79431
920.2731, 35.42627
920.7552, 45.33630
921.2373, 49.81995
921.7194, 49.07886
922.2015, 42.16187
922.6837, 21.98706
923.1658, 3.111450
923.6479, 12.59351
924.1300, 6.589111
924.6121, 2.735352
925.0942, 15.00342
925.5764, 28.47449
926.0585, 32.71912
926.5406, 28.07043
927.0227, 28.94739
927.5048, 37.62915
927.9869, 43.51221
928.4690, 37.46680
928.9511, 26.26172
929.4332, 29.38538
929.9153, 44.35510
930.3975, 58.85950
930.8796, 65.47693
931.3617, 70.74072
931.8438, 75.10388
932.3259, 80.43713
932.8080, 95.93665
933.2902, 127.0322
933.7723, 151.9668
934.2544, 162.1333
934.7365, 164.2468
935.2186, 173.3613
935.7007, 186.4607
936.1829, 193.5819
936.6650, 176.1571
937.1471, 168.2859
937.6292, 196.3632
938.1113, 243.6785
938.5934, 278.8352
939.0756, 298.6694
939.5577, 309.7793
940.0398, 308.6127
940.5219, 308.0714
941.0040, 331.5796
941.4861, 372.4180
941.9683, 411.6597
942.4504, 446.0066
942.9325, 472.7520
943.4146, 479.5962
943.8967, 484.9285
944.3788, 509.5146
944.8610, 563.5847
945.3431, 612.5410
945.8252, 654.6948
946.3073, 693.3398
946.7894, 732.7571
947.2715, 772.4792
947.7537, 806.9465
948.2358, 834.6089
948.7179, 871.4121
949.2000, 938.3315
949.6821, 1009.334
950.1642, 1060.441
950.6464, 1086.738
951.1285, 1140.685
951.6106, 1229.693
952.0927, 1319.904
952.5748, 1385.210
953.0569, 1438.218
953.5391, 1513.771
954.0212, 1609.655
954.5033, 1711.876
954.9854, 1813.213
955.4675, 1917.462
955.9496, 2026.000
956.4318, 2138.974
956.9139, 2253.465
957.3960, 2368.112
957.8781, 2495.227
958.3602, 2638.615
958.8423, 2798.398
959.3245, 2978.077
959.8066, 3173.568
960.2887, 3376.167
960.7708, 3568.252
961.2529, 3789.656
961.7350, 4066.692
962.2172, 4375.613
962.6993, 4669.255
963.1814, 4927.345
963.6635, 5247.683
964.1456, 5652.565
964.6277, 6108.347
965.1099, 6578.112
965.5920, 7073.590
966.0741, 7629.079
966.5562, 8249.858
967.0383, 8921.395
967.5204, 9666.226
968.0026, 10438.48
968.4847, 11205.01
968.9668, 11938.94
969.4489, 12793.69
969.9310, 13781.58
970.4131, 14850.26
970.8953, 15988.75
971.3774, 17171.82
971.8595, 18397.78
972.3416, 19662.27
972.8237, 20989.01
973.3058, 22407.09
973.7880, 23888.57
974.2701, 25415.70
974.7522, 27002.34
975.2343, 28662.46
975.7164, 30376.83
976.1985, 32120.12
976.6807, 33901.00
977.1628, 35661.29
977.6449, 37350.99
978.1270, 38972.69
978.6091, 40496.23
979.0912, 41981.52
979.5734, 43244.70
980.0555, 44268.87
980.5376, 45047.59
981.0197, 45581.27
981.5018, 45864.82
981.9839, 45894.07
982.4661, 45672.33
982.9482, 45175.79
983.4303, 44323.48
983.9124, 43209.39
984.3945, 41943.55
984.8766, 40538.53
985.3588, 38966.36
985.8409, 37176.73
986.3230, 35306.19
986.8051, 33473.97
987.2872, 31673.78
987.7693, 29893.13
988.2515, 28132.57
988.7336, 26459.18
989.2157, 24895.35
989.6978, 23449.07
990.1799, 22137.13
990.6620, 20953.92
991.1442, 19943.19
991.6263, 19124.60
992.1084, 18399.45
992.5905, 17722.28
993.0726, 17110.19
993.5547, 16630.53
994.0369, 16263.14
994.5190, 15933.78
995.0011, 15587.82
995.4832, 15297.66
995.9653, 15116.70
996.4474, 14999.59
996.9296, 14869.01
997.4117, 14716.90
997.8938, 14594.74
998.3759, 14513.18
998.8580, 14456.28
999.3401, 14404.70
999.8223, 14364.93
1000.304, 14349.27
1000.786, 14368.82
1001.269, 14385.79
1001.751, 14404.43
1002.233, 14403.68
1002.715, 14372.56
1003.197, 14311.47
1003.679, 14204.39
1004.161, 14052.03
1004.643, 13874.92
1005.126, 13690.63
1005.608, 13492.35
1006.090, 13267.74
1006.572, 13020.68
1007.054, 12771.12
1007.536, 12520.49
1008.018, 12272.22
1008.500, 12017.87
1008.982, 11771.53
1009.465, 11556.45
1009.947, 11371.90
1010.429, 11224.52
1010.911, 11136.77
1011.393, 11054.73
1011.875, 10935.33
1012.357, 10807.93
1012.839, 10719.76
1013.322, 10687.42
1013.804, 10639.50
1014.286, 10569.47
1014.768, 10494.09
1015.250, 10419.67
1015.732, 10356.90
1016.214, 10327.68
1016.696, 10334.16
1017.178, 10357.10
1017.661, 10377.01
1018.143, 10424.62
1018.625, 10518.97
1019.107, 10657.10
1019.589, 10803.26
1020.071, 10958.09
1020.553, 11098.82
1021.035, 11215.94
1021.517, 11311.46
1022.000, 11407.28
1022.482, 11482.67
1022.964, 11483.61
1023.446, 11388.83
1023.928, 11232.72
1024.410, 11023.22
1024.892, 10746.61
1025.374, 10368.53
1025.857, 9904.794
1026.339, 9411.612
1026.821, 8894.339
1027.303, 8364.414
1027.785, 7797.569
1028.267, 7244.712
1028.749, 6754.783
1029.231, 6333.527
1029.714, 5916.057
1030.196, 5495.113
1030.678, 5105.148
1031.160, 4769.723
1031.642, 4481.770
1032.124, 4228.532
1032.606, 4003.478
1033.088, 3784.418
1033.570, 3543.552
1034.052, 3330.052
1034.535, 3157.211
1035.017, 3014.642
1035.499, 2882.383
1035.981, 2758.489
1036.463, 2631.805
1036.945, 2494.694
1037.427, 2365.041
1037.909, 2263.583
1038.392, 2174.119
1038.874, 2072.824
1039.356, 1944.449
1039.838, 1844.172
1040.320, 1781.656
1040.802, 1723.732
1041.284, 1640.909
1041.766, 1544.618
1042.249, 1464.301
1042.731, 1399.191
1043.213, 1335.781
1043.695, 1262.681
1044.177, 1194.693
1044.659, 1143.294
1045.141, 1099.861
1045.623, 1034.734
1046.105, 948.1356
1046.588, 873.9916
1047.070, 827.2170
1047.552, 786.7134
1048.034, 728.6548
1048.516, 663.2366
1048.998, 603.1753
1049.480, 552.8035
1049.962, 506.6074
1050.444, 465.7246
1050.927, 425.6946
1051.409, 381.0891
1051.891, 334.3147
1052.373, 293.1414
1052.855, 257.3492
1053.337, 227.3439
1053.819, 204.3575
1054.301, 185.5615
1054.784, 170.6659
1055.266, 158.6981
1055.748, 150.0349
1056.230, 146.2063
1056.712, 125.4272
1057.194, 73.27954
1057.676, 19.19580
1058.158, 0.8710940
1058.641, 1.154053
1059.123, 2.299927
1059.605, 10.28918
1060.087, 16.75146
1060.569, 20.64819
1061.051, 24.18225
1061.533, 29.17798
1062.015, 35.38025
1062.497, 42.04077
1062.979, 49.03137
1063.462, 55.34607
1063.944, 60.43408
1064.426, 64.44751
1064.908, 67.60034
1065.390, 69.78040
1065.872, 70.04834
1066.354, 68.07581
1066.836, 68.07422
1067.318, 71.63123
1067.801, 76.67407
1068.283, 82.51868
1068.765, 87.26306
1069.247, 87.95642
1069.729, 81.77502
1070.211, 75.61194
1070.693, 68.97058
1071.175, 63.91333
1071.658, 61.83093
1072.140, 62.67859
1072.622, 68.46680
1073.104, 78.29443
1073.586, 83.99329
1074.068, 81.35120
1074.550, 73.40027
1075.032, 56.88684
1075.515, 37.38635
1075.997, 29.17310
1076.479, 32.76917
1076.961, 37.08716
1077.443, 40.61865
1077.925, 40.70068
1078.407, 33.14868
1078.889, 21.20398
1079.371, 7.739014
1079.854, 10.32410
1080.336, 17.22876
1080.818, 8.188721
1081.300, 0.5122070
1081.782, 3.685913
1082.264, 15.98987
1082.746, 22.44336
1083.228, 24.88391
1083.710, 32.01221
1084.193, 52.20374
1084.675, 72.66333
1085.157, 91.71655
1085.639, 107.1863
1086.121, 112.9303
1086.603, 109.4423
1087.085, 107.7476
1087.567, 109.6318
1088.050, 114.2911
1088.532, 122.6244
1089.014, 132.3009
1089.496, 141.2288
1089.978, 149.2045
1090.460, 157.7877
1090.942, 167.5344
1091.424, 175.9453
1091.906, 179.5776
1092.389, 182.0632
1092.871, 190.5399
1093.353, 204.0109
1093.835, 219.2117
1094.317, 237.5719
1094.799, 253.9104
1095.281, 265.8872
1095.763, 278.0295
1096.245, 297.3542
1096.728, 321.5396
1097.210, 342.9341
1097.692, 360.7478
1098.174, 375.8400
1098.656, 384.5179
1099.138, 394.2212
1099.620, 410.8247
1100.102, 433.1350
1100.585, 450.9769
1101.067, 463.6772
1101.549, 479.4174
1102.031, 501.4878
1102.513, 528.2035
1102.995, 559.8712
1103.477, 594.1804
1103.959, 627.3386
1104.442, 655.1090
1104.924, 689.0938
1105.406, 732.2031
1105.888, 772.5768
1106.370, 794.5024
1106.852, 807.7462
1107.334, 834.4203
1107.816, 873.1689
1108.298, 907.8977
1108.781, 924.2544
1109.263, 946.5160
1109.745, 987.2236
1110.227, 1033.033
1110.709, 1047.682
1111.191, 1037.951
1111.673, 1047.279
1112.155, 1090.161
1112.637, 1134.758
1113.120, 1155.603
1113.602, 1172.169
1114.084, 1203.511
1114.566, 1251.093
1115.048, 1280.424
1115.530, 1290.467
1116.012, 1297.293
1116.494, 1309.008
1116.977, 1323.222
1117.459, 1337.932
1117.941, 1352.681
1118.423, 1367.948
1118.905, 1395.700
1119.387, 1397.559
1119.869, 1365.590
1120.351, 1320.099
1120.833, 1284.025
1121.316, 1251.186
1121.798, 1208.679
1122.280, 1155.513
1122.762, 1103.544
1123.244, 1057.529
1123.726, 1013.510
1124.208, 972.4434
1124.690, 930.6963
1125.172, 874.2380
1125.655, 806.7229
1126.137, 744.8867
1126.619, 693.8257
1127.101, 650.5812
1127.583, 616.7073
1128.065, 588.1681
1128.547, 562.1675
1129.029, 538.6206
1129.512, 507.2542
1129.994, 467.5330
1130.476, 431.5392
1130.958, 408.0994
1131.440, 390.5125
1131.922, 374.2939
1132.404, 360.4252
1132.886, 352.7249
1133.369, 355.7139
1133.851, 348.1407
1134.333, 324.3407
1134.815, 296.4353
1135.297, 277.3619
1135.779, 263.8159
1136.261, 252.7937
1136.743, 244.4940
1137.225, 234.7506
1137.708, 224.9009
1138.190, 209.5317
1138.672, 182.3668
1139.154, 151.0884
1139.636, 134.1676
1140.118, 129.1282
1140.600, 128.0981
1141.082, 134.2958
1141.564, 133.0634
1142.047, 117.5938
1142.529, 96.94214
1143.011, 74.94897
1143.493, 52.52209
1143.975, 43.88806
1144.457, 48.11646
1144.939, 53.54810
1145.421, 53.41589
1145.904, 52.32507
1146.386, 54.35596
1146.868, 56.27124
1147.350, 50.88782
1147.832, 37.79871
1148.314, 25.05713
1148.796, 13.26257
1149.278, 6.731567
1149.760, 14.92847
1150.243, 26.40125
1150.725, 30.66663
1151.207, 26.94348
1151.689, 23.22900
1152.171, 19.68591
1152.653, 15.13965
1153.135, 7.489258
1153.617, 1.476685
1154.099, 6.163940
1154.582, 15.86340
1155.064, 21.68530
1155.546, 19.29053
1156.028, 17.42932
1156.510, 16.79224
1156.992, 15.10376
1157.474, 8.287231
1157.956, 0.2113040
1158.438, 0.4476320
1158.921, 5.067627
1159.403, 11.06140
1159.885, 18.73254
1160.367, 21.46399
1160.849, 15.93005
1161.331, 8.800659
1161.813, 11.00256
1162.295, 19.20593
1162.778, 23.31177
1163.260, 22.38574
1163.742, 19.43103
1164.224, 12.02637
1164.706, 8.782227
1165.188, 15.07642
1165.670, 26.84326
1166.152, 29.57373
1166.635, 24.56433
1167.117, 19.78308
1167.599, 17.30774
1168.081, 16.65076
1168.563, 18.70813
1169.045, 21.54346
1169.527, 24.35657
1170.009, 27.37781
1170.491, 23.24731
1170.974, 12.13037
1171.456, 3.650513
1171.938, 6.378784
1172.420, 10.77112
1172.902, 10.08313
1173.384, 6.627563
1173.866, 4.170776
1174.348, 2.240112
1174.830, 7.773560
1175.313, 22.32874
1175.795, 32.86890
1176.277, 21.66589
1176.759, 5.679443
1177.241, 0.6083980
1177.723, 3.604004
1178.205, 14.91541
1178.687, 35.95825
1179.170, 53.04993
1179.652, 64.03357
1180.134, 66.73389
1180.616, 52.13892
1181.098, 30.88843
1181.580, 16.29785
1182.062, 11.03723
1182.544, 11.45105
1183.026, 19.00195
1183.509, 27.25793
1183.991, 36.01379
1184.473, 40.74500
1184.955, 25.73901
1185.437, 2.290771
1185.919, 7.145508
1186.401, 16.18469
1186.883, 30.33252
1187.365, 29.65540
1187.848, 26.92957
1188.330, 36.20630
1188.812, 49.62976
1189.294, 43.43347
1189.776, 22.65515
1190.258, 9.217407
1190.740, 21.70984
1191.222, 27.23291
1191.705, 16.97534
1192.187, 3.673706
1192.669, 6.286987
1193.151, 19.07959
1193.633, 25.40759
1194.115, 23.84863
1194.597, 22.68286
1195.079, 26.47534
1195.562, 30.10608
1196.044, 32.12952
1196.526, 32.77100
1197.008, 32.79846
1197.490, 31.93494
1197.972, 28.47998
1198.454, 21.01709
1198.936, 15.72742
1199.418, 17.78381
1199.901, 20.65894
1200.383, 20.56970
1200.865, 18.38855
1201.347, 19.85376
1201.829, 23.78687
1202.311, 24.04138
1202.793, 14.39575
1203.275, 6.603271
1203.757, 9.458984
1204.240, 13.87256
1204.722, 10.76050
1205.204, 0.3627930
1205.686, 0.7393800
1206.168, 6.633789
1206.650, 13.30103
1207.132, 12.87964
1207.614, 12.15601
1208.097, 16.44702
1208.579, 21.27112
1209.061, 18.72241
1209.543, 9.158203
1210.025, 7.887695
1210.507, 16.42493
1210.989, 23.63843
1211.471, 19.65894
1211.953, 14.22937
1212.436, 13.98926
1212.918, 16.49695
1213.400, 14.50366
1213.882, 8.147583
1214.364, 5.102783
1214.846, 7.273560
1215.328, 10.97766
1215.810, 13.95618
1216.292, 16.84595
1216.775, 21.06250
1217.257, 25.94714
1217.739, 26.52673
1218.221, 22.75439
1218.703, 17.88416
1219.185, 13.48096
1219.667, 7.613525
1220.149, 8.908936
1220.632, 22.14386
1221.114, 14.54999
1221.596, 16.78101
1222.078, 26.83838
1222.560, 15.82397
1223.042, 3.396362
1223.524, 2.473877
1224.006, 2.090088
1224.489, 10.27808
1224.971, 25.99377
1225.453, 32.06836
1225.935, 27.57996
1226.417, 18.13733
1226.899, 3.692627
1227.381, 7.604248
1227.863, 9.033936
1228.345, 6.535461
1228.828, 2.833374
1229.310, 1.555908
1229.792, 7.989014
1230.274, 17.89136
1230.756, 17.06848
1231.238, 2.766846
1231.720, 9.936584
1232.202, 7.500122
1232.684, 0.2570800
1233.167, 4.716309
1233.649, 7.561035
1234.131, 9.183838
1234.613, 9.280457
1235.095, 15.65442
1235.577, 32.73462
1236.059, 46.15405
1236.541, 38.05859
1237.024, 22.86389
1237.506, 11.13684
1237.988, 3.618408
1238.470, 3.149597
1238.952, 9.963806
1239.434, 15.09760
1239.916, 13.36353
1240.398, 12.54205
1240.880, 20.77850
1241.363, 31.58466
1241.845, 38.85614
1242.327, 42.73938
1242.809, 40.88104
1243.291, 33.40082
1243.773, 26.99963
1244.255, 24.44208
1244.737, 24.88495
1245.219, 30.68091
1245.702, 37.22510
1246.184, 36.94910
1246.666, 28.83154
1247.148, 26.99896
1247.630, 31.49750
1248.112, 35.25641
1248.594, 30.03662
1249.076, 25.98376
1249.558, 31.98114
1250.041, 41.47357
1250.523, 44.15094
1251.005, 40.02594
1251.487, 32.50854
1251.969, 21.71564
1252.451, 12.83118
1252.933, 9.354248
1253.415, 11.01025
1253.898, 12.01538
1254.380, 13.23102
1254.862, 18.98145
1255.344, 28.25317
1255.826, 32.89941
1256.308, 30.67688
1256.790, 26.78198
1257.272, 21.81805
1257.755, 17.40131
1258.237, 12.44763
1258.719, 9.272217
1259.201, 14.99866
1259.683, 27.00635
1260.165, 33.36578
1260.647, 30.68677
1261.129, 24.97137
1261.611, 12.64093
1262.094, 6.265808
1262.576, 16.04718
1263.058, 34.27094
1263.540, 27.86884
1264.022, 4.556396
1264.504, 5.164307
1264.986, 15.65503
1265.468, 30.73163
1265.950, 22.53503
1266.433, 10.63367
1266.915, 4.097107
1267.397, 2.596130
1267.879, 7.774170
1268.361, 17.07849
1268.843, 22.12207
1269.325, 15.10657
1269.807, 11.94373
1270.290, 17.33752
1270.772, 22.88336
1271.254, 21.61993
1271.736, 15.74200
1272.218, 10.08533
1272.700, 5.302185
1273.182, 3.469299
1273.664, 8.222107
1274.146, 11.44421
1274.629, 10.99200
1275.111, 11.46692
1275.593, 16.59320
1276.075, 23.13660
1276.557, 23.86676
1277.039, 20.28162
1277.521, 20.08264
1278.003, 30.72839
1278.485, 30.87994
1278.968, 15.30835
1279.450, 1.095093
1279.932, 0.4777220
1280.414, 7.406921
1280.896, 10.59485
1281.378, 9.043274
1281.860, 8.537537
1282.342, 7.553040
1282.825, 7.670532
1283.307, 6.189209
1283.789, 4.288696
1284.271, 0.0000000E+00
##END=



