##NAMES=Stringhamite
##RRUFFID=R110018
##IDEAL CHEMISTRY=CaCuSiO_4_&#183;H_2_O
##LOCALITY=Christmas mine, Gila County, Arizona, USA
##OWNER=RRUFF
##SOURCE=Bob Jenkins
##DESCRIPTION=Deep blue platy crystals
##STATUS=The identification of this mineral has been confirmed by single-crystal X-ray diffraction.
##URL=rruff.info/R110018
187.6822, 0.0000000E+00
188.1643, 1.1267000E-02
188.6464, 0.4575040
189.1285, 2.624275
189.6107, 4.168453
190.0928, 4.859863
190.5749, 4.341545
191.0570, 3.212940
191.5391, 1.436562
192.0212, 0.1055450
192.5034, 0.6357610
192.9855, 0.2005540
193.4676, 0.9501650
193.9497, 3.289711
194.4318, 6.187714
194.9139, 6.635437
195.3961, 4.178452
195.8782, 1.630589
196.3603, 2.284687
196.8424, 6.200718
197.3245, 9.366890
197.8066, 10.71800
198.2888, 10.47476
198.7709, 9.715561
199.2530, 8.207779
199.7351, 6.975574
200.2172, 7.126637
200.6993, 8.730656
201.1815, 11.06751
201.6636, 14.33485
202.1457, 18.35947
202.6278, 20.88160
203.1099, 21.37856
203.5920, 21.58877
204.0742, 23.49722
204.5563, 27.29530
205.0384, 31.68899
205.5205, 36.45642
206.0026, 41.58342
206.4847, 46.73030
206.9669, 52.15653
207.4490, 57.14702
207.9311, 60.91751
208.4132, 63.35424
208.8953, 65.04003
209.3774, 66.06876
209.8596, 66.44836
210.3417, 66.39868
210.8238, 65.98882
211.3059, 65.07447
211.7880, 62.97299
212.2701, 58.76900
212.7523, 56.21401
213.2344, 56.47083
213.7165, 59.65115
214.1986, 63.63104
214.6807, 68.15723
215.1628, 73.74870
215.6450, 81.20330
216.1271, 91.25067
216.6092, 101.4031
217.0913, 110.9317
217.5734, 119.7504
218.0555, 129.3419
218.5377, 140.3603
219.0198, 151.6236
219.5019, 161.6022
219.9840, 171.1641
220.4661, 177.9223
220.9482, 182.1134
221.4304, 184.4652
221.9125, 177.7394
222.3946, 158.4596
222.8767, 133.4558
223.3588, 110.9708
223.8409, 91.79961
224.3231, 74.33721
224.8052, 57.59433
225.2873, 41.10202
225.7694, 29.92724
226.2515, 26.07500
226.7336, 25.63500
227.2158, 23.21157
227.6979, 17.21294
228.1800, 12.48043
228.6621, 10.71789
229.1442, 12.43944
229.6263, 13.26454
230.1085, 13.00826
230.5906, 12.00394
231.0727, 10.51366
231.5548, 7.918541
232.0369, 6.022823
232.5190, 5.203819
233.0012, 5.431988
233.4833, 7.144756
233.9654, 11.78383
234.4475, 17.26221
234.9296, 19.59586
235.4117, 17.21317
235.8939, 15.89848
236.3760, 17.27121
236.8581, 21.64156
237.3402, 25.77120
237.8223, 29.97345
238.3044, 34.31274
238.7866, 38.98020
239.2687, 44.93052
239.7508, 49.49121
240.2329, 51.82164
240.7150, 51.70071
241.1971, 51.70405
241.6793, 51.70014
242.1614, 51.93840
242.6435, 53.06326
243.1256, 57.02909
243.6077, 58.20950
244.0898, 54.36968
244.5720, 44.99578
245.0541, 38.54794
245.5362, 36.04661
246.0183, 35.39137
246.5004, 34.41079
246.9825, 32.68694
247.4647, 31.44369
247.9468, 31.19725
248.4289, 31.99258
248.9110, 31.76134
249.3931, 29.82380
249.8752, 27.59398
250.3574, 26.54060
250.8395, 27.57443
251.3216, 27.90304
251.8037, 26.46107
252.2858, 23.34654
252.7679, 22.75304
253.2501, 26.54190
253.7322, 30.59958
254.2143, 30.93405
254.6964, 24.94954
255.1785, 21.21286
255.6606, 22.03104
256.1428, 26.89384
256.6249, 29.29711
257.1070, 27.99614
257.5891, 25.91727
258.0712, 25.26553
258.5533, 26.37779
259.0355, 28.64542
259.5176, 32.31107
259.9997, 36.92336
260.4818, 39.64697
260.9639, 39.47768
261.4460, 39.29744
261.9282, 41.22713
262.4103, 46.09730
262.8924, 50.26868
263.3745, 53.77970
263.8566, 56.32411
264.3387, 55.92991
264.8209, 51.66222
265.3030, 46.36312
265.7851, 41.42510
266.2672, 36.52264
266.7493, 33.36101
267.2314, 32.26460
267.7136, 32.92622
268.1957, 34.43104
268.6778, 36.94717
269.1599, 39.85014
269.6420, 43.16496
270.1241, 47.32804
270.6063, 49.35955
271.0884, 48.20429
271.5705, 45.40525
272.0526, 45.09765
272.5347, 47.96014
273.0168, 51.14454
273.4990, 53.44460
273.9811, 55.09816
274.4632, 54.59320
274.9453, 51.76605
275.4274, 46.94044
275.9095, 39.77859
276.3917, 29.65971
276.8738, 20.73350
277.3559, 15.51733
277.8380, 14.23307
278.3201, 11.90665
278.8022, 8.231445
279.2844, 4.035240
279.7665, 0.4023250
280.2486, 2.771278
280.7307, 4.541792
281.2128, 3.929588
281.6949, 1.115974
282.1771, 0.5127070
282.6592, 0.7994460
283.1413, 0.3703230
283.6234, 4.3166999E-02
284.1055, 0.4414140
284.5876, 0.9091800
285.0698, 1.834660
285.5519, 2.937714
286.0340, 2.360941
286.5161, 0.1521260
286.9982, 3.062260
287.4803, 4.395306
287.9625, 4.296295
288.4446, 4.750771
288.9267, 6.383102
289.4088, 8.981937
289.8909, 12.35413
290.3730, 16.60249
290.8552, 20.29277
291.3373, 21.32945
291.8194, 20.30582
292.3015, 20.56571
292.7836, 23.67532
293.2657, 27.94762
293.7479, 29.25601
294.2300, 27.67866
294.7121, 26.52362
295.1942, 28.80642
295.6763, 33.66018
296.1584, 38.67499
296.6406, 43.59799
297.1227, 48.03033
297.6048, 50.62059
298.0869, 51.74347
298.5690, 53.96027
299.0511, 59.67371
299.5333, 67.65478
300.0154, 75.31512
300.4975, 82.17837
300.9796, 88.84747
301.4617, 96.49187
301.9438, 104.6755
302.4260, 112.1339
302.9081, 118.4105
303.3902, 123.3709
303.8723, 126.9050
304.3544, 129.1332
304.8365, 129.2884
305.3187, 126.9030
305.8008, 121.9538
306.2829, 114.3037
306.7650, 101.8934
307.2471, 87.87470
307.7292, 75.40195
308.2114, 64.69395
308.6935, 54.87238
309.1756, 45.24630
309.6577, 36.14687
310.1398, 27.92969
310.6219, 19.82869
311.1041, 13.45940
311.5862, 10.95039
312.0683, 12.15543
312.5504, 12.72374
313.0325, 8.929062
313.5146, 3.749804
313.9968, 0.3352580
314.4789, 1.672888
314.9610, 3.123268
315.4431, 1.776915
315.9252, 1.724890
316.4073, 3.941572
316.8895, 1.629745
317.3716, 1.521902
317.8537, 2.753502
318.3358, 0.1408040
318.8179, 2.717476
319.3000, 3.295115
319.7822, 2.407070
320.2643, 1.548571
320.7464, 1.450741
321.2285, 1.282784
321.7106, 0.6152520
322.1927, 0.7590030
322.6749, 2.297256
323.1570, 4.420542
323.6391, 6.572731
324.1212, 7.801346
324.6033, 6.663971
325.0854, 5.738789
325.5676, 5.983315
326.0497, 7.855068
326.5318, 9.369946
327.0139, 10.83482
327.4960, 11.72110
327.9781, 11.43623
328.4603, 8.982193
328.9424, 6.447172
329.4245, 3.824430
329.9066, 1.014126
330.3887, 0.3215260
330.8708, 1.032598
331.3530, 2.900690
331.8351, 3.537556
332.3172, 1.834898
332.7993, 0.7562310
333.2814, 0.8313220
333.7635, 1.859322
334.2457, 2.529810
334.7278, 2.765324
335.2099, 2.748138
335.6920, 2.504686
336.1741, 1.848558
336.6563, 1.509304
337.1384, 1.478493
337.6205, 1.815525
338.1026, 2.681372
338.5847, 4.374159
339.0668, 5.966656
339.5490, 7.061998
340.0311, 7.486828
340.5132, 7.913208
340.9953, 8.475847
341.4774, 8.771500
341.9595, 7.786655
342.4417, 5.323233
342.9238, 3.713219
343.4059, 4.260756
343.8880, 6.584049
344.3701, 7.650097
344.8522, 7.159883
345.3344, 6.144281
345.8165, 5.497120
346.2986, 5.214848
346.7807, 5.368671
347.2628, 6.389341
347.7449, 7.542740
348.2271, 6.684381
348.7092, 3.888227
349.1913, 1.350924
349.6734, 0.9634700
350.1555, 2.126200
350.6376, 3.472515
351.1198, 5.010382
351.6019, 6.123009
352.0840, 5.717899
352.5661, 4.109154
353.0482, 2.502062
353.5303, 1.295023
354.0125, 0.6101300
354.4946, 0.6608050
354.9767, 1.506132
355.4588, 2.826567
355.9409, 4.638033
356.4230, 6.721720
356.9052, 8.650940
357.3873, 10.69407
357.8694, 12.21300
358.3515, 12.37751
358.8336, 11.22626
359.3157, 10.35389
359.7979, 10.64175
360.2800, 11.68386
360.7621, 13.05404
361.2442, 15.11612
361.7263, 16.97921
362.2084, 18.25058
362.6906, 19.01888
363.1727, 19.64026
363.6548, 19.44797
364.1369, 19.68538
364.6190, 21.18737
365.1011, 24.81654
365.5833, 28.28318
366.0654, 31.51020
366.5475, 34.29297
367.0296, 36.24366
367.5117, 36.63214
367.9938, 36.81694
368.4760, 37.16772
368.9581, 37.70821
369.4402, 38.32671
369.9223, 38.71904
370.4044, 39.36065
370.8865, 40.90748
371.3687, 45.19662
371.8508, 47.44524
372.3329, 46.19271
372.8150, 41.74712
373.2971, 38.48469
373.7792, 36.54168
374.2614, 35.18086
374.7435, 34.23326
375.2256, 33.67386
375.7077, 33.48394
376.1898, 33.86831
376.6719, 34.30505
377.1541, 33.47355
377.6362, 30.99542
378.1183, 29.51650
378.6004, 30.81792
379.0825, 34.90985
379.5646, 37.97686
380.0468, 39.99022
380.5289, 41.24322
381.0110, 41.69287
381.4931, 41.20905
381.9752, 41.44659
382.4573, 43.60578
382.9395, 46.77864
383.4216, 48.18335
383.9037, 47.81791
384.3858, 47.54441
384.8679, 49.14505
385.3500, 52.05471
385.8322, 54.94547
386.3143, 57.68475
386.7964, 60.07298
387.2785, 61.46945
387.7606, 62.20006
388.2427, 63.35613
388.7249, 65.57046
389.2070, 68.65649
389.6891, 72.86781
390.1712, 78.46369
390.6533, 83.62127
391.1354, 87.12768
391.6176, 89.47783
392.0997, 91.44221
392.5818, 91.96549
393.0639, 93.48857
393.5460, 98.17417
394.0281, 105.6540
394.5103, 111.6259
394.9924, 114.8070
395.4745, 115.7575
395.9566, 114.8549
396.4387, 111.6464
396.9208, 107.2001
397.4030, 101.1990
397.8851, 94.04202
398.3672, 86.80111
398.8493, 78.13289
399.3314, 70.71901
399.8135, 65.91919
400.2957, 65.39787
400.7778, 62.48642
401.2599, 55.57123
401.7420, 47.36761
402.2241, 41.03170
402.7062, 37.10111
403.1884, 33.86740
403.6705, 31.21804
404.1526, 29.10838
404.6347, 26.48629
405.1168, 22.94076
405.5989, 19.90000
406.0811, 18.69359
406.5632, 19.71475
407.0453, 19.56200
407.5274, 17.61267
408.0095, 14.80695
408.4916, 12.65905
408.9738, 11.16076
409.4559, 10.40782
409.9380, 11.36205
410.4201, 13.27251
410.9022, 12.15753
411.3843, 7.551153
411.8665, 3.123207
412.3486, 3.716856
412.8307, 7.719505
413.3128, 10.10805
413.7949, 8.647167
414.2770, 5.500803
414.7592, 3.062735
415.2413, 1.307894
415.7234, 0.2335930
416.2055, 0.1920800
416.6876, 0.2343770
417.1697, 1.639400
417.6519, 4.739582
418.1340, 7.069305
418.6161, 6.365299
419.0982, 3.971083
419.5803, 2.096869
420.0624, 1.675999
420.5446, 1.988260
421.0267, 2.954196
421.5088, 4.618373
421.9909, 5.771204
422.4730, 5.370193
422.9551, 4.761715
423.4373, 4.949553
423.9194, 7.502447
424.4015, 9.160295
424.8836, 8.944701
425.3657, 7.548731
425.8478, 7.075197
426.3300, 8.423767
426.8121, 9.620605
427.2942, 9.769156
427.7763, 8.371312
428.2584, 8.274182
428.7405, 10.33861
429.2227, 12.73442
429.7048, 13.07354
430.1869, 10.63599
430.6690, 9.062454
431.1511, 9.534217
431.6332, 11.38117
432.1154, 11.69279
432.5975, 10.27217
433.0796, 8.470492
433.5617, 7.162714
434.0438, 6.285328
434.5259, 5.240242
435.0081, 3.781221
435.4902, 2.788923
435.9723, 4.625035
436.4544, 8.371889
436.9365, 10.10164
437.4186, 5.782186
437.9008, 0.5172320
438.3829, 2.667267
438.8650, 0.8558080
439.3471, 1.584623
439.8292, 2.507186
440.3113, 2.578885
440.7935, 2.603212
441.2756, 2.842800
441.7577, 2.954215
442.2398, 2.632873
442.7219, 2.039163
443.2040, 1.524590
443.6862, 0.9355930
444.1683, 0.6920760
444.6504, 1.203324
445.1325, 2.667830
445.6146, 3.677330
446.0967, 3.868313
446.5789, 3.561909
447.0610, 3.031732
447.5431, 1.868981
448.0252, 1.015795
448.5073, 0.7687970
448.9894, 0.9051590
449.4716, 0.4582810
449.9537, 1.241016
450.4358, 2.434686
450.9179, 2.078692
451.4000, 0.3007550
451.8821, 1.430159
452.3643, 0.9828590
452.8464, 0.1511200
453.3285, 0.9652430
453.8106, 1.447578
454.2927, 1.876788
454.7748, 2.559581
455.2570, 3.089251
455.7391, 1.903882
456.2212, 0.9619030
456.7033, 3.600090
457.1854, 4.662648
457.6675, 4.467154
458.1497, 3.422167
458.6318, 1.364559
459.1139, 0.4704760
459.5960, 0.8424950
460.0781, 8.9943998E-02
460.5602, 1.085649
461.0424, 3.489375
461.5245, 5.360968
462.0066, 4.612267
462.4887, 1.720786
462.9708, 0.3063130
463.4529, 1.254618
463.9351, 3.419800
464.4172, 3.914013
464.8993, 1.117455
465.3814, 0.7568860
465.8635, 0.2134310
466.3456, 1.709122
466.8278, 3.384571
467.3099, 5.477510
467.7920, 6.376196
468.2741, 5.099396
468.7562, 1.719341
469.2383, 9.9119999E-02
469.7205, 0.4018410
470.2026, 1.479346
470.6847, 1.966482
471.1668, 1.556810
471.6489, 1.850443
472.1310, 3.446898
472.6132, 5.129703
473.0953, 3.997921
473.5774, 0.3355160
474.0595, 2.956907
474.5416, 0.8920340
475.0237, 4.232515
475.5059, 6.206474
475.9880, 4.968536
476.4701, 2.719137
476.9522, 0.6746460
477.4343, 0.9335290
477.9164, 1.417974
478.3986, 0.4059620
478.8807, 1.060081
479.3628, 2.085628
479.8449, 2.774782
480.3270, 3.348656
480.8091, 3.862970
481.2913, 4.329575
481.7734, 4.814197
482.2555, 5.312501
482.7376, 5.710880
483.2197, 5.874140
483.7018, 5.976252
484.1840, 6.157003
484.6661, 6.678376
485.1482, 6.908437
485.6303, 6.316300
486.1124, 5.455420
486.5945, 5.364057
487.0767, 6.290586
487.5588, 7.687181
488.0409, 9.768792
488.5230, 12.50034
489.0051, 13.80990
489.4872, 13.22807
489.9694, 12.13272
490.4515, 11.54364
490.9336, 11.52396
491.4157, 11.24306
491.8978, 10.45666
492.3799, 9.719852
492.8621, 10.09500
493.3442, 11.48368
493.8263, 12.95638
494.3084, 14.17528
494.7905, 15.19524
495.2726, 15.92568
495.7548, 16.34310
496.2369, 17.09107
496.7190, 19.44156
497.2011, 22.45685
497.6832, 24.81513
498.1653, 26.12128
498.6475, 27.26287
499.1296, 28.99893
499.6117, 30.88373
500.0938, 32.16499
500.5759, 31.34293
501.0580, 31.14254
501.5402, 33.26760
502.0223, 37.48724
502.5044, 40.20749
502.9865, 39.09517
503.4686, 37.85610
503.9507, 38.36875
504.4329, 41.59761
504.9150, 44.33667
505.3971, 46.89568
505.8792, 48.72216
506.3613, 48.92269
506.8434, 47.17086
507.3256, 45.00498
507.8077, 42.40985
508.2898, 39.69285
508.7719, 38.16800
509.2540, 38.04275
509.7361, 37.77607
510.2183, 36.10921
510.7004, 33.47969
511.1825, 31.39139
511.6646, 29.95287
512.1467, 29.15872
512.6288, 29.18584
513.1110, 29.80258
513.5931, 30.68378
514.0752, 31.91535
514.5573, 33.10844
515.0394, 34.32975
515.5215, 35.40491
516.0037, 35.77440
516.4858, 34.64112
516.9679, 33.15591
517.4500, 31.82513
517.9321, 30.68285
518.4142, 30.25632
518.8964, 32.00711
519.3785, 33.64166
519.8606, 33.22639
520.3427, 28.66680
520.8248, 25.65314
521.3069, 25.69890
521.7891, 27.13521
522.2712, 25.57222
522.7533, 19.89556
523.2354, 14.83999
523.7175, 12.28642
524.1996, 12.06013
524.6818, 13.04813
525.1639, 15.46983
525.6460, 17.22846
526.1281, 15.54977
526.6102, 11.62711
527.0923, 9.558689
527.5745, 10.47604
528.0566, 11.86732
528.5387, 10.66888
529.0208, 7.936314
529.5029, 5.878214
529.9850, 5.725409
530.4672, 6.346945
530.9493, 7.483881
531.4314, 8.896082
531.9135, 9.346449
532.3956, 8.405586
532.8777, 6.845869
533.3599, 4.801966
533.8420, 1.546417
534.3241, 0.1336270
534.8062, 0.9771520
535.2883, 3.094618
535.7704, 4.689640
536.2526, 6.282232
536.7347, 6.354761
537.2168, 3.821329
537.6989, 4.7194999E-02
538.1810, 1.115294
538.6631, 1.098825
539.1453, 3.620163
539.6274, 5.094690
540.1095, 5.645731
540.5916, 5.863077
541.0737, 5.707972
541.5558, 5.748852
542.0380, 7.099249
542.5201, 8.961073
543.0022, 9.248751
543.4843, 6.828978
543.9664, 4.780739
544.4485, 6.632673
544.9307, 10.62658
545.4128, 13.46722
545.8949, 12.28381
546.3770, 11.06570
546.8591, 12.12154
547.3412, 15.16769
547.8234, 17.23230
548.3055, 16.34459
548.7876, 15.45025
549.2697, 16.16249
549.7518, 19.39938
550.2339, 21.32301
550.7161, 20.75616
551.1982, 20.07220
551.6803, 22.32642
552.1624, 28.48252
552.6445, 32.79943
553.1266, 33.61619
553.6088, 32.83202
554.0909, 35.15360
554.5730, 40.48943
555.0551, 46.02316
555.5372, 50.23195
556.0193, 53.66241
556.5015, 57.50440
556.9836, 61.75124
557.4657, 66.18465
557.9478, 70.58788
558.4299, 75.19064
558.9120, 80.14957
559.3942, 85.45026
559.8763, 91.07637
560.3584, 96.71819
560.8405, 102.7466
561.3226, 109.7217
561.8047, 118.8688
562.2869, 127.8622
562.7690, 135.9495
563.2511, 143.3457
563.7332, 151.2883
564.2153, 161.1923
564.6974, 169.5817
565.1796, 174.2901
565.6617, 174.9552
566.1438, 179.5693
566.6259, 189.2396
567.1080, 199.6573
567.5901, 207.1985
568.0723, 212.0438
568.5544, 215.1038
569.0365, 216.6283
569.5186, 216.1868
570.0007, 212.8933
570.4828, 207.1700
570.9650, 200.1263
571.4471, 191.7172
571.9292, 182.5972
572.4113, 173.0670
572.8934, 163.2021
573.3755, 153.7560
573.8577, 145.1783
574.3398, 136.8620
574.8219, 128.2642
575.3040, 118.9332
575.7861, 110.9622
576.2682, 105.3163
576.7504, 100.5200
577.2325, 95.61554
577.7146, 90.95347
578.1967, 85.01194
578.6788, 77.01649
579.1609, 68.37655
579.6431, 62.14899
580.1252, 58.48030
580.6073, 54.92978
581.0894, 50.44796
581.5715, 45.62496
582.0536, 41.97899
582.5358, 39.41826
583.0179, 37.18758
583.5000, 34.97821
583.9821, 32.66927
584.4642, 29.99479
584.9464, 26.90399
585.4285, 23.95084
585.9106, 21.17573
586.3927, 18.81482
586.8748, 17.23664
587.3569, 17.05484
587.8391, 16.81931
588.3212, 16.57359
588.8033, 15.94834
589.2854, 14.67047
589.7675, 12.12611
590.2496, 10.02178
590.7318, 8.714015
591.2139, 8.142260
591.6960, 8.242537
592.1781, 9.223297
592.6602, 9.872478
593.1423, 9.116081
593.6245, 7.330265
594.1066, 6.698949
594.5887, 7.313730
595.0708, 8.079962
595.5529, 7.874819
596.0350, 7.182283
596.5172, 7.016356
596.9993, 7.871488
597.4814, 8.216578
597.9635, 6.000201
598.4456, 2.869880
598.9277, 1.322534
599.4099, 3.864442
599.8920, 6.162121
600.3741, 6.928055
600.8562, 6.372561
601.3383, 5.738329
601.8204, 4.599760
602.3026, 4.024477
602.7847, 4.770427
603.2668, 6.898999
603.7489, 7.162021
604.2310, 5.134878
604.7131, 2.690632
605.1953, 1.247038
605.6774, 0.7090360
606.1595, 0.4191650
606.6416, 0.2838100
607.1237, 0.5214360
607.6058, 2.076537
608.0880, 4.188943
608.5701, 5.443958
609.0522, 4.776176
609.5343, 3.448860
610.0164, 2.219824
610.4985, 1.247334
610.9807, 0.8962880
611.4628, 2.291137
611.9449, 3.327725
612.4270, 2.838521
612.9091, 0.8583460
613.3912, 0.1657530
613.8734, 1.914694
614.3555, 3.309619
614.8376, 2.706455
615.3197, 0.3153980
615.8018, 1.840164
616.2839, 1.578074
616.7661, 0.8106600
617.2482, 1.005139
617.7303, 1.925611
618.2124, 2.179154
618.6945, 1.356693
619.1766, 0.3518280
619.6588, 0.4328380
620.1409, 1.101818
620.6230, 1.276159
621.1051, 0.4042610
621.5872, 1.892415
622.0693, 1.581892
622.5515, 2.9508000E-02
623.0336, 0.7397880
623.5157, 0.5287590
623.9978, 1.710187
624.4799, 2.036373
624.9620, 1.462564
625.4442, 1.064427
625.9263, 0.8573430
626.4084, 0.8054900
626.8905, 0.9501610
627.3726, 1.311507
627.8547, 1.479014
628.3369, 1.402075
628.8190, 1.285921
629.3011, 1.448461
629.7832, 1.777066
630.2653, 1.914238
630.7474, 1.776882
631.2296, 1.424236
631.7117, 0.4904990
632.1938, 0.5789260
632.6759, 0.9085640
633.1580, 0.7646330
633.6401, 2.317173
634.1223, 2.885924
634.6044, 2.581272
635.0865, 2.043563
635.5686, 0.3412920
636.0507, 0.4053740
636.5328, 0.9499560
637.0150, 4.570158
637.4971, 6.450337
637.9792, 6.295293
638.4613, 5.257124
638.9434, 3.586384
639.4255, 1.517579
639.9077, 1.480329
640.3898, 3.901938
640.8719, 6.534748
641.3540, 7.096324
641.8361, 6.159214
642.3182, 4.586088
642.8004, 1.945186
643.2825, 2.7628999E-02
643.7646, 0.6271920
644.2467, 2.473567
644.7288, 3.256004
645.2109, 0.3407730
645.6931, 1.489238
646.1752, 4.1751999E-02
646.6573, 3.542071
647.1394, 5.156094
647.6215, 3.941757
648.1036, 2.435041
648.5858, 1.408543
649.0679, 0.8678380
649.5500, 1.144442
650.0321, 2.299353
650.5142, 3.500723
650.9963, 4.324178
651.4785, 4.695146
651.9606, 4.218303
652.4427, 2.809305
652.9248, 1.420612
653.4069, 0.4329630
653.8890, 3.8449999E-03
654.3712, 0.3962900
654.8533, 2.348209
655.3354, 3.801865
655.8175, 3.516314
656.2996, 2.588086
656.7817, 2.591298
657.2639, 4.805273
657.7460, 5.802455
658.2281, 4.585362
658.7102, 2.215423
659.1923, 1.531507
659.6744, 2.756679
660.1566, 3.764799
660.6387, 3.460519
661.1208, 2.578411
661.6029, 3.556118
662.0850, 6.044055
662.5671, 7.470400
663.0493, 4.608913
663.5314, 0.8830910
664.0135, 0.3402950
664.4956, 3.148767
664.9777, 4.935002
665.4598, 2.103534
665.9420, 1.112202
666.4241, 1.806268
666.9062, 1.842227
667.3883, 4.277966
667.8704, 5.139293
668.3525, 5.182193
668.8347, 4.941387
669.3168, 4.437222
669.7989, 3.543412
670.2810, 2.056660
670.7631, 0.6255290
671.2452, 0.4517960
671.7274, 1.250751
672.2095, 1.896200
672.6916, 1.730835
673.1737, 1.574605
673.6558, 2.362310
674.1379, 3.912128
674.6201, 5.428595
675.1022, 7.463803
675.5843, 8.340472
676.0664, 6.547321
676.5485, 2.616302
677.0306, 0.3920250
677.5128, 0.5714180
677.9949, 1.546420
678.4770, 3.273603
678.9591, 5.790155
679.4412, 5.718413
679.9233, 2.471500
680.4055, 0.5041350
680.8876, 0.2126670
681.3697, 2.386458
681.8518, 3.958250
682.3339, 4.242032
682.8160, 4.067261
683.2982, 3.627711
683.7803, 3.344488
684.2624, 3.932357
684.7445, 6.196739
685.2266, 7.565776
685.7087, 6.182287
686.1909, 3.860373
686.6730, 2.788791
687.1551, 3.956784
687.6372, 4.802372
688.1193, 5.007064
688.6014, 4.895763
689.0836, 5.262675
689.5657, 6.197245
690.0478, 6.210150
690.5299, 4.530767
691.0120, 2.256065
691.4941, 0.9572860
691.9763, 0.6227960
692.4584, 1.112584
692.9405, 3.663280
693.4226, 5.956320
693.9047, 5.572223
694.3868, 3.066412
694.8690, 1.401560
695.3511, 2.062278
695.8332, 3.325147
696.3153, 4.761380
696.7974, 6.411104
697.2795, 6.892593
697.7617, 5.879398
698.2438, 4.315307
698.7259, 2.552422
699.2080, 0.6114850
699.6901, 0.6695200
700.1722, 1.253178
700.6544, 1.321679
701.1365, 0.7509800
701.6186, 0.1629780
702.1007, 0.6363190
702.5828, 0.3782660
703.0649, 0.4543610
703.5471, 2.095331
704.0292, 4.233052
704.5113, 5.479480
704.9934, 4.887129
705.4755, 4.143945
705.9576, 2.878778
706.4398, 1.814561
706.9219, 2.085467
707.4040, 4.008538
707.8861, 6.237157
708.3682, 8.949790
708.8503, 11.23491
709.3325, 10.75784
709.8146, 7.936317
710.2967, 5.342190
710.7788, 4.129784
711.2609, 3.489424
711.7430, 2.419749
712.2252, 1.229296
712.7073, 0.6983770
713.1894, 1.838894
713.6715, 3.041528
714.1536, 3.615492
714.6357, 3.362487
715.1179, 3.214765
715.6000, 3.279124
716.0821, 3.352802
716.5642, 3.405827
717.0463, 3.419546
717.5284, 3.007744
718.0106, 2.110486
718.4927, 1.467616
718.9748, 2.097304
719.4569, 3.288097
719.9390, 3.339941
720.4211, 2.003687
720.9033, 0.8298880
721.3854, 1.172651
721.8675, 1.921264
722.3496, 2.109506
722.8317, 1.172617
723.3138, 0.9296570
723.7960, 2.469206
724.2781, 3.755301
724.7602, 3.576885
725.2423, 0.9900600
725.7244, 0.2435310
726.2065, 0.3417700
726.6887, 1.684305
727.1708, 3.119706
727.6529, 4.437775
728.1350, 4.573144
728.6171, 2.972667
729.0992, 1.027882
729.5814, 0.4464540
730.0635, 1.210553
730.5456, 0.8680360
731.0277, 2.632730
731.5098, 5.016159
731.9919, 3.851550
732.4741, 1.045381
732.9562, 0.4910370
733.4383, 3.565526
733.9204, 6.106280
734.4025, 7.468239
734.8846, 7.644892
735.3668, 6.097997
735.8489, 2.944196
736.3310, 0.6116380
736.8131, 0.3357500
737.2952, 1.214718
737.7773, 2.428731
738.2595, 3.691607
738.7416, 4.417274
739.2237, 3.958729
739.7058, 3.184007
740.1879, 2.387590
740.6700, 1.619062
741.1522, 1.200763
741.6343, 1.002547
742.1164, 1.374446
742.5985, 2.815593
743.0806, 5.128889
743.5627, 5.510508
744.0449, 3.713320
744.5270, 2.316249
745.0091, 3.478279
745.4912, 6.093330
745.9733, 7.957537
746.4554, 9.005417
746.9376, 9.492738
747.4197, 9.498191
747.9018, 9.058068
748.3839, 7.970854
748.8660, 6.005817
749.3481, 4.790258
749.8303, 5.393965
750.3124, 5.957039
750.7945, 5.097372
751.2766, 2.285688
751.7587, 1.519857
752.2408, 3.199572
752.7230, 5.319710
753.2051, 5.994746
753.6872, 5.576158
754.1693, 4.865396
754.6514, 3.865563
755.1335, 3.489437
755.6157, 5.248318
756.0978, 7.594982
756.5799, 8.874504
757.0620, 8.350681
757.5441, 7.605415
758.0262, 7.177061
758.5084, 6.530515
758.9905, 4.902685
759.4726, 1.604158
759.9547, 0.2502740
760.4368, 1.498736
760.9189, 3.749124
761.4011, 4.981609
761.8832, 5.360655
762.3653, 5.542377
762.8474, 5.699389
763.3295, 5.647014
763.8116, 4.937731
764.2938, 4.007612
764.7759, 3.471275
765.2580, 3.969126
765.7401, 4.315351
766.2222, 4.446489
766.7043, 4.255615
767.1865, 3.373580
767.6686, 1.368207
768.1507, 0.3633970
768.6328, 1.048423
769.1149, 2.433734
769.5970, 2.848994
770.0792, 2.392485
770.5613, 1.353659
771.0434, 1.012691
771.5255, 2.659646
772.0076, 0.7287100
772.4897, 3.147778
772.9719, 5.637590
773.4540, 4.498731
773.9361, 3.318024
774.4182, 3.098553
774.9003, 3.381157
775.3824, 3.021769
775.8646, 1.857998
776.3467, 0.5449600
776.8288, 1.087903
777.3109, 2.369462
777.7930, 1.103020
778.2751, 2.171793
778.7573, 4.850519
779.2394, 5.963839
779.7215, 5.706030
780.2036, 2.713310
780.6857, 1.650417
781.1678, 3.402516
781.6500, 2.689264
782.1321, 6.908430
782.6142, 5.600954
783.0963, 0.4085030
783.5784, 1.646961
784.0605, 0.2037430
784.5427, 2.244604
785.0248, 3.109663
785.5069, 3.169382
785.9890, 3.408430
786.4711, 3.730099
786.9532, 3.632860
787.4354, 2.060492
787.9175, 0.5176370
788.3996, 0.4505860
788.8817, 1.650793
789.3638, 2.613161
789.8459, 3.104639
790.3281, 3.187874
790.8102, 2.696245
791.2923, 1.772470
791.7744, 1.384853
792.2565, 1.608650
792.7386, 1.852646
793.2208, 1.365263
793.7029, 0.9039290
794.1850, 2.999102
794.6671, 7.059847
795.1492, 9.875641
795.6313, 8.490395
796.1135, 6.180746
796.5956, 4.744427
797.0777, 4.223789
797.5598, 4.213736
798.0419, 5.064764
798.5240, 5.825058
799.0062, 6.050278
799.4883, 5.866686
799.9704, 6.573494
800.4525, 8.259777
800.9346, 9.221060
801.4167, 7.253912
801.8989, 4.503222
802.3810, 5.019693
802.8631, 8.303804
803.3452, 11.13688
803.8273, 11.86893
804.3094, 11.74161
804.7916, 11.03978
805.2737, 9.838646
805.7558, 9.365025
806.2379, 9.921608
806.7200, 10.62571
807.2021, 10.94455
807.6843, 11.09706
808.1664, 12.87953
808.6485, 16.17074
809.1306, 18.40028
809.6127, 16.70455
810.0948, 13.92056
810.5770, 13.20778
811.0591, 14.42885
811.5412, 16.13261
812.0233, 18.08998
812.5054, 20.11219
812.9875, 22.43030
813.4697, 24.91170
813.9518, 25.81346
814.4339, 24.41108
814.9160, 23.90233
815.3981, 26.20565
815.8802, 30.39112
816.3624, 33.54154
816.8445, 35.82143
817.3266, 38.27271
817.8087, 41.56533
818.2908, 45.27985
818.7729, 49.36763
819.2551, 53.66777
819.7372, 57.36933
820.2193, 59.61143
820.7014, 62.06056
821.1835, 65.47394
821.6656, 69.52813
822.1478, 72.05215
822.6299, 72.87415
823.1120, 74.03542
823.5941, 77.28317
824.0762, 80.99671
824.5583, 81.84400
825.0405, 80.53896
825.5226, 79.85954
826.0047, 83.25706
826.4868, 85.59254
826.9689, 83.49211
827.4510, 77.75334
827.9332, 73.86594
828.4153, 73.19485
828.8974, 71.28743
829.3795, 66.11286
829.8616, 59.24401
830.3438, 55.10548
830.8259, 53.34845
831.3080, 51.47907
831.7901, 47.81105
832.2722, 43.90349
832.7543, 41.70992
833.2365, 40.48866
833.7186, 38.12181
834.2007, 31.48399
834.6828, 26.79235
835.1649, 26.01691
835.6470, 27.69651
836.1292, 28.20872
836.6113, 27.65060
837.0934, 26.46601
837.5755, 24.57611
838.0576, 22.45013
838.5397, 21.00887
839.0219, 20.03816
839.5040, 19.09582
839.9861, 16.75511
840.4682, 14.72786
840.9503, 14.49297
841.4324, 15.26985
841.9146, 15.37202
842.3967, 13.63038
842.8788, 13.31610
843.3609, 15.44862
843.8430, 18.52190
844.3251, 19.56792
844.8073, 18.86783
845.2894, 18.41820
845.7715, 18.82411
846.2536, 19.52721
846.7357, 20.02822
847.2178, 20.46284
847.7000, 21.03049
848.1821, 21.84734
848.6642, 22.72536
849.1463, 23.58253
849.6284, 24.51938
850.1105, 25.49158
850.5927, 26.36497
851.0748, 28.42192
851.5569, 31.96000
852.0390, 36.17443
852.5211, 40.55828
853.0032, 44.78593
853.4854, 48.16470
853.9675, 50.36776
854.4496, 52.43805
854.9317, 54.46808
855.4138, 56.84068
855.8959, 60.01427
856.3781, 64.42273
856.8602, 68.71454
857.3423, 73.34803
857.8244, 76.91676
858.3065, 77.29092
858.7886, 75.32115
859.2708, 74.91104
859.7529, 76.50172
860.2350, 77.05907
860.7171, 73.54340
861.1992, 68.39651
861.6813, 63.53180
862.1635, 59.22198
862.6456, 55.33531
863.1277, 52.01319
863.6098, 48.89511
864.0919, 45.86136
864.5740, 42.90732
865.0562, 40.02689
865.5383, 37.21326
866.0204, 33.79906
866.5025, 28.49600
866.9846, 22.79584
867.4667, 18.42575
867.9489, 15.39529
868.4310, 13.39411
868.9131, 13.19043
869.3952, 13.07341
869.8773, 11.98080
870.3594, 10.14826
870.8416, 10.13607
871.3237, 12.29051
871.8058, 14.20018
872.2879, 14.79827
872.7700, 14.39236
873.2521, 13.44206
873.7343, 11.96172
874.2164, 10.00283
874.6985, 6.097116
875.1806, 3.271646
875.6627, 3.668823
876.1448, 6.300764
876.6270, 7.964319
877.1091, 8.562130
877.5912, 8.390623
878.0733, 7.329157
878.5554, 5.815992
879.0375, 4.652222
879.5197, 3.765560
880.0018, 2.754900
880.4839, 1.176388
880.9660, 5.6246001E-02
881.4481, 0.3525620
881.9302, 1.468203
882.4124, 2.582483
882.8945, 3.658058
883.3766, 4.616581
883.8587, 5.621698
884.3408, 6.288483
884.8229, 6.017059
885.3051, 4.904381
885.7872, 3.694046
886.2693, 2.441992
886.7514, 1.403385
887.2335, 0.9547270
887.7156, 0.7801530
888.1978, 0.5192410
888.6799, 4.1660000E-02
889.1620, 0.2200050
889.6441, 8.0816001E-02
890.1262, 0.1426200
890.6083, 0.4652210
891.0905, 0.9065420
891.5726, 0.3324030
892.0547, 3.356571
892.5368, 5.397459
893.0189, 3.275660
893.5010, 0.3493840
893.9832, 2.544521
894.4653, 3.178181
894.9474, 2.899956
895.4295, 1.296902
895.9116, 0.5602110
896.3937, 2.782343
896.8759, 4.997912
897.3580, 4.688883
897.8401, 1.606169
898.3222, 1.250887
898.8043, 2.564400
899.2864, 2.901617
899.7686, 2.698355
900.2507, 2.239094
900.7328, 2.268513
901.2149, 3.453056
901.6970, 4.756821
902.1791, 5.892776
902.6613, 6.930313
903.1434, 8.087090
903.6255, 9.503366
904.1076, 10.39719
904.5897, 10.63328
905.0718, 10.33371
905.5540, 8.581255
906.0361, 6.630135
906.5182, 7.653648
907.0003, 13.79816
907.4824, 18.44329
907.9645, 17.71014
908.4467, 14.69380
908.9288, 12.05045
909.4109, 9.452768
909.8930, 8.836483
910.3751, 10.61070
910.8572, 12.84062
911.3394, 14.29456
911.8215, 14.83371
912.3036, 13.55173
912.7857, 10.53950
913.2678, 8.222134
913.7499, 9.085234
914.2321, 10.10139
914.7142, 8.952364
915.1963, 5.771252
915.6784, 4.455345
916.1605, 5.562218
916.6426, 6.801537
917.1248, 7.326288
917.6069, 7.245579
918.0890, 6.548494
918.5711, 5.434496
919.0532, 4.631905
919.5353, 5.164087
920.0175, 5.384506
920.4996, 3.815800
920.9817, 1.493908
921.4638, 0.7480470
921.9459, 2.352551
922.4280, 3.524122
922.9102, 3.844925
923.3923, 3.687088
923.8744, 3.547672
924.3565, 3.383984
924.8386, 3.085201
925.3207, 2.633015
925.8029, 2.008316
926.2850, 0.6163560
926.7671, 0.5995290
927.2492, 0.6356530
927.7313, 0.8409370
928.2134, 2.401077
928.6956, 4.324486
929.1777, 5.526768
929.6598, 4.696688
930.1419, 2.573524
930.6240, 1.206125
931.1061, 0.6497940
931.5883, 0.8504810
932.0704, 2.235077
932.5525, 3.933521
933.0346, 5.795317
933.5167, 7.632250
933.9988, 8.420771
934.4810, 7.831282
934.9631, 7.112251
935.4452, 6.542847
935.9273, 6.210112
936.4094, 6.204987
936.8915, 6.598745
937.3737, 7.700605
937.8558, 10.43900
938.3379, 12.61636
938.8200, 12.37358
939.3021, 11.22108
939.7842, 11.22633
940.2664, 12.61155
940.7485, 14.79482
941.2306, 18.06639
941.7127, 21.13373
942.1948, 22.23053
942.6769, 22.12189
943.1591, 22.22152
943.6412, 22.65715
944.1233, 24.55653
944.6054, 30.28018
945.0875, 36.21091
945.5696, 39.66704
946.0518, 40.69126
946.5339, 42.89294
947.0160, 46.44497
947.4981, 50.29700
947.9802, 53.42416
948.4623, 56.75520
948.9445, 62.36546
949.4266, 69.77724
949.9087, 77.40989
950.3908, 84.93520
950.8729, 92.64800
951.3550, 100.7967
951.8372, 108.9194
952.3193, 116.1368
952.8014, 121.9556
953.2835, 130.1302
953.7656, 141.6875
954.2477, 153.6803
954.7299, 163.1147
955.2120, 170.5126
955.6941, 176.6584
956.1762, 181.4417
956.6583, 185.5423
957.1404, 190.5777
957.6226, 193.7478
958.1047, 193.0652
958.5868, 188.3917
959.0689, 184.9548
959.5510, 182.6791
960.0331, 178.2883
960.5153, 168.6129
960.9974, 156.4870
961.4795, 145.3807
961.9616, 134.9213
962.4437, 124.2218
962.9258, 111.7934
963.4080, 100.4844
963.8901, 90.80042
964.3722, 82.50823
964.8543, 75.01046
965.3364, 68.28216
965.8185, 62.30016
966.3007, 57.00440
966.7828, 52.68948
967.2649, 50.45904
967.7470, 49.03620
968.2291, 46.83281
968.7112, 42.81077
969.1934, 40.27489
969.6755, 40.30758
970.1576, 40.32722
970.6397, 38.17965
971.1218, 34.31194
971.6039, 31.83774
972.0861, 30.71330
972.5682, 30.21988
973.0503, 30.25878
973.5324, 30.43241
974.0145, 30.35016
974.4966, 30.14546
974.9788, 30.46299
975.4609, 31.23604
975.9430, 32.52374
976.4251, 34.74197
976.9072, 36.73979
977.3893, 35.64157
977.8715, 32.76201
978.3536, 31.54617
978.8357, 33.16916
979.3178, 35.05334
979.7999, 36.79872
980.2820, 37.67495
980.7642, 36.79528
981.2463, 33.55246
981.7284, 32.12924
982.2105, 32.86934
982.6926, 33.48064
983.1747, 31.94108
983.6569, 29.20577
984.1390, 26.62148
984.6211, 24.34276
985.1032, 23.17414
985.5853, 25.48956
986.0674, 26.44179
986.5496, 24.08248
987.0317, 19.87344
987.5138, 17.14642
987.9959, 15.90484
988.4780, 14.26203
988.9601, 11.48656
989.4423, 9.345766
989.9244, 10.36606
990.4065, 12.78106
990.8886, 14.47893
991.3707, 14.94798
991.8528, 15.04498
992.3350, 15.12067
992.8171, 14.43635
993.2992, 12.00750
993.7813, 8.291635
994.2634, 6.166632
994.7455, 5.513539
995.2277, 5.356932
995.7098, 5.686772
996.1919, 5.755910
996.6740, 4.716417
997.1561, 3.054811
997.6382, 2.330531
998.1204, 2.985863
998.6025, 3.238344
999.0846, 2.589732
999.5667, 1.953352
1000.049, 2.844439
1000.531, 4.700117
1001.013, 6.565737
1001.495, 8.441017
1001.977, 9.325137
1002.459, 8.326794
1002.942, 6.525290
1003.424, 4.128056
1003.906, 1.180907
1004.388, 1.258158
1004.870, 4.486276
1005.352, 7.126771
1005.834, 6.789832
1006.316, 5.010616
1006.798, 2.805557
1007.281, 0.5575110
1007.763, 0.7803280
1008.245, 0.4301950
1008.727, 0.1425890
1009.209, 0.9954380
1009.691, 1.762614
1010.173, 1.576702
1010.655, 0.7826160
1011.138, 1.625919
1011.620, 4.517300
1012.102, 6.406970
1012.584, 3.716732
1013.066, 0.4421610
1013.548, 0.1203040
1014.030, 2.048970
1014.512, 3.312887
1014.994, 3.679352
1015.477, 2.894464
1015.959, 9.2030000E-03
1016.441, 3.029201
1016.923, 1.871674
1017.405, 1.713209
1017.887, 3.748926
1018.369, 1.160503
1018.851, 0.6418190
1019.333, 0.1020580
1019.816, 1.528342
1020.298, 1.653524
1020.780, 0.4828840
1021.262, 1.313109
1021.744, 4.351110
1022.226, 6.758305
1022.708, 5.796923
1023.190, 3.718113
1023.673, 1.828024
1024.155, 0.4045870
1024.637, 0.8720380
1025.119, 4.633715
1025.601, 6.993689
1026.083, 6.488985
1026.565, 4.461477
1027.047, 2.733008
1027.530, 1.513495
1028.012, 1.389191
1028.494, 2.939804
1028.976, 4.334516
1029.458, 4.852219
1029.940, 4.769779
1030.422, 4.277197
1030.904, 3.357385
1031.386, 1.998056
1031.869, 0.1464290
1032.351, 0.9219280
1032.833, 0.6231340
1033.315, 2.578158
1033.797, 2.447126
1034.279, 0.8086810
1034.761, 0.7724290
1035.243, 2.790255
1035.725, 3.277278
1036.208, 1.589883
1036.690, 0.9201490
1037.172, 2.619350
1037.654, 3.624071
1038.136, 4.595343
1038.618, 5.656689
1039.100, 5.670055
1039.582, 2.455315
1040.064, 0.5833160
1040.547, 0.9446170
1041.029, 0.9155040
1041.511, 1.516170
1041.993, 0.7912460
1042.475, 0.4671760
1042.957, 1.602962
1043.439, 3.314999
1043.921, 5.057459
1044.404, 6.411539
1044.886, 6.602528
1045.368, 4.441943
1045.850, 2.969128
1046.332, 2.168927
1046.814, 2.313804
1047.296, 4.511999
1047.778, 7.890126
1048.260, 8.155199
1048.743, 5.668146
1049.225, 3.564981
1049.707, 3.598992
1050.189, 4.398747
1050.671, 5.677588
1051.153, 7.152383
1051.635, 8.282013
1052.117, 9.043813
1052.600, 9.767195
1053.082, 10.58080
1053.564, 11.04583
1054.046, 10.49757
1054.528, 9.458726
1055.010, 8.336603
1055.492, 6.885376
1055.974, 6.974730
1056.457, 9.783106
1056.939, 12.03298
1057.421, 12.01253
1057.903, 10.77243
1058.385, 11.40833
1058.867, 13.29241
1059.349, 14.32668
1059.831, 12.55435
1060.313, 11.64625
1060.796, 13.97459
1061.278, 17.14207
1061.760, 19.13016
1062.242, 19.91245
1062.724, 19.60505
1063.206, 18.18050
1063.688, 16.55128
1064.170, 14.87144
1064.652, 13.69942
1065.135, 13.80696
1065.617, 14.87672
1066.099, 15.75536
1066.581, 16.25581
1067.063, 16.79028
1067.545, 17.50552
1068.027, 18.07886
1068.509, 18.26467
1068.991, 17.90964
1069.474, 16.17691
1069.956, 12.73156
1070.438, 10.77806
1070.920, 13.03555
1071.402, 15.59960
1071.884, 17.26718
1072.366, 17.88111
1072.848, 16.09564
1073.331, 12.27880
1073.813, 9.385377
1074.295, 8.616385
1074.777, 8.752457
1075.259, 9.233802
1075.741, 9.699060
1076.223, 9.803705
1076.705, 9.340734
1077.188, 9.378016
1077.670, 10.01935
1078.152, 10.31576
1078.634, 9.201344
1079.116, 7.571370
1079.598, 6.456195
1080.080, 5.879480
1080.562, 5.874478
1081.044, 6.912537
1081.527, 8.016368
1082.009, 9.467072
1082.491, 10.28689
1082.973, 8.616610
1083.455, 5.230498
1083.937, 2.467144
1084.419, 0.5955290
1084.901, 6.4900003E-02
1085.384, 1.676114
1085.866, 3.651416
1086.348, 5.083656
1086.830, 5.943698
1087.312, 5.490654
1087.794, 3.632818
1088.276, 2.486156
1088.758, 2.833094
1089.240, 3.482939
1089.723, 2.982765
1090.205, 2.362674
1090.687, 3.357387
1091.169, 6.781325
1091.651, 7.166893
1092.133, 3.666668
1092.615, 0.5453500
1093.097, 0.4577590
1093.579, 1.991434
1094.062, 3.155556
1094.544, 3.987650
1095.026, 4.469198
1095.508, 4.973782
1095.990, 4.420188
1096.472, 1.960698
1096.954, 0.3224720
1097.436, 0.3329420
1097.918, 2.853633
1098.401, 2.294607
1098.883, 1.015044
1099.365, 3.113570
1099.847, 0.6180480
1100.329, 2.341189
1100.811, 4.316857
1101.293, 5.375006
1101.775, 5.376907
1102.258, 4.340268
1102.740, 3.319874
1103.222, 2.425446
1103.704, 2.098624
1104.186, 3.304688
1104.668, 4.813366
1105.150, 5.801962
1105.632, 6.151285
1106.115, 5.142120
1106.597, 2.289660
1107.079, 0.3003210
1107.561, 0.1682010
1108.043, 1.137230
1108.525, 3.131554
1109.007, 5.124515
1109.489, 5.323311
1109.971, 2.360039
1110.454, 0.6539390
1110.936, 1.079221
1111.418, 1.520766
1111.900, 0.2984910
1112.382, 1.635094
1112.864, 1.114409
1113.346, 1.109308
1113.828, 2.606829
1114.311, 1.201906
1114.793, 0.4908200
1115.275, 2.132906
1115.757, 3.999961
1116.239, 3.456720
1116.721, 0.9086830
1117.203, 1.519436
1117.685, 5.239689
1118.167, 8.321807
1118.650, 8.169127
1119.132, 6.890409
1119.614, 4.982199
1120.096, 2.992562
1120.578, 2.042811
1121.060, 2.200396
1121.542, 2.720934
1122.024, 3.590440
1122.506, 4.137259
1122.989, 3.376818
1123.471, 2.291407
1123.953, 1.546582
1124.435, 1.292485
1124.917, 2.406370
1125.399, 5.689389
1125.881, 7.214974
1126.363, 5.404635
1126.845, 2.468844
1127.328, 1.091250
1127.810, 0.8505950
1128.292, 1.230016
1128.774, 2.220679
1129.256, 3.588999
1129.738, 6.075854
1130.220, 7.228848
1130.702, 5.178714
1131.185, 1.682370
1131.667, 0.9610000
1132.149, 2.273227
1132.631, 3.776275
1133.113, 5.616981
1133.595, 6.003616
1134.077, 3.273153
1134.559, 0.6372270
1135.042, 0.9230880
1135.524, 3.527196
1136.006, 3.988652
1136.488, 2.634879
1136.970, 1.469786
1137.452, 1.949196
1137.934, 2.394774
1138.416, 1.826982
1138.898, 1.023322
1139.381, 1.076905
1139.863, 2.009296
1140.345, 2.489733
1140.827, 2.391917
1141.309, 2.319501
1141.791, 2.915479
1142.273, 3.398728
1142.755, 3.267241
1143.238, 2.609295
1143.720, 1.314263
1144.202, 0.8732180
1144.684, 1.409848
1145.166, 0.2970330
1145.648, 2.358669
1146.130, 3.183660
1146.612, 3.239021
1147.094, 2.761085
1147.577, 1.811802
1148.059, 1.118873
1148.541, 0.6236400
1149.023, 0.7642570
1149.505, 1.845228
1149.987, 3.101953
1150.469, 3.331244
1150.951, 3.200016
1151.433, 3.828696
1151.916, 5.652797
1152.398, 6.258505
1152.880, 4.915240
1153.362, 3.968879
1153.844, 4.642078
1154.326, 5.964764
1154.808, 6.043140
1155.290, 5.384109
1155.772, 4.921921
1156.255, 5.240406
1156.737, 4.744296
1157.219, 2.679238
1157.701, 0.9935580
1158.183, 0.5775180
1158.665, 1.176281
1159.147, 2.520236
1159.629, 4.317772
1160.112, 5.642825
1160.594, 6.035878
1161.076, 5.956216
1161.558, 4.871133
1162.040, 4.140256
1162.522, 5.672115
1163.004, 8.758284
1163.486, 8.782789
1163.969, 6.165700
1164.451, 3.907746
1164.933, 4.036171
1165.415, 4.686320
1165.897, 5.769028
1166.379, 6.536495
1166.861, 5.637522
1167.343, 3.316247
1167.825, 2.472188
1168.308, 3.217687
1168.790, 3.966468
1169.272, 3.668146
1169.754, 3.134504
1170.236, 2.635703
1170.718, 2.216600
1171.200, 2.088273
1171.682, 2.193520
1172.165, 2.317055
1172.647, 2.435107
1173.129, 2.447670
1173.611, 1.638098
1174.093, 1.272679
1174.575, 2.679344
1175.057, 5.264748
1175.539, 7.320572
1176.021, 8.880876
1176.504, 9.032068
1176.986, 7.352333
1177.468, 5.463056
1177.950, 4.903308
1178.432, 4.719729
1178.914, 3.892867
1179.396, 2.526729
1179.878, 2.153539
1180.360, 2.821767
1180.843, 3.857886
1181.325, 5.280189
1181.807, 6.327193
1182.289, 6.049664
1182.771, 5.091282
1183.253, 3.879316
1183.735, 2.382756
1184.217, 2.102389
1184.699, 3.130658
1185.182, 4.859068
1185.664, 7.752542
1186.146, 9.887192
1186.628, 8.159285
1187.110, 4.736569
1187.592, 2.390089
1188.074, 1.271998
1188.556, 2.647172
1189.039, 7.120275
1189.521, 10.40727
1190.003, 9.530578
1190.485, 6.953453
1190.967, 5.364941
1191.449, 4.356003
1191.931, 3.131716
1192.413, 0.8418790
1192.896, 0.5134090
1193.378, 2.529914
1193.860, 4.753599
1194.342, 6.041497
1194.824, 6.457100
1195.306, 6.009315
1195.788, 4.767296
1196.270, 2.765445
1196.752, 1.253656
1197.235, 2.983744
1197.717, 1.979167
1198.199, 2.4734000E-02
1198.681, 1.936079
1199.163, 3.695922
1199.645, 5.504980
1200.127, 7.076045
1200.609, 7.378203
1201.092, 5.309520
1201.574, 4.263188
1202.056, 4.584373
1202.538, 5.348425
1203.020, 5.973505
1203.502, 6.343664
1203.984, 6.639408
1204.466, 6.697474
1204.948, 5.591679
1205.431, 1.968070
1205.913, 0.1791140
1206.395, 1.019729
1206.877, 2.911530
1207.359, 4.437554
1207.841, 5.668349
1208.323, 6.674007
1208.805, 7.487546
1209.287, 8.340841
1209.770, 9.753915
1210.252, 9.930817
1210.734, 8.283590
1211.216, 6.178404
1211.698, 4.935671
1212.180, 4.442125
1212.662, 4.780119
1213.144, 5.893451
1213.626, 6.852575
1214.109, 7.728746
1214.591, 7.997023
1215.073, 7.468596
1215.555, 6.556420
1216.037, 5.498460
1216.519, 4.440023
1217.001, 3.379433
1217.483, 2.324874
1217.966, 2.124874
1218.448, 2.975384
1218.930, 4.291839
1219.412, 6.398622
1219.894, 7.648339
1220.376, 3.855561
1220.858, 1.143044
1221.340, 1.811524
1221.823, 3.052094
1222.305, 6.598321
1222.787, 8.598023
1223.269, 8.919675
1223.751, 7.089773
1224.233, 4.613033
1224.715, 3.174833
1225.197, 2.572272
1225.679, 2.864075
1226.162, 4.329091
1226.644, 3.839087
1227.126, 0.6635580
1227.608, 1.287316
1228.090, 0.2586450
1228.572, 1.990056
1229.054, 3.967248
1229.536, 5.284681
1230.019, 5.079943
1230.501, 2.881565
1230.983, 2.119375
1231.465, 3.073081
1231.947, 3.677761
1232.429, 2.843073
1232.911, 1.752398
1233.393, 1.660470
1233.875, 2.185632
1234.358, 2.936428
1234.840, 3.913618
1235.322, 4.849532
1235.804, 5.820231
1236.286, 5.714945
1236.768, 3.065341
1237.250, 0.8795770
1237.732, 3.370588
1238.214, 7.360216
1238.697, 8.611516
1239.179, 6.737909
1239.661, 5.499530
1240.143, 4.921068
1240.625, 4.833946
1241.107, 5.315593
1241.589, 6.024557
1242.071, 7.481828
1242.553, 8.496084
1243.036, 7.253037
1243.518, 3.523035
1244.000, 2.556515
1244.482, 4.244512
1244.964, 5.444272
1245.446, 4.047980
1245.928, 2.320267
1246.410, 1.398854
1246.893, 1.220851
1247.375, 1.746090
1247.857, 2.987488
1248.339, 3.649366
1248.821, 3.826361
1249.303, 4.559752
1249.785, 7.479047
1250.267, 9.220490
1250.750, 5.887790
1251.232, 1.923785
1251.714, 1.594398
1252.196, 4.557172
1252.678, 6.301054
1253.160, 6.884097
1253.642, 6.726583
1254.124, 5.359376
1254.606, 4.221979
1255.089, 3.662392
1255.571, 3.641969
1256.053, 4.409203
1256.535, 5.759582
1257.017, 6.669451
1257.499, 7.092034
1257.981, 6.825864
1258.463, 5.077435
1258.946, 3.620458
1259.428, 2.538739
1259.910, 2.133005
1260.392, 3.018986
1260.874, 4.693210
1261.356, 5.637224
1261.838, 5.682348
1262.320, 5.864907
1262.802, 6.678643
1263.285, 6.100762
1263.767, 3.307115
1264.249, 0.7912770
1264.731, 0.7715530
1265.213, 2.127646
1265.695, 4.005672
1266.177, 5.877457
1266.659, 6.896699
1267.141, 6.777550
1267.624, 5.582049
1268.106, 2.886912
1268.588, 0.7672400
1269.070, 1.313078
1269.552, 2.969988
1270.034, 4.056696
1270.516, 4.649623
1270.998, 4.892337
1271.480, 5.023365
1271.963, 3.882893
1272.445, 1.214369
1272.927, 0.5733280
1273.409, 1.470332
1273.891, 3.950235
1274.373, 3.382585
1274.855, 1.367959
1275.337, 0.6853970
1275.820, 1.494133
1276.302, 3.447770
1276.784, 6.482913
1277.266, 7.871485
1277.748, 3.434346
1278.230, 0.4907500
1278.712, 1.274148
1279.194, 4.855433
1279.677, 5.625410
1280.159, 3.665766
1280.641, 3.123111
1281.123, 3.857597
1281.605, 4.256772
1282.087, 2.544653
1282.569, 1.553517
1283.051, 2.845162
1283.533, 4.598404
1284.016, 5.655794
1284.498, 5.912261
1284.980, 4.271682
1285.462, 1.374603
1285.944, 0.1134660
1286.426, 2.727597
1286.908, 4.269246
1287.390, 3.284507
1287.873, 1.866080
1288.355, 2.461927
1288.837, 3.879811
1289.319, 3.573500
1289.801, 2.275043
1290.283, 1.763775
1290.765, 4.369409
1291.247, 5.078643
1291.729, 3.395938
1292.212, 1.618753
1292.694, 1.137803
1293.176, 1.710097
1293.658, 4.042754
1294.140, 6.683858
1294.622, 7.127604
1295.104, 4.293415
1295.586, 2.670927
1296.068, 2.285876
1296.551, 2.269944
1297.033, 2.458247
1297.515, 2.305926
1297.997, 1.026116
1298.479, 0.1937030
1298.961, 0.1061250
1299.443, 1.905629
1299.925, 3.484117
1300.407, 3.300463
1300.890, 2.390606
1301.372, 1.517234
1301.854, 0.0000000E+00
##END=



