##NAMES=Strontiojoaquinite
##RRUFFID=R060331
##IDEAL CHEMISTRY=(Na,Fe)_2_Ba_2_Sr_2_Ti_2_(SiO_3_)_8_(O,OH)_2_&#183;H_2_O
##LOCALITY=Mina Numero Uno, San Benito County, California, USA
##OWNER=RRUFF
##SOURCE=Michael Scott
##DESCRIPTION=Pale yellow tapering pseudotetragonal prisms
##STATUS=The identification of this mineral is confirmed by single-crystal X-ray diffraction and chemical analysis.
##URL=rruff.info/R060331
##MEASURED CHEMISTRY=(Na_1.00_Fe_0.69_Zn_0.20_Mn_0.11_)_Σ=2_Ba_2.00_(Sr_1.89_Ba_0.08_Ca_0.03_)_Σ=2_Ti_2.00_Si_8.00_O_24_(O_1.00_(OH)_1.00_)_Σ=2_·1.50H_2_O; OH estimated by charge balance
143.4579, 0.0000000E+00
143.9400, 2.9495001E-02
144.4221, 0.1206970
144.9042, 0.2267910
145.3863, 0.4465480
145.8685, 0.3096010
146.3506, 7.2632000E-02
146.8327, 9.4375998E-02
147.3148, 5.8609001E-02
147.7969, 0.5321960
148.2790, 0.9510040
148.7612, 0.8657840
149.2433, 0.5373080
149.7254, 0.3388210
150.2075, 0.4849240
150.6896, 0.6706850
151.1717, 0.6255190
151.6539, 0.2556000
152.1360, 5.8272999E-02
152.6181, 6.2850997E-02
153.1002, 0.6598510
153.5823, 1.262405
154.0644, 1.815521
154.5466, 2.207825
155.0287, 2.254333
155.5108, 1.833435
155.9929, 1.256241
156.4750, 1.063766
156.9571, 1.382614
157.4393, 1.832275
157.9214, 2.402252
158.4035, 3.007751
158.8856, 3.568619
159.3677, 4.048553
159.8498, 4.458221
160.3320, 4.821823
160.8141, 4.935989
161.2962, 5.248291
161.7783, 5.936707
162.2604, 6.821808
162.7425, 7.668900
163.2247, 8.342361
163.7068, 8.850266
164.1889, 9.215317
164.6710, 9.017639
165.1531, 9.116531
165.6352, 9.995102
166.1174, 11.40001
166.5995, 12.68414
167.0816, 13.37737
167.5637, 13.46863
168.0458, 13.57909
168.5279, 13.52280
169.0101, 13.63152
169.4922, 14.22363
169.9743, 15.24741
170.4564, 16.23807
170.9385, 16.80717
171.4206, 16.96915
171.9028, 17.17981
172.3849, 17.56766
172.8670, 18.05261
173.3491, 18.48380
173.8312, 19.05107
174.3133, 19.76663
174.7955, 20.97852
175.2776, 22.52414
175.7597, 23.61151
176.2418, 23.80898
176.7239, 23.63919
177.2060, 23.90213
177.6882, 24.89607
178.1703, 25.94852
178.6524, 26.87730
179.1345, 27.90891
179.6166, 28.64952
180.0987, 29.31436
180.5809, 29.94472
181.0630, 30.30142
181.5451, 30.23839
182.0272, 30.20308
182.5093, 30.46295
182.9914, 30.94479
183.4736, 31.40855
183.9557, 31.63596
184.4378, 31.61320
184.9199, 31.69548
185.4020, 32.29245
185.8841, 32.62685
186.3663, 32.40285
186.8484, 31.67821
187.3305, 30.64609
187.8126, 29.38078
188.2947, 27.70737
188.7768, 26.91295
189.2590, 27.99057
189.7411, 28.95671
190.2232, 28.85962
190.7053, 27.72751
191.1874, 26.19994
191.6695, 24.92804
192.1517, 23.99147
192.6338, 23.01411
193.1159, 21.73981
193.5980, 20.61618
194.0801, 20.11574
194.5622, 20.21378
195.0444, 20.28828
195.5265, 19.59219
196.0086, 17.81688
196.4907, 16.46397
196.9728, 16.00194
197.4549, 15.69502
197.9371, 14.81340
198.4192, 13.22377
198.9013, 11.42744
199.3834, 9.991333
199.8655, 8.911621
200.3476, 7.827728
200.8298, 6.446777
201.3119, 5.214905
201.7940, 4.638489
202.2761, 4.962936
202.7582, 5.356583
203.2403, 4.673264
203.7225, 3.172501
204.2046, 2.003387
204.6867, 1.823395
205.1688, 2.248245
205.6509, 2.353928
206.1330, 1.902634
206.6152, 1.370270
207.0973, 1.211121
207.5794, 1.313400
208.0615, 1.294022
208.5436, 0.7851410
209.0257, 7.4859999E-02
209.5079, 0.5864260
209.9900, 0.4914860
210.4721, 0.3128360
210.9542, 0.4402770
211.4363, 0.7644350
211.9184, 0.9471130
212.4006, 0.5867310
212.8827, 0.2739560
213.3648, 0.6606140
213.8469, 8.2580999E-02
214.3290, 0.6404420
214.8111, 0.3038330
215.2933, 0.6979370
215.7754, 1.707611
216.2575, 2.146759
216.7396, 1.978607
217.2217, 2.149384
217.7038, 2.990479
218.1859, 3.921906
218.6681, 4.774689
219.1502, 5.575836
219.6323, 6.449158
220.1144, 7.472015
220.5965, 8.567963
221.0786, 9.645172
221.5608, 10.84033
222.0429, 12.02609
222.5250, 13.08414
223.0071, 14.06705
223.4892, 15.12601
223.9713, 16.39706
224.4535, 17.87775
224.9356, 19.34143
225.4177, 20.64114
225.8998, 22.09897
226.3819, 24.07022
226.8640, 26.36166
227.3462, 28.35965
227.8283, 29.49457
228.3104, 29.68973
228.7925, 30.38666
229.2746, 31.77112
229.7567, 33.37817
230.2389, 35.02042
230.7210, 36.67239
231.2031, 38.35721
231.6852, 40.15018
232.1673, 42.01208
232.6494, 43.31012
233.1316, 43.27505
233.6137, 43.36868
234.0958, 44.63217
234.5779, 46.93869
235.0600, 49.28284
235.5421, 50.98071
236.0243, 52.04474
236.5064, 53.10300
236.9885, 54.02634
237.4706, 55.03320
237.9527, 56.35400
238.4348, 57.96161
238.9170, 59.53214
239.3991, 60.89627
239.8812, 62.05295
240.3633, 63.06503
240.8454, 63.82788
241.3275, 64.55759
241.8097, 65.53113
242.2918, 66.73865
242.7739, 67.70029
243.2560, 68.06082
243.7381, 68.02502
244.2202, 67.99789
244.7024, 67.95990
245.1845, 68.01358
245.6666, 68.46356
246.1487, 69.32700
246.6308, 69.68799
247.1129, 68.56497
247.5951, 66.98978
248.0772, 66.38828
248.5593, 67.33066
249.0414, 68.29855
249.5235, 67.60519
250.0056, 65.13367
250.4878, 62.60590
250.9699, 60.45590
251.4520, 58.62662
251.9341, 57.18420
252.4162, 56.17896
252.8983, 55.25122
253.3805, 54.03903
253.8626, 52.52444
254.3447, 50.86826
254.8268, 48.74054
255.3089, 46.73312
255.7910, 45.36386
256.2732, 44.69360
256.7553, 44.18155
257.2374, 43.22226
257.7195, 41.73993
258.2016, 40.33939
258.6837, 39.28140
259.1659, 38.19089
259.6480, 36.83505
260.1301, 35.23016
260.6122, 33.59756
261.0943, 32.09830
261.5764, 30.70029
262.0586, 29.52435
262.5407, 29.18753
263.0228, 28.65881
263.5049, 27.32526
263.9870, 25.25970
264.4691, 23.03809
264.9513, 21.24286
265.4334, 19.95300
265.9155, 18.51553
266.3976, 16.78296
266.8797, 14.96124
267.3618, 13.13196
267.8440, 11.33307
268.3261, 9.529449
268.8082, 7.606110
269.2903, 5.528961
269.7724, 3.937653
270.2545, 3.417542
270.7367, 2.948151
271.2188, 2.144287
271.7009, 1.072662
272.1830, 6.7261003E-02
272.6651, 0.5638120
273.1472, 0.8151250
273.6294, 1.169678
274.1115, 1.704315
274.5936, 2.357178
275.0757, 3.174591
275.5578, 4.063324
276.0399, 4.984619
276.5221, 5.956055
277.0042, 6.875854
277.4863, 7.128906
277.9684, 5.658569
278.4505, 4.634338
278.9326, 4.543884
279.4148, 4.987671
279.8969, 5.474396
280.3790, 5.766418
280.8611, 5.840240
281.3432, 5.615662
281.8253, 4.661804
282.3075, 3.905487
282.7896, 3.568573
283.2717, 3.381134
283.7538, 3.005249
284.2359, 2.321228
284.7180, 1.525452
285.2002, 1.052155
285.6823, 1.230713
286.1644, 1.298218
286.6465, 1.406708
287.1286, 1.328278
287.6107, 0.7845760
288.0929, 0.2766420
288.5750, 1.577515
289.0571, 2.710876
289.5392, 3.497620
290.0213, 4.510956
290.5034, 5.925629
290.9856, 7.418182
291.4677, 8.704651
291.9498, 9.761261
292.4319, 10.82709
292.9140, 12.18005
293.3961, 13.95279
293.8783, 15.39883
294.3604, 16.15051
294.8425, 16.92618
295.3246, 18.30548
295.8067, 20.17609
296.2888, 21.85178
296.7710, 22.67938
297.2531, 22.58652
297.7352, 23.03717
298.2173, 24.40817
298.6994, 25.83383
299.1815, 26.88071
299.6637, 27.65710
300.1458, 28.54547
300.6279, 29.82291
301.1100, 31.42334
301.5921, 32.88657
302.0742, 33.88681
302.5564, 35.12781
303.0385, 37.03925
303.5206, 39.29468
304.0027, 41.29791
304.4848, 42.72495
304.9669, 43.79126
305.4491, 45.16727
305.9312, 47.12845
306.4133, 49.01874
306.8954, 50.56583
307.3775, 52.06049
307.8596, 53.96512
308.3418, 56.43878
308.8239, 59.11093
309.3060, 61.29056
309.7881, 62.70026
310.2702, 64.18250
310.7523, 65.68652
311.2345, 67.33026
311.7166, 69.26859
312.1987, 71.50623
312.6808, 73.86716
313.1629, 76.17047
313.6451, 78.40659
314.1272, 80.46866
314.6093, 82.29697
315.0914, 83.97562
315.5735, 85.41220
316.0556, 86.68347
316.5378, 88.17480
317.0199, 90.28650
317.5020, 93.02762
317.9841, 95.46686
318.4662, 97.24240
318.9483, 99.11450
319.4305, 101.5318
319.9126, 104.3469
320.3947, 107.1285
320.8768, 109.6119
321.3589, 111.8684
321.8410, 114.2576
322.3232, 116.7576
322.8053, 119.4201
323.2874, 122.3145
323.7695, 125.3611
324.2516, 128.4529
324.7337, 131.5275
325.2159, 134.5873
325.6980, 137.5880
326.1801, 140.4915
326.6622, 143.3769
327.1443, 146.1572
327.6264, 148.9745
328.1086, 152.1398
328.5907, 155.6831
329.0728, 159.0740
329.5549, 161.5209
330.0370, 162.4561
330.5191, 164.2646
331.0013, 168.0475
331.4834, 171.8387
331.9655, 174.0060
332.4476, 174.6548
332.9297, 175.2400
333.4118, 177.0887
333.8940, 180.2915
334.3761, 182.8663
334.8582, 184.3719
335.3403, 185.8690
335.8224, 188.0814
336.3045, 190.6839
336.7867, 192.8917
337.2688, 194.1868
337.7509, 194.7888
338.2330, 195.7424
338.7151, 197.5158
339.1972, 199.1009
339.6793, 200.4521
340.1614, 201.5405
340.6436, 202.2894
341.1257, 202.6830
341.6078, 202.8389
342.0899, 202.9705
342.5720, 202.8679
343.0541, 203.1233
343.5363, 204.0995
344.0184, 205.1502
344.5005, 205.7463
344.9826, 205.8264
345.4647, 205.6962
345.9468, 205.6901
346.4290, 205.8567
346.9111, 205.7830
347.3932, 205.4868
347.8753, 204.9848
348.3574, 204.3095
348.8395, 203.4340
349.3217, 202.2571
349.8038, 200.6786
350.2859, 198.7396
350.7680, 196.9850
351.2501, 195.9757
351.7322, 194.4946
352.2144, 191.9571
352.6965, 188.9310
353.1786, 186.3225
353.6607, 184.5389
354.1428, 183.0219
354.6249, 180.3538
355.1071, 175.2874
355.5892, 171.1051
356.0713, 168.6940
356.5534, 166.6435
357.0355, 163.8623
357.5176, 160.1578
357.9998, 156.0612
358.4819, 152.2043
358.9640, 148.6441
359.4461, 145.0941
359.9282, 141.5447
360.4103, 137.9759
360.8925, 134.2151
361.3746, 130.4095
361.8567, 127.0144
362.3388, 124.4714
362.8209, 122.6163
363.3030, 119.9014
363.7852, 115.5107
364.2673, 111.2604
364.7494, 107.5947
365.2315, 104.2799
365.7136, 101.0918
366.1957, 97.94464
366.6779, 94.74170
367.1600, 91.23492
367.6421, 87.13220
368.1242, 83.48059
368.6063, 80.71228
369.0884, 78.21307
369.5706, 75.70721
370.0527, 73.09851
370.5348, 70.28763
371.0169, 66.94257
371.4990, 63.00214
371.9811, 59.74796
372.4633, 57.84323
372.9454, 55.99878
373.4275, 53.50980
373.9096, 50.61087
374.3917, 47.86810
374.8738, 45.65942
375.3560, 43.84579
375.8381, 42.02301
376.3202, 40.12482
376.8023, 38.36557
377.2844, 36.80951
377.7665, 35.44019
378.2487, 34.34290
378.7308, 33.60809
379.2129, 32.82141
379.6950, 31.25934
380.1771, 28.86423
380.6592, 27.09839
381.1414, 26.71185
381.6235, 26.74048
382.1056, 26.26892
382.5877, 25.30756
383.0698, 24.54849
383.5519, 24.53378
384.0341, 25.04807
384.5162, 25.43814
384.9983, 25.64206
385.4804, 25.73700
385.9625, 25.79572
386.4446, 25.79276
386.9268, 25.63116
387.4089, 24.93823
387.8910, 24.35196
388.3731, 24.74429
388.8552, 26.07855
389.3373, 27.33374
389.8195, 28.03964
390.3016, 28.36694
390.7837, 28.70355
391.2658, 29.05881
391.7479, 29.39478
392.2300, 29.63156
392.7122, 29.84073
393.1943, 30.17535
393.6764, 30.67334
394.1585, 31.29987
394.6406, 32.13663
395.1227, 33.21298
395.6049, 33.96494
396.0870, 33.85709
396.5691, 33.71561
397.0512, 34.38306
397.5333, 35.80997
398.0154, 37.22235
398.4976, 38.06375
398.9797, 38.45941
399.4618, 39.21304
399.9439, 40.82495
400.4260, 42.10083
400.9081, 42.37167
401.3903, 42.19312
401.8724, 42.52554
402.3545, 43.70102
402.8366, 45.13116
403.3187, 45.85873
403.8008, 45.54443
404.2830, 44.17357
404.7651, 45.76512
405.2472, 46.72416
405.7293, 47.08471
406.2114, 45.05413
406.6935, 46.11119
407.1757, 45.93089
407.6578, 45.69983
408.1399, 47.19145
408.6220, 45.50867
409.1041, 46.97297
409.5862, 47.18102
410.0684, 47.96405
410.5505, 47.50204
411.0326, 46.93646
411.5147, 46.47345
411.9968, 46.07321
412.4789, 45.57764
412.9611, 45.39914
413.4432, 45.85977
413.9253, 46.37411
414.4074, 46.63504
414.8895, 46.62436
415.3716, 46.45151
415.8538, 46.09778
416.3359, 45.57870
416.8180, 45.53128
417.3001, 46.46652
417.7822, 47.18970
418.2643, 46.96979
418.7465, 46.41589
419.2286, 46.45587
419.7107, 47.56027
420.1928, 48.98062
420.6749, 49.45776
421.1570, 48.82190
421.6392, 48.49692
422.1213, 49.02429
422.6034, 49.83896
423.0855, 50.55930
423.5676, 51.16354
424.0497, 51.68433
424.5319, 52.02716
425.0140, 52.30594
425.4961, 52.88931
425.9782, 53.88794
426.4603, 54.88672
426.9424, 55.62836
427.4246, 56.15137
427.9067, 56.47565
428.3888, 56.33344
428.8709, 56.33185
429.3530, 57.10342
429.8351, 58.48956
430.3173, 59.80832
430.7994, 60.89182
431.2815, 61.65753
431.7636, 61.70975
432.2457, 60.87808
432.7278, 60.64005
433.2100, 61.93903
433.6921, 63.64938
434.1742, 64.64288
434.6563, 64.79868
435.1384, 64.44437
435.6205, 63.77209
436.1027, 62.80789
436.5848, 61.91156
437.0669, 61.39828
437.5490, 60.59204
438.0311, 59.25198
438.5132, 57.49313
438.9954, 55.49277
439.4775, 53.32361
439.9596, 50.93729
440.4417, 48.27188
440.9238, 45.28189
441.4059, 42.06613
441.8881, 38.00381
442.3702, 34.26532
442.8523, 31.79279
443.3344, 30.32123
443.8165, 28.81067
444.2986, 26.46243
444.7808, 23.46497
445.2629, 21.08997
445.7450, 20.08347
446.2271, 18.55154
446.7092, 15.54120
447.1913, 12.22269
447.6735, 9.765625
448.1556, 8.477722
448.6377, 7.694305
449.1198, 6.660858
449.6019, 5.364258
450.0840, 4.140564
450.5662, 3.075684
451.0483, 2.004974
451.5304, 0.6200260
452.0125, 0.8394470
452.4946, 1.787964
452.9767, 1.719574
453.4589, 1.236938
453.9410, 1.352081
454.4231, 2.106995
454.9052, 2.822174
455.3873, 3.240967
455.8694, 3.472382
456.3516, 3.734467
456.8337, 4.063354
457.3158, 4.171783
457.7979, 3.569855
458.2800, 2.758087
458.7621, 2.796814
459.2443, 3.894714
459.7264, 4.909485
460.2085, 4.817413
460.6906, 3.712921
461.1727, 3.006836
461.6548, 3.127533
462.1370, 3.195221
462.6191, 2.613037
463.1012, 1.722015
463.5833, 1.222168
464.0654, 1.385742
464.5475, 1.913208
465.0297, 2.325775
465.5118, 2.651306
465.9939, 2.759186
466.4760, 2.594635
466.9581, 2.279510
467.4402, 1.737396
467.9224, 1.090210
468.4045, 0.6632080
468.8866, 0.7179260
469.3687, 1.082825
469.8508, 0.9822390
470.3329, 7.8247003E-02
470.8151, 0.7404170
471.2972, 1.493805
471.7793, 2.062347
472.2614, 2.199310
472.7435, 1.931305
473.2256, 1.722290
473.7078, 2.127411
474.1899, 3.131683
474.6720, 3.949463
475.1541, 4.440155
475.6362, 4.987427
476.1183, 5.706879
476.6005, 6.561218
477.0826, 7.576080
477.5647, 8.876434
478.0468, 10.10254
478.5289, 10.74234
479.0110, 10.87375
479.4932, 11.20914
479.9753, 11.91525
480.4574, 12.85269
480.9395, 13.88995
481.4216, 15.02139
481.9037, 16.28152
482.3859, 17.82056
482.8680, 19.40848
483.3501, 20.92419
483.8322, 22.33124
484.3143, 23.45187
484.7964, 24.12415
485.2786, 24.50391
485.7607, 25.08179
486.2428, 25.97031
486.7249, 26.89200
487.2070, 27.83322
487.6891, 28.82913
488.1713, 29.95059
488.6534, 31.16400
489.1355, 32.28214
489.6176, 33.12787
490.0997, 33.71716
490.5818, 34.33261
491.0640, 34.66348
491.5461, 35.36813
492.0282, 37.02161
492.5103, 38.86789
492.9924, 39.90836
493.4745, 39.89813
493.9567, 39.64090
494.4388, 40.29816
494.9209, 42.01044
495.4030, 43.24850
495.8851, 43.68286
496.3672, 43.95782
496.8494, 44.34854
497.3315, 44.83340
497.8136, 45.34854
498.2957, 45.83875
498.7778, 46.40372
499.2599, 47.29898
499.7421, 48.49426
500.2242, 49.32596
500.7063, 49.42130
501.1884, 49.33371
501.6705, 49.80505
502.1526, 50.79938
502.6348, 51.69318
503.1169, 52.44308
503.5990, 52.93839
504.0811, 52.93274
504.5632, 52.51181
505.0453, 52.15115
505.5274, 52.10938
506.0096, 52.29465
506.4917, 52.45135
506.9738, 52.69632
507.4559, 52.71912
507.9380, 52.52106
508.4201, 52.07446
508.9023, 51.23315
509.3844, 50.07907
509.8665, 48.92325
510.3486, 48.04568
510.8307, 47.41998
511.3128, 46.56213
511.7950, 45.23373
512.2771, 43.93454
512.7592, 42.85913
513.2413, 41.78958
513.7234, 40.47095
514.2056, 38.87094
514.6877, 37.31622
515.1698, 36.12573
515.6519, 35.31570
516.1340, 34.76651
516.6161, 34.73135
517.0983, 34.22324
517.5804, 32.29926
518.0625, 29.75497
518.5446, 27.63663
519.0267, 26.14233
519.5089, 25.00192
519.9910, 24.35086
520.4731, 23.96317
520.9552, 23.05853
521.4373, 21.36462
521.9194, 19.47186
522.4016, 17.92746
522.8837, 16.76730
523.3658, 15.72229
523.8479, 14.90100
524.3300, 14.11804
524.8121, 13.44013
525.2943, 12.72641
525.7764, 11.58624
526.2585, 9.890839
526.7406, 8.113617
527.2227, 7.101624
527.7048, 7.230591
528.1870, 6.944244
528.6691, 5.814880
529.1512, 4.708984
529.6333, 3.956635
530.1154, 3.442322
530.5975, 2.956512
531.0797, 2.413803
531.5618, 1.830383
532.0439, 1.132721
532.5260, 0.2563170
533.0081, 0.3098600
533.4902, 0.2718350
533.9724, 0.1454320
534.4545, 0.2444460
534.9366, 0.5615230
535.4187, 1.062912
535.9008, 1.998795
536.3829, 2.909378
536.8651, 3.212692
537.3472, 2.984528
537.8293, 2.672455
538.3114, 2.410065
538.7935, 2.205383
539.2756, 2.054977
539.7578, 1.933701
540.2399, 1.997055
540.7220, 2.562943
541.2041, 3.055969
541.6862, 3.014709
542.1683, 2.562027
542.6505, 2.044693
543.1326, 1.632721
543.6147, 1.389908
544.0968, 1.525421
544.5789, 2.433701
545.0610, 2.903473
545.5432, 2.659317
546.0253, 2.241333
546.5074, 1.841263
546.9895, 1.519745
547.4716, 1.372116
547.9537, 1.541748
548.4359, 1.777954
548.9180, 1.390717
549.4001, 0.2313840
549.8822, 0.4909670
550.3643, 0.1018220
550.8464, 0.5191350
551.3286, 0.5142360
551.8107, 8.1450999E-02
552.2928, 0.8162380
552.7749, 1.726273
553.2570, 2.552673
553.7391, 2.994873
554.2213, 3.077942
554.7034, 2.949768
555.1855, 2.614639
555.6676, 2.255081
556.1497, 2.260208
556.6318, 2.878876
557.1140, 3.290970
557.5961, 3.248489
558.0782, 3.201111
558.5603, 3.548401
559.0424, 4.143082
559.5245, 4.502655
560.0067, 4.328476
560.4888, 3.916931
560.9709, 4.087082
561.4530, 5.178207
561.9351, 5.892258
562.4172, 5.850525
562.8994, 5.582169
563.3815, 5.191681
563.8636, 4.782776
564.3457, 4.601593
564.8278, 4.834961
565.3099, 5.291092
565.7921, 5.715103
566.2742, 6.107513
566.7563, 6.473282
567.2384, 6.804398
567.7205, 7.123291
568.2026, 7.385483
568.6848, 7.581268
569.1669, 8.079910
569.6490, 9.313690
570.1311, 10.52393
570.6132, 11.17915
571.0953, 11.40189
571.5775, 11.47731
572.0596, 11.51796
572.5417, 11.70340
573.0238, 12.39984
573.5059, 13.90016
573.9880, 15.01443
574.4702, 15.32262
574.9523, 15.70122
575.4344, 16.57927
575.9165, 17.75685
576.3986, 18.84824
576.8807, 19.68782
577.3629, 20.39964
577.8450, 21.05029
578.3271, 21.64510
578.8092, 22.69756
579.2913, 24.59660
579.7734, 26.41365
580.2556, 27.15639
580.7377, 27.25407
581.2198, 27.79999
581.7019, 29.25539
582.1840, 30.86206
582.6661, 32.20132
583.1483, 33.34557
583.6304, 34.42072
584.1125, 35.45634
584.5946, 36.47928
585.0767, 37.49744
585.5588, 38.50983
586.0409, 39.88977
586.5230, 42.09940
587.0051, 44.08321
587.4872, 45.61752
587.9694, 46.81728
588.4515, 47.79185
588.9336, 48.57552
589.4157, 49.14938
589.8978, 49.26920
590.3799, 49.04683
590.8621, 49.81667
591.3442, 52.13239
591.8263, 54.23447
592.3084, 55.20908
592.7905, 55.58249
593.2726, 55.81200
593.7548, 55.87308
594.2369, 56.09978
594.7190, 57.04486
595.2011, 58.15312
595.6832, 58.41324
596.1653, 57.85947
596.6475, 57.55768
597.1296, 58.22617
597.6117, 59.43970
598.0938, 59.97427
598.5759, 59.34538
599.0580, 58.69034
599.5402, 57.81651
600.0223, 57.17480
600.5044, 57.25610
600.9865, 57.81145
601.4686, 58.15561
601.9507, 57.84628
602.4329, 57.11746
602.9150, 56.62268
603.3971, 56.46376
603.8792, 56.20149
604.3613, 55.61832
604.8434, 55.07611
605.3256, 54.80991
605.8077, 54.76385
606.2898, 54.83189
606.7719, 55.23373
607.2540, 55.58267
607.7361, 55.34116
608.2183, 54.70003
608.7004, 54.25191
609.1825, 54.20107
609.6646, 54.25513
610.1467, 54.04189
610.6288, 53.53839
611.1110, 53.21790
611.5931, 53.20714
612.0752, 53.19664
612.5573, 53.16539
613.0394, 53.07300
613.5215, 52.84157
614.0037, 52.47992
614.4858, 52.13492
614.9679, 51.94650
615.4500, 51.88513
615.9321, 51.80128
616.4142, 51.69827
616.8964, 51.55516
617.3785, 51.33160
617.8606, 51.08029
618.3427, 50.94147
618.8248, 50.94221
619.3069, 50.64597
619.7891, 49.65085
620.2712, 48.45673
620.7533, 47.51709
621.2354, 46.82983
621.7175, 46.28146
622.1996, 45.83321
622.6818, 45.41336
623.1639, 44.92169
623.6460, 44.47195
624.1281, 43.59962
624.6102, 41.67448
625.0923, 40.03143
625.5745, 39.58932
626.0566, 39.67381
626.5387, 39.08572
627.0208, 37.36917
627.5029, 35.42981
627.9850, 34.44400
628.4672, 34.24466
628.9493, 33.60153
629.4314, 32.29120
629.9135, 30.92975
630.3956, 29.80145
630.8777, 28.93167
631.3599, 28.39607
631.8420, 28.52313
632.3241, 28.25047
632.8062, 26.82083
633.2883, 25.11827
633.7704, 24.03578
634.2526, 23.58398
634.7347, 23.36731
635.2168, 23.16635
635.6989, 22.87521
636.1810, 22.12547
636.6631, 20.63731
637.1453, 19.41833
637.6274, 18.52977
638.1095, 17.95152
638.5916, 17.93568
639.0737, 18.21004
639.5558, 18.08524
640.0380, 17.06673
640.5201, 16.09430
641.0022, 16.28580
641.4843, 17.33495
641.9664, 18.23561
642.4485, 18.81847
642.9307, 19.05180
643.4128, 18.79646
643.8949, 18.13765
644.3770, 17.85898
644.8591, 17.96085
645.3412, 18.38203
645.8234, 19.37814
646.3055, 20.50589
646.7876, 21.30264
647.2697, 21.81224
647.7518, 22.44562
648.2339, 23.52190
648.7161, 24.86284
649.1982, 26.06480
649.6803, 27.14891
650.1624, 27.88185
650.6445, 27.82675
651.1266, 27.88341
651.6088, 28.96896
652.0909, 30.84702
652.5730, 32.58360
653.0551, 33.83400
653.5372, 35.05150
654.0193, 36.74147
654.5015, 38.51637
654.9836, 39.50549
655.4657, 39.60608
655.9478, 39.78300
656.4299, 40.96724
656.9120, 43.05270
657.3942, 44.99246
657.8763, 46.75873
658.3584, 48.40350
658.8405, 49.95488
659.3226, 51.38475
659.8047, 52.64070
660.2869, 53.74481
660.7690, 54.77592
661.2511, 55.69495
661.7332, 56.64922
662.2153, 57.95953
662.6974, 59.53107
663.1796, 60.76857
663.6617, 61.43652
664.1438, 62.08110
664.6259, 63.29568
665.1080, 65.08603
665.5901, 66.79422
666.0723, 68.43724
666.5544, 69.98941
667.0365, 71.47203
667.5186, 72.84492
668.0007, 74.02454
668.4828, 75.03473
668.9650, 76.03540
669.4471, 77.19426
669.9292, 78.39101
670.4113, 79.14862
670.8934, 79.36725
671.3755, 80.08061
671.8577, 81.91573
672.3398, 83.86125
672.8219, 84.87369
673.3040, 85.08142
673.7861, 85.00119
674.2682, 84.49738
674.7504, 83.95932
675.2325, 83.59654
675.7146, 83.31287
676.1967, 83.09851
676.6788, 82.88272
677.1609, 82.31110
677.6431, 81.02634
678.1252, 79.15262
678.6073, 77.33279
679.0894, 75.53746
679.5715, 73.91354
680.0536, 72.79364
680.5358, 71.60271
681.0179, 70.04271
681.5000, 68.08833
681.9821, 65.64531
682.4642, 62.19885
682.9464, 58.82497
683.4285, 56.55565
683.9106, 54.97627
684.3927, 53.05626
684.8748, 50.58447
685.3569, 48.11877
685.8391, 46.19423
686.3212, 44.71198
686.8033, 42.83922
687.2854, 40.03358
687.7675, 37.71475
688.2496, 36.47801
688.7318, 35.37683
689.2139, 33.75505
689.6960, 31.68161
690.1781, 29.56812
690.6602, 27.52191
691.1423, 25.66431
691.6245, 24.28583
692.1066, 23.24998
692.5887, 21.99312
693.0708, 20.39226
693.5529, 18.75459
694.0350, 17.26758
694.5172, 15.94534
694.9993, 14.80722
695.4814, 13.83815
695.9635, 13.09940
696.4456, 12.88074
696.9277, 12.65750
697.4099, 11.95984
697.8920, 10.92184
698.3741, 9.996689
698.8562, 9.409882
699.3383, 8.984055
699.8204, 8.462418
700.3026, 7.867203
700.7847, 7.354172
701.2668, 6.939743
701.7489, 6.645065
702.2310, 6.524704
702.7131, 6.528503
703.1953, 6.462570
703.6774, 6.273499
704.1595, 6.128540
704.6416, 6.071396
705.1237, 6.057449
705.6058, 6.046127
706.0880, 6.058777
706.5701, 6.120483
707.0522, 6.240402
707.5343, 6.478409
708.0164, 7.100220
708.4985, 8.071991
708.9807, 8.485336
709.4628, 8.023132
709.9449, 7.875107
710.4270, 8.993790
710.9091, 10.70311
711.3912, 11.49983
711.8734, 11.10323
712.3555, 10.92960
712.8376, 11.47986
713.3197, 12.13472
713.8018, 12.39789
714.2839, 12.45348
714.7661, 12.76361
715.2482, 13.49739
715.7303, 14.31274
716.2124, 14.74222
716.6945, 14.81107
717.1766, 14.94746
717.6588, 15.11180
718.1409, 15.48653
718.6230, 16.31495
719.1051, 17.27035
719.5872, 17.92052
720.0693, 18.25970
720.5515, 18.48901
721.0336, 18.72383
721.5157, 18.78950
721.9978, 18.36359
722.4799, 17.77493
722.9620, 17.65366
723.4442, 18.09554
723.9263, 18.52067
724.4084, 18.34122
724.8905, 17.67651
725.3726, 17.14716
725.8547, 16.79839
726.3369, 16.42007
726.8190, 15.92725
727.3011, 15.42307
727.7832, 15.05754
728.2653, 14.78105
728.7474, 14.37136
729.2296, 13.76832
729.7117, 13.04284
730.1938, 12.07790
730.6759, 11.09090
731.1580, 10.38290
731.6401, 9.947594
732.1223, 9.554871
732.6044, 9.055481
733.0865, 8.445869
733.5686, 7.606094
734.0507, 6.429123
734.5328, 5.828110
735.0150, 6.259789
735.4971, 6.708580
735.9792, 6.440697
736.4613, 5.725266
736.9434, 5.070724
737.4255, 4.549088
737.9077, 4.004639
738.3898, 3.272232
738.8719, 2.576805
739.3540, 2.154526
739.8361, 1.939713
740.3182, 1.698868
740.8004, 1.321342
741.2825, 0.8939820
741.7646, 0.5546110
742.2467, 0.3008580
742.7288, 3.0617001E-02
743.2109, 0.5209880
743.6931, 0.8324740
744.1752, 0.6574400
744.6573, 0.3584820
745.1394, 0.4846190
745.6215, 1.064346
746.1036, 1.521980
746.5858, 1.579849
747.0679, 1.658119
747.5500, 2.119576
748.0321, 2.697525
748.5142, 2.955658
748.9963, 2.828041
749.4785, 2.621201
749.9606, 2.609764
750.4427, 2.730904
750.9248, 2.770805
751.4069, 2.723511
751.8890, 2.626022
752.3712, 2.452766
752.8533, 2.294548
753.3354, 2.261086
753.8175, 2.322586
754.2996, 2.297165
754.7817, 2.082336
755.2639, 1.918541
755.7460, 1.931786
756.2281, 1.967102
756.7102, 1.874634
757.1923, 1.682648
757.6744, 1.517998
758.1566, 1.448250
758.6387, 1.415703
759.1208, 1.344383
759.6029, 1.237556
760.0850, 1.084938
760.5671, 0.8765950
761.0493, 0.6762470
761.5314, 0.5020680
762.0135, 0.3770600
762.4956, 0.3603590
762.9777, 0.5073550
763.4598, 0.5616380
763.9420, 0.5405200
764.4241, 0.3996660
764.9062, 3.9894000E-02
765.3883, 0.5348740
765.8704, 0.7156600
766.3525, 0.5529480
766.8347, 0.4287110
767.3168, 0.7029880
767.7989, 1.165260
768.2810, 1.394516
768.7631, 1.423378
769.2452, 1.527664
769.7274, 1.789391
770.2095, 2.029907
770.6916, 2.050766
771.1737, 1.896973
771.6558, 1.958305
772.1379, 2.492653
772.6201, 2.859955
773.1022, 2.864494
773.5843, 2.850235
774.0664, 3.003731
774.5485, 3.304489
775.0306, 3.708267
775.5128, 4.239464
775.9949, 4.671684
776.4770, 4.726093
776.9591, 4.598362
777.4412, 4.651661
777.9233, 4.883152
778.4055, 5.067112
778.8876, 5.090286
779.3697, 5.077858
779.8518, 5.241894
780.3339, 5.616459
780.8160, 5.854050
781.2982, 5.832993
781.7803, 5.879841
782.2624, 6.161980
782.7445, 6.495457
783.2266, 6.718559
783.7087, 6.831810
784.1909, 6.933762
784.6730, 7.048218
785.1551, 7.183781
785.6372, 7.399727
786.1193, 7.613514
786.6014, 7.624088
787.0836, 7.465160
787.5657, 7.469376
788.0478, 7.899757
788.5299, 8.510677
789.0120, 8.696335
789.4941, 8.421078
789.9763, 8.204891
790.4584, 8.098988
790.9405, 8.094307
791.4226, 8.204773
791.9047, 8.386066
792.3868, 8.541817
792.8690, 8.653076
793.3511, 8.804161
793.8332, 9.073448
794.3153, 9.339317
794.7974, 9.471058
795.2795, 9.595810
795.7617, 10.00515
796.2438, 10.68922
796.7259, 11.13075
797.2080, 10.72758
797.6901, 9.936539
798.1722, 9.715088
798.6544, 10.00739
799.1365, 10.38099
799.6186, 10.77230
800.1007, 10.96101
800.5828, 10.67718
801.0649, 10.06287
801.5471, 9.878746
802.0292, 10.55702
802.5113, 10.97241
802.9934, 10.94344
803.4755, 10.78591
803.9576, 10.57582
804.4398, 10.39346
804.9219, 10.34678
805.4040, 10.44576
805.8861, 10.50876
806.3682, 10.44661
806.8503, 10.34018
807.3325, 10.29662
807.8146, 10.25823
808.2967, 10.05229
808.7788, 9.641167
809.2609, 9.188114
809.7430, 8.850571
810.2252, 8.626495
810.7073, 8.501221
811.1894, 8.531269
811.6715, 8.376690
812.1536, 7.858589
812.6357, 7.324615
813.1179, 7.059368
813.6000, 6.971607
814.0821, 6.806969
814.5642, 6.466751
815.0463, 6.258244
815.5284, 6.350620
816.0106, 6.498436
816.4927, 6.603317
816.9748, 6.612850
817.4569, 6.417439
817.9390, 5.995789
818.4211, 5.564716
818.9033, 5.349930
819.3854, 5.270199
819.8675, 5.109539
820.3496, 4.874889
820.8317, 4.752453
821.3138, 4.834354
821.7960, 4.835403
822.2781, 4.423157
822.7602, 3.691872
823.2423, 3.320618
823.7244, 3.533257
824.2065, 3.625385
824.6887, 3.535465
825.1708, 3.341625
825.6529, 2.944614
826.1350, 2.494823
826.6171, 2.307457
827.0992, 2.495007
827.5814, 2.735107
828.0635, 2.931000
828.5456, 3.043289
829.0277, 3.038509
829.5098, 2.928143
829.9919, 2.707363
830.4741, 2.376808
830.9562, 2.042953
831.4383, 1.820744
831.9204, 1.688988
832.4025, 1.547699
832.8846, 1.393276
833.3668, 1.356556
833.8489, 1.505745
834.3310, 1.621727
834.8131, 1.504128
835.2952, 1.227795
835.7773, 1.084824
836.2595, 1.179897
836.7416, 1.220356
837.2237, 1.204849
837.7058, 1.136833
838.1879, 0.9833640
838.6700, 0.7950630
839.1522, 0.6362340
839.6343, 0.5223120
840.1164, 0.4406320
840.5985, 0.3374750
841.0806, 0.2992210
841.5627, 0.5097080
842.0449, 0.8375170
842.5270, 0.9521830
843.0091, 0.8082280
843.4912, 0.6611980
843.9733, 0.7167630
844.4554, 0.8665890
844.9376, 0.7831650
845.4197, 0.4275020
845.9018, 0.3080100
846.3839, 0.5936510
846.8660, 0.7599720
847.3481, 0.4361570
847.8303, 0.1098590
848.3124, 0.3871040
848.7945, 0.3493920
849.2766, 0.2926600
849.7587, 0.2336350
850.2408, 0.1487850
850.7230, 9.5245004E-02
851.2051, 0.2818490
851.6872, 6.5780997E-02
852.1693, 0.4488530
852.6514, 0.7071420
853.1335, 0.3437770
853.6157, 0.1545980
854.0978, 0.3166960
854.5799, 0.2956430
855.0620, 0.4019200
855.5441, 0.6230850
856.0262, 0.6933560
856.5084, 0.4784930
856.9905, 0.2070430
857.4726, 0.2603300
857.9547, 0.6251300
858.4368, 0.7456890
858.9189, 0.5113450
859.4011, 0.4695930
859.8832, 0.8362690
860.3653, 1.377281
860.8474, 1.913696
861.3295, 2.433704
861.8116, 2.859455
862.2938, 3.160728
862.7759, 3.413399
863.2580, 3.574692
863.7401, 3.740387
864.2222, 3.924694
864.7043, 4.172424
865.1865, 4.564171
865.6686, 5.122379
866.1507, 5.732178
866.6328, 6.348534
867.1149, 6.950909
867.5970, 7.505264
868.0792, 8.026497
868.5613, 8.522354
869.0434, 9.005684
869.5255, 9.552612
870.0076, 10.23085
870.4897, 10.99142
870.9719, 11.70163
871.4540, 12.35554
871.9361, 13.08142
872.4182, 13.89584
872.9003, 14.76506
873.3824, 15.71957
873.8646, 16.66143
874.3467, 17.37584
874.8288, 17.74839
875.3109, 18.48985
875.7930, 19.97688
876.2751, 21.30979
876.7573, 22.24046
877.2394, 22.97987
877.7215, 23.61275
878.2036, 24.21567
878.6857, 24.99162
879.1678, 26.05208
879.6500, 27.16919
880.1321, 28.30535
880.6142, 29.34470
881.0963, 30.07738
881.5784, 30.62411
882.0605, 31.34175
882.5427, 32.33591
883.0248, 33.32504
883.5069, 34.03549
883.9890, 34.51176
884.4711, 34.84818
884.9532, 35.05210
885.4354, 35.20004
885.9175, 35.29654
886.3996, 35.42735
886.8817, 35.66235
887.3638, 35.96278
887.8459, 36.22561
888.3281, 36.48070
888.8102, 36.60731
889.2923, 36.64746
889.7744, 36.49581
890.2565, 35.84713
890.7386, 35.17450
891.2208, 35.08913
891.7029, 35.53787
892.1850, 35.65062
892.6671, 35.09527
893.1492, 34.37456
893.6313, 33.52189
894.1135, 32.70412
894.5956, 32.09050
895.0777, 31.63502
895.5598, 31.23617
896.0419, 30.85910
896.5240, 30.35511
897.0062, 29.40814
897.4883, 28.35753
897.9704, 27.85597
898.4525, 27.74707
898.9346, 27.45461
899.4167, 26.84042
899.8989, 26.07265
900.3810, 25.26276
900.8631, 24.44625
901.3452, 23.72878
901.8273, 23.11936
902.3094, 22.49192
902.7916, 21.82974
903.2737, 21.17018
903.7558, 20.55379
904.2379, 19.92130
904.7200, 19.09679
905.2021, 18.01136
905.6843, 17.36507
906.1664, 17.75031
906.6485, 17.77750
907.1306, 16.99598
907.6127, 16.02536
908.0948, 15.20982
908.5770, 14.56768
909.0591, 14.09270
909.5412, 13.84948
910.0233, 13.42655
910.5054, 12.48610
910.9875, 11.51540
911.4697, 10.88812
911.9518, 10.45903
912.4339, 9.996223
912.9160, 9.457870
913.3981, 8.933304
913.8802, 8.481777
914.3624, 8.079514
914.8445, 7.715237
915.3265, 7.372696
915.8087, 6.960938
916.2908, 6.492191
916.7729, 6.179585
917.2550, 6.131069
917.7371, 6.131584
918.2192, 5.866795
918.7014, 5.364601
919.1835, 4.985725
919.6656, 4.750298
920.1477, 4.530663
920.6298, 4.312569
921.1119, 4.068932
921.5941, 3.759037
922.0762, 3.418510
922.5583, 3.156490
923.0404, 2.980274
923.5225, 2.856899
924.0046, 2.945724
924.4868, 2.887688
924.9689, 2.366238
925.4510, 1.798702
925.9331, 1.668209
926.4152, 1.918495
926.8973, 2.036972
927.3795, 1.768059
927.8616, 1.547825
928.3437, 1.721951
928.8258, 1.887474
929.3079, 1.558865
929.7900, 0.9839550
930.2722, 0.7183110
930.7543, 0.9046210
931.2364, 1.161434
931.7185, 1.252220
932.2006, 1.194077
932.6827, 0.8927960
933.1649, 0.4892460
933.6470, 0.3692740
934.1291, 0.5514070
934.6112, 0.7552680
935.0933, 0.8224370
935.5754, 0.7459300
936.0576, 0.4435770
936.5397, 4.0206999E-02
937.0218, 0.2857780
937.5039, 0.2908710
937.9860, 9.6798003E-02
938.4681, 0.3360860
938.9503, 0.7477760
939.4324, 0.9046780
939.9145, 0.8581700
940.3966, 0.7836040
940.8787, 0.6511990
941.3608, 0.5391580
941.8430, 0.3640860
942.3251, 0.3621290
942.8072, 0.6758580
943.2893, 1.144638
943.7714, 1.646584
944.2535, 2.172642
944.7357, 2.555244
945.2178, 2.595001
945.6999, 2.757969
946.1820, 3.300365
946.6641, 3.827404
947.1462, 4.029526
947.6284, 4.050148
948.1105, 4.145027
948.5926, 4.370373
949.0747, 4.674164
949.5568, 5.100876
950.0389, 5.519035
950.5211, 5.835617
951.0032, 6.086739
951.4853, 6.242828
951.9674, 6.378731
952.4495, 6.748192
952.9316, 7.480972
953.4138, 8.236710
953.8959, 8.662506
954.3780, 8.850304
954.8601, 8.885666
955.3422, 8.840370
955.8243, 8.955448
956.3065, 9.284187
956.7886, 9.745903
957.2707, 10.30532
957.7528, 10.86550
958.2349, 11.20712
958.7170, 11.34068
959.1992, 11.43959
959.6813, 11.49826
960.1634, 11.68422
960.6455, 12.07744
961.1276, 12.55193
961.6097, 12.97395
962.0919, 13.35049
962.5740, 13.73411
963.0561, 14.19911
963.5382, 14.43993
964.0203, 14.31607
964.5024, 14.17693
964.9846, 14.19905
965.4667, 14.29192
965.9488, 14.32261
966.4309, 14.28516
966.9130, 14.27423
967.3951, 14.30175
967.8773, 14.33905
968.3594, 14.48689
968.8415, 14.53804
969.3236, 14.29299
969.8057, 13.88844
970.2878, 13.57897
970.7700, 13.41225
971.2521, 13.21676
971.7342, 12.97567
972.2163, 12.64606
972.6984, 12.12993
973.1805, 11.57342
973.6627, 11.16052
974.1448, 10.83799
974.6269, 10.39949
975.1090, 9.758755
975.5911, 9.126549
976.0732, 8.698944
976.5554, 8.318386
977.0375, 7.750137
977.5196, 7.129353
978.0017, 6.810593
978.4838, 6.757511
978.9659, 6.487885
979.4481, 5.692738
979.9302, 4.774464
980.4123, 4.242817
980.8944, 3.977783
981.3765, 3.739616
981.8586, 3.500099
982.3408, 3.194603
982.8229, 2.807674
983.3050, 2.371105
983.7871, 1.904102
984.2692, 1.437344
984.7513, 1.037437
985.2335, 0.7048380
985.7156, 0.4616170
986.1977, 0.3124200
986.6798, 0.1615870
987.1619, 3.3806000E-02
987.6440, 0.1992450
988.1262, 0.2548030
988.6083, 0.2164190
989.0904, 0.1493610
989.5725, 3.4823999E-02
990.0546, 1.9951001E-02
990.5367, 4.9549998E-03
991.0189, 7.2219998E-02
991.5010, 0.2593380
991.9831, 0.4358440
992.4652, 0.4300040
992.9473, 0.2512280
993.4294, 0.1487010
993.9116, 0.2068410
994.3937, 0.1863170
994.8758, 3.3649001E-02
995.3579, 0.2084160
995.8400, 0.2120860
996.3221, 0.1115950
996.8043, 7.0808001E-02
997.2864, 0.3411900
997.7685, 0.3412860
998.2506, 0.4157100
998.7327, 0.8000760
999.2148, 0.1552240
999.6970, 0.4991230
1000.179, 0.4628750
1000.661, 8.4189996E-03
1001.143, 0.4143450
1001.625, 0.7340510
1002.108, 0.8754160
1002.590, 0.5428660
1003.072, 0.3672450
1003.554, 0.7508700
1004.036, 1.319946
1004.518, 1.829395
1005.000, 2.217754
1005.482, 2.397236
1005.964, 2.345009
1006.447, 2.371208
1006.929, 2.788731
1007.411, 3.228413
1007.893, 3.321213
1008.375, 3.302841
1008.857, 3.493153
1009.339, 3.880245
1009.821, 4.293419
1010.304, 4.669197
1010.786, 5.081963
1011.268, 5.674671
1011.750, 6.279022
1012.232, 6.600510
1012.714, 6.806004
1013.196, 7.254532
1013.678, 7.953396
1014.160, 8.686478
1014.643, 9.354561
1015.125, 10.01010
1015.607, 10.68084
1016.089, 11.40905
1016.571, 12.40326
1017.053, 13.52517
1017.535, 14.21283
1018.017, 14.44715
1018.500, 14.85323
1018.982, 15.79539
1019.464, 16.97192
1019.946, 18.02899
1020.428, 18.92293
1020.910, 19.41615
1021.392, 19.57753
1021.874, 19.90274
1022.356, 20.50619
1022.839, 21.27513
1023.321, 22.13112
1023.803, 23.00089
1024.285, 23.72139
1024.767, 24.31818
1025.249, 25.33613
1025.731, 26.80106
1026.213, 27.89927
1026.696, 28.45023
1027.178, 28.84818
1027.660, 29.32129
1028.142, 29.82682
1028.624, 30.29959
1029.106, 30.75334
1029.588, 31.29971
1030.070, 31.92322
1030.552, 32.73754
1031.035, 33.89758
1031.517, 34.76101
1031.999, 34.78078
1032.481, 34.37265
1032.963, 34.43663
1033.445, 35.03450
1033.927, 35.61734
1034.409, 36.16611
1034.891, 36.76408
1035.374, 37.48107
1035.856, 38.15111
1036.338, 38.66025
1036.820, 39.05624
1037.302, 39.44987
1037.784, 39.87849
1038.266, 40.04861
1038.748, 39.67586
1039.231, 39.56478
1039.713, 40.00823
1040.195, 40.59076
1040.677, 41.08274
1041.159, 41.49093
1041.641, 41.79191
1042.123, 41.88647
1042.605, 42.34271
1043.088, 43.60061
1043.570, 44.59538
1044.052, 44.96107
1044.534, 45.22304
1045.016, 45.76378
1045.498, 46.41080
1045.980, 46.77687
1046.462, 46.77663
1046.944, 47.01371
1047.427, 47.96703
1047.909, 48.54813
1048.391, 48.01992
1048.873, 47.56242
1049.355, 48.11977
1049.837, 49.21145
1050.319, 49.92087
1050.801, 50.13992
1051.283, 50.40122
1051.766, 50.95435
1052.248, 51.32027
1052.730, 51.19732
1053.212, 51.03254
1053.694, 51.22670
1054.176, 51.54900
1054.658, 51.56250
1055.140, 51.20969
1055.623, 50.84180
1056.105, 50.36699
1056.587, 50.13975
1057.069, 50.86300
1057.551, 51.25316
1058.033, 50.21476
1058.515, 48.37494
1058.997, 46.75171
1059.479, 45.47871
1059.962, 44.09487
1060.444, 42.33800
1060.926, 40.62181
1061.408, 39.23338
1061.890, 37.79820
1062.372, 35.98450
1062.854, 33.99368
1063.336, 32.22816
1063.818, 30.67844
1064.301, 28.78345
1064.783, 25.91589
1065.265, 23.43929
1065.747, 22.19509
1066.229, 21.16530
1066.711, 19.63940
1067.193, 17.86593
1067.675, 16.20780
1068.158, 14.71751
1068.640, 13.33382
1069.122, 11.99005
1069.604, 10.86270
1070.086, 10.12805
1070.568, 9.525017
1071.050, 8.997169
1071.532, 8.418274
1072.015, 7.611862
1072.497, 6.603493
1072.979, 5.558517
1073.461, 4.435135
1073.943, 3.588890
1074.425, 3.357178
1074.907, 3.261345
1075.389, 3.039276
1075.871, 2.728813
1076.354, 2.298454
1076.836, 1.847900
1077.318, 1.710411
1077.800, 2.082909
1078.282, 2.215919
1078.764, 1.656326
1079.246, 0.8808750
1079.728, 1.0620000E-02
1080.210, 0.8170010
1080.693, 1.343521
1081.175, 1.611671
1081.657, 1.728073
1082.139, 1.712379
1082.621, 1.583832
1083.103, 1.178337
1083.585, 0.8699650
1084.067, 0.9697270
1084.549, 1.163200
1085.032, 1.094810
1085.514, 0.9004900
1085.996, 0.9359970
1086.478, 1.269974
1086.960, 1.137337
1087.442, 0.9071270
1087.924, 0.5038530
1088.406, 0.2377550
1088.889, 1.037903
1089.371, 1.686684
1089.853, 2.225456
1090.335, 2.732964
1090.817, 3.229858
1091.299, 3.778580
1091.781, 4.352921
1092.263, 5.066170
1092.745, 6.086586
1093.228, 7.127724
1093.710, 7.930641
1094.192, 8.662041
1094.674, 9.420319
1095.156, 10.30045
1095.638, 11.68266
1096.120, 14.03508
1096.602, 15.96133
1097.084, 16.50452
1097.567, 17.00543
1098.049, 18.10226
1098.531, 19.62520
1099.013, 21.53789
1099.495, 23.67375
1099.977, 25.59189
1100.459, 27.12132
1100.941, 28.73903
1101.424, 30.49898
1101.906, 32.49171
1102.388, 34.84148
1102.870, 37.37576
1103.352, 39.90565
1103.834, 42.53957
1104.316, 45.63562
1104.798, 49.29630
1105.281, 52.34415
1105.763, 53.92160
1106.245, 55.70663
1106.727, 58.20471
1107.209, 60.98032
1107.691, 63.89920
1108.173, 66.85646
1108.655, 69.76735
1109.137, 72.57864
1109.620, 75.15880
1110.102, 77.42192
1110.584, 79.50394
1111.066, 81.54500
1111.548, 83.37361
1112.030, 84.64308
1112.512, 85.36316
1112.994, 85.93304
1113.476, 86.44226
1113.959, 86.78377
1114.441, 86.80081
1114.923, 86.51901
1115.405, 85.82071
1115.887, 84.91476
1116.369, 84.37717
1116.851, 83.59293
1117.333, 81.57837
1117.816, 78.79582
1118.298, 76.62204
1118.780, 75.28525
1119.262, 73.58609
1119.744, 71.79483
1120.226, 69.06714
1120.708, 64.67657
1121.190, 60.11221
1121.672, 56.30585
1122.155, 52.93330
1122.637, 49.41957
1123.119, 45.75858
1123.601, 42.34349
1124.083, 39.30936
1124.565, 36.10265
1125.047, 32.58165
1125.529, 29.10242
1126.011, 25.80226
1126.494, 22.60471
1126.976, 19.34721
1127.458, 16.19159
1127.940, 13.89400
1128.422, 12.59033
1128.904, 11.51791
1129.386, 10.78143
1129.868, 9.476425
1130.351, 7.176865
1130.833, 5.124359
1131.315, 4.311798
1131.797, 4.144409
1132.279, 3.344467
1132.761, 1.981232
1133.243, 1.455109
1133.725, 1.763275
1134.208, 1.976868
1134.690, 1.958206
1135.172, 1.817322
1135.654, 1.607101
1136.136, 1.448624
1136.618, 1.511749
1137.100, 1.704254
1137.582, 1.497253
1138.064, 1.000626
1138.547, 0.7582090
1139.029, 0.7851260
1139.511, 0.8643040
1139.993, 0.8129270
1140.475, 0.7093200
1140.957, 0.6492920
1141.439, 0.4859310
1141.921, 0.1867680
1142.403, 9.6161000E-02
1142.886, 7.8429999E-03
1143.368, 0.1261900
1143.850, 0.0000000E+00
##END=



