##NAMES=Strontianite
##RRUFFID=R040037
##IDEAL CHEMISTRY=SrCO_3_
##LOCALITY=Alston Moor, Cumbria, England
##OWNER=RRUFF
##SOURCE=University of Arizona Mineral Museum
##DESCRIPTION=Group of tan colored crystals
##STATUS=The identification of this mineral has been confirmed by X-ray diffraction and chemical analysis
##URL=rruff.info/R040037
##MEASURED CHEMISTRY=(Sr_0.91_Ca_0.09_)_Î£=1_CO_3_; CO_2_ estimated by difference
126.4988, 0.0000000E+00
126.9809, 6.912415
127.4630, 1.245911
127.9451, 3.383850
128.4272, 2.225525
128.9093, 15.00403
129.3915, 33.52185
129.8736, 55.16016
130.3557, 77.81903
130.8378, 97.51532
131.3199, 114.2827
131.8020, 132.1724
132.2842, 150.7181
132.7663, 168.2067
133.2484, 184.7891
133.7305, 202.5602
134.2126, 222.9962
134.6947, 246.0671
135.1769, 270.9677
135.6590, 297.5052
136.1411, 325.8645
136.6232, 357.1370
137.1053, 391.3607
137.5874, 427.3140
138.0696, 463.0435
138.5517, 497.4551
139.0338, 538.2380
139.5159, 588.1147
139.9980, 645.8795
140.4801, 704.1217
140.9623, 762.0846
141.4444, 822.0558
141.9265, 887.1952
142.4086, 956.4207
142.8907, 1034.041
143.3728, 1122.145
143.8550, 1220.175
144.3371, 1325.970
144.8192, 1439.656
145.3013, 1560.677
145.7834, 1685.296
146.2655, 1821.902
146.7477, 1952.620
147.2298, 2076.753
147.7119, 2202.288
148.1940, 2298.157
148.6761, 2374.422
149.1582, 2419.318
149.6404, 2406.007
150.1225, 2319.052
150.6046, 2191.115
151.0867, 2032.924
151.5688, 1814.715
152.0509, 1607.631
152.5331, 1407.517
153.0152, 1216.266
153.4973, 1045.557
153.9794, 900.2969
154.4615, 774.3283
154.9436, 663.9192
155.4258, 571.8171
155.9079, 493.1340
156.3900, 428.0916
156.8721, 376.1722
157.3542, 333.0399
157.8363, 300.1198
158.3185, 274.9066
158.8006, 255.6652
159.2827, 243.8058
159.7648, 236.4092
160.2469, 234.2959
160.7290, 236.9615
161.2112, 239.9026
161.6933, 239.4545
162.1754, 239.7384
162.6575, 244.1829
163.1396, 255.3161
163.6217, 269.3842
164.1039, 285.0193
164.5860, 302.1815
165.0681, 321.3663
165.5502, 344.1995
166.0323, 371.0055
166.5145, 401.3041
166.9966, 436.0165
167.4787, 473.3289
167.9608, 511.5908
168.4429, 549.6484
168.9250, 589.4412
169.4071, 632.6391
169.8893, 678.3307
170.3714, 724.9569
170.8535, 770.9691
171.3356, 817.5074
171.8177, 867.3443
172.2998, 921.4050
172.7820, 975.8945
173.2641, 1028.574
173.7462, 1079.550
174.2283, 1129.303
174.7104, 1179.080
175.1925, 1227.471
175.6747, 1271.191
176.1568, 1309.163
176.6389, 1346.963
177.1210, 1388.183
177.6031, 1433.396
178.0852, 1484.312
178.5674, 1544.132
179.0495, 1609.930
179.5316, 1679.250
180.0137, 1753.405
180.4958, 1826.944
180.9779, 1897.622
181.4601, 1964.637
181.9422, 2022.221
182.4243, 2071.374
182.9064, 2108.423
183.3885, 2125.758
183.8706, 2122.272
184.3528, 2097.912
184.8349, 2053.449
185.3170, 1989.521
185.7991, 1907.378
186.2812, 1804.501
186.7633, 1683.732
187.2455, 1554.739
187.7276, 1415.688
188.2097, 1272.268
188.6918, 1127.674
189.1739, 982.5999
189.6560, 847.5842
190.1382, 728.6725
190.6203, 625.8330
191.1024, 535.2546
191.5845, 456.6583
192.0666, 389.7479
192.5487, 334.1865
193.0309, 290.6725
193.5130, 253.9626
193.9951, 219.3546
194.4772, 187.0320
194.9593, 160.3201
195.4414, 140.6679
195.9236, 126.3071
196.4057, 112.2997
196.8878, 98.49939
197.3699, 85.80286
197.8520, 74.97961
198.3341, 65.86658
198.8163, 58.53540
199.2984, 53.55286
199.7805, 50.19800
200.2626, 45.04004
200.7447, 37.77661
201.2268, 29.93597
201.7090, 23.08820
202.1911, 17.33063
202.6732, 11.60730
203.1553, 5.723694
203.6374, 0.2847290
204.1195, 6.123230
204.6017, 11.96771
205.0838, 17.17590
205.5659, 20.94543
206.0480, 23.06573
206.5301, 24.95734
207.0122, 26.83356
207.4944, 28.72089
207.9765, 30.88727
208.4586, 33.67102
208.9407, 36.05731
209.4228, 36.88580
209.9049, 35.87610
210.3871, 34.41827
210.8692, 32.76001
211.3513, 30.90582
211.8334, 29.01208
212.3155, 27.18890
212.7976, 25.13922
213.2798, 22.63068
213.7619, 19.78320
214.2440, 16.01404
214.7261, 10.76428
215.2082, 4.035645
215.6903, 1.493774
216.1725, 5.572998
216.6546, 8.758423
217.1367, 11.77057
217.6188, 15.02112
218.1009, 16.98663
218.5830, 17.03882
219.0651, 15.03528
219.5473, 13.25085
220.0294, 11.64362
220.5115, 10.20636
220.9936, 8.941650
221.4757, 7.732300
221.9578, 6.874634
222.4400, 6.314270
222.9221, 5.987793
223.4042, 6.616272
223.8863, 8.358459
224.3684, 10.83075
224.8505, 13.60156
225.3327, 16.55316
225.8148, 20.03247
226.2969, 24.14038
226.7790, 28.96454
227.2611, 34.09302
227.7432, 39.57230
228.2254, 45.39865
228.7075, 51.63559
229.1896, 58.57959
229.6717, 65.50363
230.1538, 72.17535
230.6359, 78.47650
231.1181, 85.34476
231.6002, 92.53995
232.0823, 100.5433
232.5644, 109.9222
233.0465, 121.2183
233.5286, 133.0161
234.0108, 145.0638
234.4929, 157.4851
234.9750, 169.8351
235.4571, 181.5379
235.9392, 193.5159
236.4213, 206.8609
236.9035, 221.7294
237.3856, 237.6674
237.8677, 255.6732
238.3498, 276.4172
238.8319, 291.6704
239.3140, 298.7738
239.7962, 302.8789
240.2783, 309.2915
240.7604, 318.8417
241.2425, 329.0822
241.7246, 339.0638
242.2067, 348.7067
242.6889, 361.2867
243.1710, 377.1689
243.6531, 395.6552
244.1352, 416.7238
244.6173, 442.6171
245.0994, 466.6996
245.5816, 487.4341
246.0637, 504.7607
246.5458, 521.7980
247.0279, 539.0455
247.5100, 555.5512
247.9921, 570.7670
248.4743, 586.9807
248.9564, 597.5402
249.4385, 600.7677
249.9206, 596.7729
250.4027, 590.2856
250.8848, 581.2297
251.3670, 569.7266
251.8491, 555.8265
252.3312, 538.5567
252.8133, 520.5128
253.2954, 500.8785
253.7775, 479.9901
254.2597, 463.6507
254.7418, 453.1079
255.2239, 445.4640
255.7060, 438.1003
256.1881, 429.3712
256.6702, 424.7206
257.1523, 425.3769
257.6345, 430.9258
258.1166, 438.2075
258.5987, 448.2337
259.0808, 458.3973
259.5629, 466.9554
260.0450, 473.6913
260.5272, 479.1304
261.0093, 483.9764
261.4914, 487.5814
261.9735, 486.4344
262.4556, 480.8480
262.9377, 470.0599
263.4199, 452.8287
263.9020, 427.2523
264.3841, 401.9198
264.8662, 377.4614
265.3483, 353.8011
265.8304, 329.4493
266.3126, 303.8923
266.7947, 279.0692
267.2768, 256.5433
267.7589, 236.4502
268.2410, 217.9287
268.7231, 200.8239
269.2053, 185.0750
269.6874, 170.2801
270.1695, 156.2057
270.6516, 143.3360
271.1337, 131.9410
271.6158, 121.9366
272.0980, 113.5720
272.5801, 107.3026
273.0622, 102.4972
273.5443, 97.45029
274.0264, 91.83466
274.5085, 86.38419
274.9907, 81.39282
275.4728, 76.80994
275.9549, 72.94150
276.4370, 69.80145
276.9191, 67.21448
277.4012, 65.42328
277.8834, 64.79575
278.3655, 62.94284
278.8476, 57.85883
279.3297, 49.35629
279.8118, 44.34769
280.2939, 43.59692
280.7761, 44.64325
281.2582, 43.87695
281.7403, 41.22888
282.2224, 38.32095
282.7045, 35.63806
283.1866, 33.18015
283.6688, 30.87918
284.1509, 28.58667
284.6330, 26.89316
285.1151, 27.16675
285.5972, 29.37665
286.0793, 30.24612
286.5615, 27.76184
287.0436, 22.93015
287.5257, 20.82822
288.0078, 21.79950
288.4899, 23.50589
288.9720, 23.27591
289.4542, 21.33911
289.9363, 20.11221
290.4184, 20.73563
290.9005, 22.38202
291.3826, 22.68896
291.8647, 21.60779
292.3469, 19.88889
292.8290, 17.76791
293.3111, 15.44662
293.7932, 13.79395
294.2753, 13.13980
294.7574, 13.13727
295.2396, 13.26825
295.7217, 13.51843
296.2038, 13.64069
296.6859, 13.26196
297.1680, 12.59695
297.6501, 12.30630
298.1323, 12.69675
298.6144, 13.19492
299.0965, 13.10977
299.5786, 12.44647
300.0607, 11.24396
300.5428, 8.751862
301.0250, 5.867767
301.5071, 4.304352
301.9892, 4.481049
302.4713, 5.463654
302.9534, 6.479462
303.4355, 7.480164
303.9177, 8.364502
304.3998, 9.305420
304.8819, 9.981232
305.3640, 9.826782
305.8461, 8.701202
306.3282, 7.323975
306.8104, 6.212341
307.2925, 5.295013
307.7746, 4.498016
308.2567, 3.519104
308.7388, 2.863068
309.2209, 3.354675
309.7031, 5.100189
310.1852, 6.468658
310.6673, 5.990387
311.1494, 4.518860
311.6315, 3.276062
312.1136, 2.642059
312.5958, 2.441895
313.0779, 2.635162
313.5600, 3.193665
314.0421, 3.915344
314.5242, 5.436035
315.0063, 6.781281
315.4885, 6.815643
315.9706, 3.940216
316.4527, 1.125580
316.9348, 0.4660340
317.4169, 0.9073180
317.8990, 0.5150450
318.3812, 1.795288
318.8633, 4.194275
319.3454, 5.270142
319.8275, 3.871429
320.3096, 2.563385
320.7917, 2.233276
321.2739, 2.600037
321.7560, 2.940338
322.2381, 3.022797
322.7202, 3.086182
323.2023, 3.260071
323.6844, 3.643921
324.1666, 3.980042
324.6487, 4.516968
325.1308, 4.945313
325.6129, 4.777527
326.0950, 2.760376
326.5771, 1.088135
327.0593, 0.7281490
327.5414, 2.210388
328.0235, 2.997070
328.5056, 2.642517
328.9877, 1.643066
329.4698, 0.6036380
329.9520, 1.514465
330.4341, 2.645264
330.9162, 2.089355
331.3983, 0.2099610
331.8804, 1.828125
332.3625, 2.582642
332.8447, 2.833374
333.3268, 2.786743
333.8089, 2.005249
334.2910, 1.795044
334.7731, 2.924194
335.2552, 4.898743
335.7374, 4.752441
336.2195, 1.042908
336.7016, 2.445129
337.1837, 3.398621
337.6658, 0.9183350
338.1479, 1.074280
338.6301, 2.247314
339.1122, 2.827759
339.5943, 3.467773
340.0764, 4.278564
340.5585, 4.924866
341.0406, 5.189148
341.5227, 5.014832
342.0049, 4.604553
342.4870, 3.874084
342.9691, 3.147522
343.4512, 3.003784
343.9333, 3.483459
344.4154, 3.793579
344.8976, 3.384949
345.3797, 2.559814
345.8618, 3.153870
346.3439, 5.429016
346.8260, 7.463501
347.3081, 6.841736
347.7903, 3.996826
348.2724, 1.881836
348.7545, 1.387817
349.2366, 1.898926
349.7187, 2.474243
350.2008, 3.091553
350.6830, 3.323547
351.1651, 2.314026
351.6472, 0.7137450
352.1293, 0.1807860
352.6114, 1.239014
353.0935, 2.775146
353.5757, 3.725281
354.0578, 4.124146
354.5399, 4.117737
355.0220, 3.246216
355.5041, 2.249573
355.9862, 2.227783
356.4684, 3.403687
356.9505, 4.552917
357.4326, 4.635315
357.9147, 4.059387
358.3968, 3.486572
358.8789, 2.717957
359.3611, 2.379761
359.8432, 3.304932
360.3253, 5.434326
360.8074, 7.126892
361.2895, 7.700012
361.7716, 7.385010
362.2538, 6.374146
362.7359, 3.857849
363.2180, 1.619080
363.7001, 8.2336001E-02
364.1822, 1.078430
364.6643, 0.7467040
365.1465, 3.256165
365.6286, 7.062073
366.1107, 8.445374
366.5928, 5.679810
367.0749, 3.371704
367.5570, 2.484253
368.0392, 2.443298
368.5213, 2.261963
369.0034, 0.8605960
369.4855, 0.2341920
369.9676, 1.555115
370.4497, 5.645813
370.9319, 7.244507
371.4140, 3.968445
371.8961, 0.3059690
372.3782, 1.656677
372.8603, 1.968750
373.3424, 4.966248
373.8246, 6.605225
374.3067, 6.913452
374.7888, 5.946533
375.2709, 2.752502
375.7530, 7.5134002E-02
376.2351, 0.5800170
376.7173, 2.005615
377.1994, 3.744568
377.6815, 4.309326
378.1636, 3.986084
378.6457, 3.219421
379.1278, 1.893616
379.6100, 0.8095700
380.0921, 0.5920410
380.5742, 1.182251
381.0563, 0.9306030
381.5384, 0.4727170
382.0205, 2.164673
382.5027, 3.075378
382.9848, 3.206726
383.4669, 2.501709
383.9490, 0.3838500
384.4311, 2.276245
384.9132, 3.521973
385.3954, 3.377808
385.8775, 2.399841
386.3596, 0.2035520
386.8417, 2.433105
387.3238, 3.820435
387.8059, 3.415527
388.2881, 2.104004
388.7702, 6.9274999E-02
389.2523, 2.296570
389.7344, 3.665039
390.2165, 2.215271
390.6986, 4.9072001E-02
391.1808, 0.5721440
391.6629, 0.7580570
392.1450, 2.069092
392.6271, 2.082397
393.1092, 1.329407
393.5913, 0.5094600
394.0735, 0.3623660
394.5556, 1.151123
395.0377, 1.835693
395.5198, 2.273499
396.0019, 2.278625
396.4840, 1.224976
396.9662, 7.4646004E-02
397.4483, 0.5106200
397.9304, 0.3323970
398.4125, 0.7066040
398.8946, 0.1080320
399.3767, 1.147217
399.8589, 2.287170
400.3410, 2.648376
400.8231, 3.457642
401.3052, 5.582581
401.7873, 10.07025
402.2694, 11.62720
402.7516, 8.138550
403.2337, 3.278320
403.7158, 1.443359
404.1979, 4.506409
404.6800, 6.322266
405.1621, 5.102966
405.6443, 1.532410
406.1264, 0.9071040
406.6085, 4.325623
407.0906, 7.828918
407.5727, 8.289917
408.0548, 5.393860
408.5370, 3.476868
409.0191, 3.075806
409.5012, 3.539246
409.9833, 3.873291
410.4654, 4.063904
410.9475, 4.057922
411.4297, 3.651611
411.9118, 2.997925
412.3939, 2.451538
412.8760, 1.972412
413.3581, 2.176697
413.8402, 4.702271
414.3224, 8.418213
414.8045, 10.42969
415.2866, 9.141174
415.7687, 6.710876
416.2508, 5.616333
416.7329, 5.597717
417.2151, 5.467529
417.6972, 4.088623
418.1793, 2.492798
418.6614, 1.760498
419.1435, 2.245422
419.6256, 2.810913
420.1078, 2.578857
420.5899, 2.070618
421.0720, 2.052856
421.5541, 3.058716
422.0362, 4.326477
422.5183, 5.939880
423.0005, 7.862183
423.4826, 8.931641
423.9647, 8.130127
424.4468, 6.844116
424.9289, 5.983582
425.4110, 5.593994
425.8932, 5.685242
426.3753, 6.873535
426.8574, 8.586182
427.3395, 9.056641
427.8216, 7.406433
428.3037, 5.650879
428.7859, 4.253845
429.2680, 3.106201
429.7501, 3.167847
430.2322, 4.950745
430.7143, 7.222351
431.1964, 8.467957
431.6786, 8.563416
432.1607, 8.234009
432.6428, 7.447021
433.1249, 6.437378
433.6070, 6.118469
434.0891, 6.573364
434.5713, 6.849060
435.0534, 5.765869
435.5355, 3.801514
436.0176, 3.639526
436.4997, 5.923462
436.9818, 8.176819
437.4640, 6.536865
437.9461, 2.220276
438.4282, 0.9078370
438.9103, 0.7655640
439.3924, 1.044434
439.8745, 2.908142
440.3566, 4.788757
440.8387, 6.374329
441.3209, 7.713196
441.8030, 8.613342
442.2851, 8.580566
442.7672, 6.872803
443.2493, 5.659790
443.7314, 6.960999
444.2136, 9.463196
444.6957, 10.64233
445.1778, 8.749573
445.6599, 6.446106
446.1420, 4.561035
446.6241, 3.135498
447.1063, 2.475830
447.5884, 2.849854
448.0705, 3.855896
448.5526, 5.237549
449.0347, 8.780396
449.5168, 10.07648
449.9990, 7.317261
450.4811, 2.286987
450.9632, 0.5917360
451.4453, 4.084412
451.9274, 7.322754
452.4095, 7.957947
452.8917, 5.713318
453.3738, 4.313354
453.8559, 3.907410
454.3380, 4.146729
454.8201, 4.677612
455.3022, 5.454468
455.7844, 6.476807
456.2665, 8.066040
456.7486, 9.625916
457.2307, 9.400146
457.7128, 7.506531
458.1949, 5.730103
458.6771, 5.776855
459.1592, 6.629089
459.6413, 5.970703
460.1234, 3.465332
460.6055, 0.9281620
461.0876, 0.3571170
461.5698, 0.5323490
462.0519, 0.1680910
462.5340, 2.652161
463.0161, 5.049561
463.4982, 5.978882
463.9803, 5.740601
464.4625, 5.677185
464.9446, 7.406616
465.4267, 8.738586
465.9088, 8.001892
466.3909, 3.792786
466.8730, 0.8306270
467.3552, 0.5678100
467.8373, 1.873901
468.3194, 3.332642
468.8015, 5.254333
469.2836, 6.823425
469.7657, 7.813721
470.2479, 8.284119
470.7300, 8.884155
471.2121, 10.14954
471.6942, 10.68762
472.1763, 9.200378
472.6584, 4.889404
473.1406, 3.012573
473.6227, 4.532715
474.1048, 7.102539
474.5869, 6.722290
475.0690, 3.331299
475.5511, 0.9008180
476.0333, 0.9452510
476.5154, 2.664368
476.9975, 4.529785
477.4796, 6.503479
477.9617, 7.660339
478.4438, 6.495361
478.9260, 4.221008
479.4081, 3.060181
479.8902, 3.406860
480.3723, 4.526428
480.8544, 6.550049
481.3365, 8.797668
481.8187, 10.09900
482.3008, 9.912659
482.7829, 8.686646
483.2650, 5.785400
483.7471, 1.585999
484.2292, 1.115906
484.7114, 0.5079960
485.1935, 1.230408
485.6756, 2.908264
486.1577, 4.616211
486.6398, 5.804932
487.1219, 6.339905
487.6041, 6.367981
488.0862, 6.000916
488.5683, 4.736267
489.0504, 3.921082
489.5325, 4.048584
490.0146, 4.934448
490.4968, 5.029236
490.9789, 4.038269
491.4610, 2.999817
491.9431, 2.567383
492.4252, 2.750793
492.9073, 3.078491
493.3895, 3.553345
493.8716, 4.049561
494.3537, 4.730164
494.8358, 5.474121
495.3179, 5.526489
495.8000, 4.112854
496.2822, 2.209778
496.7643, 1.814575
497.2464, 2.773010
497.7285, 3.698242
498.2106, 3.971863
498.6927, 3.583923
499.1749, 2.262817
499.6570, 0.3326420
500.1391, 2.212036
500.6212, 1.884216
501.1033, 0.4004520
501.5854, 1.018188
502.0676, 1.901855
502.5497, 2.779236
503.0318, 3.897705
503.5139, 5.177673
503.9960, 6.167969
504.4781, 7.274109
504.9603, 7.689636
505.4424, 6.954285
505.9245, 4.672974
506.4066, 2.806824
506.8887, 0.9939580
507.3708, 5.3040002E-02
507.8530, 1.531982
508.3351, 6.194885
508.8172, 8.938354
509.2993, 7.904846
509.7814, 4.464233
510.2635, 3.042847
510.7457, 3.675720
511.2278, 4.345825
511.7099, 3.270081
512.1920, 1.497681
512.6741, 1.872742
513.1563, 4.497498
513.6384, 7.440002
514.1205, 9.578979
514.6026, 10.84729
515.0847, 11.04242
515.5668, 9.673096
516.0490, 8.037109
516.5311, 6.732239
517.0132, 5.766541
517.4953, 5.140503
517.9774, 5.471802
518.4595, 5.554688
518.9417, 4.399353
519.4238, 1.907104
519.9059, 0.8096920
520.3880, 2.900208
520.8701, 5.250000
521.3522, 6.289978
521.8344, 5.393799
522.3165, 4.369812
522.7986, 2.882324
523.2807, 1.560120
523.7628, 1.582214
524.2449, 3.161743
524.7271, 4.996948
525.2092, 7.074036
525.6913, 9.019287
526.1734, 9.083130
526.6555, 7.232361
527.1376, 5.367493
527.6198, 4.804749
528.1019, 5.241394
528.5840, 6.213013
529.0661, 7.769714
529.5482, 9.026978
530.0303, 9.022583
530.5125, 8.211243
530.9946, 7.300781
531.4767, 6.607422
531.9588, 5.801392
532.4409, 3.758484
532.9230, 1.332092
533.4052, 0.9599610
533.8873, 6.564636
534.3694, 11.63141
534.8515, 13.01184
535.3336, 9.765808
535.8157, 7.149475
536.2979, 5.286560
536.7800, 4.082703
537.2621, 3.560730
537.7442, 4.067810
538.2263, 4.317200
538.7084, 4.072327
539.1906, 3.695496
539.6727, 3.963562
540.1548, 4.942383
540.6369, 5.923584
541.1190, 6.913208
541.6011, 7.636780
542.0833, 6.468262
542.5654, 3.665100
543.0475, 1.825317
543.5296, 4.305603
544.0117, 8.389893
544.4938, 9.249451
544.9760, 5.775635
545.4581, 2.525146
545.9402, 3.868042
546.4223, 7.100464
546.9044, 8.772522
547.3865, 5.503113
547.8687, 2.861145
548.3508, 3.703125
548.8329, 6.761658
549.3150, 7.956848
549.7971, 4.114746
550.2792, 0.8927000
550.7614, 0.3750610
551.2435, 2.900391
551.7256, 4.319458
552.2077, 4.147156
552.6898, 3.628479
553.1719, 3.964355
553.6541, 5.422424
554.1362, 5.442444
554.6183, 3.374451
555.1004, 0.7381590
555.5825, 0.1485600
556.0646, 1.326599
556.5468, 2.523315
557.0289, 2.964478
557.5110, 3.115540
557.9931, 3.565369
558.4752, 4.460022
558.9573, 5.918274
559.4395, 9.100708
559.9216, 12.03381
560.4037, 12.89734
560.8858, 11.31897
561.3679, 9.321106
561.8500, 7.328430
562.3322, 5.557495
562.8143, 4.126465
563.2964, 1.966064
563.7785, 1.631958
564.2606, 5.580750
564.7427, 10.80743
565.2249, 10.72809
565.7070, 1.926636
566.1891, 4.596008
566.6712, 5.105957
567.1533, 0.6335450
567.6354, 2.057129
568.1176, 2.810303
568.5997, 2.772095
569.0818, 2.418213
569.5639, 1.889038
570.0460, 1.855347
570.5281, 2.423096
571.0103, 3.020813
571.4924, 2.989685
571.9745, 2.607239
572.4566, 2.386536
572.9387, 2.670471
573.4208, 2.845459
573.9030, 2.054382
574.3851, 0.8770140
574.8672, 0.5774540
575.3493, 2.261841
575.8314, 4.220764
576.3135, 6.110962
576.7957, 7.888550
577.2778, 8.691223
577.7599, 7.845215
578.2420, 6.749268
578.7241, 6.081665
579.2062, 5.957703
579.6884, 5.777954
580.1705, 5.523254
580.6526, 5.259033
581.1347, 5.087769
581.6168, 5.014282
582.0989, 4.884094
582.5811, 4.680115
583.0632, 4.369873
583.5453, 3.601440
584.0274, 2.603760
584.5095, 2.219482
584.9916, 3.734985
585.4738, 5.501465
585.9559, 5.668152
586.4380, 4.404602
586.9201, 3.547302
587.4022, 4.826538
587.8843, 6.150513
588.3664, 5.933350
588.8485, 3.203125
589.3306, 1.401245
589.8127, 1.498596
590.2949, 2.349487
590.7770, 2.960571
591.2591, 3.135620
591.7412, 3.562134
592.2233, 4.286194
592.7054, 5.295715
593.1876, 7.110657
593.6697, 9.784180
594.1518, 10.74792
594.6339, 8.087952
595.1160, 3.642334
595.5981, 2.156799
596.0803, 3.405945
596.5624, 5.207764
597.0445, 6.438904
597.5266, 7.224854
598.0087, 7.544678
598.4908, 7.387939
598.9730, 7.375793
599.4551, 8.166443
599.9372, 9.172668
600.4193, 9.829529
600.9014, 10.03534
601.3835, 9.872009
601.8657, 9.251221
602.3478, 8.281006
602.8299, 7.070618
603.3120, 5.414429
603.7941, 3.867859
604.2762, 2.263794
604.7584, 0.8933110
605.2405, 1.373474
605.7226, 4.003357
606.2047, 6.414612
606.6868, 7.548462
607.1689, 7.498169
607.6511, 5.999512
608.1332, 3.024231
608.6153, 0.8228150
609.0974, 1.968079
609.5795, 4.723694
610.0616, 6.991089
610.5438, 8.546814
611.0259, 9.008240
611.5080, 6.789001
611.9901, 3.864014
612.4722, 2.562866
612.9543, 5.092163
613.4365, 7.308899
613.9186, 8.726990
614.4007, 9.375061
614.8828, 9.237610
615.3649, 7.961121
615.8470, 6.599365
616.3292, 5.403931
616.8113, 4.364136
617.2934, 3.495544
617.7755, 2.811646
618.2576, 2.086121
618.7397, 0.9138790
619.2219, 0.4123540
619.7040, 1.029846
620.1861, 0.8682250
620.6682, 0.3714600
621.1503, 6.5310001E-03
621.6324, 0.5244140
622.1146, 1.672607
622.5967, 4.076904
623.0788, 5.935547
623.5609, 6.257751
624.0430, 5.309326
624.5251, 4.218323
625.0073, 3.357483
625.4894, 2.578979
625.9715, 1.750061
626.4536, 0.9376830
626.9357, 0.3555910
627.4178, 1.7333999E-02
627.9000, 0.1333010
628.3821, 0.1347660
628.8642, 2.2705000E-02
629.3463, 0.3526610
629.8284, 0.8324580
630.3105, 1.707764
630.7927, 3.663574
631.2748, 6.002930
631.7569, 7.367737
632.2390, 7.594116
632.7211, 7.313049
633.2032, 6.782288
633.6854, 6.114685
634.1675, 5.427734
634.6496, 4.652710
635.1317, 4.056641
635.6138, 3.730591
636.0959, 3.641541
636.5781, 3.764587
637.0602, 4.583313
637.5423, 4.813477
638.0244, 4.052551
638.5065, 2.652283
638.9886, 1.704712
639.4708, 1.260193
639.9529, 0.8949580
640.4350, 0.3355100
640.9171, 0.2824710
641.3992, 0.4115600
641.8813, 9.5275998E-02
642.3635, 0.2303470
642.8456, 1.2210000E-03
643.3277, 0.2757570
643.8098, 0.1837770
644.2919, 1.523376
644.7740, 2.640930
645.2562, 2.708679
645.7383, 2.442383
646.2204, 2.426392
646.7025, 2.891785
647.1846, 3.408691
647.6667, 4.282410
648.1489, 5.023865
648.6310, 4.996399
649.1131, 4.054138
649.5952, 2.671143
650.0773, 0.4838870
650.5594, 1.599487
651.0416, 0.9533080
651.5237, 2.181824
652.0058, 4.466125
652.4879, 3.785278
652.9700, 1.892151
653.4521, 1.631287
653.9343, 2.643372
654.4164, 3.182983
654.8985, 1.507263
655.3806, 0.4069210
655.8627, 1.159729
656.3448, 0.5788570
656.8270, 0.1567990
657.3091, 1.023315
657.7912, 1.789001
658.2733, 2.259521
658.7554, 2.211365
659.2375, 2.690979
659.7197, 4.154419
660.2018, 5.348083
660.6839, 4.275696
661.1660, 1.023254
661.6481, 0.2765500
662.1302, 1.383789
662.6124, 4.081726
663.0945, 5.799927
663.5766, 6.504333
664.0587, 5.989319
664.5408, 2.745361
665.0229, 1.7333999E-02
665.5051, 0.4862670
665.9872, 3.190063
666.4693, 5.443665
666.9514, 6.717834
667.4335, 7.191345
667.9156, 6.439331
668.3978, 4.715271
668.8799, 3.811218
669.3620, 3.944153
669.8441, 4.521667
670.3262, 5.550110
670.8083, 6.976318
671.2905, 7.428833
671.7726, 6.927185
672.2547, 5.851990
672.7368, 3.743164
673.2189, 1.551453
673.7010, 1.375671
674.1832, 3.633484
674.6653, 5.992920
675.1474, 6.336365
675.6295, 6.076050
676.1116, 6.820923
676.5938, 9.870178
677.0759, 12.14673
677.5580, 11.87042
678.0401, 10.97510
678.5222, 11.93933
679.0043, 15.34528
679.4865, 19.34277
679.9686, 23.67987
680.4507, 28.48621
680.9328, 34.57635
681.4149, 41.89911
681.8970, 48.95172
682.3792, 54.96368
682.8613, 60.53168
683.3434, 66.11816
683.8255, 72.19775
684.3076, 80.71417
684.7897, 94.50159
685.2719, 109.6229
685.7540, 122.8847
686.2361, 134.3206
686.7182, 147.1058
687.2003, 163.2346
687.6824, 179.7012
688.1646, 194.6504
688.6467, 207.3637
689.1288, 223.0025
689.6109, 241.2773
690.0930, 262.8309
690.5751, 288.2603
691.0573, 317.5050
691.5394, 350.3099
692.0215, 385.7885
692.5036, 427.9508
692.9857, 480.8251
693.4678, 542.8061
693.9500, 610.7329
694.4321, 684.0225
694.9142, 764.9516
695.3963, 856.0927
695.8784, 954.5103
696.3605, 1056.061
696.8427, 1170.429
697.3248, 1274.837
697.8069, 1373.985
698.2890, 1458.657
698.7711, 1508.019
699.2532, 1516.761
699.7354, 1512.234
700.2175, 1502.135
700.6996, 1482.839
701.1817, 1455.063
701.6638, 1414.762
702.1459, 1333.609
702.6281, 1172.195
703.1102, 979.0385
703.5923, 789.3981
704.0744, 608.2082
704.5565, 456.7981
705.0386, 350.9052
705.5208, 271.6630
706.0029, 213.2233
706.4850, 177.2322
706.9671, 148.3530
707.4492, 128.3608
707.9313, 113.1364
708.4135, 100.6873
708.8956, 91.09967
709.3777, 85.11511
709.8598, 82.98315
710.3419, 82.18475
710.8240, 81.30798
711.3062, 79.90973
711.7883, 77.02258
712.2704, 72.53619
712.7525, 66.48895
713.2346, 57.76434
713.7167, 48.09070
714.1989, 39.26440
714.6810, 31.53967
715.1631, 25.19171
715.6452, 20.77429
716.1273, 17.56732
716.6094, 14.91064
717.0916, 13.04572
717.5737, 10.95990
718.0558, 8.177490
718.5379, 5.648499
719.0200, 5.254517
719.5021, 6.751587
719.9843, 8.639282
720.4664, 10.77899
720.9485, 12.47687
721.4306, 12.88074
721.9127, 12.17987
722.3948, 10.81030
722.8770, 8.111206
723.3591, 5.627136
723.8412, 3.934631
724.3233, 2.981873
724.8054, 2.588501
725.2875, 3.059631
725.7697, 3.578918
726.2518, 4.045044
726.7339, 4.349426
727.2160, 3.954834
727.6981, 2.835327
728.1802, 1.361877
728.6624, 1.189270
729.1445, 3.687561
729.6266, 3.350586
730.1087, 0.4330440
730.5908, 2.907043
731.0729, 6.737976
731.5551, 9.484070
732.0372, 9.489685
732.5193, 6.421021
733.0014, 4.021240
733.4835, 3.421753
733.9656, 3.236572
734.4478, 2.823730
734.9299, 2.118225
735.4120, 1.620911
735.8941, 1.315491
736.3762, 1.277100
736.8583, 1.864868
737.3405, 2.806763
737.8226, 3.003296
738.3047, 2.318848
738.7868, 1.306274
739.2689, 0.4409790
739.7510, 1.852417
740.2332, 1.427734
740.7153, 2.121765
741.1974, 4.850830
741.6795, 5.033752
742.1616, 4.181885
742.6437, 3.798401
743.1259, 4.255981
743.6080, 4.054993
744.0901, 2.634827
744.5722, 1.348267
745.0543, 2.935242
745.5364, 6.927002
746.0186, 8.753723
746.5007, 7.029175
746.9828, 4.182434
747.4649, 2.638611
747.9470, 1.974060
748.4291, 1.413208
748.9113, 0.2484130
749.3934, 0.2926640
749.8755, 1.018616
750.3576, 3.084595
750.8397, 3.706360
751.3218, 1.923401
751.8040, 0.5131230
752.2861, 0.1871340
752.7682, 0.1564330
753.2503, 1.320862
753.7324, 4.117065
754.2145, 5.257996
754.6967, 2.628357
755.1788, 0.9785160
755.6609, 1.214844
756.1430, 0.9266360
756.6251, 2.675293
757.1072, 2.272339
757.5894, 1.650085
758.0715, 1.666931
758.5536, 2.231384
759.0357, 2.822266
759.5178, 3.571411
759.9999, 4.094727
760.4821, 4.328430
760.9642, 4.234802
761.4463, 3.189331
761.9284, 1.248962
762.4105, 0.7119140
762.8926, 3.304199
763.3748, 6.932861
763.8569, 7.989807
764.3390, 6.848877
764.8211, 5.401245
765.3032, 3.900940
765.7853, 3.066162
766.2675, 3.745117
766.7496, 5.927368
767.2317, 7.097778
767.7138, 6.175842
768.1959, 5.707031
768.6780, 7.270752
769.1602, 10.58215
769.6423, 11.17511
770.1244, 8.900085
770.6065, 5.991821
771.0886, 3.072021
771.5707, 0.8679200
772.0529, 1.291016
772.5350, 4.179443
773.0171, 6.680298
773.4992, 6.641541
773.9813, 6.019043
774.4634, 6.075012
774.9456, 7.017395
775.4277, 7.963989
775.9098, 9.533813
776.3919, 10.17151
776.8740, 8.423950
777.3561, 4.248657
777.8383, 2.744690
778.3204, 4.160217
778.8025, 5.794861
779.2846, 4.866455
779.7667, 2.882874
780.2488, 2.824158
780.7310, 4.974548
781.2131, 6.520630
781.6952, 5.390320
782.1773, 3.480164
782.6594, 1.979797
783.1415, 0.9299930
783.6237, 0.7495120
784.1058, 1.911133
784.5879, 3.469421
785.0699, 3.925049
785.5521, 3.526306
786.0342, 3.537048
786.5163, 3.955933
786.9984, 4.131165
787.4805, 3.441528
787.9626, 2.631348
788.4448, 2.552368
788.9269, 3.388855
789.4090, 4.042114
789.8911, 3.412109
790.3732, 2.806091
790.8553, 3.393188
791.3375, 5.902039
791.8196, 7.607483
792.3017, 8.590027
792.7838, 8.687073
793.2659, 7.147461
793.7480, 4.208191
794.2302, 3.200256
794.7123, 4.529358
795.1944, 6.238647
795.6765, 6.529663
796.1586, 6.160828
796.6407, 6.149841
797.1229, 6.728638
797.6050, 7.046265
798.0871, 6.727539
798.5692, 6.392151
799.0513, 6.353882
799.5334, 6.667725
800.0156, 7.249329
800.4977, 8.324585
800.9798, 9.139343
801.4619, 8.821106
801.9440, 7.569153
802.4261, 5.981750
802.9083, 4.029785
803.3904, 3.006287
803.8725, 5.378845
804.3546, 8.495789
804.8367, 9.416443
805.3188, 7.068970
805.8010, 4.629944
806.2831, 2.302490
806.7652, 0.5067750
807.2473, 0.4910890
807.7294, 0.6423340
808.2115, 0.2462770
808.6937, 2.408508
809.1758, 4.646545
809.6579, 5.943359
810.1400, 6.398315
810.6221, 6.008545
811.1042, 4.716553
811.5864, 3.880371
812.0685, 5.464233
812.5506, 7.233704
813.0327, 6.870300
813.5148, 2.845825
813.9969, 1.140381
814.4791, 3.233765
814.9612, 5.914612
815.4433, 6.852051
815.9254, 5.979797
816.4075, 4.957703
816.8896, 3.745605
817.3718, 3.090698
817.8539, 5.201660
818.3360, 7.679932
818.8181, 5.682556
819.3002, 1.730774
819.7823, 6.557129
820.2645, 2.729614
820.7466, 3.257690
821.2287, 6.987305
821.7108, 8.032471
822.1929, 8.359985
822.6750, 7.564697
823.1572, 7.074585
823.6393, 8.528320
824.1214, 11.37769
824.6035, 12.69836
825.0856, 12.37842
825.5677, 10.90411
826.0499, 7.463257
826.5320, 3.847778
827.0141, 1.650757
827.4962, 1.079590
827.9783, 1.448914
828.4604, 3.161926
828.9426, 5.305969
829.4247, 7.878296
829.9068, 10.94861
830.3889, 11.65674
830.8710, 9.789124
831.3531, 7.166626
831.8353, 4.214722
832.3174, 1.687744
832.7995, 1.633484
833.2816, 3.860901
833.7637, 5.967834
834.2458, 6.709106
834.7280, 6.892456
835.2101, 6.751770
835.6922, 6.296997
836.1743, 6.535461
836.6564, 8.072083
837.1385, 9.090332
837.6207, 8.609558
838.1028, 6.981750
838.5849, 5.371765
839.0670, 3.869507
839.5491, 3.576477
840.0313, 7.626770
840.5134, 11.31891
840.9955, 8.347473
841.4776, 0.3986210
841.9597, 4.224243
842.4418, 0.1861570
842.9240, 4.761169
843.4061, 6.954956
843.8882, 7.223511
844.3703, 7.689636
844.8524, 8.493103
845.3345, 8.307495
845.8167, 5.902344
846.2988, 2.977295
846.7809, 3.173645
847.2630, 5.502441
847.7451, 7.031738
848.2272, 5.792297
848.7094, 4.093994
849.1915, 2.768311
849.6736, 1.784119
850.1557, 0.8880000
850.6378, 0.4075320
851.1199, 0.4566040
851.6021, 1.336731
852.0842, 4.199219
852.5663, 6.971436
853.0484, 9.527283
853.5305, 10.83240
854.0126, 10.01056
854.4948, 8.859375
854.9769, 8.780823
855.4590, 9.422302
855.9411, 10.27606
856.4232, 11.29706
856.9053, 12.39337
857.3875, 13.85229
857.8696, 15.11908
858.3517, 15.41632
858.8338, 14.75092
859.3159, 13.70654
859.7980, 12.24469
860.2802, 10.71082
860.7623, 9.063904
861.2444, 7.738037
861.7265, 7.592529
862.2086, 9.302795
862.6907, 10.62146
863.1729, 10.78363
863.6550, 10.12714
864.1371, 8.780212
864.6192, 6.106140
865.1013, 4.993530
865.5834, 5.662048
866.0656, 7.281799
866.5477, 10.12482
867.0298, 13.07538
867.5119, 12.55176
867.9940, 8.245911
868.4761, 4.483948
868.9583, 3.696960
869.4404, 4.642212
869.9225, 7.103027
870.4046, 11.46179
870.8867, 13.48743
871.3688, 12.40942
871.8510, 10.44440
872.3331, 8.322571
872.8152, 6.290527
873.2973, 5.993713
873.7794, 7.312744
874.2615, 8.686462
874.7437, 9.030701
875.2258, 9.085388
875.7079, 9.550720
876.1900, 10.33765
876.6721, 10.86548
877.1542, 10.65698
877.6364, 10.29364
878.1185, 10.76385
878.6006, 11.43512
879.0827, 8.794495
879.5648, 2.896057
880.0469, 0.3245850
880.5291, 2.763672
881.0112, 7.566956
881.4933, 7.929565
881.9754, 5.659973
882.4575, 4.436035
882.9396, 7.046936
883.4218, 8.947327
883.9039, 8.380432
884.3860, 6.922668
884.8681, 7.039368
885.3502, 9.187500
885.8323, 9.736450
886.3145, 7.707458
886.7966, 5.566895
887.2787, 7.479858
887.7608, 11.32379
888.2429, 13.16095
888.7250, 11.88702
889.2072, 9.507935
889.6893, 5.278198
890.1714, 1.382690
890.6535, 0.1280520
891.1356, 1.493103
891.6177, 2.165161
892.0999, 1.754883
892.5820, 1.549500
893.0641, 3.170837
893.5462, 5.736206
894.0283, 6.835815
894.5104, 6.368896
894.9926, 5.544373
895.4747, 4.766357
895.9568, 4.137085
896.4389, 3.386597
896.9210, 2.531860
897.4031, 3.668518
897.8853, 8.229553
898.3674, 11.35162
898.8495, 10.64148
899.3316, 7.294006
899.8137, 4.059570
900.2958, 1.609619
900.7780, 0.2783200
901.2601, 1.407288
901.7422, 3.028198
902.2243, 3.358154
902.7064, 3.044617
903.1885, 3.782959
903.6707, 7.335083
904.1528, 8.632202
904.6349, 6.091919
905.1170, 2.063293
905.5991, 0.6022950
906.0812, 1.381714
906.5634, 2.527527
907.0455, 3.577209
907.5276, 5.096130
908.0097, 9.622009
908.4918, 13.96344
908.9739, 14.18896
909.4561, 6.423340
909.9382, 1.264771
910.4203, 0.5971070
910.9024, 0.4906010
911.3845, 1.348083
911.8666, 4.813965
912.3488, 5.726074
912.8309, 4.147278
913.3130, 2.519775
913.7951, 3.183167
914.2772, 4.304871
914.7593, 4.059143
915.2415, 2.351501
915.7236, 0.9754030
916.2057, 0.1414790
916.6878, 0.4038700
917.1699, 0.6917110
917.6520, 2.723938
918.1342, 3.507263
918.6163, 3.196106
919.0984, 3.939453
919.5805, 8.394165
920.0626, 12.53973
920.5447, 11.60345
921.0269, 7.560730
921.5090, 4.587708
921.9911, 4.326416
922.4732, 4.554749
922.9553, 5.053345
923.4374, 5.940674
923.9196, 7.903076
924.4017, 10.81482
924.8838, 11.93073
925.3659, 10.67664
925.8480, 8.563354
926.3301, 6.046387
926.8123, 4.014526
927.2944, 3.667786
927.7765, 5.781494
928.2586, 7.382507
928.7407, 8.290466
929.2228, 8.415955
929.7050, 7.349243
930.1871, 5.209290
930.6692, 4.062317
931.1513, 3.900696
931.6334, 4.303955
932.1155, 5.607300
932.5977, 6.857422
933.0798, 7.422607
933.5619, 7.241943
934.0440, 6.193726
934.5261, 1.677063
935.0082, 0.6696170
935.4904, 1.707397
935.9725, 6.387268
936.4546, 7.053833
936.9367, 4.146851
937.4188, 2.193481
937.9009, 2.913879
938.3831, 4.004211
938.8652, 2.601501
939.3473, 0.4738160
939.8294, 6.2743999E-02
940.3115, 3.340759
940.7936, 5.785034
941.2758, 7.305176
941.7579, 7.891479
942.2400, 7.087646
942.7221, 5.178955
943.2042, 4.254944
943.6863, 4.328186
944.1685, 4.648315
944.6506, 5.290283
945.1327, 5.495117
945.6148, 4.283569
946.0969, 1.653992
946.5790, 0.3137820
947.0612, 1.468201
947.5433, 2.054993
948.0254, 2.312805
948.5075, 1.980652
948.9896, 0.8209230
949.4717, 5.337952
949.9539, 7.647827
950.4360, 4.429077
950.9181, 0.9965210
951.4002, 1.720459
951.8823, 4.310242
952.3644, 5.066528
952.8466, 2.474060
953.3287, 0.6372070
953.8108, 0.2282710
954.2929, 0.3663330
954.7750, 0.2147220
955.2571, 1.286255
955.7393, 2.052979
956.2214, 2.425781
956.7035, 2.890747
957.1856, 4.947754
957.6677, 6.231445
958.1498, 4.015381
958.6320, 1.690491
959.1141, 3.632202
959.5962, 0.8799440
960.0783, 2.463440
960.5604, 4.970093
961.0425, 6.555298
961.5247, 6.780884
962.0068, 5.950806
962.4889, 5.009216
962.9710, 4.495117
963.4531, 3.800720
963.9352, 1.760681
964.4174, 0.1107180
964.8995, 0.7992550
965.3816, 5.653503
965.8637, 7.416809
966.3458, 4.880859
966.8279, 1.819885
967.3101, 3.593506
967.7922, 7.104370
968.2743, 6.407532
968.7564, 0.5224610
969.2385, 2.979797
969.7206, 1.338257
970.2028, 5.879211
970.6849, 6.561279
971.1670, 4.108398
971.6491, 6.317993
972.1312, 13.32062
972.6133, 17.54681
973.0955, 12.83942
973.5776, 5.601501
974.0597, 2.366943
974.5418, 2.218506
975.0239, 3.324646
975.5060, 7.069580
975.9882, 9.204590
976.4703, 8.829163
976.9524, 7.292847
977.4345, 6.299194
977.9166, 5.747253
978.3987, 4.412415
978.8809, 2.105225
979.3630, 0.3682250
979.8451, 1.075195
980.3272, 2.515564
980.8093, 3.120483
981.2914, 2.683716
981.7736, 2.921021
982.2557, 4.188354
982.7377, 5.449341
983.2198, 6.474121
983.7020, 7.037842
984.1841, 5.843201
984.6662, 3.529785
985.1483, 2.426697
985.6304, 4.405396
986.1125, 6.619690
986.5947, 8.180908
987.0768, 8.880005
987.5589, 8.426086
988.0410, 6.399597
988.5231, 4.686340
989.0052, 3.386597
989.4874, 2.358643
989.9695, 1.775024
990.4516, 1.237305
990.9337, 0.5007320
991.4158, 3.415833
991.8979, 4.609497
992.3801, 0.7901000
992.8622, 2.574646
993.3443, 3.460815
993.8264, 2.373657
994.3085, 1.765442
994.7906, 1.637695
995.2728, 1.566650
995.7549, 1.360291
996.2370, 1.253418
996.7191, 1.667786
997.2012, 2.253296
997.6833, 2.539246
998.1655, 2.457214
998.6476, 2.016174
999.1297, 1.021851
999.6118, 3.8451999E-02
1000.094, 1.092285
1000.576, 1.910522
1001.058, 0.9768680
1001.540, 1.623596
1002.022, 4.312134
1002.505, 7.034424
1002.987, 8.594238
1003.469, 7.493408
1003.951, 4.408691
1004.433, 2.118042
1004.915, 0.4186400
1005.397, 0.6477050
1005.879, 3.890991
1006.361, 7.498108
1006.844, 6.633545
1007.326, 3.510925
1007.808, 2.797668
1008.290, 6.666504
1008.772, 9.362610
1009.254, 8.301636
1009.736, 6.129761
1010.218, 3.823975
1010.701, 1.418518
1011.183, 1.997192
1011.665, 5.459045
1012.147, 8.501160
1012.629, 8.330383
1013.111, 7.473450
1013.593, 8.522766
1014.075, 10.69714
1014.557, 11.66455
1015.040, 10.61639
1015.522, 9.200378
1016.004, 7.164185
1016.486, 5.504395
1016.968, 6.148926
1017.450, 8.769470
1017.932, 11.82202
1018.414, 15.08789
1018.896, 16.85223
1019.379, 15.10449
1019.861, 12.45282
1020.343, 10.50568
1020.825, 9.187317
1021.307, 6.864990
1021.789, 3.235779
1022.271, 1.660461
1022.753, 4.533325
1023.236, 8.830994
1023.718, 11.09741
1024.200, 11.82367
1024.682, 11.86108
1025.164, 11.32135
1025.646, 10.13873
1026.128, 7.463684
1026.610, 5.454224
1027.093, 7.022034
1027.575, 11.58551
1028.057, 11.89777
1028.539, 7.929565
1029.021, 3.418762
1029.503, 1.637939
1029.985, 4.119324
1030.467, 0.2833860
1030.949, 7.978027
1031.432, 13.41589
1031.914, 15.81708
1032.396, 15.89618
1032.878, 13.27002
1033.360, 9.857788
1033.842, 7.900208
1034.324, 7.133728
1034.806, 7.348145
1035.288, 8.781738
1035.771, 9.851196
1036.253, 9.997131
1036.735, 9.903259
1037.217, 9.435791
1037.699, 8.997742
1038.181, 12.04846
1038.663, 18.02441
1039.145, 22.11493
1039.628, 19.62341
1040.110, 17.04132
1040.592, 19.80365
1041.074, 24.88635
1041.556, 26.99554
1042.038, 24.22089
1042.520, 24.18231
1043.002, 27.86304
1043.484, 31.75751
1043.967, 31.86176
1044.449, 30.27173
1044.931, 30.01886
1045.413, 31.34259
1045.895, 34.22247
1046.377, 39.59906
1046.859, 45.59247
1047.341, 52.28717
1047.823, 58.77618
1048.306, 61.56262
1048.788, 61.52399
1049.270, 65.51935
1049.752, 76.64899
1050.234, 86.99683
1050.716, 91.98438
1051.198, 91.68274
1051.680, 84.30859
1052.163, 69.13477
1052.645, 58.23737
1053.127, 51.91046
1053.609, 47.99500
1054.091, 44.86090
1054.573, 43.80725
1055.055, 47.78619
1055.537, 55.45184
1056.020, 63.78174
1056.502, 69.53723
1056.984, 78.95618
1057.466, 90.81042
1057.948, 108.6445
1058.430, 133.4675
1058.912, 166.9076
1059.394, 217.2296
1059.876, 284.6603
1060.359, 373.0496
1060.841, 494.6542
1061.323, 628.6397
1061.805, 773.1740
1062.287, 919.0110
1062.769, 1031.356
1063.251, 1103.119
1063.733, 1182.564
1064.215, 1277.884
1064.698, 1392.534
1065.180, 1533.390
1065.662, 1696.096
1066.144, 1874.794
1066.626, 2063.592
1067.108, 2281.431
1067.590, 2518.525
1068.072, 2799.698
1068.555, 3121.564
1069.037, 3501.762
1069.519, 3973.204
1070.001, 4544.288
1070.483, 5245.354
1070.965, 6055.046
1071.447, 7041.984
1071.929, 8252.958
1072.411, 9648.325
1072.894, 11431.09
1073.376, 13706.74
1073.858, 14809.21
1074.340, 14702.91
1074.822, 13443.89
1075.304, 10125.36
1075.786, 6494.665
1076.268, 3918.700
1076.750, 2296.442
1077.233, 1230.707
1077.715, 795.0155
1078.197, 520.2679
1078.679, 363.8738
1079.161, 277.0940
1079.643, 222.5806
1080.125, 189.3315
1080.607, 158.7679
1081.090, 128.6564
1081.572, 105.8854
1082.054, 97.44476
1082.536, 90.65729
1083.018, 81.73718
1083.500, 71.77252
1083.982, 63.70593
1084.464, 57.29285
1084.946, 51.08795
1085.429, 44.53412
1085.911, 38.76178
1086.393, 34.59381
1086.875, 31.38318
1087.357, 28.29724
1087.839, 25.15570
1088.321, 24.52667
1088.803, 26.44019
1089.286, 27.43610
1089.768, 24.52612
1090.250, 20.93054
1090.732, 20.24817
1091.214, 21.22034
1091.696, 21.47076
1092.178, 20.06140
1092.660, 19.25940
1093.142, 19.53662
1093.625, 19.17621
1094.107, 15.04401
1094.589, 9.778076
1095.071, 9.823425
1095.553, 14.33105
1096.035, 16.90491
1096.517, 12.14832
1096.999, 9.171753
1097.481, 10.88141
1097.964, 14.27930
1098.446, 13.81036
1098.928, 10.27673
1099.410, 7.742371
1099.892, 6.848083
1100.374, 6.703125
1100.856, 7.326233
1101.338, 8.007690
1101.821, 8.459351
1102.303, 8.613220
1102.785, 7.769226
1103.267, 5.883423
1103.749, 4.844971
1104.231, 5.534607
1104.713, 6.442383
1105.195, 5.757446
1105.677, 4.646667
1106.160, 4.722229
1106.642, 6.780212
1107.124, 6.405334
1107.606, 2.706787
1108.088, 4.4555999E-02
1108.570, 1.081482
1109.052, 4.097656
1109.534, 7.636963
1110.016, 10.65240
1110.499, 10.97217
1110.981, 4.693909
1111.463, 0.8498540
1111.945, 0.5179440
1112.427, 1.827087
1112.909, 4.359436
1113.391, 7.188904
1113.873, 6.181519
1114.356, 1.958313
1114.838, 1.371887
1115.320, 1.841370
1115.802, 0.9814450
1116.284, 2.159607
1116.766, 5.122131
1117.248, 3.514221
1117.730, 2.103333
1118.213, 4.317078
1118.695, 2.205566
1119.177, 0.6939090
1119.659, 2.421448
1120.141, 3.505981
1120.623, 4.113708
1121.105, 4.267334
1121.587, 4.025208
1122.069, 3.333984
1122.552, 2.664856
1123.034, 1.968750
1123.516, 2.023743
1123.998, 4.554810
1124.480, 7.675842
1124.962, 9.603943
1125.444, 10.04907
1125.926, 9.148193
1126.408, 6.703369
1126.891, 3.436584
1127.373, 1.238159
1127.855, 5.075806
1128.337, 3.246094
1128.819, 1.496704
1129.301, 4.641541
1129.783, 4.863403
1130.265, 3.889221
1130.748, 1.186951
1131.230, 1.146240
1131.712, 2.105774
1132.194, 1.662659
1132.676, 0.7990720
1133.158, 4.345520
1133.640, 6.613098
1134.122, 5.670593
1134.604, 4.891052
1135.087, 5.712585
1135.569, 6.295288
1136.051, 4.302612
1136.533, 0.3906860
1137.015, 0.9182130
1137.497, 0.1459960
1137.979, 1.564758
1138.461, 2.684570
1138.943, 3.420471
1139.426, 4.280151
1139.908, 4.837769
1140.390, 4.128174
1140.872, 2.150513
1141.354, 1.567749
1141.836, 2.571045
1142.318, 3.842041
1142.800, 4.761841
1143.283, 5.257690
1143.765, 5.220337
1144.247, 4.707764
1144.729, 3.738770
1145.211, 2.185791
1145.693, 1.441284
1146.175, 1.768799
1146.657, 2.557129
1147.140, 3.139160
1147.622, 3.932251
1148.104, 5.414063
1148.586, 7.606323
1149.068, 9.873901
1149.550, 12.65845
1150.032, 13.56396
1150.514, 11.55994
1150.996, 8.689087
1151.479, 7.860962
1151.961, 7.754761
1152.443, 6.547974
1152.925, 3.803223
1153.407, 1.404663
1153.889, 1.097290
1154.371, 1.469482
1154.853, 2.083130
1155.335, 6.777344
1155.818, 6.653076
1156.300, 4.074219
1156.782, 3.560059
1157.264, 7.261597
1157.746, 9.344238
1158.228, 8.349365
1158.710, 7.340698
1159.192, 8.450562
1159.675, 10.31726
1160.157, 8.500977
1160.639, 4.473389
1161.121, 2.296509
1161.603, 4.840576
1162.085, 6.539307
1162.567, 5.850830
1163.049, 4.621338
1163.531, 3.994629
1164.014, 3.872803
1164.496, 4.382690
1164.978, 5.392334
1165.460, 6.326660
1165.942, 6.845093
1166.424, 7.337036
1166.906, 7.901733
1167.388, 8.514282
1167.870, 9.376465
1168.353, 10.36145
1168.835, 10.13623
1169.317, 8.791626
1169.799, 7.536987
1170.281, 7.000977
1170.763, 6.739868
1171.245, 6.548462
1171.727, 6.527832
1172.210, 7.128784
1172.692, 8.195313
1173.174, 7.871216
1173.656, 6.133911
1174.138, 3.974365
1174.620, 0.2008060
1175.102, 1.955566
1175.584, 1.382080
1176.067, 6.637451
1176.549, 7.109131
1177.031, 2.748169
1177.513, 0.1517330
1177.995, 0.1539310
1178.477, 1.309570
1178.959, 3.653198
1179.441, 5.672363
1179.923, 5.903687
1180.406, 4.995728
1180.888, 5.110596
1181.370, 6.308228
1181.852, 6.739624
1182.334, 5.902100
1182.816, 5.515259
1183.298, 7.850220
1183.780, 10.64026
1184.262, 11.79504
1184.745, 11.55774
1185.227, 12.00317
1185.709, 13.10779
1186.191, 13.13440
1186.673, 11.39551
1187.155, 9.497314
1187.637, 10.20276
1188.119, 10.88538
1188.602, 8.106689
1189.084, 1.997681
1189.566, 1.128418
1190.048, 0.9854740
1190.530, 0.9582520
1191.012, 4.999634
1191.494, 8.009033
1191.976, 4.596924
1192.458, 0.4440920
1192.941, 1.370850
1193.423, 2.577026
1193.905, 4.811523
1194.387, 5.261719
1194.869, 4.010864
1195.351, 0.1728520
1195.833, 2.982422
1196.315, 0.1865230
1196.797, 4.658936
1197.280, 6.448364
1197.762, 4.123535
1198.244, 3.191772
1198.726, 3.844727
1199.208, 4.687134
1199.690, 5.398560
1200.172, 5.442627
1200.654, 2.991577
1201.137, 0.2192380
1201.619, 5.8594000E-02
1202.101, 3.412476
1202.583, 6.032837
1203.065, 7.859985
1203.547, 9.444824
1204.029, 11.95959
1204.511, 13.28345
1204.994, 9.111938
1205.476, 2.724365
1205.958, 0.1564940
1206.440, 2.458496
1206.922, 3.110229
1207.404, 1.381104
1207.886, 0.6816410
1208.368, 5.181396
1208.850, 9.945679
1209.333, 7.641968
1209.815, 2.034180
1210.297, 0.4342040
1210.779, 5.572876
1211.261, 7.768921
1211.743, 6.592407
1212.225, 4.657349
1212.707, 2.815796
1213.189, 2.067139
1213.672, 5.278687
1214.154, 10.08533
1214.636, 11.24280
1215.118, 6.591553
1215.600, 5.353271
1216.082, 8.212891
1216.564, 10.79358
1217.046, 9.058350
1217.529, 5.975220
1218.011, 3.675537
1218.493, 2.461182
1218.975, 3.211792
1219.457, 7.124268
1219.939, 7.387695
1220.421, 3.208130
1220.903, 0.4064940
1221.385, 1.288452
1221.868, 4.708130
1222.350, 7.255615
1222.832, 8.880371
1223.314, 9.836792
1223.796, 10.15796
1224.278, 9.497070
1224.760, 7.705078
1225.242, 6.504883
1225.724, 7.011597
1226.207, 8.939087
1226.689, 14.01147
1227.171, 19.85205
1227.653, 20.44189
1228.135, 14.68469
1228.617, 11.45068
1229.099, 11.51270
1229.581, 11.91418
1230.064, 9.421875
1230.546, 7.229126
1231.028, 9.066772
1231.510, 12.67737
1231.992, 12.29187
1232.474, 7.427124
1232.956, 4.547363
1233.438, 4.536987
1233.921, 5.283081
1234.403, 5.828491
1234.885, 6.080444
1235.367, 5.257813
1235.849, 4.418823
1236.331, 5.885742
1236.813, 9.691284
1237.295, 11.88940
1237.777, 12.14038
1238.260, 12.06091
1238.742, 13.27979
1239.224, 14.02271
1239.706, 12.60144
1240.188, 10.38000
1240.670, 9.729492
1241.152, 10.29395
1241.634, 10.66431
1242.116, 10.45703
1242.599, 9.710571
1243.081, 8.024414
1243.563, 7.109619
1244.045, 8.419434
1244.527, 10.38416
1245.009, 8.448975
1245.491, 3.649780
1245.973, 2.509521
1246.456, 5.548218
1246.938, 8.123535
1247.420, 6.627808
1247.902, 6.151978
1248.384, 9.178833
1248.866, 12.97681
1249.348, 12.72559
1249.830, 9.691772
1250.313, 7.651489
1250.795, 6.964966
1251.277, 6.848267
1251.759, 7.378174
1252.241, 8.146484
1252.723, 9.453369
1253.205, 10.28723
1253.687, 8.422119
1254.169, 5.181030
1254.651, 3.508667
1255.134, 3.546387
1255.616, 3.867920
1256.098, 4.386597
1256.580, 4.603760
1257.062, 4.732544
1257.544, 4.190308
1258.026, 0.9650880
1258.508, 2.685059
1258.991, 2.649902
1259.473, 0.8942870
1259.955, 3.898438
1260.437, 6.029663
1260.919, 6.762085
1261.401, 5.609497
1261.883, 4.628906
1262.365, 6.686279
1262.848, 9.789307
1263.330, 12.47986
1263.812, 14.13660
1264.294, 11.99500
1264.776, 4.383057
1265.258, 0.5311280
1265.740, 2.057861
1266.222, 4.957520
1266.704, 6.009888
1267.187, 6.150024
1267.669, 6.125977
1268.151, 5.845459
1268.633, 4.749878
1269.115, 2.683594
1269.597, 1.606323
1270.079, 1.754150
1270.561, 2.580078
1271.043, 4.247070
1271.526, 5.834229
1272.008, 6.291016
1272.490, 6.392944
1272.972, 8.197876
1273.454, 11.39111
1273.936, 11.17480
1274.418, 7.209717
1274.900, 3.861694
1275.383, 3.404297
1275.865, 3.989380
1276.347, 5.979614
1276.829, 7.696777
1277.311, 6.725952
1277.793, 4.133057
1278.275, 4.789673
1278.757, 8.612061
1279.239, 11.50354
1279.722, 11.69788
1280.204, 10.10486
1280.686, 5.711792
1281.168, 1.975220
1281.650, 4.870361
1282.132, 10.88232
1282.614, 12.24976
1283.096, 9.372192
1283.578, 7.166626
1284.061, 6.810669
1284.543, 7.522217
1285.025, 9.431152
1285.507, 11.55652
1285.989, 14.02002
1286.471, 15.37329
1286.953, 12.89441
1287.435, 7.734985
1287.917, 3.510742
1288.400, 3.3080999E-02
1288.882, 0.2397460
1289.364, 3.359985
1289.846, 7.583862
1290.328, 9.809814
1290.810, 8.678833
1291.292, 5.025513
1291.774, 0.0000000E+00
##END=



