##NAMES=Strontioginorite
##RRUFFID=R110149
##IDEAL CHEMISTRY=SrCaB_14_O_20_(OH)_6_&#183;5H_2_O
##LOCALITY=Potash Corporation of Saskatchewan mine, Penobsquis, Kings County, New Brunswick, Canada
##OWNER=RRUFF
##SOURCE=Donald M Doell and Brian Roulston
##DESCRIPTION=Colorless elongated tetragonal prisms, extracted by dissolving the matrix of sylvite/halite, associated with howlite R110150, volkovskite R110151, ruitenbergite R110152, congolite R110153, and hilgardite
##STATUS=The identification of this mineral has been confirmed by single-crystal X-ray diffraction.
##URL=rruff.info/R110149
185.4692, 0.0000000E+00
185.9513, 2.180267
186.4334, 5.604919
186.9155, 9.779510
187.3976, 14.17926
187.8798, 18.02124
188.3619, 21.11292
188.8440, 23.63190
189.3261, 26.03754
189.8082, 28.03305
190.2903, 28.98193
190.7725, 28.18259
191.2546, 25.91525
191.7367, 23.85568
192.2188, 22.80667
192.7009, 22.45389
193.1830, 20.10300
193.6652, 17.19324
194.1473, 14.55499
194.6294, 12.95770
195.1115, 12.27396
195.5936, 10.76587
196.0757, 8.081635
196.5579, 4.967651
197.0400, 2.963135
197.5221, 2.156769
198.0042, 1.465820
198.4863, 0.1058350
198.9684, 2.580078
199.4506, 3.454498
199.9327, 2.165588
200.4148, 0.2950440
200.8969, 1.781067
201.3790, 2.188202
201.8611, 2.298523
202.3433, 2.360016
202.8254, 2.308380
203.3075, 2.990112
203.7896, 4.546295
204.2717, 6.776520
204.7538, 9.433990
205.2360, 12.78558
205.7181, 15.55890
206.2002, 16.60480
206.6823, 15.49619
207.1644, 15.46841
207.6465, 17.05252
208.1287, 19.71564
208.6108, 21.87491
209.0929, 23.31387
209.5750, 24.84796
210.0571, 27.22461
210.5392, 30.88025
211.0214, 33.29703
211.5035, 33.88992
211.9856, 33.21555
212.4677, 33.28662
212.9498, 34.43515
213.4319, 35.61871
213.9141, 36.02322
214.3962, 35.18228
214.8783, 35.32941
215.3604, 36.92093
215.8425, 39.61600
216.3246, 41.94052
216.8067, 43.70700
217.2889, 45.49652
217.7710, 47.70020
218.2531, 50.45599
218.7352, 53.15637
219.2173, 55.52304
219.6994, 57.81064
220.1816, 61.14117
220.6637, 65.84509
221.1458, 71.06323
221.6279, 76.22278
222.1100, 81.31421
222.5921, 86.48389
223.0743, 91.84253
223.5564, 97.29587
224.0385, 102.8238
224.5206, 108.8962
225.0027, 114.1580
225.4848, 117.8425
225.9670, 120.0009
226.4491, 120.4582
226.9312, 119.1156
227.4133, 116.0555
227.8954, 111.5143
228.3775, 104.9718
228.8597, 98.04074
229.3418, 91.57330
229.8239, 85.16278
230.3060, 79.55530
230.7881, 74.93143
231.2702, 71.06741
231.7524, 67.81024
232.2345, 65.51852
232.7166, 64.10284
233.1987, 63.35730
233.6808, 63.46887
234.1629, 63.74323
234.6451, 63.78821
235.1272, 63.81140
235.6093, 64.78241
236.0914, 67.08539
236.5735, 69.38477
237.0556, 71.17685
237.5378, 72.13336
238.0199, 73.62524
238.5020, 75.94342
238.9841, 78.93646
239.4662, 81.59833
239.9483, 83.58917
240.4305, 85.75098
240.9126, 88.55771
241.3947, 92.18576
241.8768, 96.12982
242.3589, 100.5595
242.8410, 105.2798
243.3232, 109.6071
243.8053, 113.1462
244.2874, 116.8823
244.7695, 121.4521
245.2516, 127.8715
245.7337, 132.7683
246.2159, 135.4683
246.6980, 136.6382
247.1801, 138.3406
247.6622, 140.5823
248.1443, 143.3032
248.6264, 146.5174
249.1086, 150.5969
249.5907, 154.2244
250.0728, 157.3633
250.5549, 160.0987
251.0370, 162.6291
251.5191, 165.0255
252.0013, 167.1212
252.4834, 169.0930
252.9655, 171.7057
253.4476, 172.1712
253.9297, 170.2174
254.4118, 166.1845
254.8940, 160.7515
255.3761, 153.8518
255.8582, 145.8015
256.3403, 136.5494
256.8224, 125.6309
257.3046, 114.6321
257.7867, 103.4238
258.2688, 92.46344
258.7509, 82.69531
259.2330, 74.54376
259.7151, 66.89865
260.1973, 59.26102
260.6794, 51.63403
261.1615, 44.55185
261.6436, 37.94568
262.1257, 32.02536
262.6078, 27.22910
263.0900, 23.78412
263.5721, 21.06238
264.0542, 19.11496
264.5363, 18.13977
265.0184, 16.43378
265.5005, 13.63400
265.9827, 10.51855
266.4648, 8.118439
266.9469, 6.521332
267.4290, 5.450073
267.9111, 4.899567
268.3932, 4.900238
268.8754, 4.936951
269.3575, 5.058075
269.8396, 5.120697
270.3217, 4.947052
270.8038, 4.517212
271.2859, 3.866058
271.7681, 2.834442
272.2502, 1.451782
272.7323, 0.7717290
273.2144, 0.9853820
273.6965, 1.528503
274.1786, 1.832062
274.6608, 1.874603
275.1429, 1.782623
275.6250, 1.426270
276.1071, 0.9170230
276.5892, 1.357819
277.0714, 3.113831
277.5535, 4.756714
278.0356, 4.698273
278.5177, 2.742920
278.9998, 1.082001
279.4819, 0.1518250
279.9641, 0.1518250
280.4462, 0.1258850
280.9283, 0.3101810
281.4104, 0.7233890
281.8925, 0.6609190
282.3746, 0.1148680
282.8568, 0.1373290
283.3389, 0.1589660
283.8210, 0.7467040
284.3031, 0.8583680
284.7852, 0.4614560
285.2673, 2.8441999E-02
285.7495, 0.4602970
286.2316, 0.7994690
286.7137, 0.5644530
287.1958, 0.5241700
287.6779, 1.977570
288.1600, 2.669647
288.6422, 2.569336
289.1243, 2.436401
289.6064, 2.636353
290.0885, 3.150085
290.5706, 4.054077
291.0527, 5.467865
291.5349, 7.046051
292.0170, 8.361755
292.4991, 9.379242
292.9812, 9.918610
293.4633, 9.621033
293.9454, 8.734528
294.4276, 8.080841
294.9097, 7.751587
295.3918, 7.472473
295.8739, 6.670074
296.3560, 5.525208
296.8381, 4.855560
297.3203, 5.736603
297.8024, 7.243561
298.2845, 7.231628
298.7666, 5.538330
299.2487, 3.579620
299.7308, 2.929718
300.2130, 3.181549
300.6951, 3.168457
301.1772, 2.211395
301.6593, 0.8273620
302.1414, 0.2927860
302.6235, 1.146759
303.1057, 1.873718
303.5878, 2.604492
304.0699, 3.284302
304.5520, 3.806091
305.0341, 4.197357
305.5162, 4.357788
305.9984, 4.021820
306.4805, 3.266571
306.9626, 2.590393
307.4447, 2.403778
307.9268, 2.482483
308.4089, 2.553497
308.8911, 2.562256
309.3732, 2.517609
309.8553, 2.516235
310.3374, 2.493500
310.8195, 2.220612
311.3016, 1.122498
311.7838, 4.5685001E-02
312.2659, 0.4966130
312.7480, 0.2894590
313.2301, 0.9350890
313.7122, 0.6634520
314.1943, 0.3421020
314.6765, 1.690125
315.1586, 3.793945
315.6407, 5.767761
316.1228, 6.887909
316.6049, 6.782654
317.0870, 7.012573
317.5692, 8.399231
318.0513, 10.50485
318.5334, 12.71124
319.0155, 14.84091
319.4976, 17.01318
319.9797, 19.13113
320.4619, 21.14728
320.9440, 23.67563
321.4261, 27.14966
321.9082, 31.07950
322.3903, 34.98724
322.8724, 39.06857
323.3546, 42.80585
323.8367, 45.70724
324.3188, 47.82748
324.8009, 50.70395
325.2830, 55.74182
325.7651, 60.86786
326.2473, 64.73465
326.7294, 66.46088
327.2115, 67.82770
327.6936, 68.99756
328.1757, 69.94257
328.6578, 70.56293
329.1400, 71.49075
329.6221, 71.57416
330.1042, 70.26782
330.5863, 66.71948
331.0684, 63.24158
331.5505, 59.72632
332.0327, 56.30896
332.5148, 53.38098
332.9969, 51.33151
333.4790, 49.18008
333.9611, 46.48322
334.4432, 43.05145
334.9254, 40.01602
335.4075, 37.62366
335.8896, 35.34857
336.3717, 32.29132
336.8538, 27.80203
337.3359, 24.14145
337.8180, 22.34451
338.3001, 22.39380
338.7823, 21.23322
339.2644, 18.58939
339.7465, 15.28467
340.2286, 11.90579
340.7107, 8.387817
341.1928, 5.536011
341.6750, 3.641541
342.1571, 2.509552
342.6392, 1.670197
343.1213, 1.192810
343.6034, 0.5909120
344.0855, 0.6645510
344.5677, 2.489563
345.0498, 3.844269
345.5319, 4.634247
346.0140, 4.913239
346.4961, 4.713715
346.9782, 4.044891
347.4604, 2.938293
347.9425, 1.355225
348.4246, 0.6709590
348.9067, 3.030823
349.3888, 5.766510
349.8709, 8.500977
350.3531, 10.73911
350.8352, 12.57425
351.3173, 14.34491
351.7994, 16.17581
352.2815, 18.05371
352.7636, 19.93185
353.2458, 21.80560
353.7279, 23.81030
354.2100, 26.17670
354.6921, 28.72784
355.1742, 31.12112
355.6563, 32.99509
356.1385, 34.97305
356.6206, 37.59378
357.1027, 40.83987
357.5848, 44.53397
358.0669, 48.92291
358.5490, 53.58646
359.0312, 58.11237
359.5133, 62.44684
359.9954, 66.59564
360.4775, 70.46521
360.9596, 74.21237
361.4417, 78.07251
361.9239, 82.29224
362.4060, 86.60840
362.8881, 90.80212
363.3702, 94.77863
363.8523, 99.16589
364.3344, 104.2361
364.8166, 109.8236
365.2987, 115.7682
365.7808, 121.5894
366.2629, 128.0126
366.7450, 135.4024
367.2271, 143.7562
367.7093, 152.1391
368.1914, 160.8303
368.6735, 169.2840
369.1556, 177.2395
369.6377, 183.4673
370.1198, 190.4509
370.6020, 198.8674
371.0841, 208.1277
371.5662, 216.2148
372.0483, 223.1036
372.5304, 228.7603
373.0125, 233.2469
373.4947, 236.7516
373.9768, 238.4563
374.4589, 238.4479
374.9410, 236.5919
375.4231, 232.6095
375.9052, 226.2293
376.3874, 218.4561
376.8695, 209.5740
377.3516, 199.4869
377.8337, 188.5554
378.3158, 176.5110
378.7979, 164.0391
379.2801, 151.8101
379.7622, 139.7130
380.2443, 128.1180
380.7264, 116.8774
381.2085, 106.2072
381.6906, 96.56396
382.1728, 87.97693
382.6549, 80.18176
383.1370, 73.21289
383.6191, 66.93982
384.1012, 61.10315
384.5833, 55.55658
385.0655, 50.58368
385.5476, 46.96271
386.0297, 44.33191
386.5118, 41.58539
386.9939, 37.71130
387.4760, 33.56714
387.9582, 30.46124
388.4403, 28.40662
388.9224, 26.70819
389.4045, 24.93799
389.8866, 23.16077
390.3687, 21.45209
390.8509, 19.83643
391.3330, 18.34088
391.8151, 16.86163
392.2972, 15.47943
392.7793, 14.47949
393.2614, 13.92163
393.7436, 13.85150
394.2257, 14.30652
394.7078, 15.33081
395.1899, 16.77936
395.6720, 18.70654
396.1541, 20.99884
396.6363, 23.47620
397.1184, 25.93158
397.6005, 28.70990
398.0826, 32.12921
398.5647, 36.33014
399.0468, 40.03870
399.5290, 42.73425
400.0111, 45.10968
400.4932, 47.72223
400.9753, 50.64624
401.4574, 53.72406
401.9395, 56.86841
402.4217, 60.10022
402.9038, 63.53644
403.3859, 66.94324
403.8680, 70.95508
404.3501, 75.96997
404.8322, 82.16077
405.3144, 88.75293
405.7965, 95.86597
406.2786, 103.1278
406.7607, 109.7951
407.2428, 115.7129
407.7249, 121.9161
408.2071, 128.8038
408.6892, 136.2587
409.1713, 143.7293
409.6534, 151.4461
410.1355, 157.9457
410.6176, 161.9711
411.0998, 163.6494
411.5819, 163.4037
412.0640, 160.9537
412.5461, 157.2130
413.0282, 153.0743
413.5103, 148.7089
413.9925, 145.0321
414.4746, 143.2045
414.9567, 142.2678
415.4388, 140.2980
415.9209, 136.8892
416.4030, 134.1545
416.8852, 133.9128
417.3673, 135.5455
417.8494, 137.9612
418.3315, 140.3051
418.8136, 143.5943
419.2957, 148.8450
419.7779, 155.8098
420.2600, 163.1543
420.7421, 170.7800
421.2242, 178.2255
421.7063, 185.0231
422.1884, 191.5256
422.6706, 196.7968
423.1527, 201.3058
423.6348, 204.4443
424.1169, 205.0703
424.5990, 203.2430
425.0811, 198.6656
425.5633, 190.7460
426.0454, 179.1115
426.5275, 166.8607
427.0096, 153.0037
427.4917, 139.1548
427.9738, 126.5045
428.4560, 114.9528
428.9381, 104.8064
429.4202, 96.02643
429.9023, 88.80731
430.3844, 83.45758
430.8665, 80.12885
431.3487, 78.35529
431.8308, 78.12982
432.3129, 79.50140
432.7950, 81.41846
433.2771, 83.94122
433.7592, 86.83740
434.2414, 90.16870
434.7235, 93.85187
435.2056, 96.76587
435.6877, 98.20074
436.1698, 98.89838
436.6519, 100.4152
437.1341, 102.7358
437.6162, 105.4091
438.0983, 107.6259
438.5804, 110.1021
439.0625, 114.0754
439.5446, 119.8030
440.0268, 126.8721
440.5089, 134.9227
440.9910, 144.0822
441.4731, 154.4567
441.9552, 166.8176
442.4373, 179.9263
442.9195, 193.3655
443.4016, 207.0825
443.8837, 220.4850
444.3658, 233.6022
444.8479, 246.1862
445.3300, 257.9194
445.8122, 269.3599
446.2943, 279.2717
446.7764, 286.8214
447.2585, 292.7161
447.7406, 298.7742
448.2227, 307.1696
448.7049, 313.6995
449.1870, 317.2413
449.6691, 317.6333
450.1512, 315.9955
450.6333, 312.8007
451.1154, 307.1365
451.5976, 298.0089
452.0797, 285.1971
452.5618, 269.9130
453.0439, 251.6863
453.5260, 231.5355
454.0081, 211.0911
454.4903, 190.1007
454.9724, 170.0119
455.4545, 151.0134
455.9366, 133.3778
456.4187, 117.9619
456.9008, 105.0314
457.3830, 93.67389
457.8651, 83.06854
458.3472, 73.34686
458.8293, 65.57788
459.3114, 60.61298
459.7935, 57.11188
460.2757, 53.42761
460.7578, 49.67017
461.2399, 46.31619
461.7220, 43.61002
462.2041, 41.44742
462.6862, 39.93005
463.1684, 39.25122
463.6505, 38.42432
464.1326, 36.82153
464.6147, 34.84866
465.0968, 32.99332
465.5789, 32.10376
466.0611, 30.71707
466.5432, 28.12070
467.0253, 24.44293
467.5074, 21.04291
467.9895, 18.43231
468.4716, 15.84854
468.9538, 12.87122
469.4359, 8.961914
469.9180, 5.961609
470.4001, 4.298828
470.8822, 3.206421
471.3643, 1.364380
471.8465, 1.759033
472.3286, 4.052399
472.8107, 4.657532
473.2928, 3.953369
473.7749, 4.388458
474.2570, 6.181641
474.7392, 7.967651
475.2213, 8.708252
475.7034, 8.516357
476.1855, 8.091156
476.6676, 7.442688
477.1497, 6.771545
477.6319, 6.553467
478.1140, 6.579498
478.5961, 6.170044
479.0782, 4.779663
479.5603, 2.949341
480.0424, 1.370514
480.5246, 2.1850999E-02
481.0067, 1.700714
481.4888, 4.094635
481.9709, 6.826385
482.4530, 9.556061
482.9352, 12.18091
483.4173, 14.88229
483.8994, 17.66248
484.3815, 20.58582
484.8636, 23.72086
485.3457, 27.17374
485.8279, 30.73019
486.3100, 34.50464
486.7921, 38.51318
487.2742, 42.00851
487.7563, 44.84958
488.2384, 47.33334
488.7206, 49.71967
489.2027, 52.45428
489.6848, 53.83832
490.1669, 53.58420
490.6490, 52.28632
491.1311, 50.85382
491.6133, 49.35223
492.0954, 47.39331
492.5775, 44.81903
493.0596, 41.69397
493.5417, 37.93195
494.0238, 33.52716
494.5060, 29.54004
494.9881, 27.07428
495.4702, 25.62079
495.9523, 23.79416
496.4344, 21.34583
496.9165, 18.89056
497.3987, 17.08392
497.8808, 15.71173
498.3629, 14.39999
498.8450, 12.67450
499.3271, 11.15900
499.8092, 10.49554
500.2914, 10.57947
500.7735, 10.70547
501.2556, 10.40207
501.7377, 9.975861
502.2198, 9.586060
502.7019, 9.126465
503.1841, 9.120758
503.6662, 10.14706
504.1483, 11.43109
504.6304, 12.03058
505.1125, 11.17429
505.5946, 10.90247
506.0768, 11.93539
506.5589, 13.87128
507.0410, 14.38733
507.5231, 12.96869
508.0052, 11.49289
508.4873, 11.07031
508.9695, 11.68637
509.4516, 11.59305
509.9337, 10.72751
510.4158, 9.617188
510.8979, 8.761963
511.3800, 8.077301
511.8622, 7.413788
512.3443, 6.758362
512.8264, 6.136963
513.3085, 5.417328
513.7906, 4.684570
514.2728, 4.272797
514.7549, 4.799469
515.2370, 5.476166
515.7191, 5.509949
516.2012, 4.803284
516.6833, 4.256927
517.1655, 4.553772
517.6476, 5.056732
518.1297, 5.215790
518.6118, 4.413879
519.0939, 3.900787
519.5760, 3.861633
520.0582, 4.250153
520.5403, 4.928345
521.0224, 6.066071
521.5045, 7.243591
521.9866, 8.322540
522.4688, 9.304016
522.9509, 10.51434
523.4330, 12.12808
523.9151, 13.56418
524.3972, 14.27707
524.8793, 14.24338
525.3615, 14.17191
525.8436, 13.97482
526.3257, 14.15204
526.8078, 15.95328
527.2899, 18.97626
527.7720, 21.26703
528.2542, 21.63190
528.7363, 21.15820
529.2184, 21.33078
529.7005, 21.96039
530.1826, 22.29800
530.6647, 21.51761
531.1469, 20.65356
531.6290, 20.68472
532.1111, 21.95755
532.5932, 22.74423
533.0753, 22.04263
533.5574, 20.78159
534.0396, 19.89700
534.5217, 20.29431
535.0038, 20.22955
535.4859, 19.16336
535.9680, 17.41467
536.4501, 16.02496
536.9323, 15.15598
537.4144, 14.52579
537.8965, 14.14505
538.3786, 14.01813
538.8607, 13.20679
539.3428, 11.53992
539.8250, 9.669952
540.3071, 8.116608
540.7892, 6.895386
541.2713, 6.017181
541.7534, 5.543091
542.2355, 5.270020
542.7177, 5.052032
543.1998, 4.821411
543.6819, 4.372864
544.1640, 3.235901
544.6461, 2.113739
545.1282, 1.653381
545.6104, 1.811768
546.0925, 2.273285
546.5746, 3.077850
547.0567, 3.987976
547.5388, 4.884399
548.0209, 5.792389
548.5031, 6.535431
548.9852, 6.973969
549.4673, 7.281158
549.9494, 7.652130
550.4315, 8.315063
550.9136, 8.665405
551.3958, 8.470703
551.8779, 7.958099
552.3600, 7.907623
552.8421, 8.522369
553.3242, 8.877319
553.8063, 8.575806
554.2885, 7.667969
554.7706, 6.340668
555.2527, 4.526825
555.7348, 3.017944
556.2169, 3.065033
556.6990, 3.940796
557.1812, 3.545776
557.6633, 1.264984
558.1454, 1.192261
558.6275, 2.145813
559.1096, 2.120300
559.5917, 2.065704
560.0739, 2.405029
560.5560, 2.760132
561.0381, 2.965729
561.5202, 3.032379
562.0023, 3.026825
562.4844, 2.802063
562.9666, 2.656433
563.4487, 2.793091
563.9308, 3.325256
564.4129, 3.602112
564.8950, 3.642212
565.3771, 3.415009
565.8593, 2.780396
566.3414, 1.540558
566.8235, 0.8084720
567.3056, 0.8431090
567.7877, 1.189301
568.2698, 0.9630430
568.7520, 0.1961060
569.2341, 0.5014040
569.7162, 0.7489320
570.1983, 0.8983460
570.6804, 1.750977
571.1625, 3.206757
571.6447, 4.553650
572.1268, 5.089783
572.6089, 5.443268
573.0910, 6.261841
573.5731, 7.695221
574.0552, 9.057251
574.5374, 10.08728
575.0195, 10.88907
575.5016, 11.55130
575.9837, 11.45138
576.4658, 11.96841
576.9479, 13.67194
577.4301, 15.96320
577.9122, 17.62811
578.3943, 18.25439
578.8764, 19.08093
579.3585, 20.44394
579.8406, 22.28021
580.3228, 24.32480
580.8049, 26.66071
581.2870, 28.64835
581.7691, 29.67444
582.2512, 29.97812
582.7333, 30.69077
583.2155, 31.95764
583.6976, 32.92590
584.1797, 32.53995
584.6617, 31.39774
585.1439, 30.48499
585.6260, 30.14365
586.1081, 29.97827
586.5902, 29.89648
587.0723, 29.80563
587.5544, 29.52829
588.0366, 29.15475
588.5187, 28.43018
589.0008, 26.95215
589.4829, 24.79163
589.9650, 23.40433
590.4471, 23.24622
590.9293, 23.24084
591.4114, 22.81241
591.8935, 21.82642
592.3756, 21.29572
592.8577, 21.21503
593.3398, 21.59763
593.8220, 22.61636
594.3041, 24.19504
594.7862, 25.74887
595.2683, 27.21295
595.7504, 28.53561
596.2325, 29.37180
596.7147, 30.02115
597.1968, 31.23123
597.6789, 33.89169
598.1610, 36.78592
598.6431, 39.09995
599.1252, 40.89709
599.6074, 42.53354
600.0895, 43.72223
600.5716, 45.15143
601.0537, 47.19986
601.5358, 49.98529
602.0179, 52.88510
602.5001, 56.13531
602.9822, 59.25931
603.4643, 61.84076
603.9464, 63.70447
604.4285, 65.85760
604.9106, 68.41617
605.3928, 71.20654
605.8749, 74.16473
606.3570, 77.25934
606.8391, 80.05261
607.3212, 82.70898
607.8033, 84.61316
608.2855, 84.60223
608.7676, 82.96552
609.2497, 80.78210
609.7318, 78.90045
610.2139, 76.52432
610.6960, 72.71942
611.1782, 67.50568
611.6603, 62.61194
612.1424, 58.73328
612.6245, 55.24170
613.1066, 51.71387
613.5887, 47.81747
614.0709, 44.54471
614.5530, 41.97617
615.0351, 39.94879
615.5172, 38.23666
615.9993, 36.74536
616.4814, 35.58820
616.9636, 34.82135
617.4457, 34.46823
617.9278, 34.68011
618.4099, 35.40720
618.8920, 36.14609
619.3741, 36.55652
619.8563, 36.96878
620.3384, 37.89044
620.8205, 39.25415
621.3026, 40.75040
621.7847, 42.35559
622.2668, 43.90363
622.7490, 45.27509
623.2311, 46.49655
623.7132, 47.46750
624.1953, 47.77820
624.6774, 48.13019
625.1595, 49.06067
625.6417, 51.42780
626.1238, 52.63965
626.6059, 52.21957
627.0880, 51.23477
627.5701, 50.96896
628.0522, 51.43307
628.5344, 52.56674
629.0165, 54.48401
629.4986, 56.87280
629.9807, 58.91959
630.4628, 60.80054
630.9449, 63.40884
631.4271, 67.59576
631.9092, 72.48218
632.3913, 77.48996
632.8734, 82.54883
633.3555, 86.91272
633.8376, 89.70203
634.3198, 91.85648
634.8019, 94.14722
635.2840, 96.91071
635.7661, 98.39807
636.2482, 97.91156
636.7303, 96.55798
637.2125, 94.88339
637.6946, 92.31815
638.1767, 91.22174
638.6588, 91.94897
639.1409, 93.55490
639.6230, 94.47968
640.1052, 94.87024
640.5873, 96.46106
641.0694, 99.91663
641.5515, 104.3134
642.0336, 108.3665
642.5157, 112.2372
642.9979, 116.2449
643.4800, 120.5015
643.9621, 124.7617
644.4442, 128.9844
644.9263, 133.1642
645.4084, 137.0697
645.8906, 140.3089
646.3727, 143.4135
646.8548, 146.8788
647.3369, 150.9444
647.8190, 153.5921
648.3011, 154.7066
648.7833, 154.5408
649.2654, 153.3319
649.7475, 151.0900
650.2296, 147.1661
650.7117, 141.3356
651.1938, 134.5626
651.6760, 128.1644
652.1581, 121.8473
652.6402, 114.7561
653.1223, 106.2100
653.6044, 97.76492
654.0865, 90.56763
654.5687, 84.36151
655.0508, 78.61304
655.5329, 72.70306
656.0150, 67.56506
656.4971, 63.57660
656.9792, 60.67542
657.4614, 58.49252
657.9435, 57.39035
658.4256, 56.42004
658.9077, 55.14343
659.3898, 53.60406
659.8719, 53.00763
660.3541, 53.48135
660.8362, 54.29498
661.3183, 54.79358
661.8004, 55.18884
662.2825, 56.55920
662.7646, 59.01923
663.2468, 61.47397
663.7289, 62.95447
664.2110, 63.85422
664.6931, 64.79871
665.1752, 66.27570
665.6573, 66.88495
666.1395, 65.42072
666.6216, 62.99313
667.1037, 60.96622
667.5858, 59.97803
668.0679, 58.84885
668.5500, 57.59064
669.0322, 56.09998
669.5143, 54.12827
669.9964, 51.58096
670.4785, 48.94760
670.9606, 46.30942
671.4427, 43.71808
671.9249, 41.27020
672.4070, 38.98300
672.8891, 37.10391
673.3712, 36.15961
673.8533, 35.49106
674.3354, 34.27765
674.8176, 32.55426
675.2997, 30.94540
675.7818, 29.95514
676.2639, 29.05411
676.7460, 27.94513
677.2281, 26.62668
677.7103, 25.02097
678.1924, 22.79227
678.6745, 20.62463
679.1566, 19.04654
679.6387, 18.19305
680.1208, 17.24652
680.6030, 16.11084
681.0851, 14.98608
681.5672, 14.09314
682.0493, 13.40466
682.5314, 12.85062
683.0135, 12.57303
683.4957, 12.04611
683.9778, 10.48492
684.4599, 8.298248
684.9420, 6.318146
685.4241, 4.872467
685.9063, 3.632721
686.3884, 2.408600
686.8705, 1.281006
687.3526, 0.5180360
687.8347, 0.2257080
688.3168, 0.1761780
688.7990, 0.5257870
689.2811, 1.118286
689.7632, 0.4818120
690.2453, 1.671326
690.7274, 3.052673
691.2095, 1.320953
691.6917, 2.140350
692.1738, 2.886536
692.6559, 0.9592590
693.1380, 1.255707
693.6201, 2.189514
694.1022, 2.466492
694.5844, 2.720673
695.0665, 3.085602
695.5486, 3.092163
696.0307, 2.105469
696.5128, 0.9838560
696.9949, 0.4393010
697.4771, 0.9536130
697.9592, 1.064819
698.4413, 0.4514160
698.9234, 0.2341610
699.4055, 0.1271360
699.8876, 1.602112
700.3698, 2.177734
700.8519, 1.226166
701.3340, 0.2150570
701.8161, 0.4730830
702.2982, 8.1786998E-02
702.7803, 0.4085080
703.2625, 0.3569640
703.7446, 1.209595
704.2267, 1.174713
704.7088, 0.6964420
705.1909, 0.7534790
705.6730, 2.178101
706.1552, 3.506500
706.6373, 4.322784
707.1194, 4.738708
707.6015, 5.280762
708.0836, 5.935913
708.5657, 6.738800
709.0479, 7.920013
709.5300, 9.232025
710.0121, 9.329865
710.4942, 8.268036
710.9763, 7.471222
711.4584, 8.178040
711.9406, 9.547546
712.4227, 10.66122
712.9048, 11.46320
713.3869, 11.89926
713.8690, 11.48068
714.3511, 11.03973
714.8333, 11.16013
715.3154, 12.11050
715.7975, 13.04034
716.2796, 14.16953
716.7617, 15.03638
717.2438, 15.11429
717.7260, 14.28452
718.2081, 14.01169
718.6902, 14.40106
719.1723, 15.29639
719.6544, 16.84027
720.1365, 18.72577
720.6187, 20.14362
721.1008, 20.84140
721.5829, 21.28986
722.0650, 21.27658
722.5471, 21.42047
723.0292, 22.56207
723.5114, 25.78162
723.9935, 28.94250
724.4756, 31.74973
724.9577, 34.29428
725.4398, 36.65323
725.9219, 38.48526
726.4041, 41.18512
726.8862, 45.22354
727.3683, 50.13409
727.8504, 54.62997
728.3325, 58.78561
728.8146, 63.16919
729.2968, 68.37921
729.7789, 73.59491
730.2610, 77.33002
730.7431, 80.18045
731.2252, 84.12378
731.7073, 91.00314
732.1895, 98.19495
732.6716, 104.2010
733.1537, 109.1857
733.6358, 115.7227
734.1179, 124.5406
734.6000, 133.8454
735.0822, 142.8385
735.5643, 151.6186
736.0464, 160.6867
736.5285, 170.0350
737.0106, 179.8963
737.4927, 191.3543
737.9749, 203.0985
738.4570, 213.3687
738.9391, 221.9444
739.4212, 228.0157
739.9033, 231.6431
740.3854, 232.1545
740.8676, 228.8716
741.3497, 221.2498
741.8318, 211.3425
742.3139, 199.1777
742.7960, 185.0541
743.2781, 168.4859
743.7603, 148.9016
744.2424, 130.5869
744.7245, 113.4798
745.2066, 98.14484
745.6887, 85.42120
746.1708, 74.66394
746.6530, 64.29337
747.1351, 53.97412
747.6172, 44.55127
748.0993, 36.60355
748.5814, 29.82635
749.0635, 24.17798
749.5457, 19.66522
750.0278, 15.92078
750.5099, 13.19269
750.9920, 11.02295
751.4741, 8.999756
751.9562, 7.192444
752.4384, 5.352631
752.9205, 3.373627
753.4026, 1.515137
753.8847, 0.2259520
754.3668, 0.5525210
754.8489, 1.002167
755.3311, 1.002014
755.8132, 1.094025
756.2953, 2.075226
756.7774, 3.408691
757.2595, 4.134552
757.7416, 3.259125
758.2238, 2.673981
758.7059, 3.240814
759.1880, 4.135620
759.6701, 3.597992
760.1522, 1.125854
760.6343, 1.078400
761.1165, 2.442841
761.5986, 3.349854
762.0807, 4.575806
762.5628, 6.189972
763.0449, 8.601105
763.5270, 12.57513
764.0092, 16.90131
764.4913, 20.15829
764.9734, 22.80533
765.4555, 26.32928
765.9376, 31.60153
766.4197, 37.42352
766.9019, 43.35922
767.3840, 49.45459
767.8661, 56.02594
768.3482, 63.02182
768.8303, 70.56274
769.3124, 78.63177
769.7946, 87.21777
770.2767, 96.56421
770.7588, 106.6581
771.2409, 117.3873
771.7230, 128.3661
772.2051, 140.1729
772.6873, 153.6625
773.1694, 168.7296
773.6515, 183.9788
774.1336, 200.0631
774.6157, 215.2861
775.0978, 229.4648
775.5800, 242.5576
776.0621, 252.6527
776.5442, 260.2565
777.0263, 263.4303
777.5084, 260.6802
777.9905, 252.5676
778.4727, 240.8782
778.9548, 225.7354
779.4369, 209.4299
779.9190, 192.9399
780.4011, 176.5207
780.8832, 159.7018
781.3654, 142.6419
781.8475, 127.2354
782.3296, 114.3889
782.8117, 103.1945
783.2938, 93.06256
783.7759, 84.02350
784.2581, 75.85706
784.7402, 68.73969
785.2223, 62.14224
785.7044, 55.59534
786.1865, 49.25406
786.6686, 43.50079
787.1508, 38.32956
787.6329, 33.60312
788.1150, 29.16995
788.5971, 25.06119
789.0792, 21.35941
789.5613, 17.99765
790.0435, 15.20447
790.5256, 13.44559
791.0077, 11.86990
791.4898, 9.945984
791.9719, 7.562775
792.4540, 5.678436
792.9362, 4.367950
793.4183, 3.335419
793.9004, 2.349762
794.3825, 1.458160
794.8646, 0.8855590
795.3467, 0.6477660
795.8289, 0.4436040
796.3110, 7.2630001E-03
796.7931, 0.4473270
797.2752, 0.7592470
797.7573, 0.9226680
798.2394, 0.8234250
798.7216, 8.0994003E-02
799.2037, 0.5372010
799.6858, 0.4387510
800.1679, 0.5241700
800.6500, 1.038361
801.1321, 1.101257
801.6143, 0.7673950
802.0964, 0.3485410
802.5785, 1.699280
803.0606, 1.967529
803.5427, 0.9137570
804.0248, 0.2932430
804.5070, 1.193787
804.9891, 2.894623
805.4712, 5.009613
805.9533, 7.888123
806.4354, 9.825043
806.9175, 10.27740
807.3997, 10.56042
807.8818, 11.74539
808.3639, 13.79453
808.8460, 15.46643
809.3281, 16.70490
809.8102, 17.74716
810.2924, 18.82840
810.7745, 19.83868
811.2566, 20.60858
811.7387, 21.06778
812.2208, 21.41360
812.7029, 21.33325
813.1851, 21.53629
813.6672, 22.55441
814.1493, 24.51944
814.6314, 26.32172
815.1135, 27.81729
815.5956, 29.70844
816.0778, 32.62180
816.5599, 36.26596
817.0420, 39.46024
817.5241, 42.23074
818.0062, 45.38824
818.4883, 49.34381
818.9705, 53.88000
819.4526, 58.85455
819.9347, 64.22812
820.4168, 69.99698
820.8989, 76.32623
821.3810, 82.90411
821.8632, 89.58084
822.3453, 96.30710
822.8274, 103.7574
823.3095, 111.8718
823.7916, 120.3691
824.2737, 128.9255
824.7559, 137.6193
825.2380, 146.5790
825.7201, 155.7429
826.2022, 165.1122
826.6843, 175.6922
827.1664, 185.5848
827.6486, 193.5982
828.1307, 199.5853
828.6128, 203.8693
829.0949, 206.9095
829.5770, 207.5164
830.0591, 205.0435
830.5413, 199.5253
831.0234, 190.9683
831.5055, 179.3919
831.9876, 166.6796
832.4697, 153.2382
832.9518, 139.8705
833.4340, 127.0452
833.9161, 114.8893
834.3982, 103.7589
834.8803, 93.64413
835.3624, 84.79990
835.8445, 77.43536
836.3267, 71.52603
836.8088, 65.69946
837.2909, 59.89203
837.7730, 54.61865
838.2551, 50.30731
838.7372, 46.69785
839.2194, 42.93976
839.7015, 39.17868
840.1836, 36.25378
840.6657, 35.01028
841.1478, 34.42468
841.6299, 34.19662
842.1121, 34.19815
842.5942, 33.59192
843.0763, 31.84836
843.5584, 30.33945
844.0405, 29.43524
844.5226, 29.11118
845.0048, 29.40811
845.4869, 30.28415
845.9690, 31.19836
846.4511, 31.79105
846.9332, 32.35165
847.4153, 33.25220
847.8975, 34.38797
848.3796, 35.45285
848.8617, 36.29089
849.3438, 37.22638
849.8259, 38.24414
850.3080, 39.23755
850.7902, 40.27936
851.2723, 41.42188
851.7544, 42.74991
852.2365, 44.31317
852.7186, 46.06302
853.2007, 47.98065
853.6829, 49.94797
854.1650, 51.70422
854.6471, 52.91281
855.1292, 54.11700
855.6113, 55.58051
856.0934, 57.30750
856.5756, 59.29059
857.0577, 61.75562
857.5398, 63.72382
858.0219, 64.95135
858.5040, 65.92688
858.9861, 67.62616
859.4683, 69.91376
859.9504, 71.69995
860.4325, 72.51971
860.9146, 73.03873
861.3967, 73.95499
861.8788, 75.00751
862.3610, 75.81198
862.8431, 76.06406
863.3252, 76.20428
863.8073, 76.41092
864.2894, 76.53369
864.7715, 76.39258
865.2537, 75.98474
865.7358, 75.62628
866.2179, 75.34222
866.7000, 74.78964
867.1821, 73.82196
867.6642, 72.34332
868.1464, 70.07483
868.6285, 66.84625
869.1106, 63.72577
869.5927, 60.97495
870.0748, 58.56393
870.5569, 56.52563
871.0391, 54.92877
871.5212, 53.12018
872.0033, 51.00507
872.4854, 49.01288
872.9675, 47.53152
873.4496, 46.38409
873.9318, 45.30164
874.4139, 44.24512
874.8960, 43.04147
875.3781, 41.48807
875.8602, 39.84763
876.3423, 38.21964
876.8245, 36.63867
877.3066, 35.37021
877.7887, 34.66675
878.2708, 33.73959
878.7529, 32.12891
879.2350, 30.15552
879.7172, 28.97058
880.1993, 28.47351
880.6814, 27.83942
881.1635, 26.22043
881.6456, 24.66711
882.1277, 24.16791
882.6099, 24.37460
883.0920, 24.24182
883.5741, 23.37268
884.0562, 22.35272
884.5383, 21.10287
885.0204, 19.84811
885.5026, 19.17474
885.9847, 19.03421
886.4668, 18.82434
886.9489, 18.29095
887.4310, 17.79257
887.9131, 17.85901
888.3953, 18.18909
888.8774, 18.33746
889.3595, 18.28589
889.8416, 17.88287
890.3237, 16.88391
890.8058, 15.74472
891.2880, 14.88492
891.7701, 14.31442
892.2522, 14.12579
892.7343, 14.41058
893.2164, 14.54599
893.6985, 13.34638
894.1807, 11.80701
894.6628, 11.62814
895.1449, 13.32425
895.6270, 14.45575
896.1091, 13.69223
896.5912, 12.47842
897.0734, 11.66916
897.5555, 11.31168
898.0376, 10.92258
898.5197, 10.50906
899.0018, 10.08286
899.4839, 9.986084
899.9661, 9.758514
900.4482, 8.214417
900.9303, 5.633820
901.4124, 3.411346
901.8945, 2.017181
902.3766, 1.272644
902.8588, 1.310791
903.3409, 1.957397
903.8230, 2.410126
904.3051, 2.703735
904.7872, 2.680573
905.2693, 2.255371
905.7515, 1.505280
906.2336, 0.1820370
906.7157, 1.363220
907.1978, 2.079926
907.6799, 0.6956790
908.1620, 0.5464170
908.6442, 0.5622250
909.1263, 0.1861270
909.6084, 0.9429020
910.0905, 1.826538
910.5726, 2.315216
911.0547, 2.332428
911.5369, 2.016235
912.0190, 1.319061
912.5011, 0.4455870
912.9832, 7.3608004E-02
913.4653, 0.3988040
913.9474, 0.6771550
914.4296, 0.2716060
914.9117, 0.2699580
915.3938, 0.4868470
915.8759, 0.3095400
916.3580, 0.1302190
916.8401, 1.028503
917.3223, 1.726166
917.8044, 1.549500
918.2865, 0.8016050
918.7686, 0.7747800
919.2507, 1.374542
919.7328, 1.659851
920.2150, 0.4461670
920.6971, 0.7391360
921.1792, 0.8605650
921.6613, 9.3379999E-03
922.1434, 0.7758180
922.6255, 1.612549
923.1077, 2.013031
923.5898, 1.727600
924.0719, 1.037109
924.5540, 0.5263370
925.0361, 0.1776730
925.5182, 5.4871000E-02
926.0004, 8.2399999E-04
926.4825, 0.1297000
926.9646, 0.7541810
927.4467, 1.742920
927.9288, 2.963654
928.4109, 5.024994
928.8931, 5.928375
929.3752, 5.263519
929.8573, 4.061340
930.3394, 3.315063
930.8215, 3.008972
931.3036, 3.229034
931.7858, 4.039856
932.2679, 4.609619
932.7500, 3.852325
933.2321, 3.024078
933.7142, 3.175568
934.1964, 4.548889
934.6785, 5.774323
935.1606, 6.887756
935.6427, 7.743622
936.1248, 8.043304
936.6069, 8.085510
937.0891, 8.829681
937.5712, 10.22385
938.0533, 11.97397
938.5354, 14.28000
939.0175, 16.52344
939.4996, 18.21246
939.9818, 19.54376
940.4639, 21.08670
940.9460, 22.93488
941.4281, 24.73352
941.9102, 26.47348
942.3923, 27.98563
942.8745, 28.85104
943.3566, 29.26950
943.8387, 29.86148
944.3208, 30.89935
944.8029, 31.64856
945.2850, 31.45053
945.7672, 30.93472
946.2493, 30.81018
946.7314, 31.46378
947.2135, 30.96390
947.6956, 29.07422
948.1777, 26.86533
948.6599, 25.25336
949.1420, 23.94998
949.6241, 22.19092
950.1062, 20.02115
950.5883, 17.97015
951.0704, 16.36508
951.5526, 14.89374
952.0347, 13.54480
952.5168, 12.21432
952.9989, 10.45547
953.4810, 8.105896
953.9631, 6.098389
954.4453, 4.736847
954.9274, 3.784058
955.4095, 2.875732
955.8916, 2.077240
956.3737, 1.551453
956.8558, 1.646149
957.3380, 1.467163
957.8201, 9.3139999E-02
958.3022, 1.260712
958.7843, 1.290894
959.2664, 0.3985900
959.7485, 1.029572
960.2307, 0.3913880
960.7128, 0.3188780
961.1949, 4.0405001E-02
961.6770, 0.8275760
962.1591, 1.880463
962.6412, 3.059784
963.1234, 3.904724
963.6055, 3.799988
964.0876, 3.832886
964.5697, 4.448822
965.0518, 5.459686
965.5339, 6.000763
966.0161, 6.044525
966.4982, 5.692566
966.9803, 4.569580
967.4624, 3.687897
967.9445, 4.828339
968.4266, 6.870728
968.9088, 7.925568
969.3909, 6.281555
969.8730, 5.497955
970.3551, 6.472351
970.8372, 7.517883
971.3193, 6.491394
971.8015, 3.708862
972.2836, 2.190186
972.7657, 2.205811
973.2478, 2.586182
973.7299, 2.645752
974.2120, 2.499786
974.6942, 2.105408
975.1763, 1.486847
975.6584, 1.321808
976.1405, 1.909882
976.6226, 2.412842
977.1047, 2.487885
977.5869, 2.265778
978.0690, 1.984650
978.5511, 1.712952
979.0332, 1.744324
979.5153, 2.225128
979.9974, 2.932098
980.4796, 4.258484
980.9617, 5.534302
981.4438, 5.735779
981.9259, 4.254974
982.4080, 3.768280
982.8901, 4.586517
983.3723, 5.653961
983.8544, 5.546204
984.3365, 5.064331
984.8186, 6.042877
985.3007, 8.574066
985.7828, 10.50073
986.2650, 9.719238
986.7471, 9.399414
987.2292, 11.22525
987.7113, 14.67819
988.1934, 17.06784
988.6755, 18.36237
989.1577, 19.24097
989.6398, 19.79984
990.1219, 20.29807
990.6040, 20.95023
991.0861, 21.77008
991.5682, 22.81079
992.0504, 25.07294
992.5325, 25.88208
993.0146, 24.11090
993.4967, 22.13177
993.9788, 22.31439
994.4609, 24.41937
994.9431, 26.38580
995.4252, 28.11676
995.9073, 29.82544
996.3894, 31.47119
996.8715, 33.35132
997.3536, 35.83728
997.8358, 38.87195
998.3179, 41.69611
998.8000, 44.06384
999.2821, 46.86041
999.7642, 50.43835
1000.246, 54.52722
1000.728, 58.24353
1001.211, 61.97009
1001.693, 66.62939
1002.175, 72.99536
1002.657, 79.35205
1003.139, 84.65533
1003.621, 89.79443
1004.103, 95.47150
1004.585, 101.7281
1005.068, 108.4181
1005.550, 115.6661
1006.032, 122.6039
1006.514, 128.8779
1006.996, 134.3375
1007.478, 138.8745
1007.960, 142.4953
1008.442, 145.3258
1008.924, 147.2529
1009.407, 148.5872
1009.889, 149.5471
1010.371, 149.8079
1010.853, 148.7306
1011.335, 146.3297
1011.817, 142.6876
1012.299, 137.6561
1012.781, 132.1400
1013.263, 126.6373
1013.746, 121.0563
1014.228, 115.1356
1014.710, 108.6559
1015.192, 103.2893
1015.674, 99.35999
1016.156, 95.51953
1016.638, 91.06830
1017.120, 86.24377
1017.603, 80.76697
1018.085, 75.02704
1018.567, 70.50330
1019.049, 69.37701
1019.531, 67.76227
1020.013, 63.94000
1020.495, 59.29901
1020.977, 55.91675
1021.459, 53.81696
1021.942, 51.42438
1022.424, 48.48822
1022.906, 45.58936
1023.388, 43.26617
1023.870, 41.22577
1024.352, 39.14856
1024.834, 36.99542
1025.316, 35.21777
1025.799, 33.92395
1026.281, 32.75250
1026.763, 31.59131
1027.245, 30.55109
1027.727, 29.90833
1028.209, 29.55792
1028.691, 29.13184
1029.173, 28.41394
1029.656, 27.70355
1030.138, 27.07281
1030.620, 26.56189
1031.102, 26.24731
1031.584, 26.17462
1032.066, 25.79358
1032.548, 25.03723
1033.030, 24.68176
1033.512, 25.87653
1033.995, 27.49457
1034.477, 28.02606
1034.959, 27.61731
1035.441, 27.55035
1035.923, 28.58649
1036.405, 29.29968
1036.887, 29.22778
1037.369, 28.78967
1037.851, 29.16125
1038.334, 30.14001
1038.816, 30.54443
1039.298, 29.99054
1039.780, 29.40906
1040.262, 29.30280
1040.744, 29.46545
1041.226, 29.91040
1041.708, 30.69183
1042.191, 30.83240
1042.673, 30.29529
1043.155, 29.48633
1043.637, 28.46692
1044.119, 27.43292
1044.601, 26.74792
1045.083, 26.24457
1045.565, 25.56104
1046.047, 24.47363
1046.530, 23.32147
1047.012, 22.00787
1047.494, 20.83484
1047.976, 20.36060
1048.458, 20.35632
1048.940, 19.47913
1049.422, 17.66370
1049.904, 16.42810
1050.386, 18.07922
1050.869, 19.32812
1051.351, 17.27716
1051.833, 13.00464
1052.315, 11.04694
1052.797, 11.67139
1053.279, 12.71912
1053.761, 13.91864
1054.243, 14.49786
1054.726, 12.49188
1055.208, 9.676453
1055.690, 8.788818
1056.172, 11.38043
1056.654, 12.64563
1057.136, 11.99994
1057.618, 10.38519
1058.100, 7.820740
1058.583, 4.834900
1059.065, 3.807068
1059.547, 4.371826
1060.029, 4.836548
1060.511, 4.058289
1060.993, 3.306885
1061.475, 3.230713
1061.957, 3.432007
1062.439, 3.360596
1062.922, 2.981079
1063.404, 2.723328
1063.886, 2.655212
1064.368, 2.394287
1064.850, 1.290894
1065.332, 4.3639999E-02
1065.814, 0.6920780
1066.296, 0.8769530
1066.778, 0.7222290
1067.261, 0.1054080
1067.743, 0.4721070
1068.225, 0.8765260
1068.707, 1.159424
1069.189, 1.516846
1069.671, 1.816711
1070.153, 1.665833
1070.635, 0.7672120
1071.118, 6.2011998E-02
1071.600, 0.3119510
1072.082, 0.5901490
1072.564, 0.2689820
1073.046, 0.6131590
1073.528, 1.098877
1074.010, 1.116943
1074.492, 0.7578740
1074.974, 0.1265870
1075.457, 0.7820430
1075.939, 0.6503910
1076.421, 0.1550290
1076.903, 9.0939999E-03
1077.385, 0.1500850
1077.867, 0.3840940
1078.349, 0.7185670
1078.831, 1.154968
1079.313, 1.827637
1079.796, 2.531067
1080.278, 3.080933
1080.760, 3.405334
1081.242, 3.160645
1081.724, 1.610107
1082.206, 0.2556760
1082.688, 0.7369380
1083.170, 1.193604
1083.652, 0.3719480
1084.135, 1.316895
1084.617, 2.206482
1085.099, 1.899170
1085.581, 1.486572
1086.063, 1.723633
1086.545, 1.955078
1087.027, 1.758362
1087.509, 1.173645
1087.992, 0.4837040
1088.474, 0.3159790
1088.956, 0.6487430
1089.438, 8.4840003E-03
1089.920, 0.7172240
1090.402, 0.4745480
1090.884, 0.1432500
1091.366, 0.2687990
1091.849, 0.5915530
1092.331, 0.8942870
1092.813, 0.5635990
1093.295, 6.8176001E-02
1093.777, 1.276489
1094.259, 2.371399
1094.741, 1.668213
1095.223, 0.3377080
1095.705, 1.889465
1096.188, 2.308289
1096.670, 2.096069
1097.152, 0.8789060
1097.634, 0.3006590
1098.116, 0.1589970
1098.598, 1.880676
1099.080, 3.061951
1099.562, 3.546753
1100.044, 3.963013
1100.527, 5.311462
1101.009, 6.055603
1101.491, 4.779602
1101.973, 2.372314
1102.455, 1.736816
1102.937, 2.892517
1103.419, 4.123474
1103.901, 5.098572
1104.384, 5.663635
1104.866, 5.128601
1105.348, 4.447021
1105.830, 4.700317
1106.312, 6.136597
1106.794, 7.183105
1107.276, 7.811218
1107.758, 8.138794
1108.240, 8.129944
1108.723, 7.964233
1109.205, 7.712097
1109.687, 7.569580
1110.169, 7.941711
1110.651, 9.474426
1111.133, 10.54626
1111.615, 11.05920
1112.097, 11.10077
1112.579, 10.38818
1113.062, 9.290527
1113.544, 9.495483
1114.026, 10.66223
1114.508, 11.08972
1114.990, 8.917969
1115.472, 7.174316
1115.954, 7.129211
1116.436, 7.750061
1116.919, 7.663635
1117.401, 6.953430
1117.883, 6.802246
1118.365, 7.319885
1118.847, 7.846802
1119.329, 8.190002
1119.811, 8.130066
1120.293, 7.167725
1120.776, 5.680481
1121.258, 4.987854
1121.740, 5.176147
1122.222, 5.253357
1122.704, 4.990234
1123.186, 4.618347
1123.668, 4.457947
1124.150, 4.233521
1124.632, 3.503784
1125.115, 2.145935
1125.597, 1.532898
1126.079, 1.977356
1126.561, 2.119385
1127.043, 1.266907
1127.525, 0.1440430
1128.007, 8.2092002E-02
1128.489, 0.5661620
1128.971, 0.6749270
1129.454, 4.5226999E-02
1129.936, 0.4246830
1130.418, 6.8480998E-02
1130.900, 9.0942003E-02
1131.382, 0.8889160
1131.864, 2.318481
1132.346, 1.712524
1132.828, 0.2966920
1133.311, 1.568604
1133.793, 0.1600340
1134.275, 0.7413330
1134.757, 0.2892460
1135.239, 0.7570800
1135.721, 1.949402
1136.203, 3.177673
1136.685, 3.418396
1137.167, 2.753418
1137.650, 2.352417
1138.132, 3.093262
1138.614, 4.075073
1139.096, 5.291809
1139.578, 6.275818
1140.060, 5.950439
1140.542, 4.240051
1141.024, 3.744873
1141.506, 4.879089
1141.989, 5.991028
1142.471, 5.276489
1142.953, 4.480530
1143.435, 5.206665
1143.917, 7.107239
1144.399, 8.141846
1144.881, 8.124084
1145.363, 8.536987
1145.846, 9.805786
1146.328, 11.03900
1146.810, 11.15216
1147.292, 10.82233
1147.774, 10.56140
1148.256, 10.41400
1148.738, 10.83691
1149.220, 11.98126
1149.703, 13.21277
1150.185, 14.26440
1150.667, 15.31775
1151.149, 16.95654
1151.631, 18.62579
1152.113, 19.47833
1152.595, 19.19745
1153.077, 19.07971
1153.559, 19.01056
1154.042, 19.32037
1154.524, 20.39526
1155.006, 21.79211
1155.488, 22.41278
1155.970, 22.59106
1156.452, 22.98993
1156.934, 24.10211
1157.416, 24.95093
1157.898, 25.36853
1158.381, 25.61499
1158.863, 25.65808
1159.345, 25.71075
1159.827, 27.07141
1160.309, 29.30573
1160.791, 30.61890
1161.273, 29.14539
1161.755, 27.97662
1162.238, 27.91882
1162.720, 28.50421
1163.202, 29.43201
1163.684, 30.44861
1164.166, 30.67224
1164.648, 30.18195
1165.130, 29.72980
1165.612, 29.79169
1166.094, 29.88257
1166.577, 29.92999
1167.059, 29.82526
1167.541, 29.22308
1168.023, 28.19861
1168.505, 27.74817
1168.987, 27.98236
1169.469, 28.31244
1169.951, 28.35266
1170.433, 28.32117
1170.916, 28.35083
1171.398, 28.43066
1171.880, 28.50220
1172.362, 28.55267
1172.844, 28.66565
1173.326, 28.86310
1173.808, 29.10663
1174.290, 29.28320
1174.773, 29.46063
1175.255, 29.87524
1175.737, 30.40717
1176.219, 30.27051
1176.701, 29.36499
1177.183, 28.39832
1177.665, 27.61462
1178.147, 26.86823
1178.630, 25.96332
1179.112, 25.05426
1179.594, 24.32062
1180.076, 23.76782
1180.558, 22.95282
1181.040, 21.84033
1181.522, 21.02600
1182.004, 20.86304
1182.486, 20.69354
1182.969, 19.70667
1183.451, 18.46631
1183.933, 17.59033
1184.415, 17.09454
1184.897, 17.47607
1185.379, 18.94714
1185.861, 19.76538
1186.343, 18.57733
1186.825, 16.91333
1187.308, 17.06067
1187.790, 17.78625
1188.272, 17.00830
1188.754, 13.49622
1189.236, 11.26550
1189.718, 10.42505
1190.200, 10.36713
1190.682, 11.29517
1191.165, 12.24725
1191.647, 11.94659
1192.129, 10.78766
1192.611, 9.730469
1193.093, 9.206482
1193.575, 8.099487
1194.057, 6.123718
1194.539, 4.546997
1195.021, 4.696289
1195.504, 5.592651
1195.986, 6.001770
1196.468, 6.024658
1196.950, 5.993225
1197.432, 5.770569
1197.914, 6.042969
1198.396, 7.011841
1198.878, 7.760132
1199.360, 7.295166
1199.843, 6.159668
1200.325, 4.824890
1200.807, 3.463257
1201.289, 2.714233
1201.771, 2.893066
1202.253, 3.227905
1202.735, 3.642395
1203.217, 4.211914
1203.700, 5.395508
1204.182, 6.564819
1204.664, 6.415100
1205.146, 5.173035
1205.628, 4.992371
1206.110, 7.199646
1206.592, 8.023560
1207.074, 6.543091
1207.557, 4.452698
1208.039, 3.837585
1208.521, 3.975403
1209.003, 3.706726
1209.485, 2.991272
1209.967, 3.067810
1210.449, 4.633850
1210.931, 5.604370
1211.413, 5.462280
1211.896, 4.848083
1212.378, 4.465759
1212.860, 4.253906
1213.342, 4.208557
1213.824, 4.337402
1214.306, 4.175659
1214.788, 3.487549
1215.270, 3.114929
1215.752, 3.423462
1216.235, 3.793823
1216.717, 3.289612
1217.199, 2.303101
1217.681, 1.301880
1218.163, 0.3338620
1218.645, 0.1632690
1219.127, 3.1493999E-02
1219.609, 3.2776002E-02
1220.092, 0.8812870
1220.574, 1.620239
1221.056, 0.3625490
1221.538, 1.590515
1222.020, 2.173035
1222.502, 0.8479610
1222.984, 0.5646970
1223.466, 1.647705
1223.948, 2.648132
1224.431, 3.062439
1224.913, 3.106689
1225.395, 3.028320
1225.877, 2.781250
1226.359, 2.194275
1226.841, 1.088135
1227.323, 0.6276250
1227.805, 1.010437
1228.287, 1.240967
1228.770, 0.7942500
1229.252, 0.1926270
1229.734, 0.1970210
1230.216, 0.4733280
1230.698, 0.4786380
1231.180, 3.2104000E-02
1231.662, 0.4387210
1232.144, 2.210754
1232.627, 3.084412
1233.109, 1.516907
1233.591, 0.5036010
1234.073, 0.4236450
1234.555, 0.5919800
1235.037, 0.9338380
1235.519, 0.3103640
1236.001, 6.7749001E-02
1236.484, 0.1986080
1236.966, 4.6021000E-02
1237.448, 1.104004
1237.930, 1.984680
1238.412, 1.209961
1238.894, 0.1123050
1239.376, 0.4429930
1239.858, 0.3474120
1240.340, 1.522827
1240.823, 3.087891
1241.305, 4.098389
1241.787, 3.702087
1242.269, 2.986206
1242.751, 2.583557
1243.233, 2.564392
1243.715, 3.181396
1244.197, 4.585815
1244.679, 4.602478
1245.162, 3.271790
1245.644, 2.256470
1246.126, 2.876404
1246.608, 3.754578
1247.090, 4.465088
1247.572, 4.710022
1248.054, 4.068848
1248.536, 2.492371
1249.019, 1.839539
1249.501, 2.041138
1249.983, 2.146545
1250.465, 1.050598
1250.947, 0.4384160
1251.429, 1.761902
1251.911, 3.505371
1252.393, 4.305115
1252.875, 4.205750
1253.358, 3.750854
1253.840, 2.986267
1254.322, 2.194702
1254.804, 0.9476320
1255.286, 0.4827880
1255.768, 1.967285
1256.250, 3.558960
1256.732, 3.374939
1257.214, 1.873108
1257.697, 1.764526
1258.179, 2.798340
1258.661, 3.771240
1259.143, 4.072754
1259.625, 4.400269
1260.107, 5.095581
1260.589, 5.564636
1261.071, 4.980957
1261.554, 3.869629
1262.036, 3.535767
1262.518, 4.185120
1263.000, 4.844177
1263.482, 5.489807
1263.964, 5.382751
1264.446, 4.061462
1264.928, 2.774719
1265.411, 2.659424
1265.893, 3.254456
1266.375, 3.780090
1266.857, 4.144775
1267.339, 4.051636
1267.821, 3.216736
1268.303, 2.403198
1268.785, 1.240906
1269.267, 0.8172000
1269.750, 2.208862
1270.232, 3.912109
1270.714, 3.857544
1271.196, 2.562256
1271.678, 1.687317
1272.160, 1.715698
1272.642, 1.901917
1273.124, 2.189148
1273.606, 2.443787
1274.089, 2.674072
1274.571, 2.682617
1275.053, 2.165955
1275.535, 1.461243
1276.017, 1.102600
1276.499, 1.125183
1276.981, 1.273499
1277.463, 1.525024
1277.946, 1.854126
1278.428, 2.519226
1278.910, 2.627747
1279.392, 0.7973020
1279.874, 1.226746
1280.356, 1.531494
1280.838, 0.1746220
1281.320, 0.3497920
1281.802, 8.1848003E-02
1282.285, 6.2804997E-02
1282.767, 0.4827880
1283.249, 1.136475
1283.731, 1.825684
1284.213, 2.263672
1284.695, 2.129211
1285.177, 1.637573
1285.659, 1.664795
1286.141, 2.051208
1286.624, 2.388367
1287.106, 2.373291
1287.588, 2.647705
1288.070, 3.533386
1288.552, 4.359070
1289.034, 4.425903
1289.516, 3.991089
1289.998, 3.585754
1290.481, 3.335449
1290.963, 3.401062
1291.445, 4.107422
1291.927, 3.162903
1292.409, 2.319275
1292.891, 1.740051
1293.373, 2.900269
1293.855, 4.460938
1294.338, 4.521118
1294.820, 3.721680
1295.302, 3.288635
1295.784, 3.394165
1296.266, 3.687500
1296.748, 4.127502
1297.230, 3.949036
1297.712, 2.116211
1298.194, 0.3809200
1298.677, 0.1780400
1299.159, 0.8183590
1299.641, 1.477966
1300.123, 2.155334
1300.605, 2.500732
1301.087, 2.503601
1301.569, 2.216309
1302.051, 1.396118
1302.533, 0.5731810
1303.016, 0.0000000E+00
##END=



