##NAMES=Struvite
##RRUFFID=R050540
##IDEAL CHEMISTRY=(NH_4_)MgPO_4_&#183;6H_2_O
##LOCALITY=Hamburg, Germany
##OWNER=RRUFF
##SOURCE=University of Arizona Mineral Museum
##DESCRIPTION=Yellowish-brown wedge-shaped crystal
##STATUS=The identification of this mineral has been confirmed by X-ray diffraction and chemical analysis
##URL=rruff.info/R050540
##MEASURED CHEMISTRY=(NH_4_)(Mg_0.74_Fe^2+^_0.14_Ca_0.09_Mn_0.03_)_Σ=1_(P_1.00_O_4_)·6H_2_O ; NH_4_ not measured but estimated by charge balance.
145.8874, 0.0000000E+00
146.3695, 27.17578
146.8516, 109.7715
147.3337, 197.4355
147.8158, 270.8203
148.2980, 359.9883
148.7801, 466.7168
149.2622, 583.8730
149.7443, 695.9473
150.2264, 822.4609
150.7085, 927.5332
151.1907, 996.5000
151.6728, 1014.814
152.1549, 1025.807
152.6370, 1033.338
153.1191, 1033.898
153.6012, 1018.297
154.0834, 985.1914
154.5655, 935.3555
155.0476, 868.5059
155.5297, 769.6699
156.0118, 674.5605
156.4939, 587.2148
156.9761, 506.2168
157.4582, 430.1816
157.9403, 361.4395
158.4224, 295.5176
158.9045, 229.2969
159.3866, 152.4355
159.8688, 87.28516
160.3509, 41.53711
160.8330, 13.64453
161.3151, 3.701172
161.7972, 10.28125
162.2793, 9.527344
162.7615, 3.769531
163.2436, 11.55859
163.7257, 26.59180
164.2078, 33.32812
164.6899, 33.84180
165.1720, 42.46875
165.6541, 70.16406
166.1363, 107.1973
166.6184, 143.8574
167.1005, 175.6016
167.5826, 206.6035
168.0647, 239.7246
168.5468, 274.7754
169.0290, 310.3223
169.5111, 345.3223
169.9932, 380.3398
170.4753, 416.3398
170.9574, 457.0059
171.4395, 496.2871
171.9217, 528.1582
172.4038, 552.7969
172.8859, 577.2148
173.3680, 604.1465
173.8501, 634.9082
174.3322, 672.3691
174.8144, 722.8066
175.2965, 779.5371
175.7786, 833.8672
176.2607, 884.6660
176.7428, 938.1035
177.2249, 1006.961
177.7071, 1087.408
178.1892, 1167.006
178.6713, 1243.441
179.1534, 1319.182
179.6355, 1393.264
180.1176, 1457.615
180.5998, 1521.791
181.0819, 1591.422
181.5640, 1663.594
182.0461, 1737.859
182.5282, 1817.598
183.0103, 1901.150
183.4925, 1975.354
183.9746, 2035.307
184.4567, 2083.889
184.9388, 2133.934
185.4209, 2186.219
185.9030, 2218.049
186.3852, 2221.451
186.8673, 2201.406
187.3494, 2167.932
187.8315, 2120.357
188.3136, 2064.354
188.7957, 2007.678
189.2779, 1950.369
189.7600, 1884.387
190.2421, 1802.082
190.7242, 1706.777
191.2063, 1615.562
191.6884, 1530.469
192.1706, 1446.805
192.6527, 1353.156
193.1348, 1249.406
193.6169, 1146.035
194.0990, 1045.697
194.5811, 948.5879
195.0633, 855.8574
195.5454, 766.9746
196.0275, 682.7734
196.5096, 609.3848
196.9917, 547.2383
197.4738, 487.4160
197.9560, 425.0156
198.4381, 360.4492
198.9202, 299.4941
199.4023, 242.8945
199.8844, 191.4199
200.3665, 146.1367
200.8487, 107.4492
201.3308, 76.41797
201.8129, 50.06836
202.2950, 29.33789
202.7771, 18.74023
203.2592, 15.54102
203.7414, 13.48438
204.2235, 17.14321
204.7056, 14.09961
205.1877, 34.49414
205.6698, 52.00391
206.1519, 66.92578
206.6341, 72.48242
207.1162, 66.57227
207.5983, 53.94141
208.0804, 44.69336
208.5625, 39.99805
209.0446, 35.66406
209.5268, 29.20898
210.0089, 19.60352
210.4910, 12.00977
210.9731, 5.597656
211.4552, 1.517578
211.9373, 5.072266
212.4195, 20.91602
212.9016, 31.94141
213.3837, 26.69727
213.8658, 2.802734
214.3479, 18.80273
214.8300, 15.46289
215.3121, 1.326172
215.7943, 2.318359
216.2764, 7.666016
216.7585, 20.71680
217.2406, 34.03516
217.7227, 50.71875
218.2048, 54.69531
218.6870, 40.65820
219.1691, 15.85352
219.6512, 3.058594
220.1333, 15.76172
220.6154, 23.44531
221.0975, 25.95703
221.5797, 21.65820
222.0618, 16.42773
222.5439, 7.445313
223.0260, 1.675781
223.5081, 1.574219
223.9902, 14.11133
224.4724, 26.67578
224.9545, 27.41797
225.4366, 11.22070
225.9187, 3.416016
226.4008, 13.82422
226.8829, 24.58203
227.3651, 46.74219
227.8472, 89.18164
228.3293, 128.6289
228.8114, 154.1504
229.2935, 157.7656
229.7757, 171.5352
230.2578, 200.6836
230.7399, 236.6191
231.2220, 261.9414
231.7041, 266.5312
232.1862, 275.4082
232.6684, 298.2012
233.1505, 339.3535
233.6326, 379.3730
234.1147, 418.1562
234.5968, 455.7793
235.0789, 491.5508
235.5611, 525.7559
236.0432, 557.7852
236.5253, 588.7188
237.0074, 619.5000
237.4895, 644.0215
237.9716, 661.1641
238.4538, 673.0312
238.9359, 682.8105
239.4180, 691.1816
239.9001, 697.0996
240.3822, 701.2383
240.8643, 704.8789
241.3465, 700.6133
241.8286, 688.7715
242.3107, 668.7363
242.7928, 638.9902
243.2749, 596.2070
243.7570, 548.8887
244.2392, 497.2715
244.7213, 439.1055
245.2034, 389.5625
245.6855, 351.6387
246.1676, 319.6543
246.6497, 286.2012
247.1319, 248.7500
247.6140, 215.2871
248.0961, 188.6348
248.5782, 169.6641
249.0603, 151.3828
249.5424, 133.5117
250.0246, 117.0312
250.5067, 102.8691
250.9888, 91.20898
251.4709, 81.73242
251.9530, 74.50977
252.4351, 69.49023
252.9173, 64.53125
253.3994, 57.68164
253.8815, 52.12500
254.3636, 52.30664
254.8457, 63.58789
255.3278, 66.52148
255.8100, 53.61914
256.2921, 25.31641
256.7742, 8.039063
257.2563, 7.111328
257.7384, 9.875000
258.2205, 4.175781
258.7026, 16.50977
259.1848, 27.58789
259.6669, 20.07617
260.1490, 2.863281
260.6311, 8.423828
261.1132, 13.21094
261.5953, 5.645356
262.0775, 12.42959
262.5596, 6.685547
263.0417, 16.88672
263.5238, 28.88867
264.0059, 32.03125
264.4880, 41.37695
264.9702, 58.45312
265.4523, 79.62891
265.9344, 103.3281
266.4165, 131.6621
266.8986, 153.5605
267.3807, 166.7949
267.8629, 173.8848
268.3450, 183.6406
268.8271, 198.4648
269.3092, 211.0039
269.7913, 214.4785
270.2734, 203.9395
270.7556, 208.3477
271.2377, 234.2266
271.7198, 275.4863
272.2019, 313.6426
272.6840, 346.9707
273.1661, 383.9727
273.6483, 430.1523
274.1304, 487.1016
274.6125, 543.8652
275.0946, 599.7070
275.5767, 654.4395
276.0588, 706.9258
276.5410, 755.5801
277.0231, 805.9160
277.5052, 858.5723
277.9873, 913.4629
278.4694, 965.6602
278.9515, 1014.779
279.4337, 1061.473
279.9158, 1104.869
280.3979, 1144.148
280.8800, 1187.283
281.3621, 1240.930
281.8442, 1301.736
282.3264, 1338.352
282.8085, 1347.014
283.2906, 1350.113
283.7727, 1374.279
284.2548, 1419.742
284.7369, 1463.738
285.2191, 1499.658
285.7012, 1528.994
286.1833, 1558.135
286.6654, 1586.617
287.1475, 1618.861
287.6296, 1662.258
288.1118, 1715.344
288.5939, 1761.816
289.0760, 1798.129
289.5581, 1824.789
290.0402, 1842.998
290.5223, 1852.531
291.0045, 1857.547
291.4866, 1861.467
291.9687, 1863.793
292.4508, 1862.283
292.9329, 1856.277
293.4150, 1847.047
293.8972, 1837.465
294.3793, 1827.535
294.8614, 1814.611
295.3435, 1794.229
295.8256, 1769.686
296.3077, 1751.543
296.7899, 1743.584
297.2720, 1735.871
297.7541, 1711.396
298.2362, 1673.918
298.7183, 1639.855
299.2004, 1621.289
299.6826, 1611.531
300.1647, 1597.529
300.6468, 1577.588
301.1289, 1556.541
301.6110, 1540.781
302.0931, 1527.732
302.5753, 1510.840
303.0574, 1483.156
303.5395, 1451.439
304.0216, 1425.951
304.5037, 1406.959
304.9858, 1387.631
305.4680, 1363.486
305.9501, 1335.191
306.4322, 1303.645
306.9143, 1260.059
307.3964, 1220.486
307.8785, 1206.480
308.3607, 1215.447
308.8428, 1219.070
309.3249, 1186.512
309.8070, 1141.920
310.2891, 1114.637
310.7712, 1126.096
311.2534, 1140.262
311.7355, 1127.289
312.2176, 1094.125
312.6997, 1067.389
313.1818, 1064.738
313.6639, 1070.453
314.1461, 1072.729
314.6282, 1070.377
315.1103, 1063.754
315.5924, 1050.578
316.0745, 1032.768
316.5566, 1014.377
317.0388, 997.2617
317.5209, 982.6133
318.0030, 974.3320
318.4851, 975.6621
318.9672, 965.2871
319.4493, 925.9727
319.9315, 875.3555
320.4136, 836.6191
320.8957, 821.6172
321.3778, 812.9824
321.8599, 804.5586
322.3420, 795.8242
322.8242, 790.5547
323.3063, 795.7812
323.7884, 801.2539
324.2705, 798.1660
324.7526, 773.1445
325.2347, 752.0957
325.7169, 740.5996
326.1990, 738.1133
326.6811, 738.5625
327.1632, 752.3887
327.6453, 761.5840
328.1274, 756.0645
328.6096, 716.7070
329.0917, 686.1289
329.5738, 669.0117
330.0559, 661.8867
330.5380, 653.5371
331.0201, 642.4863
331.5023, 632.0371
331.9844, 623.9902
332.4665, 620.9668
332.9486, 613.8066
333.4307, 602.2852
333.9128, 586.6172
334.3950, 565.6641
334.8771, 531.8320
335.3592, 506.8828
335.8413, 500.7871
336.3234, 516.3340
336.8055, 521.4141
337.2877, 513.8945
337.7698, 498.4941
338.2519, 478.3105
338.7340, 450.9492
339.2161, 429.1914
339.6982, 419.2422
340.1803, 417.7383
340.6624, 402.1113
341.1446, 368.9648
341.6267, 332.8379
342.1088, 303.0723
342.5909, 279.8496
343.0730, 263.1836
343.5551, 254.8438
344.0373, 250.9316
344.5194, 243.5312
345.0015, 232.6309
345.4836, 217.3730
345.9657, 193.0508
346.4478, 162.4043
346.9300, 143.0879
347.4121, 138.5898
347.8942, 136.5039
348.3763, 115.6035
348.8584, 79.94727
349.3405, 51.99023
349.8227, 49.91602
350.3048, 61.31836
350.7869, 57.07812
351.2690, 37.03320
351.7511, 18.21289
352.2332, 20.92969
352.7154, 36.57227
353.1975, 45.98242
353.6796, 39.09570
354.1617, 27.17969
354.6438, 21.38477
355.1259, 20.97070
355.6081, 23.40820
356.0902, 28.41797
356.5723, 34.09961
357.0544, 37.33789
357.5365, 34.37305
358.0186, 34.60352
358.5008, 48.30273
358.9829, 69.69922
359.4650, 86.68945
359.9471, 96.75586
360.4292, 98.56250
360.9113, 88.47266
361.3935, 64.56641
361.8756, 43.18945
362.3577, 30.14648
362.8398, 24.20117
363.3219, 23.91211
363.8040, 44.00977
364.2862, 55.86523
364.7683, 45.46680
365.2504, 14.18359
365.7325, 11.17578
366.2146, 25.77734
366.6967, 32.37109
367.1789, 32.66211
367.6610, 16.99414
368.1431, 6.652344
368.6252, 4.833984
369.1073, 9.562500
369.5894, 14.79102
370.0716, 29.21289
370.5537, 35.26562
371.0358, 24.88867
371.5179, 40.00767
372.0000, 37.18555
372.4821, 56.50781
372.9643, 70.41992
373.4464, 82.87305
373.9285, 93.74805
374.4106, 102.0508
374.8927, 106.2090
375.3748, 106.9219
375.8570, 111.9727
376.3391, 121.2012
376.8212, 132.5117
377.3033, 146.4043
377.7854, 163.9707
378.2675, 176.0039
378.7497, 180.5059
379.2318, 179.7324
379.7139, 179.5137
380.1960, 180.1406
380.6781, 180.8301
381.1602, 180.7910
381.6424, 180.2188
382.1245, 181.0859
382.6066, 185.6172
383.0887, 189.8281
383.5708, 184.5234
384.0529, 171.0527
384.5351, 160.8711
385.0172, 161.2344
385.4993, 167.9434
385.9814, 175.2090
386.4635, 182.7383
386.9456, 188.4590
387.4278, 187.8418
387.9099, 184.9473
388.3920, 186.2676
388.8741, 194.6230
389.3562, 204.5098
389.8383, 212.5625
390.3205, 218.1406
390.8026, 219.3086
391.2847, 211.5312
391.7668, 201.0469
392.2489, 192.8457
392.7310, 187.9980
393.2132, 182.6309
393.6953, 175.4395
394.1774, 166.5605
394.6595, 156.1719
395.1416, 139.6777
395.6237, 126.4336
396.1059, 120.7832
396.5880, 122.5254
397.0701, 125.4473
397.5522, 133.5156
398.0343, 139.0898
398.5164, 137.5879
398.9986, 120.4395
399.4807, 107.3242
399.9628, 104.4980
400.4449, 105.8906
400.9270, 96.31836
401.4091, 61.38672
401.8913, 34.52539
402.3734, 28.96875
402.8555, 49.75781
403.3376, 62.33008
403.8197, 61.08398
404.3018, 57.82031
404.7840, 67.00391
405.2661, 93.87891
405.7482, 114.0762
406.2303, 121.6738
406.7124, 119.0801
407.1945, 116.7383
407.6767, 114.1484
408.1588, 112.7070
408.6409, 114.7871
409.1230, 119.7051
409.6051, 119.1758
410.0872, 111.2051
410.5694, 101.4473
411.0515, 100.1758
411.5336, 105.9648
412.0157, 109.1348
412.4978, 103.2734
412.9799, 92.95117
413.4621, 88.21094
413.9442, 89.18945
414.4263, 89.51562
414.9084, 82.91211
415.3905, 72.88477
415.8727, 65.35352
416.3548, 63.83789
416.8369, 62.46094
417.3190, 54.68555
417.8011, 42.92773
418.2832, 33.51562
418.7654, 27.34570
419.2475, 25.83203
419.7296, 30.69141
420.2117, 42.67383
420.6938, 55.89844
421.1759, 70.65820
421.6581, 83.90039
422.1402, 92.62695
422.6223, 92.23438
423.1044, 90.79883
423.5865, 89.97852
424.0686, 89.28516
424.5508, 87.24805
425.0329, 81.53711
425.5150, 77.25000
425.9971, 76.80469
426.4792, 84.34375
426.9613, 87.03711
427.4435, 82.98047
427.9256, 75.17773
428.4077, 69.08594
428.8898, 66.55859
429.3719, 64.75586
429.8540, 63.43164
430.3362, 62.11133
430.8183, 53.45117
431.3004, 35.29883
431.7825, 15.36328
432.2646, 1.468750
432.7467, 15.09766
433.2289, 21.03711
433.7110, 17.11133
434.1931, 8.296875
434.6752, 3.324219
435.1573, 2.113281
435.6394, 1.960938
436.1216, 1.513672
436.6036, 1.318359
437.0858, 3.257813
437.5679, 7.496094
438.0500, 10.98047
438.5321, 7.232422
439.0142, 1.570313
439.4963, 4.267578
439.9785, 26.49414
440.4606, 46.33984
440.9427, 41.03516
441.4248, 17.63672
441.9069, 2.486328
442.3890, 9.183594
442.8712, 10.15625
443.3533, 9.751953
443.8354, 8.582031
444.3175, 7.621094
444.7996, 1.111328
445.2817, 4.123047
445.7639, 1.576172
446.2460, 13.48438
446.7281, 35.64453
447.2102, 67.90039
447.6923, 106.8242
448.1744, 135.2266
448.6566, 147.3105
449.1387, 156.1621
449.6208, 167.5664
450.1029, 184.3184
450.5850, 194.3652
451.0671, 195.5410
451.5493, 191.8770
452.0314, 186.7188
452.5135, 177.5918
452.9956, 179.8672
453.4777, 203.3262
453.9598, 240.5469
454.4420, 258.7793
454.9241, 256.8809
455.4062, 246.0742
455.8883, 227.8301
456.3704, 205.9980
456.8525, 200.6289
457.3347, 216.7422
457.8168, 238.9746
458.2989, 247.9375
458.7810, 247.2832
459.2631, 247.0938
459.7452, 257.8496
460.2274, 267.9785
460.7095, 258.5117
461.1916, 232.7324
461.6737, 215.7656
462.1558, 234.3516
462.6379, 262.4766
463.1201, 274.5645
463.6022, 257.7930
464.0843, 243.3496
464.5664, 250.9590
465.0485, 267.2793
465.5306, 271.2285
466.0128, 248.5020
466.4949, 221.7051
466.9770, 194.7988
467.4591, 167.8496
467.9412, 148.2539
468.4233, 144.3223
468.9055, 140.7578
469.3876, 127.7715
469.8697, 96.63672
470.3518, 76.71289
470.8339, 72.15039
471.3160, 77.16797
471.7982, 80.93555
472.2803, 82.97070
472.7624, 86.54883
473.2445, 93.35547
473.7266, 102.5508
474.2087, 109.8887
474.6909, 115.3379
475.1730, 116.6152
475.6551, 107.5938
476.1372, 91.26953
476.6193, 81.24805
477.1014, 79.76367
477.5836, 83.12891
478.0657, 89.43750
478.5478, 97.21289
479.0299, 102.3496
479.5120, 101.7070
479.9941, 98.55469
480.4763, 95.66211
480.9584, 93.17969
481.4405, 90.89648
481.9226, 91.09766
482.4047, 90.41992
482.8868, 85.53516
483.3690, 73.12305
483.8511, 62.53125
484.3332, 59.73047
484.8153, 59.88672
485.2974, 55.09375
485.7795, 36.62305
486.2617, 21.31641
486.7438, 13.13672
487.2259, 12.00391
487.7080, 12.25586
488.1901, 12.14062
488.6722, 15.92383
489.1544, 29.17188
489.6365, 57.86719
490.1186, 70.85938
490.6007, 62.22656
491.0828, 44.02344
491.5649, 34.66992
492.0471, 34.70508
492.5292, 36.45312
493.0113, 36.42188
493.4934, 36.14062
493.9755, 41.21289
494.4576, 51.04688
494.9398, 61.12891
495.4219, 69.87891
495.9040, 75.75195
496.3861, 74.19727
496.8682, 63.26367
497.3503, 52.79297
497.8325, 55.50977
498.3146, 62.35156
498.7967, 60.88672
499.2788, 38.99609
499.7609, 16.16406
500.2430, 2.169922
500.7252, 4.583984
501.2073, 12.55273
501.6894, 31.28320
502.1715, 45.21680
502.6536, 44.33984
503.1357, 17.51172
503.6179, 4.810547
504.1000, 21.15234
504.5821, 42.62305
505.0642, 43.95898
505.5463, 14.50977
506.0284, 10.67578
506.5106, 26.07812
506.9927, 33.09180
507.4748, 34.95508
507.9569, 29.65039
508.4390, 26.95703
508.9211, 32.47070
509.4033, 45.07227
509.8854, 58.50391
510.3675, 73.09570
510.8496, 84.76562
511.3317, 88.36719
511.8138, 85.93555
512.2960, 82.12305
512.7781, 76.61133
513.2602, 73.51953
513.7423, 77.59570
514.2244, 87.68750
514.7065, 100.7344
515.1887, 125.4219
515.6708, 144.8789
516.1529, 143.2520
516.6350, 121.0293
517.1171, 103.5449
517.5992, 104.8828
518.0814, 110.6719
518.5635, 110.9707
519.0456, 94.27734
519.5277, 89.55664
520.0098, 106.0547
520.4919, 131.6406
520.9741, 148.5703
521.4562, 153.3164
521.9383, 155.1113
522.4204, 153.0977
522.9025, 149.0938
523.3846, 158.9277
523.8668, 186.6523
524.3489, 209.5547
524.8310, 207.1191
525.3131, 183.5215
525.7952, 176.6543
526.2773, 189.2871
526.7595, 211.4473
527.2416, 240.3066
527.7237, 269.8672
528.2058, 284.1680
528.6879, 273.0059
529.1700, 252.7461
529.6522, 236.6621
530.1343, 224.5215
530.6164, 214.7168
531.0985, 203.6641
531.5806, 197.4844
532.0627, 200.5703
532.5449, 213.4980
533.0270, 231.3086
533.5091, 257.2520
533.9912, 284.4375
534.4733, 307.4004
534.9554, 320.4766
535.4376, 336.8340
535.9197, 358.5723
536.4018, 381.8223
536.8839, 398.6035
537.3660, 406.0430
537.8481, 414.1445
538.3303, 425.3555
538.8124, 439.2559
539.2945, 454.6191
539.7766, 471.4551
540.2587, 489.7305
540.7408, 510.4688
541.2230, 533.0859
541.7051, 553.2910
542.1872, 570.5762
542.6693, 589.4688
543.1514, 615.7324
543.6335, 647.0312
544.1157, 679.7031
544.5978, 713.4199
545.0799, 747.4844
545.5620, 776.2090
546.0441, 804.3262
546.5262, 843.5918
547.0084, 903.2480
547.4905, 970.3066
547.9726, 1042.615
548.4547, 1119.816
548.9368, 1193.828
549.4189, 1260.461
549.9011, 1325.018
550.3832, 1391.084
550.8653, 1459.041
551.3474, 1526.893
551.8295, 1592.461
552.3116, 1658.844
552.7938, 1728.947
553.2759, 1802.369
553.7580, 1884.225
554.2401, 1980.273
554.7222, 2081.932
555.2043, 2163.551
555.6865, 2226.627
556.1686, 2295.014
556.6507, 2388.328
557.1328, 2494.230
557.6149, 2594.867
558.0970, 2689.266
558.5792, 2786.850
559.0613, 2900.297
559.5434, 3016.076
560.0255, 3120.766
560.5076, 3207.232
560.9897, 3291.883
561.4719, 3381.752
561.9540, 3469.990
562.4361, 3546.293
562.9182, 3617.068
563.4003, 3671.547
563.8824, 3708.799
564.3646, 3726.750
564.8467, 3721.625
565.3288, 3694.230
565.8109, 3642.486
566.2930, 3560.824
566.7751, 3447.635
567.2573, 3321.299
567.7394, 3180.617
568.2215, 3035.268
568.7036, 2890.703
569.1857, 2748.592
569.6678, 2610.215
570.1500, 2477.797
570.6321, 2348.102
571.1142, 2216.807
571.5963, 2087.068
572.0784, 1966.117
572.5605, 1859.582
573.0427, 1760.184
573.5248, 1664.500
574.0069, 1572.846
574.4890, 1480.861
574.9711, 1382.680
575.4532, 1289.680
575.9354, 1209.404
576.4175, 1145.201
576.8996, 1084.893
577.3817, 1032.793
577.8638, 980.7227
578.3459, 918.6543
578.8281, 842.6953
579.3102, 775.0352
579.7923, 717.5078
580.2744, 669.6484
580.7565, 635.9023
581.2386, 615.1680
581.7208, 590.9941
582.2029, 553.8516
582.6850, 511.1875
583.1671, 477.1641
583.6492, 450.2676
584.1313, 421.3848
584.6134, 377.0176
585.0955, 332.8125
585.5776, 303.3438
586.0598, 290.7773
586.5419, 287.9141
587.0240, 309.8008
587.5061, 330.0117
587.9882, 326.1133
588.4703, 264.8125
588.9525, 221.6094
589.4346, 205.8613
589.9167, 206.0781
590.3988, 206.7109
590.8809, 209.1152
591.3630, 209.3145
591.8452, 205.1855
592.3273, 198.3008
592.8094, 194.4258
593.2915, 192.4219
593.7736, 189.7383
594.2557, 187.5781
594.7379, 185.0332
595.2200, 177.5430
595.7021, 165.1113
596.1842, 151.8867
596.6663, 140.6113
597.1484, 131.0566
597.6306, 122.7656
598.1127, 115.4277
598.5948, 111.1133
599.0769, 118.3301
599.5590, 126.9824
600.0411, 124.3555
600.5233, 96.15234
601.0054, 70.55273
601.4875, 52.12305
601.9696, 39.68945
602.4517, 29.67383
602.9338, 22.92773
603.4160, 16.82422
603.8981, 10.46875
604.3802, 3.912109
604.8623, 2.613281
605.3444, 9.548828
605.8265, 13.81250
606.3087, 14.95312
606.7908, 11.88672
607.2729, 3.242188
607.7550, 32.93555
608.2371, 56.34961
608.7192, 44.70898
609.2014, 18.52734
609.6835, 7.441406
610.1656, 30.13281
610.6477, 51.87500
611.1298, 52.49414
611.6119, 42.85742
612.0941, 42.59961
612.5762, 70.39062
613.0583, 90.91602
613.5404, 94.15234
614.0225, 83.46484
614.5046, 79.57617
614.9868, 88.50195
615.4689, 90.05859
615.9510, 69.10352
616.4331, 27.62891
616.9152, 9.841797
617.3973, 17.59961
617.8795, 32.09570
618.3616, 40.21680
618.8437, 41.91016
619.3258, 34.16406
619.8079, 14.56641
620.2900, 2.404297
620.7722, 2.013672
621.2543, -4.353775
621.7364, 1.044182
622.2185, 1.916016
622.7006, 15.48438
623.1827, 27.94727
623.6649, 32.89062
624.1470, 42.99566
624.6291, 49.54262
625.1112, 48.91992
625.5933, 56.57227
626.0754, 43.80078
626.5576, 34.41797
627.0397, 28.58398
627.5218, 24.50586
628.0039, 20.89844
628.4860, 19.83398
628.9681, 17.83789
629.4503, 21.13672
629.9324, 24.63281
630.4145, 27.97852
630.8966, 29.45703
631.3787, 24.36328
631.8608, 10.02539
632.3430, 1.335938
632.8251, 2.986328
633.3072, 13.86719
633.7893, 20.13281
634.2714, 8.562500
634.7535, 4.332031
635.2357, 20.98438
635.7178, 47.47461
636.1999, 57.90625
636.6820, 40.74609
637.1641, 27.56445
637.6462, 25.97852
638.1284, 34.34766
638.6105, 47.23047
639.0926, 65.20312
639.5747, 79.33789
640.0568, 83.31836
640.5389, 79.08398
641.0211, 70.49023
641.5032, 57.73047
641.9853, 46.26953
642.4674, 41.69531
642.9495, 40.39844
643.4316, 38.53711
643.9138, 35.45117
644.3959, 33.04102
644.8780, 38.80078
645.3601, 42.85352
645.8422, 35.17969
646.3243, 36.79427
646.8065, 30.88086
647.2886, 28.53516
647.7707, 12.34766
648.2528, 4.898438
648.7349, 7.789063
649.2170, 13.87305
649.6992, 24.30078
650.1813, 34.36719
650.6634, 28.61914
651.1455, 8.697266
651.6276, 10.01367
652.1097, 16.37500
652.5919, 18.24609
653.0740, 25.34375
653.5561, 37.50586
654.0382, 53.21289
654.5203, 77.96680
655.0024, 100.5879
655.4846, 113.0449
655.9667, 112.3477
656.4488, 109.8652
656.9309, 104.9004
657.4130, 100.0527
657.8951, 95.43945
658.3773, 85.70312
658.8594, 94.74219
659.3415, 131.1055
659.8236, 171.9980
660.3057, 185.5977
660.7878, 173.7285
661.2700, 157.2539
661.7521, 139.4551
662.2342, 122.5488
662.7163, 109.4531
663.1984, 99.45508
663.6805, 91.05273
664.1627, 81.96289
664.6448, 76.90039
665.1269, 85.43750
665.6090, 101.9941
666.0911, 106.5156
666.5732, 75.32422
667.0554, 51.35938
667.5375, 52.41211
668.0196, 78.25391
668.5017, 90.16406
668.9838, 80.30273
669.4659, 74.50781
669.9481, 97.44141
670.4302, 145.1816
670.9123, 152.9629
671.3944, 116.8984
671.8765, 73.00000
672.3586, 47.62695
672.8408, 39.66211
673.3229, 53.91602
673.8050, 98.00391
674.2871, 130.9258
674.7692, 114.0312
675.2513, 76.41992
675.7335, 49.79102
676.2156, 50.19141
676.6977, 53.11914
677.1798, 63.97266
677.6619, 73.18359
678.1440, 62.58203
678.6262, 19.09766
679.1083, 6.992188
679.5904, 3.341797
680.0725, 21.14258
680.5546, 48.27148
681.0367, 77.62109
681.5189, 100.8867
682.0010, 114.3242
682.4831, 121.1992
682.9652, 121.7422
683.4473, 116.5215
683.9294, 110.5547
684.4116, 107.4395
684.8937, 102.7520
685.3758, 93.16797
685.8579, 79.37500
686.3400, 70.13086
686.8221, 68.21094
687.3043, 70.72070
687.7864, 77.92578
688.2685, 91.68555
688.7506, 100.1699
689.2327, 101.8594
689.7148, 102.9473
690.1970, 112.3652
690.6791, 128.5195
691.1612, 133.3984
691.6433, 124.0703
692.1254, 110.5742
692.6075, 104.0879
693.0897, 100.4531
693.5718, 92.27734
694.0539, 73.23828
694.5360, 55.42969
695.0181, 41.88477
695.5002, 34.24414
695.9824, 35.10156
696.4645, 54.56836
696.9466, 70.06836
697.4287, 78.37695
697.9108, 82.89062
698.3929, 90.28320
698.8751, 101.6738
699.3572, 110.6309
699.8393, 113.6328
700.3214, 113.9004
700.8035, 121.5938
701.2856, 134.9102
701.7678, 143.9297
702.2499, 139.3945
702.7320, 130.1562
703.2141, 120.8105
703.6962, 112.4395
704.1783, 111.7812
704.6605, 131.9434
705.1426, 150.7148
705.6247, 155.0566
706.1068, 141.8926
706.5889, 133.4609
707.0710, 129.5898
707.5532, 129.4297
708.0353, 137.3398
708.5174, 154.3965
708.9995, 152.7539
709.4816, 129.3555
709.9637, 102.0039
710.4459, 87.91797
710.9280, 83.21484
711.4101, 81.85938
711.8922, 84.33594
712.3743, 85.21094
712.8564, 80.00391
713.3386, 72.53125
713.8207, 66.73438
714.3028, 63.25391
714.7849, 61.77148
715.2670, 57.17578
715.7491, 57.09766
716.2313, 76.19727
716.7134, 122.9121
717.1955, 147.4277
717.6776, 134.8027
718.1597, 105.7227
718.6418, 97.98633
719.1240, 107.9922
719.6061, 121.6172
720.0882, 140.4395
720.5703, 151.0273
721.0524, 130.0762
721.5345, 90.04492
722.0167, 60.91016
722.4988, 63.37891
722.9809, 69.82812
723.4630, 74.45508
723.9451, 76.39453
724.4272, 70.72461
724.9094, 53.29102
725.3915, 37.49414
725.8736, 28.19531
726.3557, 25.50977
726.8378, 29.38672
727.3199, 39.69141
727.8021, 48.25391
728.2842, 48.78320
728.7663, 45.43750
729.2484, 44.59961
729.7305, 45.80273
730.2126, 45.92578
730.6948, 36.45508
731.1769, 29.61719
731.6590, 33.58203
732.1411, 49.78320
732.6232, 70.05859
733.1053, 100.4473
733.5875, 125.0625
734.0696, 133.9160
734.5517, 125.4121
735.0338, 116.7969
735.5159, 109.3223
735.9980, 98.03516
736.4802, 72.39453
736.9623, 39.47461
737.4444, 21.56055
737.9265, 22.91211
738.4086, 29.64453
738.8907, 36.13477
739.3729, 40.23242
739.8550, 39.12109
740.3371, 30.65625
740.8192, 19.92188
741.3013, 5.595703
741.7834, 25.16602
742.2656, 13.18750
742.7477, 46.94531
743.2298, 76.25586
743.7119, 56.79102
744.1940, 22.80859
744.6761, 30.37305
745.1583, 70.55664
745.6404, 101.1992
746.1225, 112.9453
746.6046, 107.9922
747.0867, 72.12305
747.5688, 23.66211
748.0510, 5.074219
748.5331, 20.22852
749.0152, 39.96289
749.4973, 33.19336
749.9794, 11.84766
750.4615, 1.582031
750.9437, 7.355469
751.4258, 1.880859
751.9079, 22.93359
752.3900, 52.83984
752.8721, 43.86133
753.3542, 0.9980470
753.8364, 27.67188
754.3185, 12.19336
754.8006, 17.83398
755.2827, 28.32227
755.7648, 24.33398
756.2469, 20.23828
756.7291, 15.94531
757.2112, 18.74414
757.6933, 37.93750
758.1754, 68.74609
758.6575, 85.58398
759.1396, 83.28711
759.6218, 76.52734
760.1039, 69.95898
760.5860, 62.74609
761.0681, 46.38672
761.5502, 21.91602
762.0323, 10.32812
762.5145, 36.55664
762.9966, 75.55078
763.4787, 94.75781
763.9608, 95.88281
764.4429, 91.21484
764.9250, 80.69727
765.4072, 71.35938
765.8893, 66.14648
766.3714, 65.42773
766.8535, 70.22070
767.3356, 82.69141
767.8177, 96.24805
768.2999, 107.5762
768.7820, 116.3711
769.2641, 121.9863
769.7462, 123.8145
770.2283, 126.2266
770.7104, 133.0996
771.1926, 141.7461
771.6747, 149.3047
772.1568, 155.3340
772.6389, 159.1895
773.1210, 165.8770
773.6031, 166.4043
774.0853, 152.0391
774.5674, 118.6543
775.0495, 97.81836
775.5316, 97.11914
776.0137, 98.38867
776.4958, 87.21680
776.9780, 64.44531
777.4601, 57.11914
777.9422, 66.02539
778.4243, 74.93359
778.9064, 63.61133
779.3885, 46.61914
779.8707, 42.28320
780.3528, 52.85547
780.8349, 60.97070
781.3170, 52.61523
781.7991, 42.93750
782.2812, 43.14453
782.7633, 60.43359
783.2454, 61.66602
783.7275, 38.24609
784.2097, 14.48242
784.6918, 12.74609
785.1739, 30.66406
785.6560, 47.94336
786.1381, 64.11523
786.6202, 72.92383
787.1024, 64.26758
787.5845, 47.26172
788.0666, 32.71680
788.5487, 22.38281
789.0308, 15.52148
789.5129, 8.503906
789.9951, 7.347656
790.4772, 17.03906
790.9593, 42.61719
791.4414, 64.46289
791.9235, 82.14258
792.4056, 96.41602
792.8878, 108.1855
793.3699, 117.2617
793.8520, 122.1562
794.3341, 122.3750
794.8162, 119.7363
795.2983, 114.0781
795.7805, 107.5488
796.2626, 103.0566
796.7447, 102.5137
797.2268, 100.2422
797.7089, 94.67188
798.1910, 87.68555
798.6732, 80.90234
799.1553, 74.89844
799.6374, 64.56250
800.1195, 49.57031
800.6016, 40.87500
801.0837, 56.36914
801.5659, 86.61328
802.0480, 101.5234
802.5301, 95.96094
803.0122, 82.41992
803.4943, 58.31055
803.9764, 37.08203
804.4586, 32.85352
804.9407, 54.26367
805.4228, 77.05859
805.9049, 102.0332
806.3870, 123.9648
806.8691, 136.4609
807.3513, 137.6621
807.8334, 142.3281
808.3155, 151.5957
808.7976, 160.6465
809.2797, 171.9473
809.7618, 178.3926
810.2440, 158.3047
810.7261, 102.3789
811.2082, 60.93945
811.6903, 80.08594
812.1724, 115.8965
812.6545, 125.6250
813.1367, 86.16016
813.6188, 68.17773
814.1009, 82.45898
814.5830, 101.2285
815.0651, 98.86523
815.5472, 77.20117
816.0294, 57.16797
816.5115, 40.33789
816.9936, 28.24219
817.4757, 26.68750
817.9578, 29.14648
818.4399, 26.72656
818.9221, 16.83984
819.4042, 10.24805
819.8863, 10.72656
820.3684, 16.55664
820.8505, 26.94727
821.3326, 44.60938
821.8148, 52.60742
822.2969, 46.06641
822.7790, 43.83203
823.2611, 74.22070
823.7432, 121.2148
824.2253, 125.5645
824.7075, 81.34570
825.1896, 41.46289
825.6717, 50.82422
826.1538, 76.02148
826.6359, 91.73242
827.1180, 94.41602
827.6002, 86.52734
828.0823, 60.88086
828.5644, 35.16211
829.0465, 20.65039
829.5286, 18.25586
830.0107, 15.40234
830.4929, 12.47461
830.9750, 9.457031
831.4571, 9.267578
831.9392, 8.693359
832.4213, 14.08406
832.9034, 13.97656
833.3856, 27.04102
833.8677, 43.32227
834.3498, 48.79883
834.8319, 25.45508
835.3140, 28.46484
835.7961, 46.81250
836.2783, 17.54883
836.7604, 15.41211
837.2425, 26.68555
837.7246, 22.20898
838.2067, 30.05859
838.6888, 48.30859
839.1710, 54.64258
839.6531, 23.63086
840.1352, 16.36914
840.6173, 42.98438
841.0994, 55.91211
841.5815, 65.45898
842.0637, 75.01172
842.5458, 78.74805
843.0279, 74.34375
843.5100, 62.53320
843.9921, 47.96094
844.4742, 30.59766
844.9564, 15.50391
845.4385, 7.218750
845.9206, 2.031250
846.4027, 4.937500
846.8848, 12.89844
847.3669, 20.61328
847.8491, 24.35352
848.3312, 28.80273
848.8133, 41.11719
849.2954, 55.50391
849.7775, 51.08594
850.2596, 20.92969
850.7418, 5.763672
851.2239, 18.95117
851.7060, 25.12695
852.1881, 36.41211
852.6702, 52.44336
853.1523, 73.13477
853.6345, 102.5488
854.1166, 129.7500
854.5987, 146.8574
855.0808, 155.4062
855.5629, 159.5352
856.0450, 155.0781
856.5272, 153.3438
857.0093, 160.8848
857.4914, 166.6758
857.9735, 145.5605
858.4556, 100.1738
858.9377, 70.51758
859.4199, 69.34766
859.9020, 77.70117
860.3841, 77.14844
860.8662, 72.86328
861.3483, 72.63086
861.8304, 83.51367
862.3126, 89.81445
862.7947, 75.78711
863.2768, 63.66602
863.7589, 76.96094
864.2410, 122.6543
864.7231, 151.5215
865.2053, 157.9160
865.6874, 155.2188
866.1695, 156.4258
866.6516, 159.0039
867.1337, 158.8516
867.6158, 155.0059
868.0980, 147.9961
868.5801, 128.3848
869.0622, 112.8887
869.5443, 120.7422
870.0264, 163.7051
870.5085, 174.9473
870.9907, 147.2695
871.4728, 109.2363
871.9549, 74.98438
872.4370, 47.77734
872.9191, 44.13281
873.4012, 63.37500
873.8834, 85.36719
874.3655, 104.1777
874.8476, 113.7227
875.3297, 104.9668
875.8118, 78.01953
876.2939, 58.49023
876.7761, 47.38672
877.2582, 43.81055
877.7403, 50.63477
878.2224, 64.31836
878.7045, 64.70898
879.1866, 52.74219
879.6688, 44.61914
880.1509, 51.54883
880.6330, 64.49023
881.1151, 81.62500
881.5972, 97.97852
882.0793, 98.95312
882.5615, 55.53906
883.0436, 28.25781
883.5257, 37.99414
884.0078, 66.77344
884.4899, 74.29688
884.9720, 59.93164
885.4542, 38.88867
885.9363, 11.92578
886.4184, 12.25195
886.9005, 24.01562
887.3826, 24.62695
887.8647, 15.71289
888.3469, 7.085938
888.8290, 30.75195
889.3111, 57.18750
889.7932, 78.36914
890.2753, 83.53711
890.7574, 66.30469
891.2396, 59.72266
891.7217, 67.68945
892.2038, 76.27930
892.6859, 66.85352
893.1680, 49.92188
893.6501, 40.15430
894.1323, 39.09766
894.6144, 52.99805
895.0965, 116.8477
895.5786, 175.9004
896.0607, 183.9219
896.5428, 132.9648
897.0250, 102.1602
897.5071, 97.82227
897.9892, 103.4922
898.4713, 109.2715
898.9534, 115.0156
899.4355, 118.8320
899.9177, 121.3984
900.3998, 128.1562
900.8819, 145.1172
901.3640, 163.3906
901.8461, 178.6680
902.3282, 189.7695
902.8104, 195.2500
903.2925, 192.0234
903.7746, 188.2305
904.2567, 185.0078
904.7388, 183.2422
905.2209, 190.2891
905.7031, 202.4258
906.1852, 202.2227
906.6673, 172.9375
907.1494, 144.8086
907.6315, 143.6172
908.1136, 158.7461
908.5958, 170.3906
909.0779, 170.8125
909.5600, 177.5938
910.0421, 195.0117
910.5242, 214.6328
911.0063, 222.4414
911.4885, 222.2422
911.9706, 234.8750
912.4527, 263.9961
912.9348, 296.8672
913.4169, 322.8438
913.8990, 347.7773
914.3812, 376.1641
914.8633, 408.0234
915.3454, 444.9258
915.8275, 485.9648
916.3096, 531.9922
916.7917, 585.5234
917.2739, 644.6406
917.7560, 701.1133
918.2381, 754.1562
918.7202, 798.5273
919.2023, 821.7773
919.6844, 842.2031
920.1666, 877.5430
920.6487, 924.4766
921.1308, 962.5312
921.6129, 976.8750
922.0950, 1004.266
922.5771, 1058.984
923.0593, 1127.434
923.5414, 1171.359
924.0235, 1194.957
924.5056, 1226.828
924.9877, 1276.324
925.4698, 1337.426
925.9520, 1415.406
926.4341, 1498.465
926.9162, 1568.992
927.3983, 1589.180
927.8804, 1651.391
928.3625, 1771.383
928.8447, 1909.914
929.3268, 2025.684
929.8089, 2121.031
930.2910, 2224.676
930.7731, 2339.906
931.2552, 2454.410
931.7374, 2554.141
932.2195, 2654.352
932.7016, 2769.203
933.1837, 2899.285
933.6658, 3041.188
934.1479, 3205.609
934.6301, 3362.508
935.1122, 3494.941
935.5943, 3610.992
936.0764, 3748.000
936.5585, 3904.164
937.0406, 4054.996
937.5228, 4178.895
938.0049, 4302.773
938.4870, 4452.957
938.9691, 4618.926
939.4512, 4774.301
939.9333, 4920.035
940.4155, 5050.012
940.8976, 5159.438
941.3797, 5258.129
941.8618, 5362.414
942.3439, 5468.645
942.8260, 5557.180
943.3082, 5624.398
943.7903, 5679.277
944.2724, 5730.410
944.7545, 5770.863
945.2366, 5795.152
945.7188, 5800.840
946.2009, 5795.938
946.6830, 5790.684
947.1651, 5752.332
947.6472, 5644.770
948.1293, 5486.750
948.6115, 5357.176
949.0936, 5252.148
949.5757, 5133.070
950.0578, 4966.355
950.5399, 4791.109
951.0220, 4635.816
951.5042, 4463.312
951.9863, 4288.984
952.4684, 4131.359
952.9505, 3944.746
953.4326, 3784.242
953.9147, 3631.945
954.3969, 3445.652
954.8790, 3238.949
955.3611, 3048.793
955.8432, 2890.199
956.3253, 2741.699
956.8074, 2594.434
957.2896, 2450.582
957.7717, 2310.172
958.2538, 2172.949
958.7359, 2033.145
959.2180, 1887.055
959.7001, 1755.102
960.1823, 1667.621
960.6644, 1600.426
961.1465, 1500.496
961.6286, 1370.023
962.1107, 1252.277
962.5928, 1183.551
963.0750, 1115.484
963.5571, 1021.922
964.0392, 912.1367
964.5213, 824.0078
965.0034, 760.9297
965.4855, 696.9688
965.9677, 626.1445
966.4498, 548.3867
966.9319, 445.9883
967.4140, 342.0664
967.8961, 282.1328
968.3782, 312.8086
968.8604, 324.2188
969.3425, 287.5820
969.8246, 233.2305
970.3067, 176.2773
970.7888, 114.9531
971.2709, 88.50391
971.7531, 99.28906
972.2352, 117.1758
972.7173, 116.7266
973.1994, 109.3477
973.6815, 109.2383
974.1636, 117.3320
974.6458, 122.2617
975.1279, 112.4023
975.6100, 107.4570
976.0921, 113.8594
976.5742, 128.5391
977.0563, 143.8008
977.5385, 160.5312
978.0206, 177.5078
978.5027, 192.8906
978.9848, 212.2031
979.4669, 250.3867
979.9490, 290.8594
980.4311, 311.1875
980.9132, 299.6250
981.3953, 289.3047
981.8774, 278.1602
982.3596, 274.8750
982.8417, 294.5234
983.3238, 325.1289
983.8059, 331.1406
984.2880, 313.5312
984.7701, 304.7656
985.2523, 339.4961
985.7344, 371.9453
986.2165, 373.1992
986.6986, 350.3594
987.1807, 334.6875
987.6628, 329.1250
988.1450, 311.0742
988.6271, 268.2305
989.1092, 221.5391
989.5913, 208.5820
990.0734, 213.1172
990.5555, 204.5117
991.0377, 167.7109
991.5198, 131.6484
992.0019, 105.1055
992.4840, 80.89062
992.9661, 52.20312
993.4482, 39.86171
993.9304, 4.511719
994.4125, 17.23438
994.8946, 21.36719
995.3767, 13.12109
995.8588, 1.542969
996.3409, 3.464844
996.8231, 2.984375
997.3052, 7.785156
997.7873, 26.78125
998.2694, 34.82031
998.7515, 18.85938
999.2336, 1.750000
999.7158, 16.84766
1000.198, 65.50000
1000.680, 113.2500
1001.162, 154.9023
1001.644, 182.3711
1002.126, 183.5234
1002.608, 171.5938
1003.091, 155.2383
1003.573, 131.2227
1004.055, 126.8320
1004.537, 145.1055
1005.019, 169.4570
1005.501, 194.7109
1005.983, 216.1641
1006.465, 220.2344
1006.948, 212.8750
1007.430, 216.1523
1007.912, 251.5586
1008.394, 283.0508
1008.876, 292.2227
1009.358, 298.6836
1009.840, 344.5195
1010.322, 428.1523
1010.804, 493.7109
1011.287, 531.7891
1011.769, 553.9766
1012.251, 558.3477
1012.733, 560.6484
1013.215, 579.7266
1013.697, 622.3906
1014.179, 650.5781
1014.661, 657.5742
1015.143, 662.7930
1015.626, 682.6484
1016.108, 704.0234
1016.590, 680.8164
1017.072, 622.7344
1017.554, 564.8477
1018.036, 525.8906
1018.518, 487.9141
1019.000, 441.8008
1019.483, 393.5469
1019.965, 351.1172
1020.447, 314.9141
1020.929, 280.1367
1021.411, 245.7188
1021.893, 214.7383
1022.375, 192.6875
1022.857, 174.2227
1023.339, 155.0859
1023.822, 134.5977
1024.304, 104.0508
1024.786, 44.17188
1025.268, 1.9531000E-02
1025.750, 9.277344
1026.232, 2.480469
1026.714, 4.488281
1027.196, 26.03516
1027.679, 41.92969
1028.161, 43.66016
1028.643, 41.86328
1029.125, 44.68359
1029.607, 46.73828
1030.089, 39.81641
1030.571, 17.86328
1031.053, 17.58203
1031.536, 44.51562
1032.018, 68.38281
1032.500, 65.03516
1032.982, 45.78125
1033.464, 27.84766
1033.946, 11.19922
1034.428, 10.83203
1034.910, 59.42578
1035.392, 90.76562
1035.875, 91.86719
1036.357, 76.20703
1036.839, 65.34766
1037.321, 59.73047
1037.803, 63.38281
1038.285, 80.03906
1038.767, 88.06641
1039.249, 51.62500
1039.731, 9.703125
1040.214, 0.6601560
1040.696, 26.98047
1041.178, 52.56250
1041.660, 77.17188
1042.142, 94.45703
1042.624, 97.47266
1043.106, 95.13672
1043.588, 108.2656
1044.071, 129.8320
1044.553, 143.0938
1045.035, 126.8047
1045.517, 126.4805
1045.999, 164.7812
1046.481, 207.9336
1046.963, 220.2344
1047.445, 204.4648
1047.927, 203.0156
1048.410, 217.1055
1048.892, 236.5469
1049.374, 254.7773
1049.856, 274.9609
1050.338, 304.9297
1050.820, 339.3789
1051.302, 351.2422
1051.784, 326.9297
1052.266, 328.3242
1052.749, 373.0312
1053.231, 433.9727
1053.713, 482.0586
1054.195, 516.5117
1054.677, 532.1836
1055.159, 522.3047
1055.641, 528.7773
1056.123, 582.9375
1056.606, 633.1953
1057.088, 657.0977
1057.570, 657.6836
1058.052, 647.7383
1058.534, 628.7227
1059.016, 608.9609
1059.498, 588.3828
1059.980, 573.0586
1060.463, 574.2695
1060.945, 579.9336
1061.427, 570.7930
1061.909, 537.9102
1062.391, 525.3359
1062.873, 537.8945
1063.355, 549.9336
1063.837, 543.1953
1064.319, 519.7461
1064.802, 474.3477
1065.284, 411.8828
1065.766, 359.8203
1066.248, 330.9609
1066.730, 306.1953
1067.212, 282.6172
1067.694, 260.5547
1068.176, 239.4414
1068.658, 220.6094
1069.141, 211.3516
1069.623, 214.7539
1070.105, 216.2695
1070.587, 209.3320
1071.069, 196.1484
1071.551, 176.4180
1072.033, 151.2773
1072.515, 130.8750
1072.998, 115.3906
1073.480, 105.1680
1073.962, 98.83203
1074.444, 99.89062
1074.926, 125.3203
1075.408, 156.0586
1075.890, 160.6328
1076.372, 106.0000
1076.854, 80.43359
1077.337, 91.92578
1077.819, 110.9844
1078.301, 114.4062
1078.783, 107.0898
1079.265, 95.52734
1079.747, 82.43750
1080.229, 79.55078
1080.711, 108.4141
1081.193, 126.5352
1081.676, 115.3945
1082.158, 94.57422
1082.640, 101.0430
1083.122, 130.5859
1083.604, 144.6289
1084.086, 137.4688
1084.568, 124.8398
1085.050, 118.5859
1085.532, 111.4180
1086.015, 99.64062
1086.497, 83.23047
1086.979, 56.90234
1087.461, 17.25781
1087.943, 3.886719
1088.425, 11.18359
1088.907, 35.67188
1089.389, 39.42969
1089.872, 27.95312
1090.354, 7.738281
1090.836, 29.02344
1091.318, 42.42578
1091.800, 22.44531
1092.282, 1.894531
1092.764, 9.914063
1093.246, 7.660156
1093.729, 19.35156
1094.211, 38.54297
1094.693, 42.13281
1095.175, 53.43692
1095.657, 34.33203
1096.139, 51.89453
1096.621, 50.69531
1097.103, 15.80859
1097.585, 49.46875
1098.068, 72.19531
1098.550, 50.91016
1099.032, 24.65234
1099.514, 14.01172
1099.996, 16.14844
1100.478, 40.98047
1100.960, 77.82422
1101.442, 84.48047
1101.924, 53.28125
1102.407, 39.78516
1102.889, 57.03516
1103.371, 82.34375
1103.853, 90.23047
1104.335, 91.26562
1104.817, 97.55078
1105.299, 110.7266
1105.781, 126.6250
1106.264, 146.7891
1106.746, 163.8164
1107.228, 176.6797
1107.710, 182.0391
1108.192, 166.4062
1108.674, 139.2773
1109.156, 123.2500
1109.638, 132.2188
1110.120, 135.1094
1110.603, 111.4922
1111.085, 95.78906
1111.567, 121.2305
1112.049, 176.8633
1112.531, 171.8945
1113.013, 116.3125
1113.495, 73.71484
1113.977, 98.27734
1114.459, 120.2188
1114.942, 98.41797
1115.424, 59.74609
1115.906, 37.64062
1116.388, 32.89844
1116.870, 42.70703
1117.352, 67.80469
1117.834, 88.08984
1118.316, 77.99219
1118.799, 64.99609
1119.281, 76.83203
1119.763, 106.8086
1120.245, 122.0352
1120.727, 117.0391
1121.209, 109.6055
1121.691, 98.81250
1122.173, 99.23828
1122.656, 153.8281
1123.138, 215.9414
1123.620, 209.3164
1124.102, 122.5938
1124.584, 73.70703
1125.066, 92.87891
1125.548, 114.0391
1126.030, 115.5156
1126.512, 109.4375
1126.995, 126.2070
1127.477, 153.7812
1127.959, 161.3633
1128.441, 135.5391
1128.923, 114.5273
1129.405, 110.1289
1129.887, 114.4961
1130.369, 127.9492
1130.851, 146.4102
1131.334, 146.4609
1131.816, 132.7812
1132.298, 129.6094
1132.780, 159.1133
1133.262, 181.5352
1133.744, 167.4219
1134.226, 144.7969
1134.708, 141.2344
1135.191, 158.2227
1135.673, 165.0781
1136.155, 162.0469
1136.637, 155.6953
1137.119, 155.5117
1137.601, 148.9766
1138.083, 112.8203
1138.565, 69.74609
1139.047, 72.05469
1139.530, 137.5234
1140.012, 149.1992
1140.494, 92.73047
1140.976, 34.38281
1141.458, 36.14844
1141.940, 64.04688
1142.422, 91.84375
1142.904, 115.4492
1143.386, 124.1992
1143.869, 112.6445
1144.351, 99.69531
1144.833, 85.23438
1145.315, 79.00000
1145.797, 104.7891
1146.279, 143.9688
1146.761, 168.9570
1147.243, 175.6016
1147.726, 167.9453
1148.208, 132.9609
1148.690, 112.2891
1149.172, 128.3945
1149.654, 156.9609
1150.136, 139.4609
1150.618, 97.21094
1151.100, 75.66406
1151.583, 89.21484
1152.065, 110.1172
1152.547, 139.7266
1153.029, 160.0195
1153.511, 158.2656
1153.993, 143.2617
1154.475, 143.3672
1154.957, 156.6094
1155.439, 170.4492
1155.922, 184.2422
1156.404, 184.3008
1156.886, 149.4609
1157.368, 115.0625
1157.850, 105.9844
1158.332, 120.0703
1158.814, 134.4297
1159.296, 147.4062
1159.778, 149.3945
1160.261, 123.6992
1160.743, 99.44922
1161.225, 85.55469
1161.707, 82.79688
1162.189, 95.34375
1162.671, 123.2578
1163.153, 148.0742
1163.635, 168.5312
1164.118, 172.8750
1164.600, 135.1406
1165.082, 97.18359
1165.564, 90.58594
1166.046, 100.7383
1166.528, 98.12891
1167.010, 80.94141
1167.492, 76.40625
1167.974, 88.50781
1168.457, 92.16406
1168.939, 46.84375
1169.421, 2.410156
1169.903, 4.382813
1170.385, 43.85156
1170.867, 72.33203
1171.349, 90.56641
1171.831, 90.33984
1172.313, 67.20703
1172.796, 43.26562
1173.278, 44.51562
1173.760, 55.16406
1174.242, 60.19922
1174.724, 58.03516
1175.206, 56.09766
1175.688, 53.71875
1176.170, 57.14844
1176.653, 69.74609
1177.135, 83.57812
1177.617, 89.98828
1178.099, 90.46094
1178.581, 84.82812
1179.063, 72.00781
1179.545, 61.88672
1180.027, 50.46094
1180.510, 56.53125
1180.992, 95.28125
1181.474, 137.9805
1181.956, 143.4844
1182.438, 123.1680
1182.920, 93.72656
1183.402, 54.11719
1183.884, 28.06250
1184.366, 17.39062
1184.849, 19.11719
1185.331, 38.96094
1185.813, 63.07812
1186.295, 57.88281
1186.777, 40.14453
1187.259, 43.46094
1187.741, 99.53516
1188.223, 121.5781
1188.705, 96.48438
1189.188, 59.30078
1189.670, 24.62109
1190.152, 1.792969
1190.634, 3.363281
1191.116, 12.32422
1191.598, 27.39453
1192.080, 29.08984
1192.562, 42.00781
1193.045, 73.66797
1193.527, 102.4375
1194.009, 107.3906
1194.491, 97.41016
1194.973, 89.46484
1195.455, 84.59766
1195.937, 85.69141
1196.419, 106.9180
1196.901, 115.0469
1197.384, 100.8828
1197.866, 80.61328
1198.348, 69.20703
1198.830, 65.32812
1199.312, 68.78125
1199.794, 77.42578
1200.276, 79.52734
1200.758, 64.08984
1201.240, 50.10938
1201.723, 40.19531
1202.205, 34.06641
1202.687, 34.92188
1203.169, 39.01562
1203.651, 35.59375
1204.133, 24.00000
1204.615, 12.94141
1205.097, 2.781250
1205.580, 1.183594
1206.062, 31.29297
1206.544, 65.80859
1207.026, 46.66406
1207.508, 0.7656250
1207.990, 6.242188
1208.472, 34.47266
1208.954, 63.32422
1209.437, 43.45703
1209.919, 29.56641
1210.401, 35.12500
1210.883, 49.85156
1211.365, 57.84766
1211.847, 61.28125
1212.329, 63.91016
1212.811, 66.30859
1213.293, 76.89453
1213.776, 116.3750
1214.258, 139.1211
1214.740, 126.3828
1215.222, 100.0977
1215.704, 103.8906
1216.186, 127.3438
1216.668, 150.5039
1217.150, 171.3047
1217.632, 172.4023
1218.115, 126.5234
1218.597, 94.76953
1219.079, 101.0117
1219.561, 126.9648
1220.043, 136.1680
1220.525, 136.1914
1221.007, 147.3672
1221.489, 178.3047
1221.972, 191.1172
1222.454, 168.3086
1222.936, 143.7031
1223.418, 129.1523
1223.900, 121.5312
1224.382, 113.1836
1224.864, 106.6875
1225.346, 109.7148
1225.828, 128.8594
1226.311, 137.0742
1226.793, 129.6992
1227.275, 114.3750
1227.757, 93.49609
1228.239, 68.96094
1228.721, 39.14453
1229.203, 9.613281
1229.685, 7.207031
1230.167, 3.195313
1230.650, 2.375000
1231.132, 9.777344
1231.614, 12.73438
1232.096, 4.472656
1232.578, 11.78906
1233.060, 33.93359
1233.542, 57.85938
1234.024, 75.84375
1234.507, 87.35938
1234.989, 85.85938
1235.471, 67.25000
1235.953, 47.25000
1236.435, 31.17188
1236.917, 22.58203
1237.399, 39.72266
1237.881, 21.79366
1238.364, 26.46390
1238.846, 8.441406
1239.328, 19.51953
1239.810, 16.16406
1240.292, 3.253906
1240.774, 39.41016
1241.256, 77.07422
1241.738, 95.14062
1242.220, 100.5039
1242.703, 104.9453
1243.185, 106.7266
1243.667, 119.4141
1244.149, 144.9492
1244.631, 165.6445
1245.113, 164.5352
1245.595, 156.2617
1246.077, 152.8086
1246.559, 154.3516
1247.042, 162.5742
1247.524, 185.3047
1248.006, 180.4648
1248.488, 145.7109
1248.970, 110.7852
1249.452, 101.1562
1249.934, 95.39062
1250.416, 68.62891
1250.899, 38.36328
1251.381, 35.83984
1251.863, 72.43359
1252.345, 73.66016
1252.827, 39.59766
1253.309, 3.531250
1253.791, 18.26172
1254.273, 28.52734
1254.755, 22.46875
1255.238, 9.453125
1255.720, 5.714844
1256.202, 12.36719
1256.684, 19.33203
1257.166, 26.64062
1257.648, 20.62500
1258.130, 24.33984
1258.612, 64.19531
1259.094, 77.94531
1259.577, 73.00000
1260.059, 49.06641
1260.541, 9.359375
1261.023, 8.617188
1261.505, 4.656250
1261.987, 12.08594
1262.469, 54.20703
1262.951, 85.49609
1263.434, 88.48047
1263.916, 82.64453
1264.398, 87.23438
1264.880, 99.02734
1265.362, 109.1523
1265.844, 114.7734
1266.326, 105.1641
1266.808, 43.62500
1267.291, 11.92578
1267.773, 28.48828
1268.255, 64.73828
1268.737, 95.41016
1269.219, 117.4648
1269.701, 123.7773
1270.183, 116.9258
1270.665, 106.8125
1271.147, 97.18359
1271.630, 81.98828
1272.112, 63.49609
1272.594, 47.57812
1273.076, 30.97656
1273.558, 19.46484
1274.040, 24.53906
1274.522, 42.23047
1275.004, 60.46484
1275.486, 81.00391
1275.969, 89.67969
1276.451, 83.19922
1276.933, 77.72266
1277.415, 93.48438
1277.897, 111.7812
1278.379, 109.1602
1278.861, 89.96094
1279.343, 74.46484
1279.825, 75.88672
1280.308, 71.33984
1280.790, 59.36719
1281.272, 64.16016
1281.754, 94.85156
1282.236, 125.9688
1282.718, 137.5039
1283.200, 140.8711
1283.682, 136.1719
1284.165, 122.4219
1284.647, 110.7383
1285.129, 101.5586
1285.611, 95.52734
1286.093, 97.16406
1286.575, 99.51953
1287.057, 99.16016
1287.539, 98.44141
1288.021, 103.9180
1288.504, 92.57422
1288.986, 99.17188
1289.468, 69.09766
1289.950, 43.10547
1290.432, 25.91797
1290.914, 25.36719
1291.396, 52.69922
1291.878, 78.55469
1292.360, 65.28906
1292.843, 32.31641
1293.325, 35.44531
1293.807, 20.49609
1294.289, 6.574219
1294.771, 20.76172
1295.253, 1.828125
1295.735, 27.06641
1296.217, 63.69141
1296.700, 88.51172
1297.182, 104.3359
1297.664, 108.8750
1298.146, 105.5469
1298.628, 110.3047
1299.110, 135.6367
1299.592, 152.4805
1300.074, 160.0352
1300.557, 150.6602
1301.039, 104.8828
1301.521, 53.87500
1302.003, 29.54688
1302.485, 16.17188
1302.967, 0.4843750
1303.449, 0.0000000E+00
##END=



