##NAMES=Struvite
##RRUFFID=R050511
##IDEAL CHEMISTRY=(NH_4_)MgPO_4_&#183;6H_2_O
##LOCALITY=Hamburg, Germany
##OWNER=RRUFF
##SOURCE=American Museum of Natural History
##DESCRIPTION=Colorless with a brown tint, cleavage fragment
##STATUS=The identification of this mineral has been confirmed by X-ray diffraction and chemical analysis
##URL=rruff.info/R050511
##MEASURED CHEMISTRY=(NH_4_)(Mg_0.85_Fe^2+^_0.12_Mn_0.02_Ca_0.01_)_Σ=1_(P_1.00_O_4_)·6H_2_O ; NH_4_ not measured but assumed by charge balance
166.8470, 0.0000000E+00
167.3291, 8.006836
167.8112, 101.5547
168.2934, 270.1973
168.7755, 435.9688
169.2576, 569.1816
169.7397, 674.8867
170.2218, 786.6445
170.7039, 902.4297
171.1861, 1018.711
171.6682, 1144.039
172.1503, 1265.037
172.6324, 1366.543
173.1145, 1439.256
173.5966, 1490.648
174.0788, 1548.217
174.5609, 1600.789
175.0430, 1676.035
175.5251, 1798.881
176.0072, 1938.328
176.4893, 2059.180
176.9715, 2142.994
177.4536, 2199.129
177.9357, 2260.977
178.4178, 2329.900
178.8999, 2403.615
179.3820, 2496.604
179.8642, 2589.287
180.3463, 2656.506
180.8284, 2685.420
181.3105, 2683.826
181.7926, 2681.461
182.2747, 2696.773
182.7569, 2696.877
183.2390, 2680.705
183.7211, 2650.340
184.2032, 2613.932
184.6853, 2571.881
185.1674, 2518.629
185.6496, 2433.906
186.1317, 2285.080
186.6138, 2131.949
187.0959, 1985.225
187.5780, 1839.588
188.0601, 1684.273
188.5423, 1513.848
189.0244, 1337.455
189.5065, 1185.744
189.9886, 1087.059
190.4707, 983.3672
190.9528, 867.7754
191.4350, 746.5781
191.9171, 625.5059
192.3992, 506.6582
192.8813, 396.0449
193.3634, 310.0039
193.8455, 276.0762
194.3277, 236.7070
194.8098, 183.1562
195.2919, 125.6074
195.7740, 74.82227
196.2561, 35.44727
196.7382, 6.312500
197.2204, 15.32422
197.7025, 14.67773
198.1846, 23.84180
198.6667, 54.23047
199.1488, 90.34375
199.6309, 116.5234
200.1131, 127.0449
200.5952, 124.9395
201.0773, 116.4395
201.5594, 104.0645
202.0415, 80.45117
202.5236, 24.73828
203.0058, 32.66211
203.4879, 53.02344
203.9700, 25.18555
204.4521, 19.81836
204.9342, 26.10156
205.4163, 53.72852
205.8985, 117.7812
206.3806, 146.5723
206.8627, 170.5449
207.3448, 197.6797
207.8269, 232.9844
208.3090, 278.4297
208.7912, 330.0410
209.2733, 382.2881
209.7554, 413.7285
210.2375, 415.4678
210.7196, 407.1240
211.2017, 400.2646
211.6839, 404.7529
212.1660, 415.3896
212.6481, 421.5234
213.1302, 416.3115
213.6123, 426.8027
214.0944, 454.1992
214.5765, 495.1797
215.0587, 551.4541
215.5408, 621.5625
216.0229, 696.5088
216.5050, 766.3906
216.9871, 828.2998
217.4692, 896.5732
217.9514, 958.7168
218.4335, 1036.292
218.9156, 1150.634
219.3977, 1298.109
219.8798, 1453.503
220.3619, 1592.078
220.8441, 1710.176
221.3262, 1834.392
221.8083, 1966.928
222.2904, 2103.166
222.7725, 2248.234
223.2546, 2396.544
223.7368, 2534.186
224.2189, 2648.882
224.7010, 2737.928
225.1831, 2820.099
225.6652, 2906.316
226.1473, 2975.531
226.6295, 3021.972
227.1116, 3044.378
227.5937, 3040.464
228.0758, 3007.141
228.5579, 2945.519
229.0400, 2875.796
229.5222, 2801.391
230.0043, 2715.414
230.4864, 2615.952
230.9685, 2503.414
231.4506, 2377.211
231.9327, 2236.475
232.4149, 2083.297
232.8970, 1932.994
233.3791, 1786.343
233.8612, 1641.547
234.3433, 1493.405
234.8254, 1348.636
235.3076, 1220.107
235.7897, 1115.065
236.2718, 1024.190
236.7539, 918.4795
237.2360, 764.0820
237.7181, 640.6670
238.2003, 567.8906
238.6824, 522.0938
239.1645, 481.2061
239.6466, 436.8574
240.1287, 392.9590
240.6108, 358.9561
241.0930, 350.3174
241.5751, 325.0498
242.0572, 274.2764
242.5393, 213.8164
243.0214, 149.3848
243.5035, 85.04980
243.9857, 30.59863
244.4678, 4.002930
244.9499, 24.25977
245.4320, 27.54102
245.9141, 1.914063
246.3962, 33.56348
246.8784, 48.29688
247.3605, 45.13672
247.8426, 36.84375
248.3247, 36.69336
248.8068, 45.85645
249.2889, 58.18457
249.7710, 86.70801
250.2532, 107.2080
250.7353, 107.4072
251.2174, 90.05371
251.6995, 65.60547
252.1816, 41.62402
252.6637, 18.26172
253.1459, 1.937500
253.6280, 6.047852
254.1101, 21.18164
254.5922, 64.61523
255.0743, 124.2080
255.5564, 177.8486
256.0386, 210.2744
256.5207, 224.9004
257.0028, 238.9248
257.4849, 243.8135
257.9670, 264.5361
258.4492, 308.9170
258.9313, 371.5156
259.4134, 449.2236
259.8955, 544.3701
260.3776, 646.0771
260.8597, 728.6172
261.3419, 793.3711
261.8240, 832.2471
262.3061, 813.7471
262.7882, 784.2246
263.2703, 789.1680
263.7524, 842.8428
264.2346, 913.0840
264.7167, 954.8760
265.1988, 961.8242
265.6809, 985.9648
266.1630, 1050.862
266.6451, 1131.098
267.1272, 1212.531
267.6093, 1293.811
268.0915, 1368.649
268.5736, 1430.940
269.0557, 1481.377
269.5378, 1525.156
270.0199, 1550.865
270.5020, 1586.080
270.9842, 1662.854
271.4663, 1774.693
271.9484, 1869.395
272.4305, 1907.001
272.9126, 1905.657
273.3947, 1916.119
273.8769, 1945.550
274.3590, 1979.931
274.8411, 2013.527
275.3232, 2044.312
275.8053, 2064.214
276.2874, 2053.308
276.7696, 2038.127
277.2517, 2062.127
277.7338, 2129.962
278.2159, 2192.400
278.6980, 2211.494
279.1801, 2201.309
279.6623, 2203.450
280.1444, 2226.452
280.6265, 2258.339
281.1086, 2289.666
281.5907, 2322.493
282.0728, 2368.294
282.5550, 2439.268
283.0371, 2515.480
283.5192, 2550.254
284.0013, 2516.179
284.4834, 2500.826
284.9655, 2558.742
285.4477, 2654.855
285.9298, 2718.416
286.4119, 2722.555
286.8940, 2702.543
287.3761, 2718.149
287.8582, 2779.312
288.3404, 2838.173
288.8225, 2904.152
289.3046, 2957.428
289.7867, 2971.625
290.2688, 2944.125
290.7509, 2902.257
291.2331, 2874.680
291.7152, 2864.570
292.1973, 2856.934
292.6794, 2863.979
293.1615, 2863.131
293.6436, 2847.503
294.1258, 2813.471
294.6079, 2749.864
295.0900, 2642.151
295.5721, 2493.991
296.0542, 2388.498
296.5363, 2345.968
297.0185, 2320.724
297.5006, 2320.943
297.9827, 2327.558
298.4648, 2311.430
298.9469, 2256.927
299.4290, 2175.720
299.9112, 2100.733
300.3933, 2022.862
300.8754, 1966.595
301.3575, 1946.695
301.8396, 1936.966
302.3217, 1917.185
302.8039, 1884.036
303.2860, 1842.816
303.7681, 1799.426
304.2502, 1751.648
304.7323, 1709.636
305.2144, 1685.603
305.6966, 1659.005
306.1787, 1609.443
306.6608, 1542.429
307.1429, 1487.441
307.6250, 1482.635
308.1071, 1522.947
308.5893, 1509.773
309.0714, 1404.743
309.5535, 1300.900
310.0356, 1239.887
310.5177, 1208.441
310.9998, 1181.442
311.4820, 1148.966
311.9641, 1111.111
312.4462, 1067.994
312.9283, 1019.244
313.4104, 964.9688
313.8925, 898.5371
314.3747, 828.3438
314.8568, 761.8350
315.3389, 697.1895
315.8210, 644.7871
316.3031, 624.6475
316.7852, 630.8408
317.2674, 616.7744
317.7495, 560.5635
318.2316, 490.1914
318.7137, 439.7734
319.1958, 408.6982
319.6779, 391.2568
320.1601, 400.2441
320.6422, 416.6104
321.1243, 402.4600
321.6064, 348.7061
322.0885, 296.5176
322.5706, 290.2656
323.0528, 330.9600
323.5349, 351.3936
324.0170, 320.1250
324.4991, 290.6953
324.9812, 310.0557
325.4633, 367.8867
325.9455, 414.6504
326.4276, 418.9834
326.9097, 388.2607
327.3918, 363.7881
327.8739, 340.7295
328.3560, 328.6514
328.8382, 339.6768
329.3203, 359.6953
329.8024, 370.2354
330.2845, 364.7490
330.7666, 348.4258
331.2487, 330.2461
331.7309, 310.0898
332.2130, 288.2383
332.6951, 264.1104
333.1772, 239.3672
333.6593, 217.1387
334.1414, 196.2842
334.6236, 171.5439
335.1057, 135.9785
335.5878, 88.78906
336.0699, 52.85352
336.5520, 38.34570
337.0341, 25.07227
337.5162, 8.974609
337.9984, 10.07715
338.4805, 33.82812
338.9626, 66.15625
339.4447, 97.47949
339.9268, 101.8311
340.4089, 68.01562
340.8911, 40.41211
341.3732, 43.16699
341.8553, 51.78516
342.3374, 42.08594
342.8195, 8.156250
343.3016, 20.97852
343.7838, 11.40137
344.2659, 30.82812
344.7480, 58.96094
345.2301, 62.67676
345.7122, 53.83691
346.1943, 40.65039
346.6765, 24.02734
347.1586, 8.790039
347.6407, 0.4414060
348.1228, 8.773438
348.6049, 23.64648
349.0870, 45.45801
349.5692, 69.54004
350.0513, 97.02344
350.5334, 123.5869
351.0155, 132.7422
351.4976, 109.6191
351.9797, 85.66504
352.4619, 71.21387
352.9440, 65.84375
353.4261, 70.58691
353.9082, 86.77148
354.3903, 107.7598
354.8724, 121.3203
355.3546, 123.2842
355.8367, 124.6895
356.3188, 131.1191
356.8009, 133.2334
357.2830, 118.8203
357.7651, 90.17188
358.2473, 63.23633
358.7294, 53.46680
359.2115, 61.53027
359.6936, 73.37695
360.1757, 114.8730
360.6578, 132.5625
361.1400, 86.50781
361.6221, 13.72559
362.1042, 25.23633
362.5863, 2.043945
363.0684, 62.50391
363.5505, 78.71973
364.0327, 26.01270
364.5148, 0.7900390
364.9969, 41.41699
365.4790, 99.82324
365.9611, 141.0127
366.4432, 160.4961
366.9254, 172.9834
367.4075, 188.2490
367.8896, 206.1152
368.3717, 225.5859
368.8538, 244.4043
369.3359, 269.0596
369.8181, 312.7432
370.3002, 366.3027
370.7823, 406.1973
371.2644, 408.2227
371.7465, 406.5869
372.2286, 441.3447
372.7108, 507.8496
373.1929, 568.9277
373.6750, 611.2305
374.1571, 633.2402
374.6392, 625.5889
375.1213, 565.1582
375.6035, 529.2236
376.0856, 554.0293
376.5677, 606.7422
377.0498, 649.2959
377.5319, 673.3984
378.0140, 690.5273
378.4962, 715.3379
378.9783, 753.2295
379.4604, 764.3604
379.9425, 737.4004
380.4246, 700.4902
380.9067, 651.5088
381.3889, 602.8066
381.8710, 578.0254
382.3531, 592.7051
382.8352, 631.4824
383.3173, 645.7393
383.7994, 618.1172
384.2816, 600.1152
384.7637, 609.4141
385.2458, 623.0781
385.7279, 622.4023
386.2100, 605.0869
386.6921, 583.8535
387.1743, 570.2178
387.6564, 563.7881
388.1385, 556.7656
388.6206, 540.3740
389.1027, 537.9336
389.5848, 574.6035
390.0670, 634.3564
390.5491, 683.1113
391.0312, 708.8027
391.5133, 719.5195
391.9954, 718.1250
392.4775, 706.0820
392.9597, 699.6934
393.4418, 707.4766
393.9239, 722.1396
394.4060, 727.9873
394.8881, 720.4795
395.3702, 720.1650
395.8524, 743.4180
396.3345, 769.1289
396.8166, 769.2188
397.2987, 741.8662
397.7808, 714.8008
398.2629, 718.4375
398.7451, 754.8828
399.2272, 751.1582
399.7093, 650.2803
400.1914, 577.9219
400.6735, 598.7051
401.1556, 663.5000
401.6378, 698.4883
402.1199, 671.2451
402.6020, 608.4053
403.0841, 561.6836
403.5662, 540.4033
404.0483, 512.6611
404.5305, 468.1914
405.0126, 423.0859
405.4947, 382.0625
405.9768, 347.4873
406.4589, 323.8242
406.9410, 320.1436
407.4231, 329.4453
407.9052, 328.4424
408.3874, 313.6201
408.8695, 301.7021
409.3516, 306.9258
409.8337, 318.2734
410.3158, 315.0439
410.7979, 281.8672
411.2801, 263.3535
411.7622, 304.4619
412.2443, 379.7930
412.7264, 424.5254
413.2085, 418.8721
413.6906, 402.4912
414.1728, 424.0938
414.6549, 494.1660
415.1370, 542.9639
415.6191, 556.3525
416.1012, 560.8740
416.5833, 563.4766
417.0655, 569.2627
417.5476, 587.7607
418.0297, 624.8301
418.5118, 675.6211
418.9939, 726.8330
419.4760, 785.7383
419.9582, 831.6172
420.4403, 853.9688
420.9224, 872.5586
421.4045, 908.4844
421.8866, 960.0723
422.3687, 1002.376
422.8509, 1001.015
423.3330, 965.0498
423.8151, 972.6846
424.2972, 1045.828
424.7793, 1122.775
425.2614, 1170.100
425.7436, 1200.095
426.2257, 1229.060
426.7078, 1259.029
427.1899, 1291.809
427.6720, 1337.114
428.1541, 1389.401
428.6363, 1421.428
429.1184, 1422.869
429.6005, 1413.235
430.0826, 1414.764
430.5647, 1427.528
431.0468, 1439.479
431.5290, 1446.116
432.0111, 1456.577
432.4932, 1481.063
432.9753, 1514.245
433.4574, 1540.109
433.9395, 1549.529
434.4217, 1547.844
434.9038, 1550.562
435.3859, 1555.544
435.8680, 1569.400
436.3501, 1610.283
436.8322, 1646.056
437.3144, 1652.043
437.7965, 1628.273
438.2786, 1593.089
438.7607, 1562.208
439.2428, 1533.379
439.7249, 1490.284
440.2071, 1426.592
440.6892, 1362.251
441.1713, 1302.396
441.6534, 1248.632
442.1355, 1203.002
442.6176, 1167.919
443.0998, 1140.930
443.5819, 1127.038
444.0640, 1118.213
444.5461, 1089.274
445.0282, 1031.875
445.5103, 974.0381
445.9925, 945.5264
446.4746, 949.0586
446.9567, 937.6055
447.4388, 903.9697
447.9209, 863.3359
448.4030, 817.2480
448.8852, 771.3408
449.3673, 733.8916
449.8494, 708.7129
450.3315, 693.0869
450.8136, 686.6104
451.2957, 703.3213
451.7779, 703.1689
452.2600, 663.0693
452.7421, 626.4531
453.2242, 630.1455
453.7063, 660.9375
454.1884, 672.3037
454.6706, 625.6133
455.1527, 551.4619
455.6348, 521.2217
456.1169, 542.0244
456.5990, 561.6318
457.0811, 561.3359
457.5633, 550.4648
458.0454, 540.2109
458.5275, 529.8145
459.0096, 524.6133
459.4917, 531.2178
459.9738, 541.6562
460.4560, 543.0693
460.9381, 535.3008
461.4202, 534.2090
461.9023, 556.1279
462.3844, 593.0869
462.8665, 591.0928
463.3487, 502.6133
463.8308, 437.5898
464.3129, 422.9404
464.7950, 432.1865
465.2771, 444.3877
465.7592, 452.7432
466.2414, 454.1738
466.7235, 441.8389
467.2056, 415.9580
467.6877, 404.8311
468.1698, 423.9385
468.6519, 433.5703
469.1341, 411.4561
469.6162, 373.6143
470.0983, 340.3975
470.5804, 315.4922
471.0625, 300.1611
471.5446, 306.1953
472.0268, 324.1309
472.5089, 314.8887
472.9910, 264.7695
473.4731, 212.0830
473.9552, 198.0801
474.4373, 224.4004
474.9195, 229.4619
475.4016, 206.5947
475.8837, 169.2803
476.3658, 109.2578
476.8479, 42.43750
477.3300, 4.351563
477.8121, 20.95801
478.2943, 17.66309
478.7764, 8.963867
479.2585, 8.134766
479.7406, 21.20508
480.2227, 38.73535
480.7048, 43.79688
481.1870, 18.85059
481.6691, 22.46680
482.1512, 52.04395
482.6333, 55.50488
483.1154, 45.21484
483.5975, 40.84766
484.0797, 41.89160
484.5618, 26.17676
485.0439, 24.34277
485.5260, 74.71387
486.0081, 74.73340
486.4902, 28.00391
486.9724, 9.965820
487.4545, 35.46289
487.9366, 43.41211
488.4187, 19.61523
488.9008, 25.59668
489.3829, 63.75977
489.8651, 81.02148
490.3472, 84.72168
490.8293, 91.79004
491.3114, 113.0088
491.7935, 114.9873
492.2756, 81.79492
492.7578, 46.38965
493.2399, 18.90430
493.7220, 4.108398
494.2041, 10.74609
494.6862, 51.99121
495.1683, 105.8555
495.6505, 125.3379
496.1326, 107.5195
496.6147, 92.00781
497.0968, 90.87500
497.5789, 95.91016
498.0610, 102.4316
498.5432, 110.9893
499.0253, 101.5947
499.5074, 45.84180
499.9895, 12.67383
500.4716, 28.92578
500.9537, 11.36133
501.4359, 0.9443360
501.9180, 12.77734
502.4001, 41.27734
502.8822, 57.97070
503.3643, 59.42480
503.8464, 54.24219
504.3286, 35.98926
504.8107, 17.51660
505.2928, 3.683594
505.7749, 4.054688
506.2570, 2.822266
506.7391, 13.67188
507.2213, 33.50586
507.7034, 25.66992
508.1855, 13.88965
508.6676, 35.32129
509.1497, 6.270508
509.6318, 26.56152
510.1140, 1.0742000E-02
510.5961, 85.55566
511.0782, 153.9580
511.5603, 186.2979
512.0424, 193.0527
512.5245, 169.1846
513.0067, 125.3213
513.4888, 93.68359
513.9709, 90.73438
514.4530, 103.9893
514.9351, 104.7090
515.4172, 72.71387
515.8994, 70.67578
516.3815, 134.5918
516.8636, 191.3926
517.3457, 196.7686
517.8278, 164.4395
518.3099, 133.3438
518.7921, 121.9424
519.2742, 125.1855
519.7563, 138.0342
520.2384, 160.4482
520.7205, 182.8613
521.2026, 207.5088
521.6848, 224.0117
522.1669, 210.8887
522.6490, 170.7607
523.1311, 151.2275
523.6132, 177.1289
524.0953, 209.0146
524.5775, 223.0234
525.0596, 224.1191
525.5417, 225.0977
526.0238, 231.1006
526.5059, 238.1592
526.9880, 238.2520
527.4702, 226.5684
527.9523, 226.9121
528.4344, 262.6895
528.9165, 286.6631
529.3986, 264.7002
529.8807, 223.4717
530.3629, 212.5479
530.8450, 257.5674
531.3271, 312.7920
531.8092, 323.5908
532.2913, 301.1133
532.7734, 295.9297
533.2556, 319.5000
533.7377, 351.6855
534.2198, 373.6123
534.7019, 386.0928
535.1840, 409.8701
535.6661, 460.8340
536.1483, 503.0605
536.6304, 519.6553
537.1125, 522.9824
537.5946, 524.0840
538.0767, 527.6699
538.5588, 540.6094
539.0410, 574.8232
539.5231, 627.6309
540.0052, 660.8105
540.4873, 669.4238
540.9694, 672.4346
541.4515, 662.0303
541.9337, 656.3926
542.4158, 685.8018
542.8979, 761.8018
543.3800, 823.9951
543.8621, 820.2871
544.3442, 790.5312
544.8264, 796.6426
545.3085, 841.5088
545.7906, 895.9512
546.2727, 944.5400
546.7548, 987.2217
547.2369, 1022.006
547.7191, 1039.729
548.2012, 1062.377
548.6833, 1078.231
549.1654, 1108.712
549.6475, 1176.049
550.1296, 1272.833
550.6118, 1372.442
551.0939, 1458.428
551.5760, 1534.334
552.0581, 1604.601
552.5402, 1668.713
553.0223, 1739.188
553.5045, 1821.521
553.9866, 1909.508
554.4687, 1990.562
554.9508, 2064.979
555.4329, 2161.780
555.9150, 2300.968
556.3972, 2451.143
556.8793, 2598.226
557.3614, 2740.233
557.8435, 2869.533
558.3256, 2984.633
558.8077, 3102.251
559.2899, 3244.780
559.7720, 3415.378
560.2541, 3575.490
560.7362, 3713.028
561.2183, 3860.008
561.7004, 4050.229
562.1826, 4248.885
562.6647, 4399.000
563.1468, 4479.844
563.6289, 4547.563
564.1110, 4646.469
564.5931, 4757.124
565.0753, 4844.405
565.5574, 4905.698
566.0395, 4952.620
566.5216, 4988.521
567.0037, 5013.771
567.4858, 5034.463
567.9680, 5081.086
568.4501, 5087.739
568.9322, 5049.760
569.4143, 4971.920
569.8964, 4842.785
570.3785, 4674.352
570.8607, 4506.215
571.3428, 4367.722
571.8249, 4235.941
572.3070, 4058.248
572.7891, 3833.965
573.2712, 3624.068
573.7534, 3451.269
574.2355, 3290.271
574.7176, 3111.959
575.1997, 2916.245
575.6818, 2734.850
576.1639, 2579.078
576.6461, 2424.988
577.1282, 2265.391
577.6103, 2103.523
578.0924, 1942.503
578.5745, 1784.535
579.0566, 1639.155
579.5388, 1527.905
580.0209, 1450.723
580.5030, 1370.339
580.9851, 1280.802
581.4672, 1199.664
581.9493, 1142.375
582.4314, 1094.153
582.9135, 1037.470
583.3956, 969.2451
583.8777, 902.5391
584.3599, 838.7959
584.8420, 783.0273
585.3241, 747.8857
585.8062, 728.3867
586.2883, 702.5254
586.7704, 657.7324
587.2526, 599.5557
587.7347, 538.2744
588.2168, 463.5000
588.6989, 411.4336
589.1810, 401.2754
589.6631, 396.6650
590.1453, 386.8057
590.6274, 369.9219
591.1095, 343.2607
591.5916, 303.5400
592.0737, 263.8887
592.5558, 232.8164
593.0380, 211.8594
593.5201, 212.0830
594.0022, 233.7646
594.4843, 243.1172
594.9664, 205.8965
595.4485, 129.7637
595.9307, 75.04785
596.4128, 46.33105
596.8949, 34.69141
597.3770, 61.32715
597.8591, 88.81543
598.3412, 81.66602
598.8234, 44.64648
599.3055, 11.70605
599.7876, 2.534180
600.2697, 12.92480
600.7518, 46.25586
601.2339, 100.2627
601.7161, 129.1289
602.1982, 116.0420
602.6803, 84.26758
603.1624, 56.41016
603.6445, 32.47266
604.1266, 17.85645
604.6088, 19.42285
605.0909, 21.87598
605.5730, 12.90820
606.0551, 5.379883
606.5372, 20.43652
607.0193, 58.88867
607.5015, 96.70312
607.9836, 113.6689
608.4657, 111.1094
608.9478, 86.19824
609.4299, 30.16602
609.9120, 3.921875
610.3942, 47.52539
610.8763, 116.2861
611.3584, 145.5762
611.8405, 134.9844
612.3226, 106.6494
612.8047, 35.86426
613.2869, 24.47461
613.7690, 34.92773
614.2511, 13.30859
614.7332, 7.250000
615.2153, 14.16699
615.6974, 13.90723
616.1796, 12.06543
616.6617, 8.797852
617.1438, 12.50391
617.6259, 24.08398
618.1080, 41.39746
618.5901, 76.87500
619.0723, 110.3936
619.5544, 105.3994
620.0365, 47.89844
620.5186, 8.984375
621.0007, 26.76270
621.4828, 57.36328
621.9650, 64.63672
622.4471, 52.25586
622.9292, 35.03711
623.4113, 19.52930
623.8934, 13.54199
624.3755, 39.85254
624.8577, 107.1641
625.3398, 131.2871
625.8219, 85.91211
626.3040, 36.96777
626.7861, 21.12988
627.2682, 23.24219
627.7504, 21.27148
628.2325, 10.39062
628.7146, 3.666016
629.1967, 9.718750
629.6788, 20.62012
630.1609, 29.37891
630.6431, 35.18750
631.1252, 39.89453
631.6073, 44.91797
632.0894, 45.71094
632.5715, 26.85449
633.0536, 21.24414
633.5358, 37.63184
634.0179, 8.359375
634.5000, 48.22852
634.9821, 29.21094
635.4642, 15.83105
635.9464, 30.42480
636.4285, 3.499023
636.9106, 45.18848
637.3927, 85.91699
637.8748, 117.0322
638.3569, 124.8076
638.8391, 111.4482
639.3212, 90.07910
639.8033, 67.63770
640.2854, 46.41309
640.7675, 32.77734
641.2496, 28.90039
641.7318, 22.94043
642.2139, 9.299805
642.6960, 0.1552730
643.1781, 4.755859
643.6602, 17.93164
644.1423, 26.85449
644.6245, 27.32715
645.1066, 28.61719
645.5887, 34.31543
646.0708, 44.15137
646.5529, 66.32617
647.0350, 94.94922
647.5172, 102.4590
647.9993, 70.38867
648.4814, 16.12500
648.9635, 20.08203
649.4456, 35.84473
649.9277, 44.87988
650.4099, 55.48633
650.8920, 49.56543
651.3741, 3.615234
651.8562, 77.27051
652.3383, 113.0928
652.8204, 83.43555
653.3026, 57.33496
653.7847, 73.05273
654.2668, 102.2686
654.7489, 114.1826
655.2310, 108.8594
655.7131, 101.1504
656.1953, 100.8096
656.6774, 105.3154
657.1595, 111.9707
657.6416, 122.7148
658.1237, 119.1953
658.6058, 90.23340
659.0880, 62.76953
659.5701, 58.46387
660.0522, 66.84668
660.5343, 65.54785
661.0164, 45.76660
661.4985, 32.58203
661.9807, 45.52930
662.4628, 60.41602
662.9449, 48.88379
663.4270, 18.19043
663.9091, 3.035156
664.3912, 0.4736330
664.8734, 17.33008
665.3555, 28.63184
665.8376, 34.27148
666.3197, 42.29004
666.8018, 54.36719
667.2839, 66.43457
667.7661, 79.10742
668.2482, 89.02051
668.7303, 87.16211
669.2124, 67.55078
669.6945, 51.44238
670.1766, 47.00098
670.6588, 43.48926
671.1409, 24.40137
671.6230, 0.2763670
672.1051, 1.905273
672.5872, 28.46094
673.0693, 65.48828
673.5515, 71.00391
674.0336, 51.70605
674.5157, 50.61035
674.9978, 70.31152
675.4799, 111.2734
675.9620, 189.6299
676.4442, 275.0400
676.9263, 305.8301
677.4084, 264.2773
677.8905, 217.2656
678.3726, 152.3057
678.8547, 96.63965
679.3369, 61.20117
679.8190, 44.44336
680.3011, 46.80176
680.7832, 67.91016
681.2653, 90.86523
681.7474, 103.9482
682.2296, 106.7305
682.7117, 90.94922
683.1938, 58.07812
683.6759, 41.91309
684.1580, 59.93848
684.6401, 88.92090
685.1223, 90.61035
685.6044, 54.53906
686.0865, 46.18555
686.5686, 109.4619
687.0507, 148.2656
687.5328, 112.6104
688.0150, 56.63770
688.4971, 47.36230
688.9792, 90.59668
689.4613, 120.2061
689.9434, 79.37402
690.4255, 20.02930
690.9077, 6.471680
691.3898, 24.79688
691.8719, 26.71387
692.3540, 4.995117
692.8361, 33.60059
693.3182, 16.52930
693.8004, 42.62988
694.2825, 83.86816
694.7646, 98.55176
695.2467, 107.8213
695.7288, 109.0410
696.2109, 112.6660
696.6931, 129.5098
697.1752, 157.2607
697.6573, 181.6094
698.1394, 208.5557
698.6215, 220.0781
699.1036, 193.5078
699.5858, 152.3203
700.0679, 126.9521
700.5500, 121.4443
701.0321, 124.5664
701.5142, 129.8525
701.9963, 133.8125
702.4785, 123.8945
702.9606, 98.49023
703.4427, 85.87402
703.9248, 95.82520
704.4069, 106.8223
704.8890, 101.7578
705.3712, 84.42383
705.8533, 72.87500
706.3354, 70.76660
706.8175, 66.50781
707.2996, 57.83594
707.7817, 48.67188
708.2639, 41.33008
708.7460, 36.48145
709.2281, 35.66211
709.7102, 35.41895
710.1923, 35.39355
710.6744, 38.33691
711.1566, 40.97656
711.6387, 27.08789
712.1208, 3.104492
712.6029, 11.74707
713.0850, 24.98535
713.5671, 80.63477
714.0493, 102.7812
714.5314, 80.03516
715.0135, 66.93262
715.4956, 68.74609
715.9777, 73.90332
716.4598, 81.20508
716.9420, 88.60449
717.4241, 92.14160
717.9062, 91.29590
718.3883, 95.56641
718.8704, 111.9326
719.3525, 133.3379
719.8347, 160.0723
720.3168, 184.4082
720.7989, 188.3311
721.2810, 168.5576
721.7631, 143.8896
722.2452, 133.2275
722.7274, 134.7295
723.2095, 142.6279
723.6915, 160.3506
724.1736, 164.5947
724.6558, 145.7588
725.1379, 118.0400
725.6200, 89.35938
726.1021, 61.55566
726.5842, 51.25000
727.0663, 80.23047
727.5485, 97.91504
728.0306, 74.59668
728.5127, 51.09473
728.9948, 72.06934
729.4769, 123.5039
729.9590, 153.9814
730.4412, 133.9941
730.9233, 102.7295
731.4054, 118.4072
731.8875, 155.8857
732.3696, 133.3398
732.8517, 46.65918
733.3339, 18.07812
733.8160, 9.472656
734.2981, 42.13281
734.7802, 71.44238
735.2623, 70.33594
735.7444, 77.63281
736.2266, 101.0762
736.7087, 121.8555
737.1908, 135.6621
737.6729, 141.4512
738.1550, 135.1455
738.6371, 115.4619
739.1193, 99.12207
739.6014, 95.19629
740.0835, 92.99316
740.5656, 74.85156
741.0477, 57.60547
741.5298, 79.12988
742.0120, 141.5947
742.4941, 196.6045
742.9762, 201.8867
743.4583, 170.0410
743.9404, 123.2793
744.4225, 62.70898
744.9047, 32.08301
745.3868, 44.78613
745.8689, 76.24316
746.3510, 111.0723
746.8331, 145.8330
747.3152, 157.3652
747.7974, 124.4297
748.2795, 100.6729
748.7616, 88.29883
749.2437, 85.57617
749.7258, 100.1445
750.2079, 121.0205
750.6901, 123.3203
751.1722, 98.16406
751.6543, 78.86328
752.1364, 91.92480
752.6185, 114.5264
753.1006, 119.7197
753.5828, 109.8633
754.0649, 98.78809
754.5470, 92.12500
755.0291, 85.97266
755.5112, 73.66211
755.9933, 56.49121
756.4755, 47.24121
756.9576, 47.18164
757.4397, 48.33398
757.9218, 49.06641
758.4039, 48.23047
758.8860, 42.61621
759.3682, 31.79297
759.8503, 30.99805
760.3324, 52.38379
760.8145, 65.72168
761.2966, 57.57812
761.7787, 47.11328
762.2609, 52.44629
762.7430, 69.97852
763.2251, 81.64160
763.7072, 76.70508
764.1893, 68.37695
764.6714, 66.70215
765.1536, 70.23438
765.6357, 79.54980
766.1178, 92.20312
766.5999, 96.40039
767.0820, 84.44922
767.5641, 67.82910
768.0463, 72.55957
768.5284, 99.11719
769.0105, 110.0791
769.4926, 99.97754
769.9747, 93.85156
770.4568, 108.3135
770.9390, 126.7080
771.4211, 117.9053
771.9032, 74.45020
772.3853, 64.54297
772.8674, 123.4727
773.3495, 168.0039
773.8317, 170.5176
774.3138, 158.6309
774.7959, 158.6240
775.2780, 164.3672
775.7601, 149.4502
776.2422, 90.00879
776.7244, 33.69824
777.2065, 26.07324
777.6886, 45.01367
778.1707, 57.27441
778.6528, 58.70801
779.1349, 59.67676
779.6171, 67.61035
780.0992, 81.97754
780.5813, 101.5332
781.0634, 123.3174
781.5455, 130.6680
782.0276, 121.5791
782.5098, 114.8477
782.9919, 122.0752
783.4740, 134.2188
783.9561, 130.5996
784.4382, 101.2451
784.9203, 92.99609
785.4025, 124.6748
785.8846, 157.6602
786.3667, 188.6641
786.8488, 214.8721
787.3309, 231.9883
787.8130, 241.3486
788.2952, 249.3408
788.7773, 261.9160
789.2594, 261.7080
789.7415, 223.0479
790.2236, 179.3691
790.7057, 183.3643
791.1879, 223.2363
791.6700, 241.3496
792.1521, 205.5742
792.6342, 157.1318
793.1163, 166.1123
793.5984, 217.5029
794.0806, 222.2686
794.5627, 174.5586
795.0448, 142.6885
795.5269, 158.6650
796.0090, 190.1934
796.4911, 192.5830
796.9733, 164.2119
797.4554, 146.0840
797.9375, 144.7373
798.4196, 142.3418
798.9017, 129.9297
799.3839, 119.4668
799.8660, 118.2764
800.3481, 126.1592
800.8302, 142.8213
801.3123, 181.5869
801.7944, 205.9238
802.2766, 192.1641
802.7587, 167.9893
803.2408, 153.9922
803.7229, 149.8887
804.2050, 152.3066
804.6871, 160.1064
805.1693, 162.9492
805.6514, 136.7148
806.1335, 105.6934
806.6156, 131.6055
807.0977, 199.1689
807.5798, 224.8369
808.0620, 182.8604
808.5441, 129.0166
809.0262, 120.5225
809.5083, 149.2998
809.9904, 175.8896
810.4725, 201.8135
810.9547, 214.5020
811.4368, 202.4424
811.9189, 197.0771
812.4010, 233.2148
812.8831, 290.2764
813.3652, 297.9717
813.8474, 220.2402
814.3295, 168.1533
814.8116, 166.5703
815.2937, 166.8223
815.7758, 147.5371
816.2579, 117.5264
816.7401, 84.41895
817.2222, 50.57422
817.7043, 32.62012
818.1864, 54.97559
818.6685, 79.37305
819.1506, 75.45508
819.6328, 55.35254
820.1149, 32.78223
820.5970, 13.42188
821.0791, 7.680664
821.5612, 24.83008
822.0433, 48.27539
822.5255, 50.55371
823.0076, 36.05566
823.4897, 19.66016
823.9718, 3.201172
824.4539, 3.050781
824.9360, 30.38086
825.4182, 62.19238
825.9003, 58.08105
826.3824, 14.90527
826.8645, 4.412109
827.3466, 9.369141
827.8287, 24.76660
828.3109, 38.82129
828.7930, 45.13184
829.2751, 32.06934
829.7572, 3.153320
830.2393, 13.26660
830.7214, 1.908203
831.2036, 0.6435550
831.6857, 30.17676
832.1678, 52.00684
832.6499, 20.03516
833.1320, 35.23242
833.6141, 51.74023
834.0963, 10.77734
834.5784, 33.22559
835.0605, 54.62012
835.5426, 59.61816
836.0247, 42.49609
836.5068, 18.20117
836.9890, 19.45898
837.4711, 48.23926
837.9532, 68.63672
838.4353, 49.51953
838.9174, 13.84961
839.3995, 0.4189450
839.8817, 5.305664
840.3638, 34.86621
840.8459, 87.19336
841.3280, 114.4463
841.8101, 85.98730
842.2922, 31.27832
842.7744, 3.655273
843.2565, 4.261719
843.7386, 14.13965
844.2207, 37.06152
844.7028, 59.97559
845.1849, 86.08594
845.6671, 100.8398
846.1492, 82.14746
846.6313, 32.39746
847.1134, 0.9042970
847.5955, 3.562500
848.0776, 2.915039
848.5598, 10.19531
849.0419, 19.08691
849.5240, 5.672852
850.0061, 16.77734
850.4882, 19.27441
850.9703, 7.808594
851.4525, 27.57617
851.9346, 25.02148
852.4167, 9.373047
852.8988, 26.36328
853.3809, 64.44922
853.8630, 77.12695
854.3452, 62.57617
854.8273, 42.72559
855.3094, 29.54785
855.7915, 21.50293
856.2736, 14.47949
856.7557, 11.78125
857.2379, 25.70703
857.7200, 53.73535
858.2021, 73.87695
858.6842, 75.01270
859.1663, 69.93262
859.6484, 78.28809
860.1306, 98.01855
860.6127, 113.4141
861.0948, 124.6152
861.5769, 126.8643
862.0590, 115.5781
862.5411, 109.8496
863.0233, 132.2090
863.5054, 173.2744
863.9875, 178.0703
864.4696, 119.9824
864.9517, 98.46094
865.4338, 149.0000
865.9159, 193.3867
866.3980, 184.6318
866.8801, 149.0479
867.3622, 129.3916
867.8444, 127.4160
868.3265, 129.1602
868.8086, 135.2148
869.2907, 142.9004
869.7728, 158.0869
870.2549, 169.3740
870.7371, 157.9834
871.2192, 132.8535
871.7013, 128.9658
872.1834, 168.2305
872.6655, 201.8867
873.1476, 198.5273
873.6298, 182.7393
874.1119, 175.0459
874.5940, 173.3164
875.0761, 167.4326
875.5582, 155.3818
876.0403, 148.7529
876.5225, 157.5020
877.0046, 173.3555
877.4867, 185.4990
877.9688, 195.0664
878.4509, 209.4893
878.9330, 227.7471
879.4152, 233.0244
879.8973, 213.6025
880.3794, 185.2686
880.8615, 173.6143
881.3436, 177.0645
881.8257, 188.4111
882.3079, 208.4971
882.7900, 224.8066
883.2721, 231.2656
883.7542, 236.3848
884.2363, 250.4580
884.7184, 269.2637
885.2006, 268.0430
885.6827, 241.1689
886.1648, 213.3662
886.6469, 179.6201
887.1290, 161.4746
887.6111, 176.7930
888.0933, 208.9932
888.5754, 228.5312
889.0575, 231.7188
889.5396, 234.0059
890.0217, 241.9053
890.5038, 244.4854
890.9860, 230.9951
891.4681, 215.9121
891.9502, 213.6621
892.4323, 218.7637
892.9144, 218.0498
893.3965, 204.6348
893.8787, 200.0811
894.3608, 220.2324
894.8429, 238.6953
895.3250, 230.5459
895.8071, 213.7227
896.2892, 220.8242
896.7714, 255.1455
897.2535, 284.2480
897.7356, 285.1982
898.2177, 280.1729
898.6998, 282.7275
899.1819, 289.5205
899.6641, 300.7422
900.1462, 315.5332
900.6283, 327.9512
901.1104, 334.6689
901.5925, 338.9121
902.0746, 337.5000
902.5568, 338.7441
903.0389, 360.4199
903.5210, 396.3154
904.0031, 428.8271
904.4852, 455.3184
904.9673, 478.1094
905.4495, 497.8867
905.9316, 518.0898
906.4137, 545.3975
906.8958, 578.8262
907.3779, 617.8564
907.8600, 660.9502
908.3422, 684.6904
908.8243, 678.4248
909.3064, 664.0264
909.7885, 666.9609
910.2706, 686.7988
910.7527, 721.9404
911.2349, 773.7568
911.7170, 824.3174
912.1991, 871.4189
912.6812, 914.5381
913.1633, 953.5312
913.6454, 987.4053
914.1276, 1011.435
914.6097, 1020.569
915.0918, 1055.979
915.5739, 1132.969
916.0560, 1201.562
916.5381, 1241.338
917.0203, 1278.757
917.5024, 1339.289
917.9845, 1416.997
918.4666, 1484.455
918.9487, 1531.164
919.4308, 1587.404
919.9130, 1657.124
920.3951, 1731.475
920.8772, 1797.387
921.3593, 1872.561
921.8414, 1988.924
922.3235, 2143.290
922.8057, 2266.735
923.2878, 2306.314
923.7699, 2371.331
924.2520, 2503.302
924.7341, 2654.613
925.2162, 2797.977
925.6984, 2934.490
926.1805, 3066.557
926.6626, 3193.853
927.1447, 3345.113
927.6268, 3545.982
928.1089, 3757.686
928.5911, 3957.078
929.0732, 4155.495
929.5553, 4365.451
930.0374, 4587.223
930.5195, 4816.002
931.0016, 5051.105
931.4838, 5290.670
931.9659, 5531.507
932.4480, 5778.335
932.9301, 6023.898
933.4122, 6282.857
933.8943, 6593.600
934.3765, 6949.143
934.8586, 7283.378
935.3407, 7545.026
935.8228, 7795.473
936.3049, 8113.364
936.7870, 8460.590
937.2692, 8755.150
937.7513, 9013.106
938.2334, 9310.221
938.7155, 9668.031
939.1976, 10047.15
939.6797, 10417.39
940.1619, 10778.43
940.6440, 11136.12
941.1261, 11484.26
941.6082, 11795.57
942.0903, 12068.54
942.5724, 12322.68
943.0546, 12567.54
943.5367, 12777.77
944.0188, 12915.53
944.5009, 12992.79
944.9830, 13058.33
945.4651, 13111.47
945.9473, 13145.60
946.4294, 13159.69
946.9115, 13138.74
947.3936, 13075.45
947.8757, 12961.67
948.3578, 12771.89
948.8400, 12507.84
949.3221, 12251.35
949.8042, 12007.32
950.2863, 11710.98
950.7684, 11338.32
951.2505, 10948.39
951.7327, 10590.37
952.2148, 10251.63
952.6969, 9890.165
953.1790, 9505.062
953.6611, 9113.832
954.1432, 8711.494
954.6254, 8324.541
955.1075, 7966.750
955.5896, 7608.512
956.0717, 7215.322
956.5538, 6796.164
957.0359, 6399.297
957.5181, 6018.969
958.0002, 5681.229
958.4823, 5404.048
958.9644, 5131.139
959.4465, 4830.831
959.9286, 4530.471
960.4108, 4270.911
960.8929, 4050.909
961.3750, 3829.463
961.8571, 3598.351
962.3392, 3384.194
962.8214, 3195.826
963.3035, 3020.281
963.7856, 2858.031
964.2677, 2693.493
964.7498, 2495.830
965.2319, 2255.720
965.7141, 2071.998
966.1962, 1974.244
966.6783, 1885.104
967.1604, 1814.696
967.6425, 1728.227
968.1246, 1577.046
968.6068, 1404.068
969.0889, 1306.755
969.5710, 1312.990
970.0531, 1278.441
970.5352, 1150.413
971.0173, 1036.283
971.4995, 979.0029
971.9816, 933.6045
972.4637, 856.3936
972.9458, 765.0420
973.4279, 714.8760
973.9100, 732.2754
974.3922, 716.5596
974.8743, 617.4629
975.3564, 529.1836
975.8385, 481.9404
976.3206, 460.4756
976.8027, 461.9873
977.2849, 478.4941
977.7670, 487.2148
978.2491, 485.0479
978.7312, 472.9326
979.2133, 433.6377
979.6954, 404.9248
980.1776, 417.2822
980.6597, 441.4082
981.1418, 443.5469
981.6239, 425.3232
982.1060, 410.6787
982.5881, 403.9854
983.0703, 404.5488
983.5524, 416.1924
984.0345, 430.7637
984.5166, 448.1758
984.9987, 462.8369
985.4808, 471.3145
985.9630, 471.4805
986.4451, 453.5723
986.9272, 392.9414
987.4093, 352.3760
987.8914, 371.6475
988.3735, 401.6846
988.8557, 414.5361
989.3378, 413.1553
989.8199, 406.3555
990.3020, 394.6172
990.7841, 368.7178
991.2662, 303.3740
991.7484, 256.7637
992.2305, 277.0361
992.7126, 302.3633
993.1947, 275.4121
993.6768, 224.9248
994.1589, 198.1084
994.6411, 203.9355
995.1232, 231.5430
995.6053, 310.6826
996.0874, 365.7529
996.5695, 343.5322
997.0516, 299.9043
997.5338, 271.7744
998.0159, 260.2852
998.4980, 266.3447
998.9801, 288.1738
999.4622, 298.9814
999.9443, 272.5381
1000.426, 250.9424
1000.909, 266.8037
1001.391, 285.7949
1001.873, 274.4111
1002.355, 244.2158
1002.837, 218.8457
1003.319, 203.7822
1003.801, 197.6650
1004.283, 211.6338
1004.766, 219.6172
1005.248, 207.3867
1005.730, 184.3994
1006.212, 148.8467
1006.694, 113.0576
1007.176, 105.0732
1007.658, 130.3613
1008.140, 141.9619
1008.622, 105.4453
1009.104, 68.08105
1009.587, 51.56934
1010.069, 46.65918
1010.551, 52.23047
1011.033, 60.48242
1011.515, 55.32520
1011.997, 32.99707
1012.479, 17.56152
1012.961, 18.00293
1013.444, 28.49512
1013.926, 58.62500
1014.408, 86.47266
1014.890, 87.83105
1015.372, 73.25391
1015.854, 71.27637
1016.336, 88.32227
1016.818, 87.17188
1017.300, 29.41406
1017.783, 18.11035
1018.265, 18.64453
1018.747, 2.466797
1019.229, 17.51953
1019.711, 29.61621
1020.193, 9.823242
1020.675, 47.09473
1021.157, 88.56543
1021.640, 81.90234
1022.122, 77.56543
1022.604, 106.6787
1023.086, 135.2539
1023.568, 133.8242
1024.050, 112.6543
1024.532, 91.24805
1025.014, 72.33789
1025.496, 64.17676
1025.979, 78.68066
1026.461, 90.69238
1026.943, 97.27344
1027.425, 93.14160
1027.907, 65.70117
1028.389, 27.99609
1028.871, 3.184570
1029.353, 5.660156
1029.836, 5.475586
1030.318, 12.04004
1030.800, 24.35352
1031.282, 21.97266
1031.764, 16.76953
1032.246, 23.83105
1032.728, 29.35840
1033.210, 5.097656
1033.693, 53.23340
1034.175, 92.82324
1034.657, 91.76367
1035.139, 95.74414
1035.621, 117.1104
1036.103, 140.1035
1036.585, 153.3701
1037.067, 164.5635
1037.549, 186.2812
1038.031, 219.1992
1038.514, 250.7402
1038.996, 277.9492
1039.478, 308.1436
1039.960, 350.5400
1040.442, 384.8096
1040.924, 396.3340
1041.406, 398.2773
1041.888, 405.8271
1042.371, 418.2236
1042.853, 442.9727
1043.335, 492.0039
1043.817, 530.6572
1044.299, 563.5557
1044.781, 572.5674
1045.263, 536.4209
1045.745, 489.5859
1046.228, 472.7188
1046.710, 483.8926
1047.192, 508.4111
1047.674, 558.8896
1048.156, 578.1885
1048.638, 557.7783
1049.120, 522.2656
1049.602, 473.5225
1050.084, 430.5801
1050.567, 417.1172
1051.049, 424.3066
1051.531, 407.9648
1052.013, 360.7949
1052.495, 338.2549
1052.977, 346.8340
1053.459, 359.1201
1053.941, 367.3662
1054.423, 369.1543
1054.906, 359.7510
1055.388, 346.9473
1055.870, 359.3232
1056.352, 397.0352
1056.834, 401.3174
1057.316, 369.1592
1057.798, 358.1406
1058.280, 385.5391
1058.763, 411.5479
1059.245, 405.7461
1059.727, 381.4717
1060.209, 359.5742
1060.691, 342.1982
1061.173, 347.3496
1061.655, 371.2979
1062.137, 385.8154
1062.620, 384.3193
1063.102, 363.6699
1063.584, 320.2207
1064.066, 277.1777
1064.548, 271.8613
1065.030, 290.3633
1065.512, 297.0088
1065.994, 296.4072
1066.476, 309.0615
1066.958, 332.8945
1067.441, 338.0752
1067.923, 310.4922
1068.405, 279.5088
1068.887, 278.9385
1069.369, 290.1445
1069.851, 287.6582
1070.333, 276.6191
1070.815, 267.8379
1071.298, 259.2959
1071.780, 238.4521
1072.262, 202.1240
1072.744, 169.2930
1073.226, 156.7178
1073.708, 149.3301
1074.190, 132.5195
1074.672, 115.2471
1075.155, 109.9531
1075.637, 111.0537
1076.119, 103.7920
1076.601, 88.52148
1077.083, 92.33594
1077.565, 149.7178
1078.047, 190.3789
1078.529, 157.5918
1079.011, 114.0225
1079.494, 110.8564
1079.976, 126.9375
1080.458, 130.9678
1080.940, 120.0293
1081.422, 102.4697
1081.904, 73.45020
1082.386, 55.85840
1082.868, 60.41699
1083.350, 69.05176
1083.833, 82.45605
1084.315, 87.75586
1084.797, 65.05664
1085.279, 24.18750
1085.761, 2.559570
1086.243, 6.623047
1086.725, 15.43164
1087.207, 32.32227
1087.689, 45.41406
1088.172, 53.95312
1088.654, 52.37793
1089.136, 32.19727
1089.618, 5.031250
1090.100, 6.277344
1090.582, 0.6171880
1091.064, 3.869141
1091.546, 6.468750
1092.029, 10.75195
1092.511, 17.16602
1092.993, 28.03027
1093.475, 46.34961
1093.957, 62.63965
1094.439, 62.39453
1094.921, 50.57812
1095.403, 54.83008
1095.885, 74.20410
1096.368, 81.88184
1096.850, 75.98340
1097.332, 77.08691
1097.814, 92.63867
1098.296, 95.94531
1098.778, 56.89941
1099.260, 8.531250
1099.742, 25.39355
1100.224, 80.53516
1100.707, 93.69727
1101.189, 73.56934
1101.671, 66.10156
1102.153, 79.51367
1102.635, 91.63086
1103.117, 91.12109
1103.599, 77.55176
1104.081, 35.32812
1104.564, 6.890625
1105.046, 13.23242
1105.528, 3.762695
1106.010, 18.16016
1106.492, 35.14746
1106.974, 95.65820
1107.456, 216.5225
1107.938, 284.8008
1108.421, 187.5225
1108.903, 85.77539
1109.385, 75.49219
1109.867, 94.60059
1110.349, 91.26855
1110.831, 76.06836
1111.313, 76.10254
1111.795, 94.06152
1112.277, 107.6084
1112.760, 104.6104
1113.242, 108.8076
1113.724, 140.5205
1114.206, 159.9072
1114.688, 140.3408
1115.170, 110.1992
1115.652, 94.75879
1116.134, 92.51367
1116.616, 97.46387
1117.099, 113.6436
1117.581, 124.1670
1118.063, 130.0693
1118.545, 124.6455
1119.027, 98.22559
1119.509, 88.24121
1119.991, 126.9209
1120.473, 181.4336
1120.956, 188.1406
1121.438, 152.2988
1121.920, 125.8506
1122.402, 109.0088
1122.884, 104.5254
1123.366, 111.6338
1123.848, 130.1602
1124.330, 161.8301
1124.813, 183.1992
1125.295, 165.5156
1125.777, 131.8916
1126.259, 120.0479
1126.741, 125.8896
1127.223, 152.0781
1127.705, 191.0547
1128.187, 228.5537
1128.669, 257.5430
1129.151, 264.6689
1129.634, 242.0303
1130.116, 200.7061
1130.598, 126.5146
1131.080, 61.66797
1131.562, 44.41309
1132.044, 57.69531
1132.526, 96.98047
1133.008, 143.1270
1133.491, 148.6201
1133.973, 98.17090
1134.455, 60.23145
1134.937, 58.89648
1135.419, 67.89941
1135.901, 84.32520
1136.383, 102.0527
1136.865, 118.7480
1137.348, 133.9307
1137.830, 150.6670
1138.312, 166.5908
1138.794, 158.5928
1139.276, 109.5537
1139.758, 86.09766
1140.240, 102.5889
1140.722, 104.6328
1141.204, 69.02539
1141.687, 36.41309
1142.169, 40.44922
1142.651, 67.23730
1143.133, 90.76660
1143.615, 110.2080
1144.097, 118.6914
1144.579, 116.4502
1145.061, 96.88867
1145.543, 62.70020
1146.026, 52.82812
1146.508, 84.20312
1146.990, 117.1836
1147.472, 109.3799
1147.954, 84.90430
1148.436, 81.78125
1148.918, 85.79785
1149.400, 68.01758
1149.883, 38.82520
1150.365, 29.14648
1150.847, 41.57715
1151.329, 53.34375
1151.811, 54.46289
1152.293, 53.15332
1152.775, 50.64062
1153.257, 50.78906
1153.740, 54.67090
1154.222, 63.18945
1154.704, 89.08887
1155.186, 116.9736
1155.668, 101.3135
1156.150, 27.17676
1156.632, 10.20508
1157.114, 107.9668
1157.596, 156.8047
1158.078, 121.6201
1158.561, 71.98828
1159.043, 22.75684
1159.525, 2.176758
1160.007, 51.66504
1160.489, 139.7314
1160.971, 152.0869
1161.453, 88.43945
1161.935, 57.36035
1162.418, 58.90918
1162.900, 66.59863
1163.382, 75.52734
1163.864, 83.37598
1164.346, 89.24902
1164.828, 90.97559
1165.310, 81.38477
1165.792, 70.14941
1166.275, 75.01660
1166.757, 88.47363
1167.239, 98.47266
1167.721, 105.2734
1168.203, 116.4062
1168.685, 130.7842
1169.167, 131.4658
1169.649, 108.8389
1170.131, 75.66699
1170.614, 16.29883
1171.096, 25.56543
1171.578, 10.83984
1172.060, 21.17383
1172.542, 35.15820
1173.024, 34.47559
1173.506, 31.61816
1173.988, 26.37988
1174.470, 26.13379
1174.953, 32.92578
1175.435, 40.37012
1175.917, 49.40039
1176.399, 53.70215
1176.881, 48.65820
1177.363, 44.75977
1177.845, 54.06250
1178.327, 69.02637
1178.810, 71.87402
1179.292, 62.42676
1179.774, 28.14551
1180.256, 21.67578
1180.738, 25.07324
1181.220, 20.07324
1181.702, 51.10352
1182.184, 38.70020
1182.667, 12.40137
1183.149, 10.73047
1183.631, 21.12305
1184.113, 3.573242
1184.595, 33.08398
1185.077, 24.25293
1185.559, 2.079102
1186.041, 8.492188
1186.523, 8.919922
1187.005, 38.00977
1187.488, 89.04980
1187.970, 113.5146
1188.452, 81.43652
1188.934, 49.64453
1189.416, 27.91016
1189.898, 18.96875
1190.380, 30.45605
1190.862, 48.95117
1191.345, 52.90430
1191.827, 44.31055
1192.309, 42.08887
1192.791, 47.15723
1193.273, 44.77539
1193.755, 34.00098
1194.237, 19.10742
1194.719, 1.712891
1195.202, 1.315430
1195.684, 23.58301
1196.166, 55.92773
1196.648, 68.72168
1197.130, 71.58398
1197.612, 82.54102
1198.094, 92.70898
1198.576, 83.18457
1199.058, 59.95703
1199.541, 44.72070
1200.023, 42.20996
1200.505, 38.38281
1200.987, 24.54297
1201.469, 14.50879
1201.951, 7.149414
1202.433, 11.72949
1202.915, 52.57617
1203.397, 87.49609
1203.880, 74.40430
1204.362, 36.03418
1204.844, 21.01172
1205.326, 29.81836
1205.808, 22.93555
1206.290, 4.052734
1206.772, 12.15039
1207.254, 3.675781
1207.737, 19.01953
1208.219, 25.54688
1208.701, 29.55566
1209.183, 36.24121
1209.665, 42.82910
1210.147, 39.20703
1210.629, 33.07129
1211.111, 39.71289
1211.594, 53.24609
1212.076, 61.80273
1212.558, 67.36816
1213.040, 82.75195
1213.522, 109.4414
1214.004, 120.2178
1214.486, 89.68555
1214.968, 64.96875
1215.450, 64.66895
1215.932, 68.74316
1216.415, 69.59277
1216.897, 68.85254
1217.379, 64.65527
1217.861, 62.59961
1218.343, 77.43848
1218.825, 109.1416
1219.307, 118.1855
1219.789, 106.5293
1220.271, 106.8115
1220.754, 122.5215
1221.236, 122.1621
1221.718, 96.00000
1222.200, 83.03418
1222.682, 115.2422
1223.164, 164.1719
1223.646, 208.4502
1224.128, 230.7041
1224.611, 182.2852
1225.093, 109.7402
1225.575, 92.97266
1226.057, 117.8311
1226.539, 122.1162
1227.021, 96.82812
1227.503, 76.38477
1227.985, 76.50293
1228.468, 70.79492
1228.950, 37.91699
1229.432, 25.33008
1229.914, 64.49121
1230.396, 99.67285
1230.878, 86.88184
1231.360, 54.49023
1231.842, 54.20215
1232.324, 78.75293
1232.807, 81.23145
1233.289, 64.17676
1233.771, 54.75977
1234.253, 53.97461
1234.735, 48.37500
1235.217, 39.02051
1235.699, 58.38086
1236.181, 130.5723
1236.663, 187.3398
1237.146, 153.8213
1237.628, 99.13281
1238.110, 65.22754
1238.592, 46.14453
1239.074, 45.39551
1239.556, 49.04297
1240.038, 27.42090
1240.520, 15.63867
1241.003, 27.08984
1241.485, 3.515625
1241.967, 41.97559
1242.449, 98.04980
1242.931, 130.3076
1243.413, 126.1465
1243.895, 120.1611
1244.377, 131.4092
1244.859, 138.4307
1245.342, 113.0078
1245.824, 76.30566
1246.306, 77.09082
1246.788, 98.28613
1247.270, 106.1465
1247.752, 101.3115
1248.234, 84.11719
1248.716, 61.63184
1249.198, 49.84180
1249.681, 53.94238
1250.163, 55.14648
1250.645, 42.33594
1251.127, 29.93164
1251.609, 13.48047
1252.091, 11.39551
1252.573, 47.95215
1253.055, 81.10059
1253.538, 72.56543
1254.020, 26.45020
1254.502, 18.50391
1254.984, 33.55078
1255.466, 24.18555
1255.948, 5.520508
1256.430, 1.682617
1256.912, 43.80176
1257.395, 65.40137
1257.877, 54.12598
1258.359, 49.43555
1258.841, 78.17773
1259.323, 97.04492
1259.805, 57.20312
1260.287, 22.92383
1260.769, 42.10938
1261.251, 75.87598
1261.734, 77.12793
1262.216, 77.64160
1262.698, 73.64160
1263.180, 65.04199
1263.662, 46.05664
1264.144, 13.27539
1264.626, 0.1464840
1265.108, 7.012695
1265.590, 13.97363
1266.073, 8.740234
1266.555, 0.0000000E+00
##END=



