##NAMES=Studenitsite
##RRUFFID=R070687
##IDEAL CHEMISTRY=NaCa_2_B_9_O_14_(OH)_4_&#183;2H_2_O
##LOCALITY=Pobrdzhsky Potok & Peskanya deposits,  Balevats,  Jarandol Basin, Serbia and Montenegro
##OWNER=RRUFF
##SOURCE=Michael Scott
##DESCRIPTION=Colorless crystal in capsule
##STATUS=The identification of this mineral is not yet confirmed.
##URL=rruff.info/R070687
151.3808, 0.0000000E+00
151.8629, 3.713867
152.3450, 4.545898
152.8271, 2.029297
153.3092, 2.863770
153.7914, 9.030762
154.2735, 19.09229
154.7556, 47.53613
155.2377, 73.05371
155.7198, 70.50928
156.2019, 44.21143
156.6841, 24.37354
157.1662, 23.41504
157.6483, 32.54932
158.1304, 57.44482
158.6125, 46.15820
159.0946, 27.76025
159.5768, 23.06592
160.0589, 31.47998
160.5410, 37.62939
161.0231, 35.21045
161.5052, 29.00146
161.9873, 23.70264
162.4695, 25.87988
162.9516, 25.12988
163.4337, 13.08838
163.9158, 13.01709
164.3979, 32.93945
164.8800, 35.04150
165.3622, 25.37500
165.8443, 13.62061
166.3264, 2.683105
166.8085, 8.063965
167.2906, 20.00537
167.7727, 35.04932
168.2549, 46.70117
168.7370, 47.78955
169.2191, 41.56738
169.7012, 37.42969
170.1833, 40.05029
170.6654, 47.68262
171.1476, 59.28320
171.6297, 79.10010
172.1118, 97.41504
172.5939, 107.2734
173.0760, 108.6431
173.5581, 102.2388
174.0403, 77.58496
174.5224, 46.66699
175.0045, 28.98975
175.4866, 39.46436
175.9687, 63.32324
176.4508, 85.72168
176.9330, 106.8198
177.4151, 124.7661
177.8972, 136.0454
178.3793, 142.7388
178.8614, 150.3071
179.3435, 168.1445
179.8257, 187.1138
180.3078, 186.6743
180.7899, 160.8003
181.2720, 133.8042
181.7541, 141.6147
182.2362, 178.0049
182.7184, 208.2070
183.2005, 204.4702
183.6826, 178.3691
184.1647, 161.6826
184.6468, 160.9839
185.1289, 168.7607
185.6111, 176.5459
186.0932, 184.2412
186.5753, 185.2451
187.0574, 169.9395
187.5395, 142.0264
188.0216, 117.8203
188.5037, 99.88135
188.9859, 88.98828
189.4680, 89.56250
189.9501, 102.3218
190.4322, 118.5278
190.9143, 129.0938
191.3964, 134.4365
191.8786, 141.2993
192.3607, 154.7227
192.8428, 171.6982
193.3249, 176.4053
193.8070, 166.5566
194.2891, 152.1104
194.7713, 148.6611
195.2534, 156.8574
195.7355, 158.9780
196.2176, 141.3330
196.6997, 105.8247
197.1818, 87.84424
197.6640, 91.47754
198.1461, 106.8198
198.6282, 114.6523
199.1103, 113.0522
199.5924, 117.2534
200.0745, 139.1108
200.5567, 179.5659
201.0388, 213.2988
201.5209, 236.8071
202.0030, 253.4658
202.4851, 275.0171
202.9672, 304.5083
203.4494, 326.8853
203.9315, 326.2954
204.4136, 297.4229
204.8957, 281.2432
205.3778, 283.3345
205.8599, 302.2114
206.3421, 335.9404
206.8242, 393.1235
207.3063, 445.2549
207.7884, 463.0059
208.2705, 437.3638
208.7526, 415.8320
209.2348, 405.2012
209.7169, 406.5107
210.1990, 420.3335
210.6811, 449.8057
211.1632, 486.9526
211.6453, 526.8818
212.1275, 575.2505
212.6096, 608.6685
213.0917, 615.4932
213.5738, 592.0566
214.0559, 583.2295
214.5380, 589.5142
215.0202, 609.7056
215.5023, 646.7461
215.9844, 711.6416
216.4665, 766.3770
216.9486, 793.4844
217.4307, 784.9258
217.9129, 786.6143
218.3950, 803.4570
218.8771, 827.1426
219.3592, 839.1548
219.8413, 832.6333
220.3234, 827.3438
220.8056, 833.2173
221.2877, 856.0566
221.7698, 873.2305
222.2519, 883.0864
222.7340, 887.8213
223.2161, 891.8677
223.6983, 892.9717
224.1804, 896.2329
224.6625, 905.4761
225.1446, 925.7378
225.6267, 939.1538
226.1088, 943.0894
226.5910, 938.7227
227.0731, 931.7334
227.5552, 914.5586
228.0373, 904.5474
228.5194, 919.4546
229.0015, 983.3521
229.4836, 1018.768
229.9658, 1007.353
230.4479, 951.9634
230.9300, 909.0059
231.4121, 881.1509
231.8942, 862.9009
232.3763, 849.6118
232.8585, 839.8267
233.3406, 838.6108
233.8227, 851.0342
234.3048, 878.5317
234.7869, 892.7812
235.2690, 886.2705
235.7512, 873.2710
236.2333, 870.6475
236.7154, 887.2178
237.1975, 898.5322
237.6796, 897.2324
238.1617, 880.6016
238.6439, 869.3428
239.1260, 864.6094
239.6081, 864.4722
240.0902, 866.0107
240.5723, 867.2686
241.0544, 873.5308
241.5366, 887.0923
242.0187, 909.8687
242.5008, 932.0967
242.9829, 951.2290
243.4650, 971.0298
243.9471, 997.9653
244.4293, 1031.950
244.9114, 1073.292
245.3935, 1124.880
245.8756, 1197.121
246.3577, 1248.723
246.8398, 1267.815
247.3220, 1270.467
247.8041, 1293.254
248.2862, 1345.693
248.7683, 1404.175
249.2504, 1457.762
249.7325, 1504.252
250.2147, 1553.775
250.6968, 1610.202
251.1789, 1668.496
251.6610, 1714.267
252.1431, 1736.866
252.6252, 1763.170
253.1074, 1809.789
253.5895, 1893.465
254.0716, 1958.276
254.5537, 1990.620
255.0358, 2001.707
255.5179, 2038.815
256.0001, 2117.452
256.4822, 2200.940
256.9643, 2269.006
257.4464, 2316.467
257.9285, 2357.434
258.4106, 2388.252
258.8928, 2413.499
259.3749, 2457.007
259.8570, 2528.928
260.3391, 2603.388
260.8212, 2660.276
261.3033, 2690.670
261.7855, 2729.979
262.2676, 2793.696
262.7497, 2872.113
263.2318, 2902.115
263.7139, 2866.912
264.1960, 2810.389
264.6782, 2764.652
265.1603, 2733.657
265.6424, 2702.266
266.1245, 2668.204
266.6066, 2631.875
267.0887, 2593.707
267.5709, 2555.324
268.0530, 2513.002
268.5351, 2466.716
269.0172, 2420.487
269.4993, 2354.325
269.9814, 2258.187
270.4636, 2135.302
270.9457, 2033.088
271.4278, 1962.286
271.9099, 1890.710
272.3920, 1780.490
272.8741, 1619.336
273.3563, 1477.134
273.8384, 1371.874
274.3205, 1300.471
274.8026, 1231.174
275.2847, 1162.652
275.7668, 1099.541
276.2490, 1046.890
276.7311, 1004.512
277.2132, 973.9360
277.6953, 959.4683
278.1774, 958.7129
278.6595, 948.4883
279.1417, 923.5708
279.6238, 903.6294
280.1059, 911.1992
280.5880, 947.6245
281.0701, 996.4233
281.5522, 1055.930
282.0344, 1124.581
282.5165, 1189.998
282.9986, 1251.947
283.4807, 1311.853
283.9628, 1378.082
284.4449, 1451.039
284.9271, 1501.195
285.4092, 1512.822
285.8913, 1492.454
286.3734, 1476.837
286.8555, 1468.636
287.3376, 1453.348
287.8198, 1407.210
288.3019, 1332.107
288.7840, 1262.704
289.2661, 1217.565
289.7482, 1188.627
290.2303, 1141.763
290.7124, 1076.453
291.1945, 998.6514
291.6767, 904.7544
292.1588, 798.8350
292.6409, 710.1201
293.1230, 661.2974
293.6051, 637.6812
294.0872, 597.4429
294.5694, 538.7388
295.0515, 475.3306
295.5336, 417.8037
296.0157, 366.3101
296.4978, 322.8154
296.9799, 289.8354
297.4621, 264.5112
297.9442, 242.7734
298.4263, 224.7212
298.9084, 208.4937
299.3905, 195.1729
299.8727, 182.2725
300.3548, 163.2886
300.8369, 129.4351
301.3190, 92.38477
301.8011, 66.36523
302.2832, 49.57764
302.7654, 38.51904
303.2475, 31.50391
303.7296, 30.47168
304.2117, 33.62598
304.6938, 39.42480
305.1759, 43.80566
305.6581, 46.41260
306.1402, 48.13818
306.6223, 41.13574
307.1044, 8.675293
307.5865, 34.94727
308.0686, 65.28174
308.5508, 67.27344
309.0329, 57.27002
309.5150, 45.17236
309.9971, 30.36914
310.4792, 20.12793
310.9613, 27.13574
311.4435, 41.04492
311.9256, 47.04883
312.4077, 28.07617
312.8898, 7.359863
313.3719, 2.283691
313.8540, 13.11914
314.3362, 21.09180
314.8183, 16.39697
315.3004, 5.937988
315.7825, 3.331055
316.2646, 7.168457
316.7467, 13.33789
317.2289, 24.18359
317.7110, 38.89600
318.1931, 54.62793
318.6752, 70.21289
319.1573, 87.73828
319.6394, 108.6973
320.1216, 143.0938
320.6037, 170.6221
321.0858, 181.6455
321.5679, 176.3999
322.0500, 171.7432
322.5321, 165.1719
323.0143, 164.2686
323.4964, 175.1318
323.9785, 211.3647
324.4606, 246.6963
324.9427, 276.0913
325.4248, 299.6260
325.9070, 321.1553
326.3891, 335.5615
326.8712, 351.3462
327.3533, 374.3052
327.8354, 414.9292
328.3175, 451.1538
328.7997, 480.2476
329.2818, 502.3994
329.7639, 522.7710
330.2460, 549.4272
330.7281, 568.0801
331.2102, 568.4829
331.6924, 532.5645
332.1745, 506.8174
332.6566, 494.9912
333.1387, 496.4390
333.6208, 508.1836
334.1029, 537.7021
334.5851, 567.8345
335.0672, 587.5020
335.5493, 591.8564
336.0314, 597.3159
336.5135, 604.2905
336.9956, 613.3086
337.4778, 628.9971
337.9599, 657.2056
338.4420, 679.0625
338.9241, 680.7686
339.4062, 657.5493
339.8883, 639.6299
340.3705, 630.1631
340.8526, 626.5391
341.3347, 621.6851
341.8168, 615.1035
342.2989, 609.8994
342.7810, 610.9805
343.2632, 618.3452
343.7453, 615.2559
344.2274, 599.6216
344.7095, 574.8350
345.1916, 542.4922
345.6737, 502.3081
346.1559, 467.7544
346.6380, 449.1660
347.1201, 442.9219
347.6022, 431.8643
348.0843, 415.2612
348.5664, 392.6836
349.0486, 356.2627
349.5307, 309.3618
350.0128, 273.1353
350.4949, 265.9526
350.9770, 274.6978
351.4591, 273.0615
351.9413, 259.6987
352.4234, 238.0376
352.9055, 204.4893
353.3876, 164.6836
353.8697, 133.8604
354.3518, 127.6226
354.8340, 128.9258
355.3161, 114.7847
355.7982, 83.74463
356.2803, 56.70947
356.7624, 58.29932
357.2445, 72.56104
357.7267, 74.94141
358.2088, 34.62451
358.6909, 4.960938
359.1730, 4.712402
359.6551, 34.36670
360.1372, 60.34717
360.6194, 25.64111
361.1015, 27.77441
361.5836, 57.41357
362.0657, 24.18652
362.5478, 10.90088
363.0299, 26.26660
363.5121, 22.96484
363.9942, 13.09863
364.4763, 9.502441
364.9584, 31.70557
365.4405, 45.12207
365.9226, 34.41113
366.4048, 29.52051
366.8869, 40.10889
367.3690, 61.98730
367.8511, 74.69775
368.3332, 69.22949
368.8153, 60.13721
369.2975, 54.24316
369.7796, 50.49170
370.2617, 50.01123
370.7438, 60.41113
371.2259, 74.35889
371.7080, 68.29590
372.1901, 20.46729
372.6722, 19.61377
373.1544, 28.76221
373.6365, 11.68311
374.1186, 31.65479
374.6007, 22.68018
375.0828, 2.8320000E-02
375.5649, 6.872070
376.0471, 7.998047
376.5292, 22.41895
377.0113, 28.95996
377.4934, 27.55908
377.9755, 19.71240
378.4576, 3.782715
378.9398, 15.11670
379.4219, 28.66650
379.9040, 36.20703
380.3861, 49.99365
380.8682, 80.84277
381.3503, 121.8413
381.8325, 138.6978
382.3146, 128.8042
382.7967, 111.7031
383.2788, 103.7681
383.7609, 104.6914
384.2430, 114.3110
384.7252, 138.7261
385.2073, 167.2480
385.6894, 178.2881
386.1715, 173.1367
386.6536, 164.7500
387.1357, 163.3730
387.6179, 165.6489
388.1000, 165.4199
388.5821, 159.5962
389.0642, 153.7104
389.5463, 154.1270
390.0284, 159.4258
390.5106, 164.3467
390.9927, 162.2896
391.4748, 160.5513
391.9569, 165.1475
392.4390, 166.9238
392.9211, 191.0132
393.4033, 209.2412
393.8854, 221.9165
394.3675, 212.4829
394.8496, 231.5513
395.3317, 239.1685
395.8138, 246.2979
396.2960, 269.3228
396.7781, 263.0015
397.2602, 285.7329
397.7423, 296.8398
398.2244, 313.2388
398.7065, 318.1182
399.1887, 326.5327
399.6708, 346.7266
400.1529, 399.3848
400.6350, 436.4917
401.1171, 447.0405
401.5992, 450.1387
402.0814, 461.8960
402.5635, 488.2637
403.0456, 512.4492
403.5277, 530.8608
404.0098, 544.7837
404.4919, 564.1211
404.9741, 592.2227
405.4562, 619.6201
405.9383, 639.8867
406.4204, 653.2104
406.9025, 659.2217
407.3846, 654.6729
407.8668, 646.1333
408.3489, 647.8784
408.8310, 659.9194
409.3131, 681.9390
409.7952, 719.4766
410.2773, 769.2852
410.7595, 806.5352
411.2416, 827.2563
411.7237, 846.0508
412.2058, 883.7437
412.6879, 936.8735
413.1700, 991.6294
413.6522, 1042.165
414.1343, 1089.002
414.6164, 1134.160
415.0985, 1177.979
415.5806, 1219.652
416.0627, 1254.515
416.5449, 1285.894
417.0270, 1323.706
417.5091, 1379.116
417.9912, 1436.587
418.4733, 1487.238
418.9554, 1528.562
419.4376, 1561.861
419.9197, 1590.822
420.4018, 1615.696
420.8839, 1634.127
421.3660, 1639.986
421.8481, 1646.258
422.3303, 1661.514
422.8124, 1679.766
423.2945, 1685.466
423.7766, 1673.476
424.2587, 1652.542
424.7408, 1625.066
425.2230, 1590.967
425.7051, 1547.977
426.1872, 1484.435
426.6693, 1418.071
427.1514, 1375.344
427.6335, 1380.877
428.1157, 1369.768
428.5978, 1321.140
429.0799, 1233.779
429.5620, 1152.391
430.0441, 1079.042
430.5262, 1017.018
431.0084, 971.0317
431.4905, 941.0591
431.9726, 910.5752
432.4547, 878.9448
432.9368, 847.0229
433.4189, 810.8662
433.9011, 768.7490
434.3832, 731.3384
434.8653, 712.2212
435.3474, 706.5347
435.8295, 690.2383
436.3116, 659.4741
436.7938, 621.1167
437.2759, 578.5864
437.7580, 534.3774
438.2401, 499.1108
438.7222, 481.2642
439.2043, 473.8984
439.6865, 470.6167
440.1686, 471.3892
440.6507, 471.4185
441.1328, 469.8027
441.6149, 464.6719
442.0970, 453.5049
442.5792, 423.8628
443.0613, 398.1992
443.5434, 390.1479
444.0255, 398.0381
444.5076, 404.7744
444.9897, 410.3789
445.4719, 409.3545
445.9540, 397.2705
446.4361, 345.0679
446.9182, 319.5854
447.4003, 345.7158
447.8824, 403.9849
448.3646, 441.4380
448.8467, 442.6138
449.3288, 440.8789
449.8109, 448.4863
450.2930, 469.8525
450.7751, 482.5356
451.2573, 482.9463
451.7394, 479.0464
452.2215, 479.1606
452.7036, 481.7822
453.1857, 495.4673
453.6678, 524.7466
454.1500, 566.8604
454.6320, 609.0991
455.1142, 653.0078
455.5963, 687.6309
456.0784, 695.2720
456.5605, 682.2100
457.0426, 684.1260
457.5247, 714.3623
458.0069, 747.9858
458.4890, 746.9590
458.9711, 716.6421
459.4532, 680.5713
459.9353, 648.8940
460.4174, 620.8604
460.8996, 597.2476
461.3817, 578.7969
461.8638, 559.5728
462.3459, 531.8345
462.8280, 501.5684
463.3102, 477.5459
463.7923, 473.7910
464.2744, 466.9077
464.7565, 441.7583
465.2386, 400.2642
465.7207, 367.3960
466.2029, 353.2397
466.6850, 347.7251
467.1671, 344.5020
467.6492, 344.1973
468.1313, 345.0957
468.6134, 351.9492
469.0956, 359.7500
469.5777, 353.9438
470.0598, 322.6938
470.5419, 296.7344
471.0240, 288.0625
471.5061, 298.7524
471.9883, 311.0630
472.4704, 325.7354
472.9525, 340.3618
473.4346, 351.0767
473.9167, 357.5874
474.3988, 365.7124
474.8810, 378.4805
475.3631, 393.0322
475.8452, 397.4883
476.3273, 391.6714
476.8094, 392.3335
477.2915, 419.5630
477.7737, 463.5283
478.2558, 504.0439
478.7379, 540.1445
479.2200, 566.7212
479.7021, 563.4097
480.1842, 545.5586
480.6664, 548.3252
481.1485, 607.6948
481.6306, 679.8354
482.1127, 732.8608
482.5948, 763.0688
483.0769, 796.8018
483.5591, 854.2495
484.0412, 914.7690
484.5233, 960.1265
485.0054, 954.8105
485.4875, 967.1797
485.9696, 1020.708
486.4518, 1105.732
486.9339, 1171.206
487.4160, 1196.572
487.8981, 1224.822
488.3802, 1274.556
488.8623, 1353.661
489.3445, 1431.312
489.8266, 1512.791
490.3087, 1588.077
490.7908, 1635.765
491.2729, 1650.173
491.7550, 1678.950
492.2372, 1741.684
492.7193, 1828.967
493.2014, 1901.052
493.6835, 1958.649
494.1656, 2006.788
494.6477, 2046.246
495.1299, 2079.646
495.6120, 2112.861
496.0941, 2143.614
496.5762, 2183.459
497.0583, 2262.181
497.5404, 2362.074
498.0226, 2436.132
498.5047, 2450.079
498.9868, 2438.660
499.4689, 2418.727
499.9510, 2390.474
500.4331, 2378.539
500.9153, 2415.763
501.3974, 2462.442
501.8795, 2483.945
502.3616, 2450.829
502.8437, 2417.706
503.3258, 2394.743
503.8080, 2378.585
504.2901, 2355.545
504.7722, 2329.548
505.2543, 2292.281
505.7364, 2238.490
506.2185, 2163.702
506.7007, 2092.441
507.1828, 2022.614
507.6649, 1958.171
508.1470, 1910.894
508.6291, 1883.589
509.1112, 1833.711
509.5934, 1738.386
510.0755, 1618.701
510.5576, 1537.602
511.0397, 1493.974
511.5218, 1452.148
512.0039, 1381.767
512.4860, 1296.243
512.9681, 1220.756
513.4503, 1160.768
513.9324, 1102.924
514.4145, 1028.206
514.8966, 948.4551
515.3787, 885.0312
515.8608, 862.1870
516.3430, 844.9585
516.8251, 816.0522
517.3072, 775.4121
517.7893, 732.8770
518.2714, 690.3779
518.7535, 647.6001
519.2357, 604.4443
519.7178, 566.0869
520.1999, 519.3228
520.6820, 454.8770
521.1641, 385.4106
521.6462, 338.5757
522.1284, 323.3076
522.6105, 311.4785
523.0926, 295.1108
523.5747, 274.4546
524.0568, 251.4609
524.5389, 225.7495
525.0211, 199.8438
525.5032, 176.6665
525.9853, 155.5303
526.4674, 133.5254
526.9495, 107.4409
527.4316, 85.97070
527.9138, 89.48779
528.3959, 110.9116
528.8780, 123.8823
529.3601, 104.6855
529.8422, 75.80420
530.3243, 60.76758
530.8065, 61.59473
531.2886, 59.30664
531.7707, 39.78027
532.2528, 14.16748
532.7349, 7.631836
533.2170, 33.41699
533.6992, 43.22314
534.1813, 17.23096
534.6634, 30.37646
535.1455, 51.16113
535.6276, 23.72656
536.1097, 6.052734
536.5919, 22.10010
537.0740, 21.83057
537.5561, 26.14648
538.0382, 36.02100
538.5203, 48.70312
539.0024, 63.72119
539.4846, 81.50049
539.9667, 91.86768
540.4488, 91.35986
540.9309, 84.39258
541.4130, 81.95410
541.8951, 82.92139
542.3773, 77.22900
542.8594, 51.34131
543.3415, 18.00195
543.8236, 3.983398
544.3057, 13.01562
544.7878, 15.85596
545.2700, 13.81689
545.7521, 9.495605
546.2342, 5.798828
546.7163, 0.6962890
547.1984, 1.742188
547.6805, 9.217285
548.1627, 28.51416
548.6448, 43.73438
549.1269, 48.03809
549.6090, 52.66846
550.0911, 63.21143
550.5732, 83.21729
551.0554, 91.76562
551.5375, 83.12451
552.0196, 70.27100
552.5017, 67.87598
552.9838, 78.54688
553.4659, 82.38037
553.9481, 73.86035
554.4302, 58.89062
554.9123, 51.79883
555.3944, 52.16992
555.8765, 52.36719
556.3586, 45.35107
556.8408, 36.02441
557.3229, 33.04785
557.8050, 36.87842
558.2871, 45.41455
558.7692, 68.11963
559.2513, 90.88135
559.7335, 94.33154
560.2156, 50.46777
560.6977, 16.06152
561.1798, 23.46924
561.6619, 58.02832
562.1440, 80.11572
562.6262, 75.59619
563.1083, 64.42285
563.5904, 49.88672
564.0725, 29.65967
564.5546, 17.95801
565.0367, 17.21973
565.5189, 22.15234
566.0010, 30.22217
566.4831, 43.78564
566.9652, 49.94482
567.4473, 42.57861
567.9294, 29.70166
568.4116, 25.51855
568.8937, 30.88477
569.3758, 41.37207
569.8579, 59.39404
570.3400, 78.16260
570.8221, 88.23340
571.3043, 90.02197
571.7864, 83.55127
572.2685, 59.75830
572.7506, 32.23340
573.2327, 15.92969
573.7148, 18.59033
574.1970, 23.70557
574.6791, 25.87744
575.1612, 26.46387
575.6433, 28.12646
576.1254, 33.64990
576.6075, 36.83740
577.0897, 31.97021
577.5718, 20.81689
578.0539, 19.62109
578.5360, 35.25391
579.0181, 52.02441
579.5002, 53.79395
579.9824, 38.67773
580.4645, 41.09326
580.9466, 68.87012
581.4287, 98.85986
581.9108, 88.64893
582.3929, 48.84180
582.8751, 29.17969
583.3572, 63.13232
583.8393, 111.0063
584.3214, 118.2524
584.8035, 93.20020
585.2856, 74.50195
585.7678, 96.37891
586.2499, 124.1348
586.7320, 128.3398
587.2141, 97.92480
587.6962, 76.97168
588.1783, 86.31934
588.6605, 106.0122
589.1426, 115.0254
589.6247, 103.3540
590.1068, 95.74609
590.5889, 94.61963
591.0710, 98.60840
591.5532, 107.8174
592.0353, 127.1655
592.5174, 139.8076
592.9995, 132.5566
593.4816, 109.7100
593.9637, 105.4351
594.4459, 120.3413
594.9280, 140.1387
595.4101, 158.6284
595.8922, 170.7954
596.3743, 161.9419
596.8564, 118.3965
597.3386, 79.27002
597.8207, 90.11426
598.3028, 127.6538
598.7849, 147.5557
599.2670, 109.0054
599.7491, 73.16602
600.2313, 68.60547
600.7134, 95.54297
601.1955, 114.9082
601.6776, 120.2437
602.1597, 118.7622
602.6418, 112.8481
603.1240, 99.92334
603.6061, 94.49854
604.0882, 97.77588
604.5703, 88.88379
605.0524, 103.2910
605.5345, 108.2812
606.0167, 104.3003
606.4988, 62.98340
606.9809, 71.06396
607.4630, 60.03320
607.9451, 48.71729
608.4272, 65.21436
608.9094, 31.98047
609.3915, 49.11621
609.8736, 46.87793
610.3557, 54.27441
610.8378, 42.48486
611.3199, 37.31641
611.8021, 52.39893
612.2842, 57.09326
612.7663, 45.15381
613.2484, 56.31006
613.7305, 27.68066
614.2126, 34.95850
614.6948, 58.02930
615.1769, 49.72949
615.6590, 37.14648
616.1411, 51.53125
616.6232, 77.25928
617.1053, 85.35107
617.5875, 74.98975
618.0696, 62.13965
618.5517, 61.41455
619.0338, 65.71680
619.5159, 55.76514
619.9980, 28.43555
620.4802, 4.618652
620.9623, 3.500977
621.4444, 14.94043
621.9265, 26.17383
622.4086, 39.33691
622.8907, 44.16553
623.3729, 29.26270
623.8550, 3.512695
624.3371, 10.40430
624.8192, 3.515137
625.3013, 12.74219
625.7834, 5.018066
626.2656, 18.77832
626.7477, 25.06982
627.2298, 8.564941
627.7119, 10.59717
628.1940, 14.89844
628.6761, 6.285156
629.1583, 10.19336
629.6404, 31.13379
630.1225, 52.86572
630.6046, 57.12256
631.0867, 48.44336
631.5688, 37.21729
632.0510, 25.37988
632.5331, 14.02148
633.0152, 0.5732420
633.4973, 14.59082
633.9794, 16.70068
634.4615, 18.65674
634.9437, 46.17920
635.4258, 40.50732
635.9079, 4.187988
636.3900, 24.32422
636.8721, 6.937500
637.3542, 17.47510
637.8364, 28.48584
638.3185, 24.41455
638.8006, 17.57422
639.2827, 6.942871
639.7648, 2.378418
640.2469, 1.891113
640.7291, 6.417969
641.2112, 14.15088
641.6933, 19.23242
642.1754, 21.19580
642.6575, 17.67041
643.1396, 10.16504
643.6218, 3.715820
644.1039, 1.579590
644.5860, 0.4653320
645.0681, 2.934082
645.5502, 9.224609
646.0323, 9.617188
646.5145, 0.4077150
646.9966, 14.28516
647.4787, 29.98438
647.9608, 53.46875
648.4429, 62.32715
648.9250, 51.97656
649.4072, 32.17188
649.8893, 14.39160
650.3714, 1.260254
650.8535, 8.254883
651.3356, 3.321777
651.8177, 8.816406
652.2999, 25.46143
652.7820, 44.67090
653.2641, 57.49512
653.7462, 56.33984
654.2283, 48.42676
654.7104, 36.11572
655.1926, 20.15332
655.6747, 10.58154
656.1568, 15.45654
656.6389, 23.87402
657.1210, 28.80273
657.6031, 27.12158
658.0853, 30.84961
658.5674, 46.25684
659.0495, 59.69238
659.5316, 49.30371
660.0137, 11.91602
660.4958, 11.66211
660.9779, 11.58643
661.4600, 3.376953
661.9421, 22.51953
662.4243, 44.16309
662.9064, 61.19824
663.3885, 66.16455
663.8706, 67.55859
664.3527, 74.22900
664.8348, 85.34473
665.3170, 93.10303
665.7991, 89.69775
666.2812, 85.45166
666.7633, 85.66406
667.2454, 90.48438
667.7275, 101.9019
668.2097, 124.9004
668.6918, 149.5571
669.1739, 168.1460
669.6560, 181.5620
670.1381, 181.0254
670.6202, 160.8398
671.1024, 135.5542
671.5845, 130.8462
672.0666, 143.6411
672.5487, 157.6401
673.0308, 165.5942
673.5129, 172.7212
673.9951, 185.0293
674.4772, 201.3774
674.9593, 217.7051
675.4414, 237.2197
675.9235, 251.9146
676.4056, 257.7070
676.8878, 253.9785
677.3699, 242.1479
677.8520, 206.7705
678.3341, 179.1270
678.8162, 187.4561
679.2983, 245.5103
679.7805, 273.5537
680.2626, 263.0781
680.7447, 234.6431
681.2268, 209.3687
681.7089, 187.2065
682.1910, 172.5415
682.6732, 168.4268
683.1553, 172.9917
683.6374, 192.1196
684.1195, 216.8125
684.6016, 230.0410
685.0837, 215.4585
685.5659, 198.1914
686.0480, 192.6099
686.5301, 196.8950
687.0122, 184.1953
687.4943, 132.2686
687.9764, 89.62256
688.4586, 81.45166
688.9407, 112.1011
689.4228, 128.1968
689.9049, 128.4204
690.3870, 118.9448
690.8691, 97.87402
691.3513, 70.16260
691.8334, 60.26660
692.3155, 76.92627
692.7976, 98.55371
693.2797, 105.0747
693.7618, 101.9048
694.2440, 100.1489
694.7261, 109.3418
695.2082, 119.2383
695.6903, 125.2466
696.1724, 127.9170
696.6545, 129.8511
697.1367, 134.9727
697.6188, 132.4893
698.1009, 116.1353
698.5830, 89.53711
699.0651, 79.68506
699.5472, 88.75391
700.0294, 98.78613
700.5115, 97.80371
700.9936, 89.19189
701.4757, 83.07275
701.9578, 80.17969
702.4399, 74.74902
702.9221, 58.67578
703.4042, 39.21240
703.8863, 24.84473
704.3684, 20.62158
704.8505, 15.39453
705.3326, 1.716309
705.8148, 18.42773
706.2969, 18.53662
706.7790, 12.74902
707.2611, 29.42041
707.7432, 21.15039
708.2253, 0.9272460
708.7075, 10.55127
709.1896, 6.889160
709.6717, 4.724121
710.1538, 13.29443
710.6359, 24.95703
711.1180, 23.96436
711.6002, 12.95850
712.0823, 3.760742
712.5644, 5.771973
713.0465, 10.18408
713.5286, 11.10986
714.0107, 7.659668
714.4929, 3.307129
714.9750, 0.3994140
715.4571, 5.112793
715.9392, 12.78613
716.4213, 26.15869
716.9034, 30.24609
717.3856, 20.50977
717.8677, 11.31982
718.3498, 23.91357
718.8319, 54.39355
719.3140, 73.18652
719.7961, 72.72412
720.2783, 62.75537
720.7604, 48.26025
721.2425, 32.59180
721.7246, 22.09082
722.2067, 18.11963
722.6888, 20.97461
723.1710, 37.98047
723.6531, 62.69775
724.1352, 72.92236
724.6173, 54.18506
725.0994, 42.96680
725.5815, 53.04199
726.0637, 79.85889
726.5458, 88.47803
727.0279, 76.77832
727.5100, 67.20166
727.9921, 79.42773
728.4742, 102.4170
728.9564, 108.9771
729.4385, 98.61182
729.9206, 89.47217
730.4027, 93.92236
730.8848, 105.5039
731.3669, 119.8032
731.8491, 138.0903
732.3312, 152.9897
732.8133, 164.6660
733.2954, 171.2339
733.7775, 169.3774
734.2596, 154.7510
734.7418, 147.1953
735.2239, 150.4224
735.7060, 157.4258
736.1881, 153.1865
736.6702, 141.1255
737.1523, 141.1177
737.6345, 162.7144
738.1166, 193.7739
738.5987, 233.2290
739.0808, 272.3022
739.5629, 290.2178
740.0450, 254.0322
740.5272, 219.9097
741.0093, 210.9082
741.4914, 225.1440
741.9735, 238.5996
742.4556, 251.5161
742.9377, 263.4614
743.4199, 275.7993
743.9020, 287.7178
744.3841, 291.0386
744.8662, 285.6641
745.3483, 273.1484
745.8304, 247.6294
746.3126, 218.6221
746.7947, 203.2266
747.2768, 203.5161
747.7589, 206.3296
748.2410, 202.1685
748.7231, 198.4268
749.2053, 202.9185
749.6874, 230.0200
750.1695, 236.4185
750.6516, 203.6060
751.1337, 166.3892
751.6158, 167.3550
752.0980, 213.2256
752.5801, 241.3086
753.0622, 238.9668
753.5443, 225.1172
754.0264, 227.7705
754.5085, 242.1509
754.9907, 254.8755
755.4728, 259.5317
755.9549, 262.5508
756.4370, 271.1738
756.9191, 281.4839
757.4012, 283.9346
757.8834, 262.7773
758.3655, 249.1562
758.8476, 253.5483
759.3297, 271.6440
759.8118, 282.0098
760.2939, 282.7148
760.7761, 284.6992
761.2582, 298.6787
761.7403, 316.8623
762.2224, 310.5952
762.7045, 281.6421
763.1866, 246.6245
763.6688, 207.2007
764.1509, 173.5596
764.6330, 154.4771
765.1151, 150.2852
765.5972, 158.7773
766.0793, 208.7827
766.5615, 246.5024
767.0436, 234.6724
767.5257, 149.6558
768.0078, 109.5654
768.4899, 126.7305
768.9720, 158.7656
769.4542, 162.5044
769.9363, 144.1694
770.4184, 135.4165
770.9005, 141.8711
771.3826, 152.2979
771.8647, 158.5581
772.3469, 159.8413
772.8290, 155.5850
773.3111, 139.4297
773.7932, 127.5596
774.2753, 122.6987
774.7574, 125.1733
775.2396, 135.9644
775.7217, 158.1440
776.2038, 180.8550
776.6859, 202.6548
777.1680, 223.2510
777.6501, 246.7559
778.1323, 270.9663
778.6144, 278.7153
779.0965, 252.2471
779.5786, 216.3643
780.0607, 196.8081
780.5428, 190.3921
781.0250, 188.0151
781.5071, 183.7051
781.9892, 185.0225
782.4713, 200.2339
782.9534, 225.6758
783.4355, 239.7358
783.9177, 237.7217
784.3998, 233.7891
784.8819, 233.3687
785.3640, 236.3604
785.8461, 242.7290
786.3282, 252.0679
786.8104, 260.6284
787.2925, 265.3311
787.7746, 268.2339
788.2567, 270.4160
788.7388, 271.6748
789.2209, 275.7759
789.7031, 282.4097
790.1852, 294.0942
790.6673, 314.0410
791.1494, 345.1436
791.6315, 368.3564
792.1136, 382.2920
792.5958, 391.4312
793.0779, 400.0269
793.5600, 406.9644
794.0421, 403.6099
794.5242, 387.5420
795.0063, 375.8921
795.4885, 394.0869
795.9706, 420.9648
796.4527, 430.0947
796.9348, 406.6807
797.4169, 384.5723
797.8990, 371.6074
798.3812, 363.8110
798.8633, 357.1704
799.3454, 350.1909
799.8275, 352.0322
800.3096, 368.4380
800.7917, 383.5586
801.2739, 368.3081
801.7560, 331.5557
802.2381, 303.4697
802.7202, 293.1211
803.2023, 291.9888
803.6844, 299.1533
804.1666, 308.4438
804.6487, 310.7441
805.1308, 297.3442
805.6129, 285.2412
806.0950, 272.8750
806.5771, 264.7456
807.0593, 274.1074
807.5414, 305.4507
808.0235, 329.0718
808.5056, 333.6841
808.9877, 328.1250
809.4698, 327.0576
809.9520, 330.2720
810.4341, 337.9263
810.9162, 359.9849
811.3983, 378.3960
811.8804, 376.0317
812.3625, 358.2222
812.8447, 348.2920
813.3268, 362.9097
813.8089, 370.5400
814.2910, 360.5454
814.7731, 336.3994
815.2552, 317.3320
815.7374, 304.7021
816.2195, 285.8701
816.7016, 246.4912
817.1837, 201.2534
817.6658, 174.6626
818.1479, 163.7646
818.6301, 152.0093
819.1122, 122.4482
819.5943, 98.32080
820.0764, 96.49902
820.5585, 117.9658
821.0406, 128.7285
821.5228, 126.2720
822.0049, 117.8018
822.4870, 104.5581
822.9691, 87.47803
823.4512, 74.70605
823.9333, 65.95459
824.4154, 62.46484
824.8975, 72.52490
825.3796, 84.40332
825.8618, 82.54932
826.3439, 66.12744
826.8260, 52.00928
827.3081, 51.37500
827.7902, 50.78613
828.2723, 38.39111
828.7545, 9.818848
829.2366, 9.235840
829.7187, 44.41602
830.2008, 82.39209
830.6829, 94.38477
831.1650, 88.82910
831.6472, 96.20752
832.1293, 118.5542
832.6114, 131.8579
833.0935, 106.1372
833.5756, 71.40186
834.0577, 55.20312
834.5399, 69.36133
835.0220, 70.48828
835.5041, 43.21387
835.9862, 15.96484
836.4683, 11.27734
836.9504, 31.42480
837.4326, 40.63916
837.9147, 36.20459
838.3968, 31.31934
838.8789, 45.88232
839.3610, 66.02783
839.8431, 65.65186
840.3253, 35.85107
840.8074, 12.49414
841.2895, 19.47217
841.7716, 35.90088
842.2537, 43.32178
842.7358, 33.20361
843.2180, 36.78711
843.7001, 61.43750
844.1822, 84.78369
844.6643, 76.60303
845.1464, 44.83301
845.6285, 32.51807
846.1107, 47.58643
846.5928, 64.47021
847.0749, 59.36133
847.5570, 44.85254
848.0391, 35.35791
848.5212, 36.67920
849.0034, 36.33936
849.4855, 28.60303
849.9676, 22.34326
850.4497, 26.98291
850.9318, 44.20508
851.4139, 59.84229
851.8961, 74.42041
852.3782, 80.28857
852.8603, 55.48828
853.3424, 18.98633
853.8245, 9.620605
854.3066, 45.41260
854.7888, 76.92236
855.2709, 76.32617
855.7530, 61.93555
856.2351, 53.17285
856.7172, 56.12158
857.1993, 52.74951
857.6815, 41.25830
858.1636, 26.38135
858.6457, 11.83984
859.1278, 1.575195
859.6099, 11.19775
860.0920, 16.72168
860.5742, 17.04980
861.0563, 4.736816
861.5384, 10.26660
862.0205, 16.42383
862.5026, 5.924805
862.9847, 3.647949
863.4669, 8.937500
863.9490, 14.47217
864.4311, 27.31738
864.9132, 48.50049
865.3953, 59.70215
865.8774, 58.24609
866.3596, 50.14355
866.8417, 36.64990
867.3238, 22.68213
867.8059, 17.97217
868.2880, 29.79980
868.7701, 35.80908
869.2523, 17.84082
869.7344, 4.186523
870.2165, 9.670410
870.6986, 9.944336
871.1807, 21.10449
871.6628, 22.09961
872.1450, 15.98145
872.6271, 0.5546880
873.1092, 21.51465
873.5913, 26.40479
874.0734, 9.017090
874.5555, 8.745117
875.0377, 9.455078
875.5198, 3.994629
876.0019, 3.241699
876.4840, 13.69580
876.9661, 19.28857
877.4482, 18.43066
877.9304, 15.20752
878.4125, 12.96826
878.8946, 11.73877
879.3767, 12.43262
879.8588, 15.40332
880.3409, 17.47949
880.8231, 15.21826
881.3052, 10.58496
881.7873, 4.555664
882.2694, 5.400879
882.7515, 7.574219
883.2336, 13.83496
883.7158, 31.18506
884.1979, 21.31201
884.6800, 21.39600
885.1621, 44.74854
885.6442, 46.00098
886.1263, 38.75049
886.6085, 31.37109
887.0906, 25.59229
887.5727, 23.18896
888.0548, 23.56787
888.5369, 30.50586
889.0190, 54.91797
889.5012, 78.98828
889.9833, 89.67773
890.4654, 83.76758
890.9475, 82.95557
891.4296, 88.02979
891.9117, 95.17822
892.3939, 102.0151
892.8760, 108.6641
893.3581, 115.7539
893.8402, 123.2148
894.3223, 130.4214
894.8044, 137.9575
895.2866, 145.1709
895.7687, 151.3394
896.2508, 156.1489
896.7329, 162.6509
897.2150, 169.4712
897.6971, 181.0464
898.1793, 206.2617
898.6614, 238.8926
899.1435, 242.0015
899.6256, 218.4663
900.1077, 206.0264
900.5898, 242.0264
901.0720, 290.3169
901.5541, 320.2925
902.0362, 331.6626
902.5183, 351.4248
903.0004, 386.6055
903.4825, 423.3359
903.9647, 458.3418
904.4468, 490.6802
904.9289, 513.0288
905.4110, 525.5483
905.8931, 533.7397
906.3752, 525.8638
906.8574, 526.5898
907.3395, 570.2993
907.8216, 646.2900
908.3037, 709.2881
908.7858, 740.0757
909.2679, 763.4199
909.7501, 785.7979
910.2322, 805.4834
910.7143, 810.1567
911.1964, 799.1738
911.6785, 808.3345
912.1606, 863.8931
912.6428, 933.4102
913.1249, 974.6724
913.6070, 996.3618
914.0891, 1017.728
914.5712, 1038.946
915.0533, 1069.557
915.5355, 1120.775
916.0176, 1178.234
916.4997, 1212.981
916.9818, 1222.154
917.4639, 1229.854
917.9460, 1242.292
918.4282, 1254.250
918.9103, 1253.970
919.3924, 1249.305
919.8745, 1255.146
920.3566, 1285.889
920.8387, 1310.811
921.3209, 1314.811
921.8030, 1311.787
922.2851, 1319.443
922.7672, 1342.792
923.2493, 1348.488
923.7314, 1332.073
924.2136, 1306.523
924.6957, 1285.568
925.1778, 1267.606
925.6599, 1249.258
926.1420, 1228.756
926.6241, 1207.891
927.1063, 1193.758
927.5884, 1177.164
928.0705, 1149.375
928.5526, 1106.211
929.0347, 1061.066
929.5168, 1013.606
929.9990, 970.6099
930.4811, 938.7627
930.9632, 915.5947
931.4453, 901.0034
931.9274, 894.6973
932.4095, 875.3257
932.8917, 820.0981
933.3738, 761.0991
933.8559, 717.6060
934.3380, 689.6113
934.8201, 656.5391
935.3022, 615.9453
935.7844, 582.8022
936.2665, 571.5645
936.7486, 571.4399
937.2307, 557.5093
937.7128, 531.3579
938.1949, 501.5298
938.6771, 467.1592
939.1592, 436.0225
939.6413, 412.4434
940.1234, 395.6138
940.6055, 382.6079
941.0876, 372.3804
941.5698, 367.6440
942.0519, 375.9761
942.5340, 386.3369
943.0161, 370.6714
943.4982, 337.0303
943.9803, 306.6245
944.4625, 285.5581
944.9446, 273.3911
945.4267, 270.8345
945.9088, 277.2905
946.3909, 294.1953
946.8730, 329.8315
947.3552, 342.2246
947.8373, 319.3003
948.3194, 289.4771
948.8015, 293.2168
949.2836, 319.5244
949.7657, 346.0098
950.2479, 369.6660
950.7300, 385.9858
951.2121, 384.7119
951.6942, 381.1333
952.1763, 390.4053
952.6584, 419.7251
953.1406, 433.5312
953.6227, 427.4507
954.1048, 423.5801
954.5869, 444.8994
955.0690, 481.0840
955.5511, 516.2988
956.0333, 548.9849
956.5154, 570.8115
956.9975, 573.5190
957.4796, 567.6826
957.9617, 557.8730
958.4438, 544.5571
958.9260, 528.7529
959.4081, 509.2358
959.8902, 495.3579
960.3723, 496.4160
960.8544, 503.6333
961.3365, 503.8389
961.8187, 497.2910
962.3008, 484.8560
962.7829, 452.0479
963.2650, 430.8574
963.7471, 442.3950
964.2292, 469.3394
964.7114, 467.7939
965.1935, 433.1157
965.6756, 414.0693
966.1577, 429.4741
966.6398, 449.1519
967.1219, 428.1406
967.6041, 384.6777
968.0862, 349.0449
968.5683, 323.8892
969.0504, 318.8872
969.5325, 352.2222
970.0146, 392.2803
970.4968, 408.2974
970.9789, 398.9395
971.4610, 390.5103
971.9431, 384.2773
972.4252, 383.9609
972.9073, 400.2510
973.3895, 420.1226
973.8716, 429.5352
974.3537, 426.1650
974.8358, 415.2139
975.3179, 391.4780
975.8000, 367.9233
976.2822, 349.9194
976.7643, 337.0093
977.2464, 326.1772
977.7285, 317.6084
978.2106, 315.5645
978.6927, 328.6167
979.1749, 344.3726
979.6570, 352.8325
980.1391, 355.4595
980.6212, 357.3589
981.1033, 358.5181
981.5854, 359.2896
982.0676, 359.6069
982.5497, 360.1865
983.0318, 365.3232
983.5139, 372.6162
983.9960, 368.9238
984.4781, 343.0640
984.9603, 321.9829
985.4424, 329.4507
985.9245, 348.3125
986.4066, 358.7251
986.8887, 362.5068
987.3708, 351.5605
987.8530, 318.5806
988.3351, 287.3438
988.8172, 287.0732
989.2993, 307.2583
989.7814, 318.9644
990.2635, 319.3359
990.7456, 322.3413
991.2277, 342.3970
991.7098, 361.6338
992.1920, 367.1094
992.6741, 359.7827
993.1562, 362.3838
993.6383, 377.2749
994.1204, 388.2192
994.6025, 384.2754
995.0847, 373.9136
995.5668, 366.1567
996.0489, 363.6875
996.5310, 374.1704
997.0131, 412.2505
997.4952, 449.8828
997.9774, 482.2129
998.4595, 508.6396
998.9416, 525.8086
999.4237, 533.4048
999.9058, 543.7734
1000.388, 559.8203
1000.870, 577.1338
1001.352, 589.6602
1001.834, 601.6392
1002.316, 618.9478
1002.799, 645.5552
1003.281, 668.8877
1003.763, 685.3242
1004.245, 702.7075
1004.727, 730.1006
1005.209, 764.4766
1005.691, 785.0015
1006.173, 791.8491
1006.655, 794.8853
1007.138, 796.4580
1007.620, 800.0972
1008.102, 810.3989
1008.584, 825.8916
1009.066, 836.9160
1009.548, 842.0796
1010.030, 843.1528
1010.512, 840.6533
1010.995, 837.6963
1011.477, 840.0957
1011.959, 843.0376
1012.441, 836.0928
1012.923, 810.2090
1013.405, 783.9053
1013.887, 761.9375
1014.369, 744.7305
1014.851, 733.5122
1015.334, 729.7681
1015.816, 717.1870
1016.298, 693.5244
1016.780, 671.7544
1017.262, 674.5576
1017.744, 679.4180
1018.226, 653.2852
1018.708, 592.2280
1019.190, 544.1582
1019.673, 521.6626
1020.155, 509.9517
1020.637, 509.7129
1021.119, 514.5771
1021.601, 494.5444
1022.083, 453.3857
1022.565, 415.2744
1023.047, 392.6089
1023.530, 375.5537
1024.012, 361.4888
1024.494, 347.4189
1024.976, 326.5698
1025.458, 293.3896
1025.940, 270.0537
1026.422, 260.8325
1026.904, 255.2900
1027.386, 239.8628
1027.869, 218.8877
1028.351, 202.6870
1028.833, 193.4121
1029.315, 180.8540
1029.797, 160.6475
1030.279, 135.1758
1030.761, 100.0981
1031.243, 57.51904
1031.726, 51.59814
1032.208, 83.08643
1032.690, 103.7188
1033.172, 69.74170
1033.654, 26.11621
1034.136, 22.75684
1034.618, 45.05420
1035.100, 56.20459
1035.583, 41.95215
1036.065, 26.60596
1036.547, 12.46631
1037.029, 0.9697270
1037.511, 16.11816
1037.993, 31.05859
1038.475, 37.18066
1038.957, 31.88818
1039.439, 26.24609
1039.922, 25.97217
1040.404, 28.73096
1040.886, 33.37695
1041.368, 39.89014
1041.850, 46.72900
1042.332, 54.89795
1042.814, 55.54688
1043.296, 34.13721
1043.778, 8.430176
1044.261, 7.013184
1044.743, 22.01807
1045.225, 29.74561
1045.707, 13.63525
1046.189, 2.396973
1046.671, 3.246094
1047.153, 7.695313
1047.635, 1.730957
1048.118, 13.26074
1048.600, 30.68848
1049.082, 50.56592
1049.564, 66.40820
1050.046, 68.22510
1050.528, 67.71924
1051.010, 76.62891
1051.492, 96.53418
1051.974, 110.0176
1052.457, 116.6948
1052.939, 117.7290
1053.421, 105.8857
1053.903, 93.59570
1054.385, 109.0347
1054.867, 142.9326
1055.349, 166.7153
1055.831, 163.1855
1056.313, 157.0205
1056.796, 152.7271
1057.278, 148.9385
1057.760, 142.3086
1058.242, 133.6528
1058.724, 131.3867
1059.206, 138.3643
1059.688, 141.1899
1060.170, 124.3447
1060.653, 102.4971
1061.135, 89.31738
1061.617, 86.75098
1062.099, 75.25488
1062.581, 49.80078
1063.063, 37.70654
1063.545, 66.18701
1064.027, 107.4644
1064.510, 110.5381
1064.992, 84.69482
1065.474, 54.89014
1065.956, 17.12549
1066.438, 4.621582
1066.920, 1.240723
1067.402, 14.52197
1067.884, 3.684570
1068.366, 26.99561
1068.849, 42.87988
1069.331, 38.72266
1069.813, 28.32568
1070.295, 16.66357
1070.777, 6.808105
1071.259, 2.242676
1071.741, 2.921387
1072.223, 1.311523
1072.705, 2.345215
1073.188, 10.14355
1073.670, 27.68213
1074.152, 44.24805
1074.634, 35.83008
1075.116, 14.23877
1075.598, 4.479492
1076.080, 25.23291
1076.562, 43.19092
1077.044, 54.58594
1077.527, 62.45215
1078.009, 66.75684
1078.491, 69.75049
1078.973, 89.15479
1079.455, 126.1362
1079.937, 152.9365
1080.419, 142.1426
1080.901, 123.9897
1081.384, 114.3394
1081.866, 113.2852
1082.348, 122.6909
1082.830, 144.6108
1083.312, 164.2129
1083.794, 178.5176
1084.276, 185.0649
1084.758, 175.4897
1085.240, 158.6104
1085.723, 148.6030
1086.205, 152.4868
1086.687, 152.3623
1087.169, 147.4365
1087.651, 141.8213
1088.133, 135.3892
1088.615, 131.0913
1089.097, 141.5415
1089.579, 164.9316
1090.062, 185.8325
1090.544, 196.4409
1091.026, 203.2202
1091.508, 210.7603
1091.990, 212.9316
1092.472, 194.0122
1092.954, 155.0737
1093.436, 129.6392
1093.919, 126.2612
1094.401, 132.5020
1094.883, 146.7334
1095.365, 158.5308
1095.847, 154.0225
1096.329, 127.4795
1096.811, 120.7441
1097.293, 130.3984
1097.776, 141.0864
1098.258, 143.3364
1098.740, 141.8032
1099.222, 127.5537
1099.704, 109.6113
1100.186, 104.7632
1100.668, 135.8369
1101.150, 154.7236
1101.632, 136.4971
1102.115, 109.7944
1102.597, 110.2041
1103.079, 131.9834
1103.561, 140.0059
1104.043, 128.9814
1104.525, 122.8057
1105.007, 150.1489
1105.489, 173.7988
1105.971, 169.3301
1106.454, 138.7568
1106.936, 119.0630
1107.418, 110.5586
1107.900, 104.6328
1108.382, 97.34668
1108.864, 93.53516
1109.346, 103.8862
1109.828, 118.6758
1110.311, 123.9150
1110.793, 113.5674
1111.275, 102.6182
1111.757, 88.60986
1112.239, 81.45166
1112.721, 95.42969
1113.203, 118.3940
1113.685, 125.2812
1114.167, 118.4160
1114.650, 112.2202
1115.132, 114.0791
1115.614, 114.0923
1116.096, 107.2803
1116.578, 100.7358
1117.060, 111.0273
1117.542, 133.0952
1118.024, 141.7949
1118.506, 131.3486
1118.989, 122.5757
1119.471, 132.7549
1119.953, 144.1177
1120.435, 143.5503
1120.917, 132.6348
1121.399, 135.2241
1121.881, 151.4263
1122.363, 154.3970
1122.846, 120.8047
1123.328, 85.69873
1123.810, 81.51514
1124.292, 96.72656
1124.774, 116.2231
1125.256, 141.9141
1125.738, 162.0327
1126.220, 176.5151
1126.703, 179.5415
1127.185, 156.2690
1127.667, 124.7783
1128.149, 112.9429
1128.631, 119.5576
1129.113, 128.9707
1129.595, 144.3550
1130.077, 148.6562
1130.559, 132.4473
1131.042, 113.0962
1131.524, 133.1787
1132.006, 174.0898
1132.488, 176.8359
1132.970, 124.0635
1133.452, 73.90625
1133.934, 47.67139
1134.416, 38.47510
1134.898, 47.05957
1135.381, 69.25977
1135.863, 76.33838
1136.345, 69.74463
1136.827, 61.67529
1137.309, 55.74072
1137.791, 52.70459
1138.273, 61.25928
1138.755, 68.30518
1139.238, 54.11377
1139.720, 10.36572
1140.202, 10.03809
1140.684, 4.906250
1141.166, 9.971191
1141.648, 35.15479
1142.130, 53.69531
1142.612, 39.26758
1143.094, 0.7856450
1143.577, 11.19629
1144.059, 15.82568
1144.541, 38.41748
1145.023, 48.59912
1145.505, 50.60596
1145.987, 47.35449
1146.469, 40.65186
1146.951, 32.53369
1147.433, 23.16943
1147.916, 13.85156
1148.398, 3.542969
1148.880, 4.603516
1149.362, 30.33008
1149.844, 80.70312
1150.326, 88.46045
1150.808, 65.80762
1151.290, 47.12744
1151.773, 46.77002
1152.255, 47.56543
1152.737, 46.06543
1153.219, 43.08154
1153.701, 38.23389
1154.183, 41.77344
1154.665, 45.34082
1155.147, 93.92041
1155.630, 106.0342
1156.112, 27.63135
1156.594, 26.92627
1157.076, 6.057129
1157.558, 17.98047
1158.040, 62.89648
1158.522, 49.76123
1159.004, 29.41943
1159.486, 32.18701
1159.969, 70.14111
1160.451, 31.90381
1160.933, 17.07520
1161.415, 78.40625
1161.897, 98.61719
1162.379, 53.17334
1162.861, 94.02295
1163.343, 21.04004
1163.825, 20.89258
1164.308, 34.87842
1164.790, 72.58496
1165.272, 113.6997
1165.754, 129.3999
1166.236, 108.0352
1166.718, 90.44434
1167.200, 76.02930
1167.682, 67.78369
1168.165, 74.32227
1168.647, 83.64355
1169.129, 73.13184
1169.611, 50.58398
1170.093, 34.43506
1170.575, 30.97803
1171.057, 33.43311
1171.539, 43.65527
1172.021, 54.94434
1172.504, 61.16748
1172.986, 63.50098
1173.468, 62.66162
1173.950, 59.43701
1174.432, 59.36328
1174.914, 72.08594
1175.396, 76.60352
1175.878, 64.57275
1176.360, 47.58838
1176.843, 48.84912
1177.325, 61.63477
1177.807, 66.36816
1178.289, 58.23584
1178.771, 53.08203
1179.253, 59.00684
1179.735, 68.54688
1180.217, 81.60645
1180.700, 94.49170
1181.182, 87.41699
1181.664, 66.70898
1182.146, 62.85840
1182.628, 101.1860
1183.110, 126.4717
1183.592, 95.58496
1184.074, 55.58057
1184.557, 41.66846
1185.039, 53.08057
1185.521, 66.31396
1186.003, 80.65869
1186.485, 89.47021
1186.967, 84.66260
1187.449, 77.75195
1187.931, 70.91748
1188.413, 67.79834
1188.896, 76.24219
1189.378, 97.34619
1189.860, 106.0005
1190.342, 100.2544
1190.824, 87.86523
1191.306, 62.46191
1191.788, 43.82031
1192.270, 53.94238
1192.752, 81.72119
1193.235, 89.31006
1193.717, 74.29785
1194.199, 72.15918
1194.681, 92.53955
1195.163, 109.9116
1195.645, 94.24902
1196.127, 69.63818
1196.609, 58.88232
1197.092, 62.72949
1197.574, 62.62158
1198.056, 57.90723
1198.538, 52.62354
1199.020, 46.69727
1199.502, 42.10742
1199.984, 44.55859
1200.466, 49.09668
1200.948, 47.00537
1201.431, 34.17285
1201.913, 38.69141
1202.395, 62.57471
1202.877, 83.00537
1203.359, 78.74951
1203.841, 71.67969
1204.323, 100.3008
1204.805, 142.5273
1205.287, 150.8569
1205.770, 102.4648
1206.252, 65.01465
1206.734, 41.01123
1207.216, 31.87549
1207.698, 45.11768
1208.180, 66.62256
1208.662, 81.22949
1209.144, 88.50244
1209.627, 88.51172
1210.109, 77.98584
1210.591, 70.49121
1211.073, 68.34131
1211.555, 66.90820
1212.037, 56.49951
1212.519, 48.35156
1213.001, 43.73047
1213.484, 42.89746
1213.966, 39.87598
1214.448, 36.86572
1214.930, 44.03369
1215.412, 70.37549
1215.894, 97.43848
1216.376, 70.85156
1216.858, 28.33984
1217.340, 15.49316
1217.823, 48.55664
1218.305, 55.52197
1218.787, 20.07275
1219.269, 10.25830
1219.751, 17.16162
1220.233, 8.097656
1220.715, 11.87451
1221.197, 33.12939
1221.679, 47.60791
1222.162, 48.46240
1222.644, 43.73047
1223.126, 30.89160
1223.608, 19.39111
1224.090, 13.54785
1224.572, 14.06738
1225.054, 27.48877
1225.536, 47.92285
1226.019, 61.39893
1226.501, 62.16992
1226.983, 56.04199
1227.465, 39.22168
1227.947, 25.40283
1228.429, 29.19287
1228.911, 42.79590
1229.393, 55.59326
1229.875, 66.12354
1230.358, 70.20801
1230.840, 64.50391
1231.322, 55.19189
1231.804, 41.32568
1232.286, 27.99902
1232.768, 19.67139
1233.250, 16.75244
1233.732, 23.13037
1234.214, 37.78857
1234.697, 46.45361
1235.179, 45.82520
1235.661, 41.44043
1236.143, 32.62354
1236.625, 24.52686
1237.107, 27.61768
1237.589, 34.85596
1238.071, 33.61230
1238.553, 21.49072
1239.036, 13.79395
1239.518, 12.80029
1240.000, 12.99805
1240.482, 11.29541
1240.964, 12.35107
1241.446, 28.25977
1241.928, 50.04980
1242.410, 64.77100
1242.893, 69.22412
1243.375, 68.73438
1243.857, 61.53809
1244.339, 56.89209
1244.821, 62.39893
1245.303, 68.87012
1245.785, 57.68457
1246.267, 37.89941
1246.750, 24.42969
1247.232, 21.80908
1247.714, 24.17139
1248.196, 32.59180
1248.678, 38.78467
1249.160, 34.99756
1249.642, 28.73779
1250.124, 36.00781
1250.606, 48.28418
1251.089, 46.07031
1251.571, 13.18115
1252.053, 2.844238
1252.535, 20.32910
1253.017, 40.37598
1253.499, 41.78174
1253.981, 36.38867
1254.463, 38.40723
1254.945, 43.19336
1255.428, 33.16650
1255.910, 4.656250
1256.392, 8.133789
1256.874, 33.62158
1257.356, 74.26025
1257.838, 68.36768
1258.320, 44.93604
1258.802, 27.24658
1259.285, 16.30957
1259.767, 8.504883
1260.249, 3.878906
1260.731, 2.527344
1261.213, 3.150879
1261.695, 10.84961
1262.177, 39.17041
1262.659, 63.22168
1263.141, 59.69482
1263.624, 33.26562
1264.106, 21.89209
1264.588, 25.81689
1265.070, 29.81787
1265.552, 30.42285
1266.034, 33.30078
1266.516, 54.78027
1266.998, 70.77686
1267.480, 53.57227
1267.963, 12.62695
1268.445, 2.854980
1268.927, 5.538574
1269.409, 17.63428
1269.891, 29.58252
1270.373, 39.59473
1270.855, 51.56836
1271.337, 56.12744
1271.820, 44.82959
1272.302, 20.54102
1272.784, 0.1904300
1273.266, 15.93701
1273.748, 19.76611
1274.230, 7.972656
1274.712, 11.19678
1275.194, 46.10645
1275.677, 74.33643
1276.159, 78.82666
1276.641, 64.55664
1277.123, 57.99170
1277.605, 56.69678
1278.087, 51.52393
1278.569, 32.26465
1279.051, 18.52783
1279.533, 12.16602
1280.016, 14.87500
1280.498, 35.03320
1280.980, 63.94385
1281.462, 64.41699
1281.944, 42.48291
1282.426, 23.29834
1282.908, 12.65186
1283.390, 14.83447
1283.872, 36.59131
1284.355, 57.81885
1284.837, 60.76025
1285.319, 52.06055
1285.801, 40.54199
1286.283, 29.20312
1286.765, 26.46094
1287.247, 49.14941
1287.729, 57.14160
1288.212, 43.20801
1288.694, 28.66699
1289.176, 32.21826
1289.658, 42.95361
1290.140, 54.82129
1290.622, 61.94580
1291.104, 67.11182
1291.586, 69.28809
1292.068, 74.03857
1292.551, 81.62158
1293.033, 92.73340
1293.515, 110.9380
1293.997, 129.4346
1294.479, 138.5645
1294.961, 142.3774
1295.443, 161.7153
1295.925, 201.3804
1296.407, 213.5938
1296.890, 190.3154
1297.372, 161.0737
1297.854, 149.3823
1298.336, 140.3154
1298.818, 120.6479
1299.300, 95.70068
1299.782, 81.68848
1300.264, 77.83398
1300.747, 65.51465
1301.229, 40.71484
1301.711, 17.93164
1302.193, 3.802246
1302.675, 1.081543
1303.157, 7.288086
1303.639, 20.81201
1304.121, 15.28076
1304.604, 0.0000000E+00
##END=



