##NAMES=Sugilite
##RRUFFID=R070623
##IDEAL CHEMISTRY=KNa_2_Fe^3+^_2_(Li_3_Si_12_)O_30_
##LOCALITY=Wessels mine, Kuruman, Kalahari Manganese Field, South Africa
##OWNER=RRUFF
##SOURCE=Shinichi Kihara
##DESCRIPTION=Bright purple fragment
##STATUS=The identification of this mineral has been confirmed by X-ray diffraction.
##URL=rruff.info/R070623
130.2712, 0.0000000E+00
130.7533, 180.6973
131.2354, 515.7227
131.7175, 921.9961
132.1996, 1250.342
132.6818, 1429.713
133.1639, 1460.623
133.6460, 1414.484
134.1281, 1267.869
134.6102, 1071.584
135.0923, 906.3535
135.5745, 770.7168
136.0566, 660.2461
136.5387, 567.0898
137.0208, 485.1660
137.5029, 448.0645
137.9850, 462.4277
138.4672, 521.3789
138.9493, 602.2227
139.4314, 712.5000
139.9135, 833.0859
140.3956, 944.6094
140.8777, 1018.371
141.3599, 1144.434
141.8420, 1328.682
142.3241, 1573.549
142.8062, 1877.520
143.2883, 2141.189
143.7704, 2418.098
144.2526, 2785.752
144.7347, 3283.285
145.2168, 3814.428
145.6989, 4396.707
146.1810, 5168.621
146.6631, 5619.828
147.1453, 5681.264
147.6274, 5449.814
148.1095, 5104.303
148.5916, 4544.180
149.0737, 3957.719
149.5558, 3408.689
150.0379, 2900.320
150.5201, 2421.512
151.0022, 1956.400
151.4843, 1517.158
151.9664, 1160.723
152.4485, 928.2676
152.9306, 759.1387
153.4128, 617.5859
153.8949, 514.2422
154.3770, 418.2539
154.8591, 312.0488
155.3412, 195.8105
155.8233, 115.0879
156.3055, 108.8438
156.7876, 131.5020
157.2697, 137.9590
157.7518, 101.7031
158.2339, 58.34766
158.7160, 19.92969
159.1982, 12.51367
159.6803, 37.15625
160.1624, 51.81055
160.6445, 58.13867
161.1266, 54.77539
161.6087, 49.77344
162.0909, 43.08789
162.5730, 25.05273
163.0551, 22.99219
163.5372, 73.98633
164.0193, 99.95117
164.5014, 109.6758
164.9836, 127.0137
165.4657, 174.6660
165.9478, 233.3877
166.4299, 275.7529
166.9120, 299.2910
167.3941, 312.5469
167.8763, 307.5273
168.3584, 281.4570
168.8405, 258.7852
169.3226, 248.8867
169.8047, 242.1562
170.2868, 260.7598
170.7690, 321.3057
171.2511, 377.0225
171.7332, 385.1221
172.2153, 338.0557
172.6974, 324.5312
173.1795, 492.0254
173.6617, 763.9229
174.1438, 944.3594
174.6259, 856.1387
175.1080, 638.8721
175.5901, 505.2148
176.0722, 478.4268
176.5544, 505.0508
177.0365, 542.4883
177.5186, 588.3281
178.0007, 630.1992
178.4828, 658.0537
178.9649, 676.6699
179.4471, 698.9062
179.9292, 731.4316
180.4113, 767.3887
180.8934, 807.6855
181.3755, 847.2910
181.8576, 848.7910
182.3397, 752.7412
182.8219, 585.1699
183.3040, 449.8789
183.7861, 381.2432
184.2682, 355.3799
184.7503, 311.4688
185.2324, 247.8477
185.7146, 187.8242
186.1967, 158.6504
186.6788, 156.6055
187.1609, 151.7402
187.6430, 127.6572
188.1251, 92.05762
188.6073, 78.32129
189.0894, 89.83789
189.5715, 105.4326
190.0536, 95.23340
190.5357, 59.07715
191.0178, 22.32520
191.5000, 6.198242
191.9821, 25.93164
192.4642, 35.61035
192.9463, 32.52148
193.4284, 23.16797
193.9105, 17.14453
194.3927, 13.56152
194.8748, 16.64941
195.3569, 31.42188
195.8390, 58.22949
196.3211, 80.55469
196.8032, 96.62500
197.2854, 108.0547
197.7675, 120.0186
198.2496, 133.7900
198.7317, 143.9639
199.2138, 145.3760
199.6959, 137.1289
200.1780, 131.2490
200.6602, 131.6230
201.1423, 136.0537
201.6244, 130.8350
202.1065, 112.7305
202.5886, 93.75684
203.0707, 86.04395
203.5529, 92.38770
204.0350, 95.93945
204.5171, 93.19434
204.9992, 84.08496
205.4813, 69.47754
205.9634, 46.03027
206.4456, 22.18945
206.9277, 11.19043
207.4098, 19.82031
207.8919, 17.48145
208.3740, 13.58301
208.8561, 79.05273
209.3383, 98.77246
209.8204, 53.42480
210.3025, 15.51660
210.7846, 42.80176
211.2667, 15.23242
211.7488, 20.93750
212.2310, 48.68555
212.7131, 65.00879
213.1952, 89.41406
213.6773, 128.6895
214.1594, 171.7559
214.6415, 193.3516
215.1236, 187.4707
215.6058, 172.4844
216.0879, 152.6133
216.5700, 119.5859
217.0521, 108.1309
217.5342, 123.6484
218.0163, 160.1699
218.4985, 203.4766
218.9806, 265.3887
219.4627, 313.8594
219.9448, 324.7891
220.4269, 274.7930
220.9090, 245.9805
221.3912, 249.7871
221.8733, 280.4980
222.3554, 306.0957
222.8375, 325.0176
223.3196, 340.7422
223.8017, 357.2988
224.2839, 380.3457
224.7660, 390.6055
225.2481, 380.7715
225.7302, 352.7910
226.2123, 334.2363
226.6944, 325.3301
227.1766, 325.8145
227.6587, 340.0039
228.1408, 388.5039
228.6229, 409.5508
229.1050, 383.2148
229.5871, 307.5312
230.0693, 252.8379
230.5514, 219.7188
231.0335, 208.0254
231.5156, 220.6602
231.9977, 275.2344
232.4798, 324.4473
232.9619, 357.5527
233.4441, 373.6836
233.9262, 380.1680
234.4083, 367.6133
234.8904, 351.9414
235.3725, 355.4844
235.8546, 388.8613
236.3368, 423.1914
236.8189, 448.3789
237.3010, 460.5215
237.7831, 481.1211
238.2652, 517.4004
238.7473, 557.8555
239.2295, 583.0449
239.7116, 587.4453
240.1937, 585.4629
240.6758, 580.1699
241.1579, 568.0234
241.6400, 562.8906
242.1222, 558.9102
242.6043, 564.5195
243.0864, 602.1270
243.5685, 697.8027
244.0506, 785.5918
244.5327, 837.6543
245.0149, 838.0234
245.4970, 838.5449
245.9791, 838.2793
246.4612, 838.0781
246.9433, 839.0879
247.4254, 835.4863
247.9075, 841.3887
248.3897, 864.7520
248.8718, 911.6445
249.3539, 960.8047
249.8360, 1019.453
250.3181, 1080.000
250.8002, 1107.471
251.2824, 1077.203
251.7645, 1052.779
252.2466, 1073.771
252.7287, 1163.771
253.2108, 1239.928
253.6929, 1297.717
254.1751, 1337.674
254.6572, 1360.961
255.1393, 1357.098
255.6214, 1353.688
256.1035, 1369.461
256.5856, 1413.184
257.0677, 1456.443
257.5499, 1499.953
258.0320, 1542.504
258.5141, 1575.959
258.9962, 1600.906
259.4783, 1616.252
259.9604, 1623.818
260.4426, 1627.084
260.9247, 1608.381
261.4068, 1555.525
261.8889, 1474.928
262.3710, 1416.174
262.8531, 1382.098
263.3353, 1365.332
263.8174, 1363.652
264.2995, 1382.355
264.7816, 1396.201
265.2637, 1394.123
265.7458, 1381.023
266.2280, 1397.346
266.7101, 1456.076
267.1922, 1519.979
267.6743, 1551.750
268.1564, 1541.525
268.6385, 1530.490
269.1207, 1521.178
269.6028, 1518.393
270.0849, 1570.486
270.5670, 1695.369
271.0491, 1833.926
271.5313, 1920.824
272.0134, 1943.918
272.4955, 1985.518
272.9776, 2077.523
273.4597, 2208.445
273.9418, 2284.598
274.4240, 2296.494
274.9061, 2278.293
275.3882, 2257.791
275.8703, 2232.820
276.3524, 2228.709
276.8345, 2269.000
277.3167, 2339.693
277.7988, 2343.922
278.2809, 2271.383
278.7630, 2161.631
279.2451, 2042.518
279.7272, 1912.352
280.2094, 1816.338
280.6915, 1779.949
281.1736, 1791.740
281.6557, 1787.334
282.1378, 1769.361
282.6199, 1726.455
283.1021, 1631.666
283.5842, 1486.434
284.0663, 1354.059
284.5484, 1257.350
285.0305, 1189.492
285.5126, 1124.312
285.9948, 1061.439
286.4769, 1000.053
286.9590, 937.8203
287.4411, 874.7344
287.9232, 814.2246
288.4053, 742.2773
288.8874, 675.1680
289.3695, 672.5840
289.8517, 739.2051
290.3338, 831.5723
290.8159, 931.4180
291.2980, 1027.021
291.7801, 1063.779
292.2622, 992.7578
292.7444, 855.8066
293.2265, 742.1758
293.7086, 653.0020
294.1907, 588.8145
294.6728, 557.7109
295.1549, 554.4883
295.6371, 562.1152
296.1192, 581.2539
296.6013, 605.6621
297.0834, 623.5625
297.5655, 635.4492
298.0476, 642.2168
298.5298, 648.2812
299.0119, 650.1562
299.4940, 639.5156
299.9761, 592.6738
300.4582, 540.2422
300.9403, 534.2773
301.4225, 574.7559
301.9046, 604.9629
302.3867, 563.4023
302.8688, 482.7266
303.3509, 416.4414
303.8330, 388.1777
304.3152, 378.7285
304.7973, 376.9785
305.2794, 383.2559
305.7615, 383.3711
306.2436, 352.9336
306.7257, 310.6875
307.2079, 285.4102
307.6900, 302.1309
308.1721, 329.6465
308.6542, 343.7676
309.1363, 344.1543
309.6184, 346.1465
310.1006, 349.5195
310.5827, 363.3730
311.0648, 396.6875
311.5469, 478.6309
312.0290, 557.0586
312.5111, 603.9609
312.9933, 620.2324
313.4754, 624.5977
313.9575, 599.6777
314.4396, 578.3359
314.9217, 591.2402
315.4038, 676.8906
315.8860, 770.4727
316.3681, 851.4082
316.8502, 920.8340
317.3323, 984.8203
317.8144, 1046.250
318.2965, 1100.518
318.7787, 1142.832
319.2608, 1150.836
319.7429, 1168.703
320.2250, 1210.662
320.7071, 1274.637
321.1892, 1339.303
321.6713, 1392.221
322.1534, 1449.115
322.6356, 1519.855
323.1177, 1621.451
323.5998, 1719.848
324.0819, 1804.131
324.5640, 1877.693
325.0461, 1965.521
325.5283, 2084.297
326.0104, 2205.701
326.4925, 2314.330
326.9746, 2397.598
327.4567, 2485.062
327.9388, 2580.330
328.4210, 2681.793
328.9031, 2781.639
329.3852, 2882.555
329.8673, 2978.559
330.3494, 3069.561
330.8315, 3161.906
331.3137, 3235.580
331.7958, 3282.461
332.2779, 3310.232
332.7600, 3351.832
333.2421, 3437.414
333.7242, 3483.764
334.2064, 3444.520
334.6885, 3302.898
335.1706, 3134.152
335.6527, 2929.729
336.1348, 2708.166
336.6169, 2509.184
337.0991, 2338.176
337.5812, 2176.732
338.0633, 2016.045
338.5454, 1854.982
339.0275, 1699.820
339.5096, 1548.238
339.9918, 1408.264
340.4739, 1304.535
340.9560, 1239.254
341.4381, 1173.514
341.9202, 1082.885
342.4023, 970.5859
342.8845, 874.2832
343.3666, 792.9883
343.8487, 730.2871
344.3308, 701.0645
344.8129, 701.5430
345.2950, 693.7012
345.7772, 650.4883
346.2593, 585.6992
346.7414, 543.6211
347.2235, 528.4629
347.7056, 511.2578
348.1877, 449.8594
348.6699, 358.1387
349.1520, 280.6250
349.6341, 248.8477
350.1162, 238.5176
350.5983, 215.0254
351.0804, 177.9824
351.5626, 140.3047
352.0447, 112.1465
352.5268, 90.81445
353.0089, 71.56641
353.4910, 50.17578
353.9731, 33.33789
354.4552, 23.10156
354.9373, 18.32227
355.4195, 19.72266
355.9016, 32.09961
356.3837, 50.39453
356.8658, 69.10156
357.3479, 95.05859
357.8300, 109.8477
358.3122, 106.5762
358.7943, 86.38477
359.2764, 53.91602
359.7585, 7.826172
360.2406, 69.68945
360.7227, 110.4883
361.2049, 109.3711
361.6870, 105.9473
362.1691, 118.7754
362.6512, 139.1504
363.1333, 135.8965
363.6154, 68.79492
364.0976, 1.783203
364.5797, 32.75391
365.0618, 6.097656
365.5439, 14.74219
366.0260, 20.10742
366.5081, 17.21289
366.9903, 23.74023
367.4724, 61.94531
367.9545, 87.30273
368.4366, 80.75195
368.9187, 21.93164
369.4008, 15.02344
369.8830, 14.52539
370.3651, 9.3750000E-02
370.8472, 12.95508
371.3293, 73.06250
371.8114, 122.5254
372.2935, 144.5742
372.7757, 138.0781
373.2578, 109.3887
373.7399, 44.69336
374.2220, 20.46484
374.7041, 37.21875
375.1862, 1.484375
375.6684, 48.75000
376.1505, 95.61719
376.6326, 140.6523
377.1147, 178.2480
377.5968, 208.0098
378.0789, 230.6582
378.5611, 251.2871
379.0432, 268.2500
379.5253, 264.6074
380.0074, 226.8887
380.4895, 172.9336
380.9716, 138.9492
381.4538, 124.9727
381.9359, 126.4746
382.4180, 149.5820
382.9001, 185.5645
383.3822, 212.0176
383.8643, 222.0840
384.3465, 225.0898
384.8286, 234.2656
385.3107, 246.5078
385.7928, 250.9453
386.2749, 222.3379
386.7570, 190.3789
387.2391, 194.1738
387.7213, 252.0918
388.2034, 308.3848
388.6855, 325.5703
389.1676, 313.2754
389.6497, 290.2070
390.1318, 234.8379
390.6140, 193.3555
391.0961, 205.4043
391.5782, 287.9082
392.0603, 348.9316
392.5424, 327.2910
393.0245, 273.9336
393.5067, 251.5273
393.9888, 307.9648
394.4709, 364.5137
394.9530, 400.7188
395.4351, 415.1426
395.9172, 417.3027
396.3994, 392.0840
396.8815, 364.0293
397.3636, 353.4766
397.8457, 385.2285
398.3278, 401.3945
398.8099, 385.7832
399.2921, 345.0137
399.7742, 332.7305
400.2563, 376.1758
400.7384, 411.8750
401.2205, 394.2773
401.7026, 294.7930
402.1848, 233.6504
402.6669, 229.6719
403.1490, 261.1934
403.6311, 275.4414
404.1132, 271.2207
404.5953, 254.6562
405.0775, 221.8027
405.5596, 173.0879
406.0417, 142.6191
406.5238, 134.3691
407.0059, 135.6777
407.4880, 123.9902
407.9702, 101.3848
408.4523, 93.46875
408.9344, 135.2363
409.4165, 196.7383
409.8986, 188.8125
410.3807, 108.9395
410.8629, 16.48438
411.3450, 43.11328
411.8271, 73.59180
412.3092, 82.88672
412.7913, 59.01367
413.2734, 27.65820
413.7556, 18.87695
414.2377, 28.29688
414.7198, 27.80078
415.2019, 16.29297
415.6840, 70.66016
416.1661, 101.3887
416.6483, 84.96875
417.1304, 69.04102
417.6125, 76.13672
418.0946, 97.44922
418.5767, 118.6270
419.0588, 124.9141
419.5410, 140.8027
420.0230, 179.1387
420.5052, 250.4727
420.9873, 318.5957
421.4694, 386.0664
421.9515, 449.0059
422.4336, 498.7305
422.9157, 499.4395
423.3979, 527.7969
423.8800, 607.9043
424.3621, 747.2500
424.8442, 876.1680
425.3263, 986.5254
425.8084, 1092.127
426.2906, 1198.449
426.7727, 1294.787
427.2548, 1435.691
427.7369, 1644.131
428.2190, 1901.047
428.7011, 2125.967
429.1833, 2312.939
429.6654, 2491.180
430.1475, 2675.234
430.6296, 2866.547
431.1117, 3073.490
431.5938, 3296.953
432.0760, 3532.680
432.5581, 3785.980
433.0402, 4056.467
433.5223, 4310.615
434.0044, 4526.922
434.4865, 4719.492
434.9687, 4909.867
435.4508, 5098.078
435.9329, 5298.371
436.4150, 5525.178
436.8971, 5774.873
437.3792, 6035.994
437.8614, 6300.229
438.3435, 6581.809
438.8256, 6882.885
439.3077, 7206.348
439.7898, 7572.465
440.2719, 8028.947
440.7541, 8513.453
441.2362, 8971.645
441.7183, 9394.094
442.2004, 9793.990
442.6825, 10222.63
443.1646, 10633.36
443.6468, 10897.01
444.1289, 10996.01
444.6110, 10941.52
445.0931, 10722.05
445.5752, 10309.64
446.0573, 9830.906
446.5395, 9264.119
447.0216, 8644.340
447.5037, 7998.314
447.9858, 7291.133
448.4679, 6627.242
448.9500, 6022.328
449.4322, 5477.939
449.9143, 4981.771
450.3964, 4530.268
450.8785, 4126.607
451.3606, 3794.426
451.8427, 3531.359
452.3249, 3254.068
452.8070, 2936.059
453.2891, 2613.090
453.7712, 2353.625
454.2533, 2153.514
454.7354, 1987.584
455.2175, 1854.527
455.6996, 1742.064
456.1818, 1614.203
456.6639, 1464.221
457.1460, 1331.309
457.6281, 1264.488
458.1102, 1239.643
458.5923, 1212.133
459.0745, 1137.057
459.5566, 1073.439
460.0387, 1074.875
460.5208, 1137.322
461.0029, 1193.529
461.4850, 1220.426
461.9672, 1225.602
462.4493, 1215.014
462.9314, 1149.500
463.4135, 1108.512
463.8956, 1122.213
464.3777, 1176.486
464.8599, 1224.592
465.3420, 1276.154
465.8241, 1305.986
466.3062, 1297.406
466.7883, 1230.281
467.2704, 1195.875
467.7526, 1202.293
468.2347, 1233.840
468.7168, 1277.609
469.1989, 1340.984
469.6810, 1379.686
470.1631, 1373.176
470.6453, 1337.592
471.1274, 1351.736
471.6095, 1423.268
472.0916, 1499.441
472.5737, 1539.924
473.0558, 1548.686
473.5380, 1540.049
474.0201, 1513.873
474.5022, 1485.895
474.9843, 1494.172
475.4664, 1524.062
475.9485, 1520.383
476.4307, 1425.986
476.9128, 1295.703
477.3949, 1188.650
477.8770, 1108.031
478.3591, 1037.643
478.8412, 967.5586
479.3234, 901.9219
479.8055, 845.5000
480.2876, 835.1797
480.7697, 799.3027
481.2518, 685.1973
481.7339, 513.2070
482.2161, 388.5156
482.6982, 374.6328
483.1803, 379.3711
483.6624, 357.5137
484.1445, 287.1777
484.6266, 232.6777
485.1088, 196.5703
485.5909, 174.7090
486.0730, 161.8477
486.5551, 160.9004
487.0372, 164.8164
487.5193, 173.9590
488.0014, 188.9922
488.4836, 199.7188
488.9657, 208.0430
489.4478, 203.2578
489.9299, 160.4512
490.4120, 86.39453
490.8941, 54.17188
491.3763, 89.50391
491.8584, 146.9453
492.3405, 156.2500
492.8226, 124.1211
493.3047, 82.27539
493.7868, 28.27734
494.2690, 15.07227
494.7511, 5.896484
495.2332, 66.07031
495.7153, 127.9746
496.1974, 124.9082
496.6795, 91.02930
497.1617, 65.73828
497.6438, 59.97852
498.1259, 66.06836
498.6080, 91.05469
499.0901, 129.5117
499.5722, 154.6855
500.0544, 148.8242
500.5365, 136.6484
501.0186, 130.1504
501.5007, 132.8848
501.9828, 132.1641
502.4649, 130.2676
502.9471, 127.7480
503.4292, 118.3672
503.9113, 90.47656
504.3934, 72.69922
504.8755, 87.25391
505.3576, 125.9043
505.8398, 127.3164
506.3219, 85.88477
506.8040, 41.38281
507.2861, 30.77930
507.7682, 44.40430
508.2503, 49.50781
508.7325, 40.72461
509.2146, 28.88867
509.6967, 21.08789
510.1788, 19.60742
510.6609, 33.55273
511.1430, 100.9004
511.6252, 164.3965
512.1072, 152.0000
512.5894, 59.99414
513.0715, 10.85352
513.5536, 11.85547
514.0357, 70.57812
514.5178, 113.8203
514.9999, 114.5781
515.4821, 116.2324
515.9642, 131.0664
516.4463, 154.3574
516.9284, 171.9414
517.4105, 202.3359
517.8926, 206.7949
518.3748, 164.5078
518.8569, 62.65234
519.3390, 12.63867
519.8211, 69.00195
520.3032, 87.91992
520.7853, 28.12305
521.2675, 125.9219
521.7496, 223.2539
522.2317, 224.0723
522.7138, 161.1895
523.1959, 103.2715
523.6780, 50.64453
524.1602, 18.79102
524.6423, 25.32812
525.1244, 57.61328
525.6065, 100.5293
526.0886, 155.6953
526.5707, 192.2871
527.0529, 177.2051
527.5350, 129.8711
528.0171, 79.45117
528.4992, 22.51758
528.9813, 21.58984
529.4634, 44.77344
529.9456, 47.52734
530.4277, 34.06055
530.9098, 15.51367
531.3919, 64.46289
531.8740, 93.77344
532.3561, 95.64258
532.8383, 92.21875
533.3204, 75.95703
533.8025, 59.19531
534.2846, 58.00977
534.7667, 76.20312
535.2488, 101.7129
535.7310, 142.5645
536.2131, 187.2520
536.6952, 175.9277
537.1773, 101.2812
537.6594, 31.51172
538.1415, 25.81836
538.6237, 66.12695
539.1058, 77.51367
539.5879, 47.49023
540.0700, 16.56055
540.5521, 35.74023
541.0342, 85.95508
541.5164, 126.9844
541.9985, 152.4941
542.4806, 154.3379
542.9627, 104.6738
543.4448, 15.24609
543.9269, 41.72461
544.4091, 19.94727
544.8912, 29.61523
545.3733, 81.13477
545.8554, 142.6504
546.3375, 180.9199
546.8196, 187.9414
547.3018, 172.7520
547.7839, 142.0762
548.2660, 75.10938
548.7481, 33.84766
549.2302, 36.12305
549.7123, 74.94922
550.1945, 118.8418
550.6766, 175.2383
551.1587, 202.0293
551.6408, 142.8184
552.1229, 17.72852
552.6050, 41.42773
553.0872, 16.65234
553.5693, 35.97070
554.0514, 55.82617
554.5335, 52.82617
555.0156, 51.34570
555.4977, 76.94141
555.9799, 94.65234
556.4620, 62.82227
556.9441, 6.990234
557.4262, 59.82422
557.9083, 61.65234
558.3904, 44.95703
558.8726, 26.08008
559.3547, 1.312500
559.8368, 9.570313
560.3189, 29.43945
560.8010, 68.07812
561.2831, 45.15039
561.7653, 93.05078
562.2474, 190.6426
562.7295, 216.6562
563.2116, 182.4062
563.6937, 128.5781
564.1758, 45.40039
564.6580, 12.13672
565.1401, 8.443359
565.6222, 90.17188
566.1043, 122.9297
566.5864, 96.24219
567.0685, 61.50586
567.5507, 87.18945
568.0327, 144.9062
568.5148, 172.6406
568.9969, 123.2070
569.4791, 69.45898
569.9612, 74.81836
570.4433, 123.9688
570.9254, 169.1094
571.4075, 183.6660
571.8896, 194.2969
572.3718, 217.1172
572.8539, 259.4727
573.3360, 285.3789
573.8181, 283.5410
574.3002, 269.8750
574.7823, 256.9512
575.2645, 247.6094
575.7466, 232.1914
576.2287, 209.0977
576.7108, 179.9668
577.1929, 142.9023
577.6750, 93.15820
578.1572, 55.46289
578.6393, 46.77734
579.1214, 61.40430
579.6035, 89.45703
580.0856, 131.4355
580.5677, 167.2148
581.0499, 185.1309
581.5320, 185.0664
582.0141, 159.9434
582.4962, 91.16016
582.9783, 38.77930
583.4604, 55.24219
583.9426, 110.4844
584.4247, 151.8320
584.9068, 153.6641
585.3889, 149.3086
585.8710, 141.3262
586.3531, 130.1660
586.8353, 141.1758
587.3174, 191.2852
587.7995, 242.8359
588.2816, 275.4434
588.7637, 287.2070
589.2458, 289.4492
589.7280, 277.2715
590.2101, 263.5410
590.6922, 272.8418
591.1743, 301.9043
591.6564, 316.3398
592.1385, 302.1602
592.6207, 272.1055
593.1028, 244.3242
593.5849, 219.0000
594.0670, 194.3965
594.5491, 160.4922
595.0313, 134.0195
595.5134, 133.3262
595.9955, 163.5020
596.4776, 195.2031
596.9597, 237.4668
597.4418, 265.8965
597.9240, 257.7012
598.4061, 153.7109
598.8882, 86.32227
599.3703, 76.09375
599.8524, 102.1152
600.3345, 113.1582
600.8167, 96.53125
601.2988, 98.34375
601.7809, 144.8926
602.2630, 229.3809
602.7451, 267.5176
603.2272, 254.5371
603.7094, 226.6035
604.1915, 208.6523
604.6736, 202.1562
605.1557, 201.7285
605.6378, 207.8340
606.1199, 212.8906
606.6021, 200.8496
607.0842, 185.9512
607.5663, 189.9590
608.0484, 264.6465
608.5305, 315.5391
609.0126, 283.7051
609.4948, 186.5117
609.9769, 125.1680
610.4590, 144.3086
610.9411, 169.7012
611.4232, 167.6406
611.9053, 123.1016
612.3875, 124.0137
612.8696, 183.5918
613.3517, 262.0195
613.8338, 327.0059
614.3159, 377.0117
614.7980, 384.3262
615.2802, 328.4512
615.7623, 262.5098
616.2444, 281.8691
616.7265, 361.9043
617.2086, 420.0469
617.6907, 387.4570
618.1729, 330.4238
618.6550, 304.4688
619.1371, 313.0488
619.6192, 341.5977
620.1013, 399.4375
620.5834, 455.7129
621.0656, 495.1328
621.5477, 526.7637
622.0298, 511.0684
622.5119, 389.8457
622.9940, 264.9707
623.4761, 261.1328
623.9583, 424.3906
624.4404, 542.2676
624.9225, 570.4590
625.4046, 541.1660
625.8867, 521.8105
626.3688, 511.2363
626.8510, 523.0859
627.3331, 591.4902
627.8152, 677.1328
628.2973, 702.1133
628.7794, 666.8008
629.2615, 627.7930
629.7437, 636.1738
630.2258, 651.3184
630.7079, 632.1250
631.1900, 551.5117
631.6721, 482.6289
632.1542, 453.0195
632.6364, 444.4219
633.1185, 432.5371
633.6006, 417.4883
634.0826, 400.2754
634.5648, 387.4688
635.0469, 372.8223
635.5290, 320.6543
636.0111, 221.1035
636.4932, 145.0039
636.9753, 139.8770
637.4575, 190.5527
637.9396, 241.5723
638.4217, 293.9707
638.9038, 322.7227
639.3859, 288.3398
639.8680, 224.3691
640.3502, 175.8828
640.8323, 150.4629
641.3144, 143.0020
641.7965, 159.2344
642.2786, 187.8926
642.7607, 214.0234
643.2429, 216.6973
643.7250, 236.2441
644.2071, 287.3867
644.6892, 361.1113
645.1713, 419.3066
645.6534, 465.2344
646.1356, 486.4453
646.6177, 468.4023
647.0998, 415.3477
647.5819, 380.7520
648.0640, 365.9922
648.5461, 356.4297
649.0283, 333.2500
649.5104, 306.8848
649.9925, 303.8652
650.4746, 337.3301
650.9567, 364.1016
651.4388, 338.1660
651.9210, 288.4473
652.4031, 257.0430
652.8852, 279.4219
653.3673, 297.2090
653.8494, 299.9863
654.3315, 286.2070
654.8137, 249.8223
655.2958, 170.7539
655.7779, 101.5566
656.2600, 61.43555
656.7421, 47.32812
657.2242, 50.10547
657.7064, 72.96289
658.1885, 96.82422
658.6706, 100.3965
659.1527, 89.40625
659.6348, 91.76953
660.1169, 116.4316
660.5991, 128.0996
661.0812, 76.51758
661.5633, 2.972656
662.0454, 59.20898
662.5275, 62.99609
663.0096, 53.61914
663.4918, 37.07031
663.9739, 16.33984
664.4560, 1.632813
664.9381, 0.5449220
665.4202, 4.230469
665.9023, 21.50000
666.3845, 49.53125
666.8666, 58.11523
667.3487, 44.45508
667.8308, 24.82812
668.3129, 7.000000
668.7950, 7.544922
669.2772, 12.04883
669.7593, 5.417969
670.2414, 5.638672
670.7235, 6.404297
671.2056, 9.431641
671.6877, 35.07617
672.1699, 107.2266
672.6520, 170.7168
673.1341, 208.6797
673.6162, 221.2852
674.0983, 208.1777
674.5804, 135.3457
675.0626, 78.04102
675.5447, 49.72070
676.0268, 48.00781
676.5089, 66.50195
676.9910, 114.1406
677.4731, 147.3828
677.9553, 134.2305
678.4374, 85.60938
678.9195, 44.85352
679.4016, 12.05859
679.8837, 4.222656
680.3658, 72.51758
680.8480, 159.1484
681.3301, 183.3203
681.8122, 109.6582
682.2943, 35.82812
682.7764, 5.542969
683.2585, 17.38867
683.7407, 2.859375
684.2228, 86.82812
684.7049, 136.1504
685.1870, 113.6504
685.6691, 51.97070
686.1512, 39.99219
686.6334, 91.39258
687.1155, 128.6055
687.5976, 112.7578
688.0797, 65.78516
688.5618, 65.39844
689.0439, 106.8867
689.5261, 135.6973
690.0082, 90.93359
690.4903, 25.30469
690.9724, 0.6367190
691.4545, 25.35352
691.9366, 53.99609
692.4188, 71.13867
692.9009, 80.05664
693.3830, 82.50195
693.8651, 64.66992
694.3472, 62.94141
694.8293, 84.83398
695.3115, 116.0664
695.7936, 138.4863
696.2757, 152.0020
696.7578, 157.8438
697.2399, 154.0059
697.7220, 146.2285
698.2042, 147.0000
698.6863, 154.4668
699.1684, 159.6328
699.6505, 154.9824
700.1326, 147.9727
700.6147, 143.4590
701.0968, 141.8848
701.5789, 145.6152
702.0610, 160.7734
702.5432, 177.3594
703.0253, 194.7598
703.5074, 218.2754
703.9895, 210.4844
704.4716, 152.6797
704.9537, 92.17773
705.4359, 70.01562
705.9180, 87.19141
706.4001, 95.37891
706.8822, 86.04492
707.3643, 82.50391
707.8464, 128.5879
708.3286, 201.6758
708.8107, 247.1621
709.2928, 227.3301
709.7749, 203.7676
710.2570, 235.7656
710.7391, 292.3652
711.2213, 306.8047
711.7034, 226.2812
712.1855, 140.8301
712.6676, 62.96875
713.1497, 2.833984
713.6318, 28.22852
714.1140, 3.365234
714.5961, 31.31641
715.0782, 18.49023
715.5603, 24.57617
716.0424, 32.86328
716.5245, 5.482422
717.0067, 23.05469
717.4888, 20.61133
717.9709, 4.087891
718.4530, 5.537109
718.9351, 5.248047
719.4172, 0.2050780
719.8994, 13.50781
720.3815, 26.31250
720.8636, 27.56641
721.3457, 0.5781250
721.8278, 15.81250
722.3099, 20.97266
722.7921, 17.47656
723.2742, 7.753906
723.7563, 8.312500
724.2384, 29.52734
724.7205, 56.62500
725.2026, 86.55859
725.6848, 125.7969
726.1669, 167.1562
726.6490, 177.8125
727.1311, 101.9727
727.6132, 24.16406
728.0953, 17.91797
728.5775, 74.04688
729.0596, 114.4180
729.5417, 88.13672
730.0238, 70.39062
730.5059, 105.1133
730.9880, 202.6875
731.4702, 225.6172
731.9523, 143.4375
732.4344, 63.73438
732.9165, 82.35156
733.3986, 183.8672
733.8807, 262.8242
734.3629, 309.7656
734.8450, 337.6094
735.3271, 360.2617
735.8092, 370.4609
736.2913, 356.1953
736.7734, 304.0938
737.2556, 247.1016
737.7377, 168.0430
738.2198, 102.5820
738.7019, 108.3125
739.1840, 249.6914
739.6661, 351.4609
740.1483, 383.9258
740.6304, 368.8281
741.1125, 355.0352
741.5946, 343.9570
742.0767, 336.1992
742.5588, 341.2656
743.0410, 342.4453
743.5231, 289.7617
744.0052, 199.9062
744.4873, 145.6406
744.9694, 172.6836
745.4515, 244.9258
745.9337, 374.2188
746.4158, 560.4414
746.8979, 644.1680
747.3800, 509.6758
747.8621, 372.1289
748.3442, 339.1914
748.8264, 426.3320
749.3085, 485.2773
749.7906, 513.3789
750.2727, 513.9375
750.7548, 479.1797
751.2369, 419.4844
751.7191, 361.7812
752.2012, 309.8477
752.6833, 263.5703
753.1654, 227.6680
753.6475, 197.4492
754.1296, 166.4648
754.6118, 104.1484
755.0939, 84.48047
755.5760, 154.5508
756.0581, 258.2109
756.5402, 319.5508
757.0223, 332.2969
757.5045, 319.4453
757.9866, 272.8984
758.4687, 218.1445
758.9508, 217.0117
759.4329, 260.2617
759.9150, 301.0703
760.3972, 315.6641
760.8793, 318.0625
761.3614, 307.9102
761.8435, 293.7461
762.3256, 308.5039
762.8077, 430.7695
763.2899, 519.6836
763.7720, 493.9961
764.2541, 364.5000
764.7362, 282.6172
765.2183, 258.8633
765.7004, 259.7344
766.1825, 290.5859
766.6646, 340.3125
767.1467, 295.6562
767.6288, 155.3203
768.1110, 36.73828
768.5931, 53.96484
769.0752, 137.1367
769.5573, 210.3398
770.0394, 263.6602
770.5215, 303.8867
771.0037, 335.2852
771.4858, 351.3320
771.9679, 350.3477
772.4500, 333.4375
772.9321, 286.0352
773.4142, 184.6562
773.8964, 88.74609
774.3785, 81.32812
774.8606, 153.0195
775.3427, 230.4883
775.8248, 311.1016
776.3069, 361.2070
776.7891, 319.2734
777.2712, 228.8555
777.7533, 164.1523
778.2354, 191.3047
778.7175, 203.6641
779.1996, 133.7773
779.6818, 30.37109
780.1639, 7.648438
780.6460, 121.3906
781.1281, 198.0195
781.6102, 192.4688
782.0923, 132.0469
782.5745, 83.65625
783.0566, 48.16016
783.5387, 39.87109
784.0208, 98.14062
784.5029, 163.9102
784.9850, 143.9727
785.4672, 61.72266
785.9493, 19.46094
786.4314, 99.23438
786.9135, 193.3906
787.3956, 252.7109
787.8777, 276.0938
788.3599, 308.2969
788.8420, 360.5508
789.3241, 402.0430
789.8062, 410.7969
790.2883, 386.2734
790.7704, 349.0039
791.2526, 299.1172
791.7347, 262.6484
792.2168, 274.4609
792.6989, 301.2148
793.1810, 298.8672
793.6631, 258.3984
794.1453, 231.9922
794.6274, 263.9336
795.1095, 297.4297
795.5916, 287.7344
796.0737, 210.5938
796.5558, 169.6836
797.0380, 172.1172
797.5201, 195.3711
798.0022, 228.0820
798.4843, 265.3906
798.9664, 278.5000
799.4485, 263.0234
799.9307, 228.4023
800.4128, 167.4102
800.8949, 99.19531
801.3770, 48.92188
801.8591, 34.58594
802.3412, 20.44141
802.8234, 10.52344
803.3055, 41.19141
803.7876, 49.26562
804.2697, 26.86719
804.7518, 9.058594
805.2339, 1.199219
805.7161, 1.101563
806.1982, 3.730469
806.6803, 9.480469
807.1624, 10.83203
807.6445, 88.51172
808.1266, 160.0820
808.6088, 153.4414
809.0909, 105.4922
809.5730, 92.96094
810.0551, 178.3398
810.5372, 249.7539
811.0193, 280.6172
811.5015, 285.5742
811.9836, 297.1914
812.4657, 313.6445
812.9478, 347.6250
813.4299, 401.7148
813.9120, 478.1758
814.3942, 600.6680
814.8763, 752.0508
815.3584, 868.6641
815.8405, 944.5078
816.3226, 951.0078
816.8047, 829.9570
817.2869, 606.2695
817.7690, 450.6445
818.2511, 399.0312
818.7332, 377.4609
819.2153, 359.3984
819.6974, 351.5703
820.1796, 422.1914
820.6617, 574.1211
821.1438, 666.5547
821.6259, 568.8594
822.1080, 391.7969
822.5901, 262.2695
823.0723, 185.5625
823.5544, 158.9766
824.0365, 231.8516
824.5186, 308.2383
825.0007, 335.2227
825.4828, 310.5703
825.9650, 282.1328
826.4471, 241.6172
826.9292, 216.2383
827.4113, 235.0547
827.8934, 285.5195
828.3755, 299.1445
828.8577, 275.8008
829.3398, 244.8438
829.8219, 218.3164
830.3040, 201.7617
830.7861, 206.1953
831.2682, 236.1719
831.7503, 255.4414
832.2324, 245.2148
832.7145, 232.8281
833.1967, 233.2227
833.6788, 248.8555
834.1609, 258.1055
834.6430, 259.7070
835.1251, 259.5977
835.6072, 255.7773
836.0894, 254.8359
836.5715, 280.9297
837.0536, 339.5547
837.5357, 373.6367
838.0178, 325.1797
838.4999, 254.7812
838.9821, 210.2188
839.4642, 208.8828
839.9463, 196.4297
840.4284, 161.0820
840.9105, 135.7500
841.3926, 164.1484
841.8748, 240.0742
842.3569, 272.2891
842.8390, 252.5547
843.3211, 209.4414
843.8032, 157.5234
844.2853, 104.6797
844.7675, 60.78125
845.2496, 30.09766
845.7317, 1.527344
846.2138, 49.18750
846.6959, 83.13672
847.1780, 59.92188
847.6602, 45.56250
848.1423, 97.63672
848.6244, 78.87109
849.1065, 44.19922
849.5886, 59.28125
850.0707, 105.9062
850.5529, 136.1953
851.0350, 137.8516
851.5171, 138.2969
851.9992, 156.9023
852.4813, 181.2500
852.9634, 200.1211
853.4456, 217.5273
853.9277, 215.5234
854.4098, 182.1680
854.8919, 145.3125
855.3740, 146.4258
855.8561, 180.7812
856.3383, 178.1641
856.8204, 123.8555
857.3025, 60.56641
857.7846, 27.47266
858.2667, 13.53125
858.7488, 3.296875
859.2310, 9.777344
859.7131, 12.52344
860.1952, 1.253906
860.6773, 23.87109
861.1594, 52.64453
861.6415, 93.78906
862.1237, 116.7305
862.6058, 117.3438
863.0879, 101.5156
863.5700, 68.07422
864.0521, 24.82812
864.5342, 12.47656
865.0164, 39.91797
865.4985, 50.75000
865.9806, 28.18359
866.4627, 11.38672
866.9448, 49.39453
867.4269, 91.54297
867.9091, 103.6680
868.3912, 78.86719
868.8733, 47.81250
869.3554, 52.08594
869.8375, 84.21875
870.3196, 100.4492
870.8018, 91.91797
871.2839, 77.28516
871.7660, 69.20703
872.2481, 65.55469
872.7302, 65.97266
873.2123, 71.63672
873.6945, 78.28906
874.1766, 89.73828
874.6587, 96.87500
875.1408, 86.71094
875.6229, 57.64844
876.1050, 41.01562
876.5872, 41.40625
877.0693, 45.74609
877.5514, 46.25000
878.0335, 39.48438
878.5156, 12.09766
878.9977, 57.48828
879.4799, 85.85938
879.9620, 13.74609
880.4441, 94.04297
880.9262, 190.5781
881.4083, 294.9297
881.8904, 304.3750
882.3726, 190.6133
882.8547, 64.48438
883.3368, 63.57031
883.8189, 140.8164
884.3010, 181.9297
884.7831, 161.9102
885.2653, 143.6875
885.7474, 160.3633
886.2295, 196.6602
886.7116, 245.8008
887.1937, 332.9453
887.6758, 341.4258
888.1580, 227.5195
888.6401, 120.4648
889.1222, 169.8164
889.6043, 337.0508
890.0864, 427.1914
890.5685, 421.4375
891.0507, 378.0508
891.5328, 321.6719
892.0149, 263.2031
892.4970, 210.9688
892.9791, 166.0312
893.4612, 135.0664
893.9434, 128.4766
894.4255, 123.2188
894.9076, 101.6562
895.3897, 64.37500
895.8718, 33.01172
896.3539, 6.683594
896.8361, 5.765625
897.3181, 86.25000
897.8002, 177.2188
898.2823, 187.1016
898.7645, 101.8828
899.2466, 37.58984
899.7287, 39.18359
900.2108, 56.64453
900.6929, 69.68750
901.1750, 78.44141
901.6572, 85.33203
902.1393, 90.29297
902.6214, 105.7578
903.1035, 142.0391
903.5856, 168.5742
904.0677, 147.4453
904.5499, 84.56250
905.0320, 39.17969
905.5141, 39.04688
905.9962, 61.22266
906.4783, 104.5938
906.9604, 165.3711
907.4426, 206.3867
907.9247, 226.6992
908.4068, 232.5508
908.8889, 228.1758
909.3710, 211.0625
909.8531, 163.5039
910.3353, 95.10156
910.8174, 47.51562
911.2995, 53.30859
911.7816, 73.87500
912.2637, 103.2500
912.7458, 135.5117
913.2280, 138.0625
913.7101, 100.4648
914.1922, 70.79688
914.6743, 66.34766
915.1564, 77.69922
915.6385, 86.30859
916.1207, 92.45312
916.6028, 96.87109
917.0849, 93.00391
917.5670, 93.62891
918.0491, 119.8594
918.5313, 153.7969
919.0134, 145.0391
919.4955, 54.80469
919.9776, 21.64844
920.4597, 96.83203
920.9418, 201.3125
921.4240, 171.1133
921.9061, 43.92188
922.3882, 45.25391
922.8703, 27.57812
923.3524, 0.5820310
923.8345, 40.02734
924.3167, 99.94141
924.7988, 110.0156
925.2809, 29.77344
925.7630, 25.58984
926.2451, 42.89844
926.7272, 42.45703
927.2094, 53.42188
927.6915, 70.30859
928.1736, 60.90234
928.6557, 8.160156
929.1378, 19.00391
929.6199, 64.24609
930.1021, 179.2031
930.5842, 246.5625
931.0663, 229.5391
931.5484, 214.8359
932.0305, 201.0273
932.5126, 190.6172
932.9948, 185.8125
933.4769, 186.2461
933.9590, 189.8125
934.4411, 196.6016
934.9232, 206.8359
935.4053, 222.3086
935.8875, 239.6914
936.3696, 259.1328
936.8517, 279.8672
937.3338, 278.1836
937.8159, 251.5742
938.2980, 223.1172
938.7802, 202.5273
939.2623, 188.9805
939.7444, 178.7070
940.2265, 171.4609
940.7086, 163.6914
941.1907, 150.1875
941.6729, 138.4727
942.1550, 129.9219
942.6371, 126.2500
943.1192, 140.5703
943.6013, 193.2500
944.0834, 224.4258
944.5656, 207.9961
945.0477, 164.5938
945.5298, 152.9414
946.0119, 169.5586
946.4940, 193.3047
946.9761, 235.3828
947.4583, 258.2266
947.9404, 208.2305
948.4225, 123.1406
948.9046, 89.71484
949.3867, 150.4883
949.8688, 196.0703
950.3510, 210.0156
950.8331, 205.1992
951.3152, 204.1602
951.7973, 203.3984
952.2794, 187.0469
952.7615, 144.0820
953.2437, 104.5391
953.7258, 81.30078
954.2079, 77.67188
954.6900, 101.8594
955.1721, 184.6914
955.6542, 232.7969
956.1364, 242.5625
956.6185, 226.9375
957.1006, 187.4141
957.5827, 133.3750
958.0648, 108.5586
958.5469, 118.4492
959.0291, 102.5352
959.5112, 43.05469
959.9933, 181.1094
960.4754, 192.1406
960.9575, 53.93359
961.4396, 52.31250
961.9218, 123.7109
962.4039, 165.1719
962.8860, 163.7500
963.3680, 136.9141
963.8502, 139.2734
964.3323, 166.0469
964.8144, 193.3008
965.2965, 205.4648
965.7786, 215.3555
966.2607, 236.8125
966.7429, 261.8398
967.2250, 254.5117
967.7071, 197.8906
968.1892, 173.0977
968.6713, 215.9102
969.1534, 282.3281
969.6356, 283.2031
970.1177, 243.7617
970.5998, 226.3477
971.0819, 270.4688
971.5640, 317.0508
972.0461, 348.9492
972.5283, 369.5664
973.0104, 375.3516
973.4925, 352.8125
973.9746, 394.6719
974.4567, 523.5742
974.9388, 653.8633
975.4210, 679.7930
975.9031, 641.7227
976.3852, 598.5039
976.8673, 556.5664
977.3494, 529.6719
977.8315, 530.0781
978.3137, 542.2539
978.7958, 563.1602
979.2779, 594.3242
979.7600, 595.2383
980.2421, 561.4609
980.7242, 540.6406
981.2064, 576.6797
981.6885, 631.5352
982.1706, 656.3281
982.6527, 659.7383
983.1348, 691.6602
983.6169, 772.2773
984.0991, 865.4766
984.5812, 963.3203
985.0633, 1064.512
985.5454, 1171.070
986.0275, 1280.074
986.5096, 1367.805
986.9918, 1416.449
987.4739, 1453.055
987.9560, 1476.156
988.4381, 1508.289
988.9202, 1587.652
989.4023, 1776.879
989.8845, 1919.746
990.3666, 1986.766
990.8487, 2047.234
991.3308, 2187.977
991.8129, 2399.266
992.2950, 2644.461
992.7772, 2929.203
993.2593, 3172.145
993.7414, 3258.387
994.2235, 3322.562
994.7056, 3485.230
995.1877, 3770.090
995.6699, 4017.680
996.1520, 4219.309
996.6341, 4424.617
997.1162, 4648.457
997.5983, 4901.047
998.0804, 5229.457
998.5626, 5615.645
999.0447, 5974.953
999.5268, 6252.652
1000.009, 6509.902
1000.491, 6765.551
1000.973, 7020.438
1001.455, 7290.250
1001.937, 7571.176
1002.419, 7827.625
1002.902, 8056.070
1003.384, 8246.746
1003.866, 8396.316
1004.348, 8494.359
1004.830, 8523.426
1005.312, 8447.508
1005.794, 8355.348
1006.276, 8278.016
1006.759, 8166.672
1007.241, 7952.301
1007.723, 7643.762
1008.205, 7396.281
1008.687, 7218.242
1009.169, 7035.832
1009.651, 6810.137
1010.133, 6537.594
1010.615, 6195.086
1011.098, 5777.875
1011.580, 5432.223
1012.062, 5189.117
1012.544, 4954.457
1013.026, 4682.277
1013.508, 4400.719
1013.990, 4191.172
1014.472, 4042.098
1014.955, 3906.633
1015.437, 3737.148
1015.919, 3602.555
1016.401, 3552.797
1016.883, 3546.656
1017.365, 3520.094
1017.847, 3464.090
1018.329, 3405.562
1018.811, 3347.941
1019.294, 3304.184
1019.776, 3319.777
1020.258, 3353.590
1020.740, 3333.242
1021.222, 3229.309
1021.704, 3166.418
1022.186, 3229.820
1022.668, 3274.945
1023.151, 3222.340
1023.633, 3079.012
1024.115, 2914.016
1024.597, 2729.266
1025.079, 2574.395
1025.561, 2500.469
1026.043, 2451.531
1026.525, 2398.578
1027.007, 2330.926
1027.490, 2215.695
1027.972, 2016.621
1028.454, 1868.383
1028.936, 1805.594
1029.418, 1788.574
1029.900, 1765.270
1030.382, 1732.770
1030.864, 1674.141
1031.346, 1563.094
1031.829, 1492.605
1032.311, 1533.430
1032.793, 1608.918
1033.275, 1660.094
1033.757, 1683.930
1034.239, 1696.652
1034.721, 1696.543
1035.203, 1697.223
1035.686, 1743.016
1036.168, 1769.906
1036.650, 1668.512
1037.132, 1462.707
1037.614, 1341.004
1038.096, 1429.031
1038.578, 1469.086
1039.060, 1390.039
1039.542, 1239.258
1040.025, 1115.707
1040.507, 1019.391
1040.989, 945.0742
1041.471, 899.9805
1041.953, 859.1680
1042.435, 803.7539
1042.917, 746.9727
1043.399, 702.2070
1043.881, 668.6875
1044.364, 652.5391
1044.846, 657.5820
1045.328, 655.5430
1045.810, 613.1250
1046.292, 552.2930
1046.774, 507.8945
1047.256, 479.6289
1047.738, 442.4883
1048.221, 378.2969
1048.703, 316.1523
1049.185, 260.1016
1049.667, 215.3867
1050.149, 207.5156
1050.631, 230.4414
1051.113, 233.3555
1051.595, 191.1484
1052.078, 144.1094
1052.560, 114.2734
1053.042, 99.64453
1053.524, 99.20312
1054.006, 118.5859
1054.488, 133.4141
1054.970, 142.3477
1055.452, 144.3633
1055.934, 137.3086
1056.417, 125.0625
1056.899, 123.0430
1057.381, 128.9414
1057.863, 104.8789
1058.345, 18.53906
1058.827, 106.7188
1059.309, 107.8086
1059.791, 47.62891
1060.273, 8.792969
1060.756, 11.30859
1061.238, 30.67578
1061.720, 61.82031
1062.202, 81.19922
1062.684, 41.84375
1063.166, 7.859375
1063.648, 0.4726560
1064.130, 102.1836
1064.612, 164.1836
1065.095, 181.8672
1065.577, 172.6719
1066.059, 131.7305
1066.541, 83.26172
1067.023, 79.75391
1067.505, 117.5664
1067.987, 133.8281
1068.469, 78.93750
1068.952, 31.60547
1069.434, 15.44141
1069.916, 23.16016
1070.398, 44.59375
1070.880, 75.07812
1071.362, 75.28906
1071.844, 19.79297
1072.326, 38.02344
1072.808, 78.68359
1073.291, 91.62500
1073.773, 54.41016
1074.255, 66.82422
1074.737, 98.80469
1075.219, 25.12109
1075.701, 60.48828
1076.183, 86.67188
1076.665, 76.73047
1077.147, 65.27734
1077.630, 50.29688
1078.112, 15.84375
1078.594, 82.33203
1079.076, 152.8555
1079.558, 178.4180
1080.040, 167.4570
1080.522, 120.0273
1081.004, 48.50781
1081.487, 11.32812
1081.969, 35.45312
1082.451, 55.19531
1082.933, 9.960938
1083.415, 44.58984
1083.897, 60.26172
1084.379, 33.96875
1084.861, 4.250000
1085.344, 55.65625
1085.826, 91.99219
1086.308, 71.77344
1086.790, 41.80469
1087.272, 70.41016
1087.754, 138.1992
1088.236, 164.8008
1088.718, 72.95703
1089.200, 70.52344
1089.682, 228.0781
1090.165, 418.0078
1090.647, 436.7812
1091.129, 331.9648
1091.611, 211.9961
1092.093, 89.80469
1092.575, 6.621094
1093.057, 2.433594
1093.539, 23.16016
1094.022, 34.26953
1094.504, 38.87500
1094.986, 99.82812
1095.468, 211.7617
1095.950, 278.8945
1096.432, 209.1445
1096.914, 116.7305
1097.396, 69.23047
1097.879, 65.62891
1098.361, 116.6250
1098.843, 273.4141
1099.325, 311.8477
1099.807, 189.8086
1100.289, 44.39844
1100.771, 39.00391
1101.253, 101.0820
1101.735, 120.2070
1102.218, 86.60156
1102.700, 61.85938
1103.182, 74.77734
1103.664, 81.43750
1104.146, 64.53906
1104.628, 34.71094
1105.110, 18.60156
1105.592, 15.09375
1106.074, 20.93750
1106.557, 42.83984
1107.039, 57.91797
1107.521, 27.53906
1108.003, 5.234375
1108.485, 51.78906
1108.967, 179.3398
1109.449, 261.3438
1109.931, 297.3906
1110.414, 284.7578
1110.896, 176.9922
1111.378, 59.35938
1111.860, 2.445313
1112.342, 3.238281
1112.824, 31.85547
1113.306, 107.1641
1113.788, 141.1953
1114.271, 103.0391
1114.753, 53.12109
1115.235, 90.29688
1115.717, 168.0391
1116.199, 206.9609
1116.681, 179.0000
1117.163, 148.1289
1117.645, 98.78906
1118.127, 97.17969
1118.609, 209.2930
1119.092, 385.7773
1119.574, 418.9062
1120.056, 336.2773
1120.538, 260.1562
1121.020, 221.1055
1121.502, 234.1250
1121.984, 344.9219
1122.466, 487.3125
1122.949, 593.3281
1123.431, 663.2539
1123.913, 670.6992
1124.395, 609.2109
1124.877, 564.6719
1125.359, 616.3945
1125.841, 706.1758
1126.323, 805.6016
1126.806, 906.4688
1127.288, 953.9883
1127.770, 930.2109
1128.252, 939.4414
1128.734, 1022.926
1129.216, 1132.012
1129.698, 1205.543
1130.180, 1258.465
1130.662, 1316.117
1131.145, 1391.504
1131.627, 1464.395
1132.109, 1532.656
1132.591, 1604.168
1133.073, 1684.629
1133.555, 1768.812
1134.037, 1855.961
1134.519, 1949.043
1135.001, 2056.016
1135.484, 2198.617
1135.966, 2329.070
1136.448, 2442.324
1136.930, 2525.973
1137.412, 2565.113
1137.894, 2560.703
1138.376, 2516.250
1138.858, 2430.938
1139.340, 2340.945
1139.823, 2288.973
1140.305, 2224.828
1140.787, 2114.633
1141.269, 1969.215
1141.751, 1819.156
1142.233, 1664.184
1142.715, 1541.098
1143.197, 1466.031
1143.680, 1408.895
1144.162, 1348.984
1144.644, 1287.570
1145.126, 1224.430
1145.608, 1156.512
1146.090, 1102.133
1146.572, 1063.348
1147.054, 1026.113
1147.536, 968.2617
1148.019, 914.3438
1148.501, 898.1758
1148.983, 914.1133
1149.465, 944.6367
1149.947, 1003.574
1150.429, 1046.055
1150.911, 1077.113
1151.393, 1064.430
1151.875, 918.9883
1152.358, 713.2422
1152.840, 611.5078
1153.322, 634.4570
1153.804, 624.1680
1154.286, 460.8203
1154.768, 343.7148
1155.250, 344.2383
1155.732, 417.0625
1156.215, 441.4648
1156.697, 425.6758
1157.179, 369.9727
1157.661, 252.2344
1158.143, 161.7578
1158.625, 154.8984
1159.107, 177.5273
1159.589, 191.3789
1160.072, 196.9922
1160.554, 212.0938
1161.036, 236.1641
1161.518, 273.7344
1162.000, 352.1719
1162.482, 414.1250
1162.964, 399.1328
1163.446, 351.6094
1163.928, 353.7422
1164.411, 412.1602
1164.893, 436.6523
1165.375, 415.1250
1165.857, 388.2656
1166.339, 412.5117
1166.821, 432.8633
1167.303, 388.1914
1167.785, 287.3477
1168.267, 246.3867
1168.750, 284.5078
1169.232, 296.4648
1169.714, 248.6172
1170.196, 182.4219
1170.678, 146.4492
1171.160, 124.4102
1171.642, 87.60547
1172.124, 14.51172
1172.607, 15.76953
1173.089, 115.6680
1173.571, 210.5078
1174.053, 236.1719
1174.535, 225.3945
1175.017, 232.4648
1175.499, 248.5312
1175.981, 254.6641
1176.464, 220.6445
1176.946, 213.9727
1177.428, 248.7695
1177.910, 284.7969
1178.392, 275.9805
1178.874, 241.8984
1179.356, 235.4336
1179.838, 253.1484
1180.320, 251.7734
1180.802, 195.7656
1181.285, 145.6602
1181.767, 114.0820
1182.249, 97.02344
1182.731, 85.16016
1183.213, 82.30859
1183.695, 105.6250
1184.177, 160.6562
1184.659, 207.9883
1185.142, 238.2656
1185.624, 245.7656
1186.106, 220.2461
1186.588, 174.5117
1187.070, 159.1484
1187.552, 166.7461
1188.034, 164.2422
1188.516, 142.3086
1188.999, 105.7930
1189.481, 36.26172
1189.963, 28.15234
1190.445, 60.92188
1190.927, 62.32031
1191.409, 33.44531
1191.891, 22.30859
1192.373, 71.20312
1192.855, 80.59766
1193.338, 92.29688
1193.820, 147.0234
1194.302, 206.5352
1194.784, 213.5430
1195.266, 165.7969
1195.748, 122.4375
1196.230, 86.89453
1196.712, 60.64453
1197.194, 65.59375
1197.677, 63.23828
1198.159, 8.687500
1198.641, 104.6719
1199.123, 64.85156
1199.605, 125.3477
1200.087, 220.5742
1200.569, 159.9219
1201.051, 100.2734
1201.533, 240.4492
1202.016, 406.7070
1202.498, 412.9180
1202.980, 266.1328
1203.462, 226.3594
1203.944, 302.8516
1204.426, 368.3906
1204.908, 374.0508
1205.390, 351.5391
1205.873, 305.0352
1206.355, 264.4180
1206.837, 283.4844
1207.319, 389.8281
1207.801, 403.0312
1208.283, 313.2461
1208.765, 220.9062
1209.247, 197.3555
1209.729, 200.2812
1210.212, 210.0273
1210.694, 210.3789
1211.176, 152.2266
1211.658, 14.56641
1212.140, 59.26562
1212.622, 51.78516
1213.104, 160.5781
1213.586, 78.03906
1214.068, 44.99609
1214.551, 15.83984
1215.033, 131.1602
1215.515, 188.9805
1215.997, 107.0859
1216.479, 58.80469
1216.961, 72.95312
1217.443, 119.1992
1217.925, 187.1992
1218.408, 251.4570
1218.890, 283.1289
1219.372, 277.7344
1219.854, 240.5781
1220.336, 154.6445
1220.818, 108.0820
1221.300, 142.4297
1221.782, 196.3008
1222.265, 173.9961
1222.747, 122.1250
1223.229, 111.4453
1223.711, 171.3438
1224.193, 181.2930
1224.675, 126.2461
1225.157, 86.88281
1225.639, 121.7539
1226.121, 175.0352
1226.604, 139.2539
1227.086, 66.97656
1227.568, 61.12891
1228.050, 193.8516
1228.532, 276.5469
1229.014, 303.2344
1229.496, 302.2852
1229.978, 273.7148
1230.460, 244.7852
1230.943, 275.4766
1231.425, 338.2656
1231.907, 345.5391
1232.389, 235.9297
1232.871, 189.5469
1233.353, 229.4062
1233.835, 292.8477
1234.317, 320.7500
1234.800, 331.8984
1235.282, 358.9883
1235.764, 397.3789
1236.246, 391.2617
1236.728, 322.0312
1237.210, 297.1406
1237.692, 336.7969
1238.174, 382.7578
1238.656, 356.2031
1239.139, 296.0273
1239.621, 243.6992
1240.103, 203.5977
1240.585, 171.4688
1241.067, 178.7188
1241.549, 210.7070
1242.031, 283.4180
1242.513, 345.4844
1242.995, 298.8320
1243.478, 217.8398
1243.960, 218.6250
1244.442, 352.5977
1244.924, 345.8125
1245.406, 158.1016
1245.888, 14.80469
1246.370, 38.17578
1246.852, 121.6758
1247.335, 137.7266
1247.817, 134.1914
1248.299, 152.9375
1248.781, 249.8359
1249.263, 267.2148
1249.745, 192.7305
1250.227, 122.3047
1250.709, 133.8984
1251.192, 166.7109
1251.674, 157.5000
1252.156, 121.0625
1252.638, 83.03516
1253.120, 33.08594
1253.602, 39.95703
1254.084, 114.0625
1254.566, 180.2070
1255.048, 150.5352
1255.531, 111.9648
1256.013, 183.3320
1256.495, 303.8906
1256.977, 275.3125
1257.459, 59.57422
1257.941, 66.71484
1258.423, 69.50781
1258.905, 20.33594
1259.387, 47.69922
1259.870, 116.7461
1260.352, 174.7188
1260.834, 220.4141
1261.316, 250.6328
1261.798, 265.2539
1262.280, 265.8984
1262.762, 250.7148
1263.244, 237.2656
1263.726, 257.6953
1264.209, 266.1211
1264.691, 217.4688
1265.173, 131.4648
1265.655, 132.8086
1266.137, 215.7461
1266.619, 252.9883
1267.101, 193.0234
1267.583, 139.7383
1268.066, 178.8555
1268.548, 250.0156
1269.030, 321.0430
1269.512, 382.4766
1269.994, 324.2266
1270.476, 174.4336
1270.958, 99.48047
1271.440, 118.1602
1271.922, 156.1914
1272.405, 208.1953
1272.887, 235.8398
1273.369, 197.6406
1273.851, 108.7969
1274.333, 89.92188
1274.815, 129.1836
1275.297, 170.8594
1275.779, 196.5391
1276.261, 214.0938
1276.744, 211.0273
1277.226, 214.3477
1277.708, 269.9805
1278.190, 352.1445
1278.672, 341.3438
1279.154, 253.8438
1279.636, 159.8164
1280.118, 35.40625
1280.601, 1.617188
1281.083, 79.98047
1281.565, 0.0000000E+00
##END=



