##NAMES=Sulphohalite
##RRUFFID=R050479
##IDEAL CHEMISTRY=Na_6_(SO_4_)_2_ClF
##LOCALITY=Searles Lake, Trona, San Bernardino County, California, USA
##OWNER=RRUFF
##SOURCE=California Institute of Technology
##DESCRIPTION=A pair of colorless octahedra
##STATUS=The identification of this mineral has been confirmed by X-ray diffraction and chemical analysis
##URL=rruff.info/R050479
##MEASURED CHEMISTRY=Na_6.00_(S_1.00_O_4_)_2_F_1.00_Cl_1.00_
137.1737, 0.0000000E+00
137.6559, 0.1659090
138.1380, 0.5354610
138.6201, 1.036377
139.1022, 1.541901
139.5843, 1.833649
140.0664, 2.073441
140.5486, 2.620758
141.0307, 4.108505
141.5128, 6.014221
141.9949, 6.502792
142.4770, 4.721924
142.9591, 2.921295
143.4413, 2.088364
143.9234, 1.910080
144.4055, 2.078125
144.8876, 1.946365
145.3697, 0.8348240
145.8518, 0.2039790
146.3340, 0.6727450
146.8161, 1.111862
147.2982, 1.075729
147.7803, 0.6727450
148.2624, 0.3314360
148.7445, 0.5373540
149.2267, 1.950745
149.7088, 2.466171
150.1909, 1.820435
150.6730, 0.9791260
151.1551, 0.2489010
151.6372, 0.2655490
152.1194, 0.4565120
152.6015, 0.1434630
153.0836, 0.9824680
153.5657, 1.789627
154.0478, 2.178909
154.5299, 2.299469
155.0121, 2.221664
155.4942, 1.946808
155.9763, 1.650223
156.4584, 1.690689
156.9405, 2.127029
157.4227, 2.315689
157.9048, 1.799911
158.3869, 0.9252620
158.8690, 0.5109860
159.3511, 1.002380
159.8332, 1.641052
160.3154, 1.286514
160.7975, 0.1087800
161.2796, 1.131897
161.7617, 0.4981080
162.2438, 1.633957
162.7259, 3.105576
163.2081, 2.899719
163.6902, 2.246536
164.1723, 2.117065
164.6544, 2.599792
165.1365, 3.127167
165.6186, 2.922806
166.1008, 1.702698
166.5829, 1.055893
167.0650, 1.849747
167.5471, 2.897888
168.0292, 3.464767
168.5113, 3.369949
168.9935, 2.967590
169.4756, 2.835861
169.9577, 3.095764
170.4398, 3.421280
170.9219, 3.893890
171.4040, 4.351913
171.8862, 4.561920
172.3683, 4.455597
172.8504, 4.282501
173.3325, 4.647980
173.8146, 6.351196
174.2967, 7.661194
174.7789, 8.519745
175.2610, 8.972183
175.7431, 8.926666
176.2252, 8.310883
176.7073, 7.416153
177.1894, 7.235947
177.6716, 8.438675
178.1537, 9.446899
178.6358, 9.908249
179.1179, 9.977432
179.6000, 9.935303
180.0821, 9.895035
180.5643, 9.860962
181.0464, 9.829269
181.5285, 9.664444
182.0106, 9.682953
182.4927, 10.13734
182.9749, 10.94461
183.4570, 11.70335
183.9391, 12.10497
184.4212, 12.43013
184.9033, 13.31667
185.3854, 15.25816
185.8676, 16.96342
186.3497, 17.05736
186.8318, 15.48613
187.3139, 14.19995
187.7960, 14.14804
188.2781, 14.85048
188.7603, 15.93576
189.2424, 17.51553
189.7245, 19.06194
190.2066, 19.83319
190.6887, 19.65579
191.1708, 19.31610
191.6530, 18.65701
192.1351, 18.16185
192.6172, 18.34740
193.0993, 19.44720
193.5814, 21.09830
194.0635, 22.57202
194.5457, 23.73698
195.0278, 24.98495
195.5099, 26.43933
195.9920, 27.97676
196.4741, 29.49535
196.9562, 30.92989
197.4384, 32.29103
197.9205, 33.68527
198.4026, 35.44354
198.8847, 36.72458
199.3668, 37.31789
199.8489, 37.45464
200.3311, 37.36711
200.8132, 37.19420
201.2953, 36.86032
201.7774, 36.50238
202.2595, 36.59389
202.7416, 36.09933
203.2238, 34.69440
203.7059, 32.68033
204.1880, 30.39316
204.6701, 27.98105
205.1522, 25.53403
205.6344, 23.52208
206.1165, 21.98991
206.5986, 20.66026
207.0807, 19.64752
207.5628, 18.80479
208.0449, 17.81453
208.5271, 16.45926
209.0092, 14.90482
209.4913, 13.88037
209.9734, 13.73724
210.4555, 13.63406
210.9376, 13.25800
211.4198, 12.66110
211.9019, 12.02051
212.3840, 11.40060
212.8661, 10.86943
213.3482, 10.60495
213.8303, 10.80316
214.3125, 10.88225
214.7946, 10.37679
215.2767, 9.408264
215.7588, 8.693573
216.2409, 8.756729
216.7230, 9.105057
217.2052, 8.776169
217.6873, 7.440826
218.1694, 6.115555
218.6515, 5.655533
219.1336, 5.972351
219.6157, 6.328308
220.0979, 6.270065
220.5800, 6.096191
221.0621, 6.236862
221.5442, 6.810760
222.0263, 7.395691
222.5084, 7.605301
222.9906, 7.426041
223.4727, 7.016357
223.9548, 6.171814
224.4369, 5.258438
224.9190, 4.431290
225.4011, 3.698624
225.8833, 3.336548
226.3654, 3.929993
226.8475, 5.806290
227.3296, 7.037384
227.8117, 6.587479
228.2938, 5.762558
228.7760, 5.362808
229.2581, 5.546143
229.7402, 5.893967
230.2223, 5.829849
230.7044, 5.210159
231.1866, 4.628510
231.6687, 3.958237
232.1508, 3.470871
232.6329, 3.510666
233.1150, 4.071060
233.5971, 4.677017
234.0793, 4.552139
234.5614, 3.136520
235.0435, 2.399506
235.5256, 2.890961
236.0077, 3.594971
236.4898, 3.857086
236.9720, 3.583252
237.4541, 3.154800
237.9362, 3.126648
238.4183, 3.822433
238.9004, 4.116974
239.3825, 3.776718
239.8647, 3.287918
240.3468, 2.900787
240.8289, 2.676849
241.3110, 2.602661
241.7931, 2.698364
242.2752, 3.153610
242.7574, 3.176926
243.2395, 2.141312
243.7216, 1.202942
244.2037, 1.328537
244.6858, 2.509613
245.1679, 3.813950
245.6501, 4.181366
246.1322, 3.306030
246.6143, 2.626846
247.0964, 1.925049
247.5785, 1.567871
248.0606, 2.066986
248.5428, 3.328323
249.0249, 4.432343
249.5070, 4.405212
249.9891, 3.034286
250.4712, 2.174469
250.9533, 2.259628
251.4355, 2.474518
251.9176, 2.213364
252.3997, 1.473953
252.8818, 0.6629940
253.3639, 5.3084999E-02
253.8460, 0.3137210
254.3282, 0.2795260
254.8103, 0.5407100
255.2924, 1.447464
255.7745, 2.082382
256.2566, 2.405090
256.7387, 2.263260
257.2209, 1.291260
257.7030, 0.2767940
258.1851, 0.9927370
258.6672, 2.7771000E-02
259.1493, 1.117493
259.6314, 1.289825
260.1136, 0.5849300
260.5957, 1.9680001E-03
261.0778, 0.2627720
261.5599, 1.035355
262.0420, 1.226318
262.5241, 0.2894290
263.0063, 0.5951230
263.4884, 0.3737490
263.9705, 0.8105160
264.4526, 1.676132
264.9347, 1.477783
265.4168, 0.7373050
265.8990, 0.3755800
266.3811, 0.5229640
266.8632, 0.8420260
267.3453, 1.217514
267.8275, 1.609619
268.3096, 1.662552
268.7917, 1.056946
269.2738, 0.2060240
269.7559, 0.3716580
270.2380, 0.6663820
270.7202, 0.6976170
271.2023, 0.2943420
271.6844, 0.4552150
272.1665, 0.9107360
272.6486, 0.7066800
273.1307, 0.3691710
273.6129, 0.4643400
274.0950, 0.9890900
274.5771, 1.511795
275.0592, 1.840118
275.5413, 1.974075
276.0234, 1.710312
276.5056, 0.6430360
276.9877, 0.2738040
277.4698, 0.1602330
277.9519, 0.8036800
278.4340, 1.631607
278.9161, 1.560593
279.3983, 0.8244480
279.8804, 0.4695430
280.3625, 0.7796780
280.8446, 1.130127
281.3267, 1.109116
281.8088, 0.8335720
282.2910, 0.5672450
282.7731, 0.3508610
283.2552, 0.2565920
283.7373, 0.6276700
284.2194, 1.848389
284.7015, 2.797638
285.1837, 2.891922
285.6658, 2.433640
286.1479, 1.810654
286.6300, 1.090225
287.1121, 0.4211430
287.5942, 0.2010800
288.0764, 0.6255490
288.5585, 1.047241
289.0406, 1.207474
289.5227, 1.251938
290.0048, 1.326309
290.4869, 1.485947
290.9691, 1.685577
291.4512, 1.899475
291.9333, 2.215668
292.4154, 2.260910
292.8975, 1.563461
293.3796, 0.7838590
293.8618, 0.5046840
294.3439, 0.8726500
294.8260, 1.417603
295.3081, 1.460114
295.7902, 0.8413240
296.2723, 0.4774780
296.7545, 0.8774410
297.2366, 1.322250
297.7187, 1.316483
298.2008, 0.8566440
298.6829, 0.3974300
299.1650, 0.4826510
299.6472, 1.188370
300.1293, 1.707230
300.6114, 1.936905
301.0935, 2.000397
301.5756, 1.889038
302.0577, 1.642181
302.5399, 1.358871
303.0220, 1.124756
303.5041, 0.9363860
303.9862, 0.6804350
304.4683, 0.1367950
304.9504, 0.2000270
305.4326, 4.8126001E-02
305.9147, 0.6051640
306.3968, 0.9078060
306.8789, 0.4817500
307.3610, 0.3813020
307.8431, 0.3030850
308.3253, 1.678864
308.8074, 3.079712
309.2895, 2.969391
309.7716, 2.068680
310.2537, 1.157806
310.7358, 0.5443570
311.2180, 0.2410130
311.7001, 0.3111880
312.1822, 0.9429320
312.6643, 1.597458
313.1464, 2.414505
313.6285, 3.053818
314.1107, 3.160233
314.5928, 2.650497
315.0749, 1.866714
315.5570, 1.231476
316.0392, 0.6857910
316.5213, 0.4600370
317.0034, 0.8056340
317.4855, 1.197250
317.9676, 1.292007
318.4497, 1.099350
318.9319, 0.9226530
319.4140, 1.151794
319.8961, 1.859329
320.3782, 2.259308
320.8603, 2.295456
321.3424, 2.015228
321.8246, 0.9912720
322.3067, 0.3985440
322.7888, 1.215271
323.2709, 0.5548250
323.7530, 1.311050
324.2351, 2.288345
324.7173, 1.629852
325.1994, 1.120026
325.6815, 1.499466
326.1636, 2.256943
326.6457, 2.699341
327.1278, 2.468857
327.6100, 1.885269
328.0921, 1.871597
328.5742, 2.916519
329.0563, 3.534744
329.5384, 3.077652
330.0205, 2.236298
330.5027, 1.605270
330.9848, 1.353287
331.4669, 1.262207
331.9490, 0.9397430
332.4311, 0.1785890
332.9132, 0.2058260
333.3954, 0.4398190
333.8775, 1.102371
334.3596, 1.109482
334.8417, 0.4735870
335.3238, 0.1566160
335.8059, 9.9792004E-02
336.2881, 0.6467440
336.7702, 1.109802
337.2523, 0.9683990
337.7344, 0.8667140
338.2165, 1.176559
338.6986, 1.754608
339.1808, 2.253464
339.6629, 2.452682
340.1450, 2.411377
340.6271, 2.345612
341.1092, 2.247559
341.5913, 2.137924
342.0735, 2.014526
342.5556, 1.888321
343.0377, 1.757050
343.5198, 1.604004
344.0019, 1.493759
344.4840, 1.550858
344.9662, 1.810654
345.4483, 2.080490
345.9304, 2.373428
346.4125, 2.611710
346.8946, 2.730087
347.3767, 2.719086
347.8589, 2.618896
348.3410, 2.411362
348.8231, 2.100830
349.3052, 1.919632
349.7873, 1.958847
350.2694, 2.075134
350.7516, 2.170609
351.2337, 2.250290
351.7158, 2.345490
352.1979, 2.583237
352.6800, 2.858383
353.1621, 2.750366
353.6443, 2.045868
354.1264, 1.432922
354.6085, 1.372284
355.0906, 1.650742
355.5727, 2.001770
356.0548, 2.499100
356.5370, 2.839767
357.0191, 2.381256
357.5012, 1.015503
357.9833, 0.1052400
358.4654, 0.5882260
358.9475, 1.619537
359.4297, 2.188354
359.9118, 2.151535
360.3939, 1.933121
360.8760, 1.815643
361.3581, 1.777298
361.8402, 1.701187
362.3224, 1.549957
362.8045, 1.352737
363.2866, 1.116287
363.7687, 0.8879700
364.2508, 0.9006200
364.7329, 1.337982
365.2151, 1.925323
365.6972, 2.176727
366.1793, 2.017349
366.6614, 1.824310
367.1436, 2.036697
367.6257, 2.455215
368.1078, 2.455750
368.5899, 1.428406
369.0720, 0.3950040
369.5541, 0.3032990
370.0363, 1.028870
370.5184, 1.774963
371.0005, 2.242462
371.4826, 2.473053
371.9647, 2.439575
372.4468, 2.026779
372.9290, 1.620209
373.4111, 1.366409
373.8932, 1.208267
374.3753, 1.009659
374.8574, 0.7144780
375.3395, 0.5003360
375.8217, 0.6280980
376.3038, 1.133987
376.7859, 1.652817
377.2680, 2.405548
377.7501, 2.983612
378.2322, 2.856506
378.7144, 2.087158
379.1965, 1.400818
379.6786, 1.377106
380.1607, 1.916885
380.6428, 2.092133
381.1249, 1.998169
381.6071, 1.678070
382.0892, 0.7547000
382.5713, 0.3773190
383.0534, 0.9267120
383.5355, 0.5300750
384.0176, 0.4309230
384.4998, 1.149368
384.9819, 1.605026
385.4640, 1.812027
385.9461, 1.546753
386.4282, 1.170975
386.9103, 1.069717
387.3925, 1.257996
387.8746, 1.364700
388.3567, 0.9196620
388.8388, 0.2524260
389.3209, 0.6702580
389.8030, 0.3343200
390.2852, 1.280426
390.7673, 1.538284
391.2494, 1.324081
391.7315, 1.080795
392.2136, 1.082062
392.6957, 1.235031
393.1779, 1.142807
393.6600, 0.2384030
394.1421, 2.8960999E-02
394.6242, 1.128403
395.1063, 2.543320
395.5884, 3.087463
396.0706, 2.518143
396.5527, 1.499771
397.0348, 0.8806460
397.5169, 0.7514500
397.9990, 0.6730960
398.4811, 0.6316990
398.9633, 0.6568450
399.4454, 0.7870030
399.9275, 0.9971310
400.4096, 1.222687
400.8917, 1.407791
401.3738, 1.580032
401.8560, 1.928619
402.3381, 2.789734
402.8202, 3.161514
403.3023, 2.362930
403.7844, 1.168900
404.2665, 0.3605650
404.7487, 0.1743470
405.2308, 0.3119810
405.7129, 0.4996640
406.1950, 0.7500920
406.6771, 0.8132930
407.1592, 0.3754120
407.6414, 2.4567001E-02
408.1235, 0.2970730
408.6056, 1.084518
409.0877, 1.764603
409.5698, 1.949738
410.0519, 1.778595
410.5341, 1.501511
411.0162, 1.052277
411.4983, 0.7821810
411.9804, 1.108093
412.4625, 1.709839
412.9446, 2.054428
413.4268, 2.001678
413.9089, 1.770157
414.3910, 1.453171
414.8731, 1.080444
415.3553, 0.7797550
415.8374, 0.5592040
416.3195, 0.4844970
416.8016, 0.7331390
417.2837, 1.321518
417.7658, 1.812531
418.2480, 2.105286
418.7301, 2.233093
419.2122, 2.287613
419.6943, 2.267075
420.1764, 1.920502
420.6585, 0.8632050
421.1407, 0.7617490
421.6228, 1.420456
422.1049, 0.3698120
422.5870, 0.7179720
423.0691, 1.194839
423.5512, 1.251160
424.0334, 1.264008
424.5155, 1.385208
424.9976, 1.493332
425.4797, 1.340515
425.9618, 0.6370390
426.4439, 0.2694850
426.9261, 0.6403660
427.4082, 1.025208
427.8903, 0.7418820
428.3724, 9.7976997E-02
428.8545, 0.7666780
429.3366, 0.6380310
429.8188, 0.2494660
430.3009, 0.9971160
430.7830, 1.579086
431.2651, 2.038788
431.7472, 2.476151
432.2293, 2.755859
432.7115, 2.618393
433.1936, 1.983078
433.6757, 1.190292
434.1578, 0.8184510
434.6399, 0.9827270
435.1220, 1.155655
435.6042, 1.248108
436.0863, 1.384598
436.5684, 1.733047
437.0505, 2.199158
437.5326, 2.475723
438.0147, 2.246490
438.4969, 1.695831
438.9790, 1.493057
439.4611, 1.733810
439.9432, 2.083496
440.4253, 2.589111
440.9074, 3.006073
441.3896, 3.040390
441.8717, 2.548889
442.3538, 2.105362
442.8359, 2.423218
443.3180, 3.342972
443.8001, 3.859482
444.2823, 3.663010
444.7644, 3.242401
445.2465, 2.980301
445.7286, 2.868057
446.2107, 2.963242
446.6928, 3.454239
447.1750, 4.007828
447.6571, 4.279633
448.1392, 4.268677
448.6213, 4.446640
449.1034, 5.174530
449.5855, 6.153168
450.0677, 6.466949
450.5498, 5.661942
451.0319, 5.265137
451.5140, 5.766846
451.9961, 6.835892
452.4782, 8.295334
452.9604, 10.04333
453.4425, 11.53967
453.9246, 12.15123
454.4067, 11.74812
454.8888, 11.83784
455.3709, 12.66353
455.8531, 13.62004
456.3352, 14.66946
456.8173, 15.66216
457.2994, 16.27977
457.7815, 16.36722
458.2636, 16.32819
458.7458, 17.05150
459.2279, 18.93825
459.7100, 20.78242
460.1921, 22.60643
460.6742, 24.33768
461.1563, 25.71835
461.6385, 26.93640
462.1206, 28.52222
462.6027, 30.89520
463.0848, 33.92976
463.5669, 37.00058
464.0491, 39.73813
464.5312, 43.33510
465.0133, 48.41890
465.4954, 54.33606
465.9775, 60.33707
466.4597, 66.24559
466.9418, 72.78474
467.4239, 80.70509
467.9060, 89.91460
468.3881, 100.0617
468.8702, 111.6613
469.3524, 123.2711
469.8345, 134.5473
470.3166, 144.9205
470.7987, 152.1135
471.2808, 156.0915
471.7629, 156.2589
472.2451, 151.3577
472.7272, 141.8744
473.2093, 129.9019
473.6914, 115.7458
474.1735, 100.5927
474.6556, 86.46725
475.1378, 73.09637
475.6199, 61.36029
476.1020, 51.44154
476.5841, 43.15227
477.0662, 36.56770
477.5483, 31.53412
478.0305, 27.26358
478.5126, 23.20769
478.9947, 19.36443
479.4768, 16.25061
479.9589, 14.26476
480.4410, 12.69431
480.9232, 11.60144
481.4053, 10.77876
481.8874, 10.06155
482.3695, 9.400436
482.8516, 8.790894
483.3337, 8.317230
483.8159, 8.026291
484.2980, 7.476135
484.7801, 6.350479
485.2622, 5.320114
485.7443, 4.635880
486.2264, 4.191589
486.7086, 3.747421
487.1907, 3.232224
487.6728, 2.876968
488.1549, 3.085846
488.6370, 3.912613
489.1191, 4.403290
489.6013, 4.250061
490.0834, 3.788696
490.5655, 3.186371
491.0476, 2.500946
491.5297, 2.136917
492.0118, 2.533081
492.4940, 3.183640
492.9761, 3.447403
493.4582, 3.323288
493.9403, 3.068375
494.4224, 2.771698
494.9045, 2.504944
495.3867, 2.428864
495.8688, 2.628189
496.3509, 2.701035
496.8330, 2.417969
497.3151, 2.069092
497.7972, 2.052994
498.2794, 2.363602
498.7615, 2.563034
499.2436, 2.221497
499.7257, 1.387024
500.2078, 1.116684
500.6899, 2.160919
501.1721, 2.884323
501.6542, 2.780029
502.1363, 2.347641
502.6184, 2.091904
503.1005, 2.161804
503.5826, 2.450333
504.0648, 2.950684
504.5469, 3.739395
505.0290, 3.960434
505.5111, 3.213211
505.9932, 2.371246
506.4753, 1.586761
506.9575, 0.9917600
507.4396, 0.8470310
507.9217, 1.343887
508.4038, 1.997025
508.8859, 2.208054
509.3680, 1.996552
509.8502, 1.706757
510.3323, 1.344025
510.8144, 1.030869
511.2965, 0.9137270
511.7786, 0.9608460
512.2607, 1.016144
512.7429, 1.007294
513.2250, 1.017548
513.7071, 1.208939
514.1892, 1.508347
514.6713, 1.579651
515.1534, 1.239517
515.6356, 0.6989900
516.1177, 0.3735200
516.5998, 0.3605350
517.0819, 0.3536220
517.5640, 0.4254150
518.0461, 0.4368590
518.5283, 0.1971740
519.0104, 0.2036900
519.4925, 0.4552610
519.9746, 0.3336490
520.4567, 3.3325002E-02
520.9388, 0.1274410
521.4210, 0.4233090
521.9031, 0.5378270
522.3852, 0.3781280
522.8673, 1.360016
523.3494, 1.640778
523.8315, 1.248657
524.3137, 0.8103640
524.7958, 0.9445800
525.2779, 1.392548
525.7600, 1.078339
526.2421, 0.3062290
526.7242, 1.287643
527.2064, 0.9411160
527.6885, 3.3661000E-02
528.1706, 0.8007350
528.6527, 1.301010
529.1348, 1.601364
529.6169, 1.637878
530.0991, 1.533081
530.5812, 1.510849
531.0633, 1.596375
531.5454, 1.623596
532.0275, 1.469177
532.5096, 1.150757
532.9918, 0.7921910
533.4739, 0.2316890
533.9560, 0.1548460
534.4381, 0.2162930
534.9202, 0.1173100
535.4023, 6.5169998E-02
535.8845, 0.2995760
536.3666, 0.5950620
536.8487, 1.005707
537.3308, 1.531204
537.8129, 1.656342
538.2951, 1.002365
538.7772, 0.4290470
539.2593, 1.5900001E-02
539.7415, 0.1643220
540.2236, 8.7784000E-02
540.7057, 0.8021390
541.1878, 1.480865
541.6699, 1.548065
542.1520, 1.095093
542.6342, 0.7223510
543.1163, 0.4095760
543.5984, 0.3337400
544.0805, 0.8971710
544.5626, 1.720840
545.0447, 2.077728
545.5269, 1.709778
546.0090, 1.172882
546.4911, 0.5853730
546.9732, 9.6542001E-02
547.4553, 0.1332700
547.9374, 0.7903440
548.4196, 1.431519
548.9017, 1.390640
549.3838, 0.6456300
549.8659, 0.2812040
550.3480, 0.7171330
550.8301, 0.9622340
551.3123, 0.5198060
551.7944, 0.1630550
552.2765, 0.5742650
552.7586, 0.5616610
553.2407, 0.2275090
553.7228, 0.4340360
554.2050, 1.470779
554.6871, 1.930801
555.1692, 1.464035
555.6513, 0.8928680
556.1334, 0.3196410
556.6155, 9.3810998E-02
557.0977, 9.3993999E-02
557.5798, 0.4210660
558.0619, 1.084808
558.5440, 1.743988
559.0261, 2.299484
559.5082, 2.264221
559.9904, 1.436829
560.4725, 0.6342010
560.9546, 0.5729520
561.4367, 1.086853
561.9188, 1.244843
562.4009, 0.5605930
562.8831, 0.1220090
563.3652, 0.6606900
563.8473, 1.551529
564.3294, 1.870041
564.8115, 1.452011
565.2936, 0.8423310
565.7758, 0.5795440
566.2579, 0.6641080
566.7400, 0.7252660
567.2221, 0.7720640
567.7042, 0.7814330
568.1863, 0.6897890
568.6685, 0.5924990
569.1506, 0.6321720
569.6327, 0.8193210
570.1148, 0.9587100
570.5969, 0.7510380
571.0790, 0.2867280
571.5612, 0.1822050
572.0433, 0.5487370
572.5254, 0.9763340
573.0075, 1.288528
573.4896, 1.519791
573.9717, 1.734024
574.4539, 1.952805
574.9360, 2.088074
575.4181, 2.035889
575.9002, 1.904877
576.3823, 1.876740
576.8644, 1.940811
577.3466, 1.920197
577.8287, 1.689438
578.3108, 1.326569
578.7929, 1.119385
579.2750, 1.219849
579.7571, 1.226273
580.2393, 1.005005
580.7214, 0.8054050
581.2035, 0.9443050
581.6856, 1.359100
582.1677, 1.660629
582.6498, 1.499939
583.1320, 1.061005
583.6141, 1.054977
584.0962, 1.649109
584.5783, 1.944412
585.0604, 1.461639
585.5425, 0.9705960
586.0247, 1.164246
586.5068, 1.989685
586.9889, 2.580612
587.4710, 2.226349
587.9531, 1.664139
588.4352, 1.918625
588.9174, 2.840714
589.3995, 3.490662
589.8816, 3.474228
590.3637, 2.937332
590.8458, 2.035248
591.3279, 0.3806920
591.8101, 0.4828190
592.2922, 0.1317140
592.7743, 0.8721770
593.2564, 0.9850460
593.7385, 0.6846010
594.2206, 0.4821780
594.7028, 0.6145630
595.1849, 0.9396210
595.6670, 1.243668
596.1491, 1.528992
596.6312, 1.785126
597.1133, 2.109879
597.5955, 2.250519
598.0776, 1.994888
598.5597, 1.515747
599.0418, 1.185593
599.5239, 1.185562
600.0060, 1.178833
600.4882, 0.7199250
600.9703, 7.2494999E-02
601.4524, 5.9128001E-02
601.9345, 0.4772640
602.4166, 1.148239
602.8987, 1.518494
603.3809, 1.599533
603.8630, 1.535660
604.3451, 0.9472810
604.8272, 0.7159420
605.3093, 1.337631
605.7914, 2.188217
606.2736, 2.646622
606.7557, 2.647278
607.2378, 2.530746
607.7199, 2.568909
608.2020, 2.738739
608.6841, 2.942429
609.1663, 3.224930
609.6484, 3.398422
610.1305, 3.379898
610.6126, 3.276337
611.0947, 3.090073
611.5768, 2.866226
612.0590, 2.878540
612.5411, 3.448669
613.0232, 4.188293
613.5053, 4.701416
613.9874, 5.038376
614.4695, 5.336960
614.9517, 5.673843
615.4338, 6.139725
615.9159, 6.972900
616.3980, 8.326065
616.8801, 9.617584
617.3622, 10.57849
617.8444, 11.78047
618.3265, 13.69070
618.8086, 15.93474
619.2907, 17.92139
619.7728, 19.44241
620.2549, 20.69478
620.7371, 21.85210
621.2192, 22.92563
621.7013, 24.11246
622.1834, 25.29985
622.6655, 26.87602
623.1476, 29.36588
623.6298, 32.29909
624.1119, 34.82230
624.5940, 36.62858
625.0761, 38.76091
625.5582, 41.71751
626.0403, 45.23201
626.5225, 48.85368
627.0046, 52.62915
627.4867, 56.94130
627.9688, 61.99088
628.4509, 67.86710
628.9330, 75.25321
629.4152, 84.25508
629.8973, 94.77551
630.3794, 107.3466
630.8615, 120.7557
631.3436, 134.7321
631.8257, 149.0197
632.3079, 163.7686
632.7900, 179.9977
633.2721, 194.3489
633.7542, 203.0417
634.2363, 205.9715
634.7184, 201.3626
635.2006, 188.0616
635.6827, 169.4158
636.1648, 146.6455
636.6469, 120.4833
637.1291, 97.25098
637.6112, 76.83921
638.0933, 59.66916
638.5754, 46.66212
639.0576, 36.74409
639.5397, 29.02989
640.0218, 23.16069
640.5039, 18.62357
640.9860, 15.00971
641.4681, 12.28761
641.9503, 10.27918
642.4324, 9.185799
642.9145, 8.304123
643.3966, 7.653854
643.8787, 7.036530
644.3608, 6.244171
644.8430, 5.334579
645.3251, 4.632729
645.8072, 4.345261
646.2893, 4.255264
646.7714, 4.269417
647.2535, 4.309242
647.7357, 4.026802
648.2178, 3.297241
648.6999, 2.605141
649.1820, 2.597092
649.6641, 3.317139
650.1462, 3.309402
650.6284, 1.453331
651.1105, 0.2505420
651.5926, 0.7586140
652.0747, 1.820122
652.5568, 2.223122
653.0389, 1.843071
653.5211, 1.462273
654.0032, 1.875923
654.4853, 2.683815
654.9674, 2.659500
655.4495, 1.723824
655.9316, 0.8261720
656.4138, 0.2092510
656.8959, 0.1382830
657.3780, 0.1425700
657.8601, 0.1803210
658.3422, 0.5234600
658.8243, 0.9977110
659.3065, 1.326370
659.7886, 1.207764
660.2707, 0.8933110
660.7528, 0.8231120
661.2349, 1.112656
661.7170, 1.506454
662.1992, 1.723778
662.6813, 1.779411
663.1634, 1.827789
663.6455, 1.881683
664.1276, 1.836105
664.6097, 1.533173
665.0919, 1.192101
665.5740, 1.073479
666.0561, 1.174797
666.5382, 1.102562
667.0203, 0.3792650
667.5024, 0.3813020
667.9846, 0.3666150
668.4667, 0.2039490
668.9488, 0.4537430
669.4309, 4.0557999E-02
669.9130, 0.4785080
670.3951, 0.2877350
670.8773, 0.7790680
671.3594, 1.205818
671.8415, 0.1478200
672.3236, 0.5601040
672.8057, 0.2665020
673.2878, 0.4147030
673.7700, 0.8849640
674.2521, 1.027702
674.7342, 1.006081
675.2163, 0.8552090
675.6984, 0.6542740
676.1805, 0.5617750
676.6627, 0.5758290
677.1448, 0.6533050
677.6269, 0.7805250
678.1090, 0.9624860
678.5911, 1.249390
679.0732, 1.702332
679.5554, 1.863136
680.0375, 1.426361
680.5196, 1.055740
681.0017, 1.134659
681.4838, 1.357109
681.9659, 1.255302
682.4481, 0.7691350
682.9302, 0.3475570
683.4123, 0.5506820
683.8944, 1.123756
684.3765, 0.8448940
684.8586, 0.5076750
685.3408, 1.295517
685.8229, 0.6514510
686.3050, 0.4699480
686.7871, 0.7504580
687.2692, 0.2275240
687.7513, 8.9759998E-02
688.2335, 0.9242400
688.7156, 1.757454
689.1977, 2.106911
689.6798, 2.094788
690.1619, 1.864807
690.6440, 1.490578
691.1262, 1.118866
691.6083, 0.8713910
692.0904, 0.7597660
692.5725, 0.9377670
693.0546, 1.605392
693.5367, 1.971756
694.0189, 1.631859
694.5010, 1.058998
694.9831, 0.6344600
695.4652, 0.3597560
695.9473, 0.1804730
696.4294, 3.5929999E-03
696.9116, 5.1190001E-03
697.3937, 0.4308090
697.8758, 1.070168
698.3579, 1.448997
698.8400, 1.471809
699.3221, 1.394562
699.8043, 1.477547
700.2864, 1.669876
700.7685, 1.533455
701.2506, 0.7423630
701.7327, 0.3136060
702.2148, 0.7636570
702.6970, 1.379089
703.1791, 1.779114
703.6612, 1.953018
704.1433, 1.968750
704.6254, 1.783638
705.1075, 1.541756
705.5897, 1.274895
706.0718, 1.057259
706.5539, 1.128761
707.0360, 1.508797
707.5181, 1.828766
708.0002, 1.777367
708.4824, 1.427994
708.9645, 1.138947
709.4466, 0.8755340
709.9287, 0.7453460
710.4108, 0.7689820
710.8929, 0.9128490
711.3751, 1.369133
711.8572, 1.921440
712.3393, 1.999573
712.8214, 1.234650
713.3035, 0.3772510
713.7856, 3.9963000E-02
714.2678, 9.3070999E-02
714.7499, 0.2933880
715.2320, 0.6098180
715.7141, 1.043053
716.1962, 1.585167
716.6783, 2.123116
717.1605, 2.417290
717.6426, 2.480911
718.1247, 2.353462
718.6068, 1.955444
719.0889, 1.464043
719.5710, 0.7232590
720.0532, 1.1185000E-02
720.5353, 0.1308820
721.0174, 0.5029910
721.4995, 1.190414
721.9816, 1.370468
722.4637, 1.243317
722.9459, 1.178322
723.4280, 1.201324
723.9101, 1.254456
724.3922, 1.308212
724.8743, 1.379906
725.3564, 1.499626
725.8386, 1.780602
726.3207, 1.851387
726.8028, 1.433235
727.2849, 1.076752
727.7670, 0.9539720
728.2491, 0.9811170
728.7313, 1.032944
729.2134, 1.053207
729.6955, 1.021835
730.1776, 0.7685090
730.6597, 0.5425800
731.1418, 0.7523350
731.6240, 1.294739
732.1061, 1.657188
732.5882, 1.652336
733.0703, 1.491562
733.5524, 1.430122
734.0345, 1.473740
734.5167, 1.488518
734.9988, 1.444359
735.4809, 1.411545
735.9631, 1.332268
736.4452, 1.319130
736.9273, 1.564407
737.4094, 1.993141
737.8915, 2.257507
738.3737, 2.179001
738.8558, 1.854935
739.3379, 1.213112
739.8200, 0.4134290
740.3021, 1.8982001E-02
740.7842, 1.7364999E-02
741.2664, 0.1611560
741.7485, 0.1025540
742.2306, 7.6729000E-02
742.7127, 1.9370999E-02
743.1948, 0.8070600
743.6769, 1.164581
744.1591, 0.5135120
744.6412, 8.2748003E-02
745.1233, 3.6850002E-02
745.6054, 0.6266860
746.0875, 1.142647
746.5696, 1.408157
747.0518, 1.569016
747.5339, 1.675941
748.0160, 1.774933
748.4981, 2.023880
748.9802, 2.384171
749.4623, 2.513992
749.9445, 2.220284
750.4266, 1.709206
750.9087, 1.338470
751.3908, 1.100807
751.8729, 1.050980
752.3550, 1.421494
752.8372, 1.668938
753.3193, 1.578094
753.8014, 1.311119
754.2835, 0.9762570
754.7656, 0.6001970
755.2477, 0.3920210
755.7299, 0.4809800
756.2120, 0.7368930
756.6941, 1.142769
757.1762, 1.604996
757.6583, 1.944992
758.1404, 2.105461
758.6226, 2.019127
759.1047, 1.577347
759.5868, 0.8566360
760.0689, 0.3458330
760.5510, 3.9512999E-02
761.0331, 2.5574001E-02
761.5153, 0.3623660
761.9974, 0.7917630
762.4795, 0.9372180
762.9616, 0.8806380
763.4437, 0.9004060
763.9258, 1.141365
764.4080, 1.308754
764.8901, 1.217880
765.3722, 1.005272
765.8543, 0.6896210
766.3364, 0.3858260
766.8185, 0.5110780
767.3007, 1.323494
767.7828, 2.264534
768.2649, 2.207153
768.7470, 1.098396
769.2291, 0.4397350
769.7112, 0.3443450
770.1934, 0.5737000
770.6755, 1.332214
771.1576, 2.137924
771.6397, 2.102638
772.1218, 1.109367
772.6039, 0.2475200
773.0861, 0.4566730
773.5682, 0.8303990
774.0503, 0.6044460
774.5324, 7.3357001E-02
775.0145, 0.4205550
775.4966, 0.7717210
775.9788, 0.9637450
776.4609, 0.9764330
776.9430, 0.8288730
777.4251, 0.4137040
777.9072, 0.2582550
778.3893, 0.3766860
778.8715, 0.4088900
779.3536, 1.276428
779.8357, 1.465347
780.3178, 1.110222
780.7999, 1.130859
781.2820, 2.213364
781.7642, 2.670052
782.2463, 1.746140
782.7284, 0.8052750
783.2105, 0.7612300
783.6926, 1.348373
784.1747, 1.954689
784.6569, 2.396904
785.1390, 2.579521
785.6211, 2.143753
786.1032, 1.489006
786.5853, 1.545700
787.0674, 2.245956
787.5496, 2.722183
788.0317, 2.598587
788.5138, 2.082275
788.9959, 1.388634
789.4780, 0.4675220
789.9601, 9.7176000E-02
790.4423, 0.5063930
790.9244, 1.110504
791.4065, 2.202866
791.8886, 3.093994
792.3707, 3.127182
792.8528, 2.401642
793.3350, 1.619659
793.8171, 0.6330570
794.2992, 0.1409150
794.7813, 1.048042
795.2634, 2.466240
795.7455, 3.238091
796.2277, 3.234421
796.7098, 2.700714
797.1919, 1.727242
797.6740, 0.7115550
798.1561, 0.5378880
798.6382, 1.255020
799.1204, 1.680122
799.6025, 1.647079
800.0846, 1.616287
800.5667, 1.968132
801.0488, 2.377495
801.5309, 2.110222
802.0131, 0.9898380
802.4952, 0.3839040
802.9773, 0.9630810
803.4594, 1.461617
803.9415, 1.174812
804.4236, 0.5978780
804.9058, 0.3519670
805.3879, 0.5574110
805.8700, 0.8150630
806.3521, 0.8515320
806.8342, 0.8148040
807.3163, 0.9769440
807.7985, 1.271233
808.2806, 1.405594
808.7627, 1.327133
809.2448, 1.137108
809.7269, 0.8744430
810.2090, 0.6052400
810.6912, 0.5332870
811.1733, 0.7033770
811.6554, 0.9685670
812.1375, 1.601959
812.6196, 2.010841
813.1017, 1.877304
813.5839, 1.437950
814.0660, 0.9344790
814.5481, 0.3914720
815.0302, 3.4912001E-02
815.5123, 5.9113000E-02
815.9944, 9.0369999E-02
816.4766, 0.6908040
816.9587, 1.451195
817.4408, 1.771446
817.9229, 1.576393
818.4050, 1.389801
818.8871, 1.703377
819.3693, 2.236839
819.8514, 2.109947
820.3335, 1.281784
820.8156, 0.8767010
821.2977, 1.177162
821.7798, 1.497917
822.2620, 1.380386
822.7441, 0.9940570
823.2262, 0.7978210
823.7083, 0.7982410
824.1904, 0.9718780
824.6725, 1.725883
825.1547, 2.205544
825.6368, 1.665054
826.1189, 0.8090970
826.6010, 0.6729200
827.0831, 1.385468
827.5652, 1.979805
828.0474, 1.557457
828.5295, 0.9012600
829.0116, 1.107048
829.4937, 1.815361
829.9758, 2.048309
830.4579, 1.628670
830.9401, 1.116524
831.4222, 0.9596100
831.9043, 1.085388
832.3864, 1.261597
832.8685, 1.482742
833.3506, 1.591690
833.8328, 1.487526
834.3149, 1.438370
834.7971, 1.664719
835.2792, 2.001236
835.7613, 2.114716
836.2434, 1.955467
836.7255, 1.913261
837.2076, 2.211006
837.6898, 2.407089
838.1719, 2.286774
838.6540, 1.965576
839.1361, 1.421722
839.6182, 0.7206730
840.1003, 0.3414310
840.5825, 0.8089220
841.0646, 1.459145
841.5467, 1.244217
842.0288, 0.4554290
842.5109, 3.5645001E-02
842.9930, 9.9097997E-02
843.4752, 0.3685070
843.9573, 0.7229160
844.4394, 1.137276
844.9215, 1.590065
845.4036, 2.158493
845.8857, 2.362289
846.3679, 2.057137
846.8500, 1.636673
847.3321, 1.051849
847.8142, 0.5576020
848.2963, 0.4354710
848.7784, 0.6767960
849.2606, 1.058769
849.7427, 1.772354
850.2248, 2.331177
850.7069, 2.579628
851.1890, 2.556320
851.6711, 2.167610
852.1533, 1.544632
852.6354, 1.030083
853.1175, 0.7871780
853.5996, 0.6995010
854.0817, 0.5748370
854.5638, 0.5110930
855.0460, 0.9818730
855.5281, 1.910500
856.0102, 2.180870
856.4923, 1.278404
856.9744, 0.1801680
857.4565, 0.1882480
857.9387, 1.253288
858.4208, 2.003464
858.9029, 2.410667
859.3850, 2.554283
859.8671, 2.232140
860.3492, 1.883568
860.8314, 2.059189
861.3135, 2.450134
861.7956, 2.114395
862.2777, 0.4321820
862.7598, 0.7275390
863.2419, 0.6972810
863.7241, 0.1700360
864.2062, 0.8047640
864.6883, 1.789589
865.1704, 1.989021
865.6525, 1.288383
866.1346, 0.7007600
866.6168, 1.318253
867.0989, 2.286270
867.5810, 2.043388
868.0631, 0.9822460
868.5452, 0.4959950
869.0273, 0.8426740
869.5095, 1.400162
869.9916, 1.751671
870.4737, 1.913460
870.9558, 1.734314
871.4379, 1.127182
871.9200, 0.7853620
872.4022, 0.7861400
872.8843, 0.9394300
873.3664, 1.300705
873.8485, 1.669655
874.3306, 1.721924
874.8127, 1.452904
875.2949, 1.137886
875.7770, 0.6493990
876.2591, 0.3060300
876.7412, 0.3640820
877.2233, 0.4759370
877.7054, 0.2349090
878.1876, 0.2172390
878.6697, 0.3986510
879.1518, 8.0467001E-02
879.6339, 0.3983760
880.1160, 0.8088000
880.5981, 1.112564
881.0803, 1.354279
881.5624, 1.492218
882.0445, 1.308960
882.5266, 0.7543260
883.0087, 0.1822810
883.4908, 4.5044001E-02
883.9730, 1.7677000E-02
884.4551, 0.2338030
884.9372, 0.6244200
885.4193, 0.7374880
885.9014, 0.4040600
886.3835, 0.1043930
886.8657, 0.2229690
887.3478, 0.5742490
887.8299, 0.6226880
888.3120, 0.1525040
888.7941, 1.8271999E-02
889.2762, 0.4889370
889.7584, 0.9619290
890.2405, 1.067108
890.7226, 1.234352
891.2047, 2.293556
891.6868, 4.040253
892.1689, 4.670784
892.6511, 2.538971
893.1332, 0.6125030
893.6153, 0.7223660
894.0974, 1.537804
894.5795, 1.746429
895.0616, 1.340454
895.5438, 0.6929320
896.0259, 4.4403002E-02
896.5080, 0.5166020
896.9901, 0.1986080
897.4722, 0.5985030
897.9543, 1.320549
898.4365, 1.891777
898.9186, 1.798340
899.4007, 0.8908540
899.8828, 2.4651000E-02
900.3649, 3.7971001E-02
900.8470, 0.5059890
901.3292, 1.018852
901.8113, 1.529747
902.2934, 1.647171
902.7755, 1.193726
903.2576, 0.7721860
903.7397, 0.7143330
904.2219, 0.8404010
904.7040, 0.8521650
905.1861, 0.7229160
905.6682, 0.6917270
906.1503, 0.8761750
906.6324, 1.012146
907.1146, 1.018326
907.5967, 0.9658510
908.0788, 0.8897550
908.5609, 0.8075260
909.0430, 0.7131420
909.5251, 0.5453260
910.0073, 0.6036760
910.4894, 1.361649
910.9715, 2.180298
911.4536, 2.343529
911.9357, 2.079941
912.4178, 1.923454
912.9000, 2.008102
913.3821, 2.134659
913.8642, 2.166733
914.3463, 2.098015
914.8284, 1.774078
915.3105, 1.317482
915.7927, 1.428116
916.2748, 2.171463
916.7569, 2.630363
917.2390, 2.262825
917.7211, 1.553680
918.2032, 1.322426
918.6854, 1.593323
919.1675, 1.729012
919.6496, 1.676704
920.1317, 1.665421
920.6138, 1.796188
921.0959, 1.845016
921.5781, 1.498489
922.0602, 0.8705900
922.5423, 0.5914460
923.0244, 0.9283600
923.5065, 1.096565
923.9886, 0.8679120
924.4708, 0.6889880
924.9529, 0.8213580
925.4350, 1.077911
925.9171, 1.293190
926.3992, 1.417328
926.8813, 1.273872
927.3635, 0.3632890
927.8456, 0.3217320
928.3277, 3.3553999E-02
928.8098, 0.7376630
929.2919, 0.9831540
929.7740, 0.8675230
930.2562, 0.9516830
930.7383, 1.461884
931.2204, 1.996010
931.7025, 2.205490
932.1846, 2.144966
932.6667, 1.716797
933.1489, 1.094093
933.6310, 1.043396
934.1132, 1.684647
934.5953, 2.237946
935.0774, 2.117302
935.5595, 1.532585
936.0416, 0.8578800
936.5237, 9.7007997E-02
937.0059, 0.3141480
937.4880, 0.3594130
937.9701, 4.1870002E-02
938.4522, 0.8033450
938.9343, 1.623482
939.4164, 1.720352
939.8986, 1.142944
940.3807, 0.7418900
940.8628, 0.5343860
941.3449, 0.4599530
941.8270, 0.5875090
942.3091, 0.7957000
942.7913, 1.155640
943.2734, 1.487328
943.7555, 1.476402
944.2376, 1.071434
944.7197, 0.6250610
945.2018, 1.6563000E-02
945.6840, 0.4049910
946.1661, 0.3559040
946.6482, 0.1924740
947.1303, 0.2178880
947.6124, 0.4150310
948.0945, 0.6403500
948.5767, 0.8877030
949.0588, 0.9464420
949.5409, 0.5766910
950.0230, 5.2223001E-02
950.5051, 0.4374470
950.9872, 0.8455280
951.4694, 1.166168
951.9515, 1.371346
952.4336, 1.300133
952.9157, 0.7647860
953.3978, 0.1284410
953.8799, 0.1308670
954.3621, 9.5008999E-02
954.8442, 0.2274550
955.3263, 0.7610930
955.8084, 0.9777530
956.2905, 0.6775590
956.7726, 0.2623290
957.2548, 0.2151790
957.7369, 0.3963780
958.2190, 0.1436310
958.7011, 0.5673140
959.1832, 0.6127170
959.6653, 0.3386150
960.1475, 1.095322
960.6296, 0.8881150
961.1117, 0.2238310
961.5938, 2.9587001E-02
962.0759, 0.3488390
962.5580, 0.7486570
963.0402, 1.442177
963.5223, 1.740913
964.0044, 1.197174
964.4865, 0.5780260
964.9686, 0.5605620
965.4507, 0.9197540
965.9329, 0.9083860
966.4150, 0.2564700
966.8971, 3.4263998E-02
967.3792, 0.3909610
967.8613, 0.8351290
968.3434, 1.030663
968.8256, 1.135063
969.3077, 1.312370
969.7898, 1.558479
970.2719, 1.797417
970.7540, 2.108810
971.2361, 2.192780
971.7183, 1.521126
972.2004, 0.9644550
972.6825, 1.353233
973.1646, 2.266289
973.6467, 3.013733
974.1288, 3.450325
974.6110, 3.807915
975.0931, 4.272583
975.5752, 4.627434
976.0573, 4.542763
976.5394, 4.295876
977.0215, 4.224510
977.5037, 4.385445
977.9858, 4.825607
978.4679, 5.552216
978.9500, 6.425919
979.4321, 7.421783
979.9142, 8.361572
980.3964, 8.754417
980.8785, 8.772476
981.3606, 8.852486
981.8427, 9.137871
982.3248, 10.25251
982.8069, 12.55612
983.2891, 15.46378
983.7712, 18.25600
984.2533, 20.90570
984.7354, 23.14274
985.2175, 24.94186
985.6996, 27.22649
986.1818, 30.29362
986.6639, 33.70334
987.1460, 37.13840
987.6281, 40.69786
988.1102, 44.47446
988.5923, 48.34805
989.0745, 53.52910
989.5566, 60.12691
990.0387, 67.84491
990.5208, 76.99747
991.0029, 86.50272
991.4850, 95.36712
991.9672, 103.7213
992.4493, 112.1088
992.9314, 120.1221
993.4135, 129.0551
993.8956, 138.0825
994.3777, 149.0979
994.8599, 162.8278
995.3420, 178.7179
995.8241, 195.4764
996.3062, 213.6930
996.7883, 237.2204
997.2704, 266.2439
997.7526, 300.7462
998.2347, 337.7048
998.7168, 383.7802
999.1989, 439.8151
999.6810, 508.6794
1000.163, 594.7429
1000.645, 697.7877
1001.127, 809.6370
1001.609, 944.4852
1002.092, 1061.738
1002.574, 1164.191
1003.056, 1224.885
1003.538, 1219.398
1004.020, 1157.195
1004.502, 1043.959
1004.984, 887.5485
1005.466, 728.3516
1005.949, 577.2979
1006.431, 446.4931
1006.913, 346.9025
1007.395, 270.9021
1007.877, 214.5272
1008.359, 173.4805
1008.841, 142.3197
1009.323, 118.7749
1009.805, 100.2209
1010.288, 85.82649
1010.770, 74.30280
1011.252, 64.54493
1011.734, 56.43616
1012.216, 50.24770
1012.698, 45.60138
1013.180, 41.06358
1013.662, 36.08930
1014.145, 31.60773
1014.627, 28.68185
1015.109, 26.78950
1015.591, 25.18522
1016.073, 23.72124
1016.555, 21.74641
1017.037, 19.30844
1017.519, 17.19559
1018.001, 15.76987
1018.484, 14.70914
1018.966, 13.63323
1019.448, 12.56992
1019.930, 11.52714
1020.412, 10.55227
1020.894, 10.18500
1021.376, 10.50557
1021.858, 10.57207
1022.341, 9.825195
1022.823, 8.706802
1023.305, 8.014954
1023.787, 7.715851
1024.269, 7.037308
1024.751, 5.878326
1025.233, 5.187134
1025.715, 5.208351
1026.198, 5.266640
1026.680, 4.918297
1027.162, 4.400848
1027.644, 4.210930
1028.126, 4.364738
1028.608, 4.031494
1029.090, 3.004189
1029.572, 2.458450
1030.054, 2.810196
1030.536, 3.295853
1031.019, 3.332039
1031.501, 3.072380
1031.983, 2.923599
1032.465, 2.907173
1032.947, 2.845375
1033.429, 2.790527
1033.911, 2.610016
1034.393, 2.130394
1034.876, 1.652344
1035.358, 1.362419
1035.840, 1.264771
1036.322, 1.352196
1036.804, 1.618874
1037.286, 2.008583
1037.768, 2.897171
1038.250, 3.277405
1038.733, 2.504242
1039.215, 1.555656
1039.697, 1.092712
1040.179, 1.045959
1040.661, 1.306618
1041.143, 2.065147
1041.625, 2.426453
1042.107, 2.040878
1042.589, 1.739365
1043.072, 1.788834
1043.554, 1.873276
1044.036, 1.654922
1044.518, 1.330299
1045.000, 1.427200
1045.482, 2.119431
1045.964, 2.595680
1046.446, 2.710243
1046.928, 2.727089
1047.411, 2.492485
1047.893, 2.388832
1048.375, 2.926575
1048.857, 3.761528
1049.339, 4.024605
1049.821, 3.507492
1050.303, 3.084244
1050.785, 2.769325
1051.268, 2.721786
1051.750, 3.233185
1052.232, 3.811966
1052.714, 3.949203
1053.196, 3.881302
1053.678, 4.224602
1054.160, 5.142044
1054.642, 5.939880
1055.125, 6.346558
1055.607, 6.750755
1056.089, 7.272461
1056.571, 7.867073
1057.053, 8.604630
1057.535, 9.351685
1058.017, 9.773804
1058.499, 9.762543
1058.981, 9.987602
1059.464, 10.79294
1059.946, 11.68710
1060.428, 12.78586
1060.910, 13.61075
1061.392, 13.65689
1061.874, 13.16268
1062.356, 12.60613
1062.838, 12.07481
1063.320, 11.64087
1063.803, 11.43474
1064.285, 11.19535
1064.767, 10.90755
1065.249, 10.44818
1065.731, 9.558830
1066.213, 8.476501
1066.695, 7.705711
1067.177, 7.339600
1067.660, 6.848671
1068.142, 5.813622
1068.624, 4.883293
1069.106, 4.494476
1069.588, 4.217346
1070.070, 3.544479
1070.552, 2.771820
1071.034, 2.578384
1071.516, 3.042053
1071.999, 3.294678
1072.481, 2.735374
1072.963, 2.203590
1073.445, 2.194862
1073.927, 2.267143
1074.409, 1.994667
1074.891, 1.572655
1075.373, 1.365051
1075.855, 1.420036
1076.338, 1.516853
1076.820, 1.620026
1077.302, 1.659233
1077.784, 1.718933
1078.266, 1.585159
1078.748, 0.8264080
1079.230, 9.8540999E-02
1079.712, 0.4034120
1080.195, 8.7181002E-02
1080.677, 7.0602000E-02
1081.159, 0.4123760
1081.641, 0.6893230
1082.123, 4.8370000E-02
1082.605, 0.6183240
1083.087, 0.5097500
1083.569, 0.1149900
1084.052, 0.2296370
1084.534, 0.7930530
1085.016, 1.000244
1085.498, 0.4236300
1085.980, 6.9801003E-02
1086.462, 8.0925003E-02
1086.944, 0.2374270
1087.426, 0.2640990
1087.908, 0.8232800
1088.391, 0.5200500
1088.873, 0.4223330
1089.355, 0.9451980
1089.837, 0.6818540
1090.319, 0.2800520
1090.801, 0.2568740
1091.283, 0.5543750
1091.765, 0.1076130
1092.248, 0.4494320
1092.730, 0.3993000
1093.212, 9.2064001E-02
1093.694, 0.4167560
1094.176, 0.4087370
1094.658, 0.4550250
1095.140, 0.9709700
1095.622, 1.215256
1096.104, 0.5823140
1096.587, 0.2232210
1097.069, 0.6242370
1097.551, 0.7048190
1098.033, 0.7005540
1098.515, 0.6466060
1098.997, 0.6867370
1099.479, 0.7691040
1099.961, 1.082458
1100.443, 2.129341
1100.926, 2.985542
1101.408, 2.760635
1101.890, 2.019707
1102.372, 1.681648
1102.854, 1.840164
1103.336, 2.099335
1103.818, 2.328217
1104.300, 2.543373
1104.783, 2.863007
1105.265, 3.160141
1105.747, 3.344505
1106.229, 3.480194
1106.711, 3.662575
1107.193, 3.882660
1107.675, 4.030632
1108.157, 3.995758
1108.640, 4.075676
1109.122, 4.411606
1109.604, 4.738281
1110.086, 4.681938
1110.568, 4.793243
1111.050, 5.860847
1111.532, 7.550743
1112.014, 8.573517
1112.496, 8.507866
1112.979, 8.813095
1113.461, 9.648506
1113.943, 10.71992
1114.425, 12.04661
1114.907, 13.49393
1115.389, 14.98672
1115.871, 16.52585
1116.353, 18.11642
1116.835, 19.75661
1117.318, 21.47054
1117.800, 23.32725
1118.282, 25.10225
1118.764, 26.48565
1119.246, 28.22709
1119.728, 30.63885
1120.210, 33.76633
1120.692, 37.71732
1121.175, 42.49967
1121.657, 47.19466
1122.139, 50.98836
1122.621, 57.10378
1123.103, 66.07491
1123.585, 76.66438
1124.067, 88.20613
1124.549, 101.4534
1125.031, 117.6481
1125.514, 135.9597
1125.996, 152.9542
1126.478, 169.2604
1126.960, 181.1665
1127.442, 189.2209
1127.924, 189.3232
1128.406, 179.5462
1128.888, 163.8062
1129.370, 144.3210
1129.853, 122.7104
1130.335, 102.3036
1130.817, 83.04211
1131.299, 67.35731
1131.781, 55.21363
1132.263, 45.46183
1132.745, 37.81940
1133.227, 31.74000
1133.710, 26.94488
1134.192, 23.15667
1134.674, 20.07605
1135.156, 17.65241
1135.638, 15.71532
1136.120, 14.23981
1136.602, 13.09191
1137.084, 12.21022
1137.567, 11.16440
1138.049, 9.837654
1138.531, 8.653595
1139.013, 8.036491
1139.495, 7.707008
1139.977, 7.204124
1140.459, 6.538994
1140.941, 5.709541
1141.423, 4.832474
1141.906, 4.424088
1142.388, 4.523697
1142.870, 4.451630
1143.352, 3.747261
1143.834, 2.921494
1144.316, 2.634315
1144.798, 2.600670
1145.280, 2.296890
1145.762, 1.914024
1146.245, 2.050423
1146.727, 2.625221
1147.209, 3.057327
1147.691, 3.133476
1148.173, 2.817352
1148.655, 1.641449
1149.137, 0.5117570
1149.619, 0.4141010
1150.102, 0.7163700
1150.584, 0.7331540
1151.066, 0.5342640
1151.548, 0.4058610
1152.030, 0.4320530
1152.512, 0.5295870
1152.994, 0.7049180
1153.476, 0.7888950
1153.958, 0.6308670
1154.441, 0.5348660
1154.923, 0.8075710
1155.405, 1.107330
1155.887, 0.9228970
1156.369, 0.3804020
1156.851, 5.0026000E-02
1157.333, 5.4878000E-02
1157.815, 0.2226560
1158.297, 0.7513810
1158.780, 1.122192
1159.262, 1.221893
1159.744, 1.049217
1160.226, 0.2646710
1160.708, 0.6544110
1161.190, 0.7247920
1161.672, 0.1365810
1162.154, 0.6948320
1162.637, 0.7817000
1163.119, 0.8959660
1163.601, 1.115585
1164.083, 1.249466
1164.565, 1.176903
1165.047, 1.064026
1165.529, 1.116615
1166.011, 1.257683
1166.494, 1.164352
1166.976, 0.7789540
1167.458, 0.4163820
1167.940, 4.9697999E-02
1168.422, 0.1208950
1168.904, 4.2296998E-02
1169.386, 0.3955760
1169.868, 1.368896
1170.350, 2.308388
1170.833, 2.133484
1171.315, 1.100273
1171.797, 0.9049380
1172.279, 1.469131
1172.761, 2.013542
1173.243, 2.404335
1173.725, 2.143211
1174.207, 1.073700
1174.689, 4.6082001E-02
1175.172, 0.1441650
1175.654, 0.1135790
1176.136, 0.2499770
1176.618, 0.2867740
1177.100, 0.1359560
1177.582, 5.2338000E-02
1178.064, 0.2705690
1178.546, 1.051613
1179.029, 1.479340
1179.511, 1.136292
1179.993, 0.7322770
1180.475, 0.9459840
1180.957, 1.317368
1181.439, 1.481750
1181.921, 1.462891
1182.403, 1.139336
1182.885, 0.7233660
1183.368, 0.6932370
1183.850, 1.109962
1184.332, 1.450104
1184.814, 1.479080
1185.296, 1.429428
1185.778, 1.393234
1186.260, 1.307999
1186.742, 0.9907840
1187.225, 0.7182160
1187.707, 0.9936980
1188.189, 1.572121
1188.671, 1.459282
1189.153, 0.2109600
1189.635, 0.3533400
1190.117, 0.2901760
1190.599, 1.019150
1191.082, 2.024315
1191.564, 2.556786
1192.046, 1.983765
1192.528, 0.9824750
1193.010, 0.4479680
1193.492, 0.3415910
1193.974, 0.3405000
1194.456, 0.4603730
1194.938, 0.6293870
1195.421, 0.8768230
1195.903, 0.9561920
1196.385, 0.7692950
1196.867, 0.5596920
1197.349, 0.4963070
1197.831, 0.5749050
1198.313, 0.8424610
1198.795, 1.235924
1199.277, 1.488403
1199.760, 1.587036
1200.242, 1.297371
1200.724, 0.7152480
1201.206, 0.6729280
1201.688, 1.428368
1202.170, 2.070572
1202.652, 1.801849
1203.134, 1.171890
1203.617, 0.6688690
1204.099, 0.4003140
1204.581, 0.7523880
1205.063, 1.349533
1205.545, 1.446693
1206.027, 1.072746
1206.509, 0.7686080
1206.991, 0.7204060
1207.474, 0.8360140
1207.956, 1.396004
1208.438, 1.678963
1208.920, 0.9007570
1209.402, 0.1096880
1209.884, 0.2752840
1210.366, 0.9065930
1210.848, 1.209900
1211.330, 1.151756
1211.813, 1.128395
1212.295, 1.342453
1212.777, 1.250839
1213.259, 0.4950260
1213.741, 1.1948000E-02
1214.223, 0.2097470
1214.705, 0.4862750
1215.187, 0.3600690
1215.669, 6.7878999E-02
1216.152, 6.8279998E-03
1216.634, 0.1581650
1217.116, 0.2150570
1217.598, 0.1593090
1218.080, 0.2909390
1218.562, 0.6127700
1219.044, 0.6770170
1219.526, 0.3600080
1220.009, 4.8449999E-03
1220.491, 0.1244740
1220.973, 4.7118999E-02
1221.455, 0.2679210
1221.937, 0.6605450
1222.419, 0.5906910
1222.901, 0.2827990
1223.383, 0.5095060
1223.865, 1.139748
1224.348, 1.203178
1224.830, 0.4258420
1225.312, 0.1601490
1225.794, 0.3175740
1226.276, 0.8814160
1226.758, 0.8079760
1227.240, 0.5059740
1227.722, 0.1155010
1228.204, 0.1453400
1228.687, 0.1276170
1229.169, 0.7501300
1229.651, 1.058540
1230.133, 0.8864590
1230.615, 0.6136930
1231.097, 0.1194840
1231.579, 0.2299190
1232.061, 0.2379300
1232.544, 0.1575620
1233.026, 6.5398999E-02
1233.508, 3.3844002E-02
1233.990, 9.2635997E-02
1234.472, 0.1194530
1234.954, 0.1528240
1235.436, 0.2014470
1235.918, 0.1874620
1236.401, 0.1028210
1236.883, 3.9588999E-02
1237.365, 1.6457001E-02
1237.847, 8.2470002E-03
1238.329, 2.8840001E-03
1238.811, 5.7647999E-02
1239.293, 0.4583820
1239.775, 0.9307330
1240.257, 0.9081120
1240.740, 0.6059420
1241.222, 0.4941410
1241.704, 0.5720520
1242.186, 0.8068920
1242.668, 1.117790
1243.150, 1.244041
1243.632, 1.063866
1244.114, 0.7971190
1244.596, 0.4459610
1245.079, 0.2372360
1245.561, 0.3500670
1246.043, 0.6302340
1246.525, 1.117310
1247.007, 1.582855
1247.489, 1.643608
1247.971, 1.346458
1248.453, 1.208885
1248.936, 1.367348
1249.418, 1.455231
1249.900, 1.268341
1250.382, 1.421638
1250.864, 2.264099
1251.346, 2.982590
1251.828, 3.141075
1252.310, 2.820114
1252.792, 1.997330
1253.275, 0.9499130
1253.757, 1.020027
1254.239, 2.055122
1254.721, 2.394020
1255.203, 2.054924
1255.685, 1.893478
1256.167, 2.078812
1256.649, 2.176811
1257.131, 2.018478
1257.614, 1.829720
1258.096, 1.831017
1258.578, 1.949409
1259.060, 2.150604
1259.542, 2.262299
1260.024, 1.883789
1260.506, 1.360374
1260.988, 1.139572
1261.471, 1.201279
1261.953, 1.281487
1262.435, 1.335014
1262.917, 1.272827
1263.399, 0.8735350
1263.881, 0.6577530
1264.363, 0.8753430
1264.845, 1.159126
1265.328, 1.328674
1265.810, 1.468224
1266.292, 1.677284
1266.774, 1.935402
1267.256, 2.195869
1267.738, 2.481659
1268.220, 2.476105
1268.702, 2.170097
1269.184, 1.879326
1269.667, 1.658928
1270.149, 1.348877
1270.631, 0.8754430
1271.113, 0.3698960
1271.595, 0.1105500
1272.077, 0.3852690
1272.559, 1.2230000E-02
1273.041, 0.6364670
1273.523, 0.8256530
1274.006, 0.7377090
1274.488, 0.6357190
1274.970, 0.5968020
1275.452, 0.7292560
1275.934, 1.062088
1276.416, 1.244553
1276.898, 0.9798280
1277.380, 0.8004910
1277.863, 0.9246290
1278.345, 1.072945
1278.827, 1.046448
1279.309, 1.064644
1279.791, 1.336021
1280.273, 1.585678
1280.755, 1.728539
1281.237, 1.596642
1281.719, 1.422333
1282.202, 1.189278
1282.684, 1.182373
1283.166, 1.426773
1283.648, 1.392723
1284.130, 0.9460220
1284.612, 0.7537770
1285.094, 1.314186
1285.576, 1.874985
1286.059, 1.197609
1286.541, 0.2115940
1287.023, 7.0039998E-03
1287.505, 0.0000000E+00
##END=



