##NAMES=Swedenborgite
##RRUFFID=R060486
##IDEAL CHEMISTRY=NaBe_4_Sb^5+^O_7_
##LOCALITY=Langban, Filipstad, Varmland, Sweden
##OWNER=RRUFF
##SOURCE=Michael Scott
##DESCRIPTION=Colorless glassy fragment in center of the photo
##STATUS=The identification of this mineral is confirmed by single-crystal X-ray diffraction and chemical analysis.
##URL=rruff.info/R060486
##MEASURED CHEMISTRY=(Na_0.94_Ca_0.03_[box]_0.03_)_Î£=1_Be_4.00_Sb^5+^_1.00_O_7_; trace amounts of As; Be estimated by difference
90.26532, 0.0000000E+00
90.74744, 6.1096001E-02
91.22955, 2.501587
91.71167, 6.582001
92.19379, 10.95053
92.67590, 15.72025
93.15802, 19.65479
93.64014, 22.16434
94.12225, 23.73380
94.60437, 24.02969
95.08649, 21.72546
95.56860, 18.04144
96.05072, 16.07794
96.53284, 16.36044
97.01495, 17.51160
97.49707, 18.08539
97.97919, 17.90561
98.46130, 17.41931
98.94342, 16.02866
99.42554, 14.71387
99.90765, 13.49075
100.3898, 12.50034
100.8719, 11.65356
101.3540, 10.96448
101.8361, 10.62479
102.3182, 9.785126
102.8004, 7.976929
103.2825, 4.879517
103.7646, 2.351990
104.2467, 0.3994750
104.7288, 0.9996340
105.2109, 1.896484
105.6931, 2.395905
106.1752, 2.284760
106.6573, 1.494385
107.1394, 0.2957150
107.6215, 1.992218
108.1036, 6.199646
108.5858, 11.79745
109.0679, 15.84112
109.5500, 18.34439
110.0321, 19.44583
110.5142, 19.22107
110.9963, 15.71579
111.4785, 13.12228
111.9606, 12.00751
112.4427, 12.32523
112.9248, 13.14975
113.4069, 13.26346
113.8890, 14.31161
114.3712, 17.63721
114.8533, 23.83118
115.3354, 31.95654
115.8175, 42.53845
116.2996, 56.00095
116.7817, 68.35699
117.2639, 82.41287
117.7460, 93.75388
118.2281, 96.74615
118.7102, 82.39908
119.1923, 64.01294
119.6744, 49.16611
120.1566, 38.82919
120.6387, 31.05774
121.1208, 25.20584
121.6029, 21.07660
122.0850, 18.36404
122.5671, 17.37723
123.0493, 17.50281
123.5314, 18.15387
124.0135, 19.25351
124.4956, 20.79788
124.9777, 23.59991
125.4598, 27.13361
125.9420, 29.35693
126.4241, 27.84314
126.9062, 24.22232
127.3883, 21.42737
127.8704, 20.02185
128.3525, 19.76590
128.8347, 20.61087
129.3168, 22.52142
129.7989, 24.69305
130.2810, 26.67987
130.7631, 28.44772
131.2452, 29.91559
131.7274, 30.95938
132.2095, 31.73862
132.6916, 32.83472
133.1737, 34.34662
133.6558, 35.55298
134.1379, 35.42453
134.6201, 33.99063
135.1022, 33.09622
135.5843, 33.30408
136.0664, 34.53049
136.5485, 36.23315
137.0306, 38.52911
137.5128, 41.05176
137.9949, 43.33264
138.4770, 45.25238
138.9591, 47.57581
139.4412, 50.55951
139.9233, 54.17670
140.4055, 58.50681
140.8876, 64.04236
141.3697, 69.79367
141.8518, 73.96133
142.3339, 75.69247
142.8160, 77.66385
143.2982, 80.82333
143.7803, 85.26154
144.2624, 90.37650
144.7445, 95.71518
145.2266, 101.9086
145.7087, 110.1001
146.1909, 120.9490
146.6730, 133.1258
147.1551, 146.5764
147.6372, 164.0104
148.1193, 178.0630
148.6014, 188.9167
149.0836, 196.3610
149.5657, 199.8898
150.0478, 195.0570
150.5299, 189.8105
151.0120, 187.5912
151.4941, 187.8071
151.9763, 191.6987
152.4584, 201.4407
152.9405, 215.7337
153.4226, 228.1894
153.9047, 240.7347
154.3868, 249.7616
154.8690, 253.3026
155.3511, 249.1071
155.8332, 241.5702
156.3153, 230.8285
156.7974, 217.0523
157.2795, 201.4522
157.7617, 181.7455
158.2438, 161.6550
158.7259, 143.8698
159.2080, 130.1182
159.6901, 117.6897
160.1722, 105.6458
160.6544, 94.02338
161.1365, 83.87531
161.6186, 76.23041
162.1007, 69.98434
162.5828, 63.92813
163.0649, 56.96036
163.5471, 50.85797
164.0292, 46.91833
164.5113, 45.22217
164.9934, 43.56693
165.4755, 40.62390
165.9576, 37.08057
166.4398, 33.84424
166.9219, 31.00647
167.4040, 28.70099
167.8861, 27.28210
168.3682, 26.79288
168.8503, 26.24777
169.3325, 24.80276
169.8146, 23.00674
170.2967, 21.76123
170.7788, 21.87372
171.2609, 22.58612
171.7430, 23.18213
172.2252, 23.66110
172.7073, 24.14987
173.1894, 25.07416
173.6715, 26.11697
174.1536, 26.55283
174.6357, 25.23917
175.1179, 23.41235
175.6000, 22.76855
176.0821, 23.65741
176.5642, 24.85602
177.0463, 25.23087
177.5284, 24.97629
178.0106, 24.56165
178.4927, 24.47052
178.9748, 24.47086
179.4569, 24.05728
179.9390, 23.11688
180.4211, 22.09543
180.9033, 21.60117
181.3854, 21.58725
181.8675, 21.88229
182.3496, 22.44513
182.8317, 23.13794
183.3138, 23.76236
183.7960, 24.33456
184.2781, 24.82040
184.7602, 25.41971
185.2423, 26.09061
185.7244, 26.16162
186.2065, 24.76816
186.6887, 22.25623
187.1708, 20.07578
187.6529, 18.50809
188.1350, 17.16513
188.6171, 15.21814
189.0992, 12.67310
189.5814, 10.41516
190.0635, 9.189178
190.5456, 8.869446
191.0277, 8.542694
191.5098, 8.077881
191.9919, 7.521851
192.4741, 6.883728
192.9562, 6.126617
193.4383, 5.574799
193.9204, 5.691864
194.4025, 6.469452
194.8846, 6.806976
195.3668, 6.392853
195.8489, 5.669586
196.3310, 5.784088
196.8131, 6.823547
197.2952, 8.025879
197.7773, 8.965759
198.2595, 9.637604
198.7416, 10.05441
199.2237, 10.16251
199.7058, 10.05423
200.1879, 9.907593
200.6700, 9.685852
201.1522, 9.620941
201.6343, 9.906281
202.1164, 10.57144
202.5985, 11.30173
203.0806, 12.01053
203.5627, 12.77576
204.0449, 13.90601
204.5270, 15.50677
205.0091, 17.11749
205.4912, 18.45773
205.9733, 19.52557
206.4554, 20.22955
206.9376, 20.27402
207.4197, 20.02396
207.9018, 20.87561
208.3839, 22.90958
208.8660, 25.86328
209.3481, 29.46710
209.8303, 33.64609
210.3124, 38.88104
210.7945, 45.16953
211.2766, 52.54868
211.7587, 61.58563
212.2408, 72.71402
212.7230, 84.66016
213.2051, 98.39224
213.6872, 117.0396
214.1693, 126.2965
214.6514, 122.9448
215.1335, 108.9664
215.6157, 93.01288
216.0978, 73.30768
216.5799, 54.63660
217.0620, 39.93936
217.5441, 29.77863
218.0262, 22.01135
218.5084, 16.83176
218.9905, 13.85309
219.4726, 11.35403
219.9547, 9.316223
220.4368, 7.739319
220.9189, 6.757874
221.4011, 6.749084
221.8832, 6.322601
222.3653, 5.181061
222.8474, 3.540833
223.3295, 2.359009
223.8116, 1.843842
224.2938, 1.486267
224.7759, 0.8943180
225.2580, 0.3276370
225.7401, 0.7384950
226.2222, 0.3093260
226.7043, 2.245544
227.1865, 2.541870
227.6686, 0.1067200
228.1507, 2.373169
228.6328, 3.228455
229.1149, 1.549347
229.5970, 0.4004520
230.0792, 0.1262210
230.5613, 0.5109860
231.0434, 0.7877500
231.5255, 1.072937
232.0076, 1.072876
232.4897, 0.4856260
232.9719, 1.381104
233.4540, 2.223145
233.9361, 1.431030
234.4182, 0.4010310
234.9003, 1.114258
235.3824, 2.7191000E-02
235.8646, 1.234772
236.3467, 1.543823
236.8288, 0.2931210
237.3109, 0.3364870
237.7930, 0.1636960
238.2751, 1.240997
238.7573, 1.051941
239.2394, 1.458618
239.7215, 3.732758
240.2036, 4.552155
240.6857, 3.155853
241.1678, 2.011414
241.6500, 1.040741
242.1321, 0.3554080
242.6142, 0.3134770
243.0963, 1.456604
243.5784, 2.447876
244.0605, 2.656403
244.5427, 1.651825
245.0248, 0.9674680
245.5069, 0.7000120
245.9890, 0.7044370
246.4711, 0.6595460
246.9532, 0.4195250
247.4354, 0.3509220
247.9175, 0.6629940
248.3996, 1.568726
248.8817, 2.145111
249.3638, 2.373627
249.8459, 2.274078
250.3281, 1.834961
250.8102, 0.8225710
251.2923, 0.1352840
251.7744, 0.8199460
252.2565, 1.136536
252.7386, 1.562317
253.2208, 2.132233
253.7029, 2.781525
254.1850, 3.412476
254.6671, 3.928162
255.1492, 4.625763
255.6313, 5.701385
256.1135, 7.276184
256.5956, 8.251740
257.0777, 8.228455
257.5598, 7.955505
258.0419, 8.506744
258.5240, 10.23682
259.0062, 11.94473
259.4883, 13.33737
259.9704, 14.36948
260.4525, 15.22040
260.9346, 15.79135
261.4167, 16.28568
261.8989, 16.97443
262.3810, 17.98080
262.8631, 18.83545
263.3452, 19.36484
263.8273, 19.59140
264.3094, 19.96228
264.7916, 20.45493
265.2737, 21.16910
265.7558, 22.27875
266.2379, 23.90561
266.7200, 25.53162
267.2021, 27.16650
267.6843, 28.75992
268.1664, 29.72766
268.6485, 29.64481
269.1306, 29.80127
269.6127, 31.53607
270.0948, 35.31046
270.5770, 38.48196
271.0591, 40.41312
271.5412, 41.37955
272.0233, 42.75616
272.5054, 44.52051
272.9875, 46.65479
273.4697, 49.40051
273.9518, 53.01138
274.4339, 55.54276
274.9160, 56.21204
275.3981, 55.97501
275.8802, 58.05045
276.3624, 62.87173
276.8445, 68.17487
277.3266, 72.68365
277.8087, 76.38571
278.2908, 79.37680
278.7729, 81.35895
279.2551, 82.99768
279.7372, 85.93713
280.2193, 90.39713
280.7014, 94.79453
281.1835, 98.37729
281.6656, 101.1541
282.1478, 103.5145
282.6299, 105.4836
283.1120, 106.9870
283.5941, 107.9043
284.0762, 108.3087
284.5583, 108.4168
285.0405, 108.5552
285.5226, 108.6065
286.0047, 107.4591
286.4868, 105.1458
286.9689, 102.1006
287.4510, 98.40845
287.9332, 94.04724
288.4153, 89.65158
288.8974, 85.50656
289.3795, 81.57581
289.8616, 77.77136
290.3438, 74.08090
290.8259, 70.89810
291.3080, 68.62921
291.7901, 67.21936
292.2722, 66.27917
292.7543, 65.89539
293.2365, 65.93719
293.7186, 65.58942
294.2007, 64.82172
294.6828, 64.42343
295.1649, 65.20959
295.6470, 67.00214
296.1292, 69.09576
296.6113, 71.51636
297.0934, 73.75964
297.5755, 74.82672
298.0576, 74.94690
298.5397, 75.59485
299.0219, 77.16397
299.5040, 80.02216
299.9861, 85.04779
300.4682, 92.68109
300.9503, 101.7646
301.4324, 111.4604
301.9146, 121.6840
302.3967, 132.3940
302.8788, 144.2742
303.3609, 156.2384
303.8430, 166.3497
304.3251, 174.0931
304.8073, 180.9655
305.2894, 187.7369
305.7715, 194.6291
306.2536, 202.4261
306.7357, 211.6440
307.2178, 221.9020
307.7000, 232.4995
308.1821, 243.3088
308.6642, 255.3732
309.1463, 268.6177
309.6284, 283.5905
310.1105, 301.4940
310.5927, 322.4985
311.0748, 346.5718
311.5569, 372.9270
312.0390, 401.6803
312.5211, 436.3540
313.0032, 476.9122
313.4854, 525.5359
313.9675, 584.0659
314.4496, 651.7743
314.9317, 730.2968
315.4138, 820.6840
315.8959, 922.8723
316.3781, 1038.437
316.8602, 1169.825
317.3423, 1312.574
317.8244, 1467.230
318.3065, 1673.625
318.7886, 1835.174
319.2708, 1936.208
319.7529, 1969.338
320.2350, 1913.545
320.7171, 1697.728
321.1992, 1440.694
321.6813, 1194.645
322.1635, 955.3705
322.6456, 752.4294
323.1277, 598.8175
323.6098, 483.9155
324.0919, 389.5635
324.5740, 321.6842
325.0562, 267.2224
325.5383, 223.7922
326.0204, 192.7474
326.5025, 166.5728
326.9846, 146.1354
327.4667, 129.8788
327.9489, 115.9033
328.4310, 104.9240
328.9131, 95.36420
329.3952, 87.07690
329.8773, 80.07727
330.3594, 73.82971
330.8416, 67.69379
331.3237, 62.90979
331.8058, 60.56738
332.2879, 62.66754
332.7700, 63.73376
333.2521, 62.62036
333.7343, 60.01062
334.2164, 59.28113
334.6985, 60.99670
335.1806, 63.69250
335.6627, 66.82892
336.1448, 70.79889
336.6270, 74.00018
337.1091, 76.71252
337.5912, 78.35175
338.0733, 77.51215
338.5554, 73.72357
339.0375, 68.97559
339.5197, 63.48004
340.0018, 57.13031
340.4839, 52.78497
340.9660, 50.57379
341.4481, 50.23169
341.9302, 51.69800
342.4124, 55.05933
342.8945, 59.19928
343.3766, 63.55444
343.8587, 68.42603
344.3408, 75.67761
344.8229, 85.44037
345.3051, 96.45953
345.7872, 106.4196
346.2693, 115.9658
346.7514, 130.2640
347.2335, 151.0812
347.7156, 176.0833
348.1978, 206.7901
348.6799, 241.7382
349.1620, 262.3502
349.6441, 250.0757
350.1262, 214.6251
350.6083, 176.9294
351.0905, 137.6465
351.5726, 102.0201
352.0547, 76.52197
352.5368, 59.66833
353.0189, 46.97321
353.5010, 37.17657
353.9832, 29.82269
354.4653, 24.84485
354.9474, 22.25037
355.4295, 20.47083
355.9116, 18.28418
356.3937, 16.09784
356.8759, 14.55029
357.3580, 14.80731
357.8401, 14.98730
358.3222, 13.37183
358.8043, 10.28595
359.2864, 7.727112
359.7686, 7.119812
360.2507, 7.304260
360.7328, 7.318420
361.2149, 6.972961
361.6970, 6.387634
362.1791, 5.282227
362.6613, 3.953064
363.1434, 3.088440
363.6255, 3.299377
364.1076, 3.699402
364.5897, 3.951477
365.0718, 4.063782
365.5540, 3.798035
366.0361, 2.799133
366.5182, 1.504150
367.0003, 0.4400020
367.4824, 0.2208860
367.9645, 0.7522580
368.4467, 1.152527
368.9288, 1.410339
369.4109, 1.723877
369.8930, 2.123840
370.3751, 2.537231
370.8572, 2.949585
371.3394, 3.706116
371.8215, 3.828430
372.3036, 2.841125
372.7857, 1.178345
373.2678, 0.4376830
373.7499, 1.065247
374.2321, 1.818420
374.7142, 2.051392
375.1963, 1.534485
375.6784, 1.605225
376.1605, 2.605286
376.6426, 3.771301
377.1248, 3.855896
377.6069, 2.722839
378.0890, 1.327820
378.5711, 7.3974997E-02
379.0532, 1.489929
379.5353, 2.800049
380.0175, 3.998169
380.4996, 5.222656
380.9817, 6.742676
381.4638, 8.485107
381.9459, 9.791748
382.4280, 10.21484
382.9102, 10.52362
383.3923, 12.53168
383.8744, 16.08008
384.3565, 19.36664
384.8386, 20.95331
385.3207, 21.48578
385.8029, 22.20538
386.2850, 23.26440
386.7671, 24.36646
387.2492, 24.89093
387.7313, 25.23157
388.2134, 26.27240
388.6956, 29.00073
389.1777, 32.14819
389.6598, 34.37213
390.1419, 35.72955
390.6240, 37.51636
391.1061, 40.07867
391.5883, 43.67096
392.0704, 48.55237
392.5525, 54.77917
393.0346, 62.25250
393.5167, 71.33313
393.9988, 81.88727
394.4810, 93.31335
394.9631, 104.5200
395.4452, 117.0198
395.9273, 131.3112
396.4094, 146.9490
396.8915, 166.1986
397.3737, 192.5871
397.8558, 221.7831
398.3379, 248.4462
398.8200, 285.6560
399.3021, 305.6545
399.7842, 299.6536
400.2664, 267.7615
400.7485, 232.3528
401.2306, 188.4152
401.7127, 146.2435
402.1948, 112.3734
402.6769, 88.26709
403.1591, 69.57324
403.6412, 57.18481
404.1233, 49.61505
404.6054, 42.99335
405.0875, 37.28455
405.5696, 32.81085
406.0518, 30.01208
406.5339, 28.94543
407.0160, 27.52814
407.4981, 25.56317
407.9802, 23.86243
408.4623, 23.43011
408.9445, 24.26605
409.4266, 25.55066
409.9087, 27.06744
410.3908, 28.90515
410.8729, 30.97278
411.3550, 33.32098
411.8372, 36.76483
412.3193, 43.03442
412.8014, 50.78699
413.2835, 56.69775
413.7656, 60.08026
414.2477, 62.80621
414.7299, 66.58807
415.2120, 71.23950
415.6941, 76.20081
416.1762, 81.64642
416.6583, 87.04852
417.1404, 91.86633
417.6226, 96.13928
418.1047, 100.2621
418.5868, 103.5635
419.0689, 107.2686
419.5510, 112.6118
420.0331, 119.9830
420.5153, 128.9182
420.9974, 138.2878
421.4795, 148.9759
421.9616, 162.8718
422.4437, 180.7597
422.9258, 201.8886
423.4080, 225.6987
423.8901, 252.0110
424.3722, 282.3962
424.8543, 313.7424
425.3364, 350.8528
425.8185, 397.9648
426.3007, 453.5959
426.7828, 523.2141
427.2649, 616.4217
427.7470, 726.8416
428.2291, 820.8767
428.7112, 915.3127
429.1934, 962.4802
429.6755, 926.7875
430.1576, 791.1151
430.6397, 656.5263
431.1218, 520.2924
431.6039, 394.8068
432.0861, 299.7874
432.5682, 236.5747
433.0503, 188.8487
433.5324, 153.1987
434.0145, 127.6675
434.4966, 106.3946
434.9788, 89.49060
435.4609, 75.85992
435.9430, 65.36786
436.4251, 57.30292
436.9072, 49.66895
437.3893, 41.98016
437.8715, 34.76984
438.3536, 28.59845
438.8357, 23.39166
439.3178, 18.93793
439.7999, 14.68597
440.2820, 11.39935
440.7642, 10.43500
441.2463, 11.84906
441.7284, 12.69690
442.2105, 10.61859
442.6926, 7.540771
443.1747, 5.339905
443.6569, 5.462891
444.1390, 5.370117
444.6211, 3.741272
445.1032, 1.225525
445.5853, 0.2574460
446.0674, 0.9291380
446.5496, 2.074524
447.0317, 2.071228
447.5138, 0.4377440
447.9959, 0.7861940
448.4780, 1.556152
448.9601, 1.943909
449.4423, 1.902649
449.9244, 0.8535160
450.4065, 0.6147460
450.8886, 1.938538
451.3707, 4.240417
451.8528, 4.893066
452.3350, 3.470276
452.8171, 1.690613
453.2992, 0.3918460
453.7813, 0.4187620
454.2634, 1.032471
454.7455, 1.422974
455.2277, 1.699341
455.7098, 2.150513
456.1919, 2.681702
456.6740, 2.736877
457.1561, 1.836182
457.6382, 0.6093750
458.1204, 5.6334998E-02
458.6025, 0.1466060
459.0846, 0.6624760
459.5667, 2.097900
460.0488, 3.665100
460.5309, 4.198059
461.0131, 3.351624
461.4952, 2.334961
461.9773, 1.726196
462.4594, 1.560425
462.9415, 1.892456
463.4236, 2.867188
463.9058, 4.207947
464.3879, 6.300659
464.8700, 8.926514
465.3521, 10.51855
465.8342, 9.415588
466.3163, 8.107422
466.7985, 8.088745
467.2806, 10.82471
467.7627, 12.34332
468.2448, 11.80103
468.7269, 10.32800
469.2090, 9.567627
469.6912, 10.10321
470.1733, 10.22894
470.6554, 9.356812
471.1375, 7.645020
471.6196, 6.673706
472.1017, 6.631348
472.5839, 6.787292
473.0660, 6.710632
473.5481, 6.403198
474.0302, 5.891479
474.5123, 5.102234
474.9944, 4.292175
475.4766, 3.885925
475.9587, 3.862671
476.4408, 4.023010
476.9229, 4.518311
477.4050, 5.037598
477.8871, 5.106506
478.3693, 4.712585
478.8514, 3.968994
479.3335, 2.336853
479.8156, 0.7588500
480.2977, 0.4719240
480.7798, 1.957092
481.2620, 3.726135
481.7441, 4.896790
482.2262, 5.687744
482.7083, 6.581299
483.1904, 8.559448
483.6725, 9.886414
484.1547, 9.428284
484.6368, 7.377563
485.1189, 6.087341
485.6010, 6.110657
486.0831, 6.628052
486.5652, 7.354187
487.0474, 8.802368
487.5295, 9.404419
488.0116, 8.397461
488.4937, 7.078064
488.9758, 7.584534
489.4579, 10.86438
489.9401, 13.08179
490.4222, 13.07397
490.9043, 11.34662
491.3864, 10.24231
491.8685, 9.801392
492.3506, 9.423401
492.8328, 8.386292
493.3149, 7.008240
493.7970, 7.000916
494.2791, 8.735413
494.7612, 10.61426
495.2433, 10.70959
495.7255, 9.648010
496.2076, 8.814941
496.6897, 8.741638
497.1718, 8.675110
497.6539, 7.601990
498.1360, 5.987915
498.6182, 5.425598
499.1003, 8.084900
499.5824, 11.17200
500.0645, 12.54987
500.5466, 11.66479
501.0287, 10.65747
501.5109, 10.02551
501.9930, 9.632507
502.4751, 9.330200
502.9572, 8.935486
503.4393, 8.848694
503.9214, 9.741028
504.4036, 11.02606
504.8857, 10.49591
505.3678, 6.573608
505.8499, 3.548706
506.3320, 3.637085
506.8141, 7.175110
507.2963, 9.019592
507.7784, 8.912842
508.2605, 8.045959
508.7426, 7.565247
509.2247, 7.363159
509.7068, 7.018066
510.1890, 6.541687
510.6711, 6.062866
511.1532, 5.636230
511.6353, 5.238525
512.1174, 4.943726
512.5995, 4.593323
513.0817, 4.480530
513.5638, 5.382324
514.0459, 7.224731
514.5280, 8.354675
515.0101, 6.687073
515.4922, 4.351929
515.9744, 3.523682
516.4565, 5.807739
516.9386, 7.380249
517.4207, 6.221069
517.9028, 3.725647
518.3849, 2.172363
518.8671, 2.856506
519.3492, 3.509949
519.8313, 3.599304
520.3134, 3.160400
520.7955, 2.893921
521.2776, 2.882324
521.7598, 2.918396
522.2419, 2.799744
522.7240, 2.409912
523.2061, 2.560120
523.6882, 3.440857
524.1703, 4.481812
524.6525, 5.034851
525.1346, 5.119080
525.6167, 4.709534
526.0988, 3.554810
526.5809, 2.199097
527.0630, 1.722595
527.5452, 2.008179
528.0273, 2.353333
528.5094, 2.312439
528.9915, 2.124329
529.4736, 2.111877
529.9557, 2.311707
530.4379, 2.467468
530.9200, 1.996704
531.4021, 1.612244
531.8842, 2.096497
532.3663, 4.860413
532.8484, 6.716003
533.3306, 6.504272
533.8127, 4.856079
534.2948, 3.061035
534.7769, 0.5690920
535.2590, 1.295166
535.7411, 2.051208
536.2233, 1.738403
536.7054, 1.680298
537.1875, 2.008301
537.6696, 2.335938
538.1517, 2.474487
538.6339, 2.440857
539.1160, 1.705994
539.5981, 1.6845999E-02
540.0802, 1.703552
540.5623, 1.897095
541.0444, 0.8161620
541.5266, 0.3328250
542.0087, 1.412415
542.4908, 2.130676
542.9729, 1.761780
543.4550, 0.5656130
543.9371, 0.4635620
544.4193, 0.6045530
544.9014, 0.4600830
545.3835, 0.5894780
545.8656, 1.052917
546.3477, 1.280945
546.8298, 0.8587650
547.3120, 0.2395020
547.7941, 0.2318730
548.2762, 0.6123660
548.7583, 0.7127690
549.2404, 0.1896360
549.7225, 0.5230100
550.2047, 0.6672970
550.6868, 1.1230000E-02
551.1689, 0.7694090
551.6510, 1.448669
552.1331, 2.085266
552.6152, 3.485168
553.0974, 5.968750
553.5795, 7.630676
554.0616, 6.741211
554.5437, 3.741516
555.0258, 1.208618
555.5079, 0.7347410
555.9901, 2.300110
556.4722, 3.467346
556.9543, 4.509521
557.4364, 5.979187
557.9185, 8.174927
558.4006, 10.59607
558.8828, 12.53827
559.3649, 14.40619
559.8470, 17.21509
560.3291, 22.10992
560.8112, 27.32239
561.2933, 31.99915
561.7755, 36.08588
562.2576, 40.66833
562.7397, 46.61523
563.2218, 52.37366
563.7039, 57.13055
564.1860, 60.26996
564.6682, 64.04340
565.1503, 68.27808
565.6324, 73.43146
566.1145, 80.03204
566.5966, 88.21014
567.0787, 97.40308
567.5609, 107.3067
568.0430, 118.4271
568.5251, 131.8816
569.0072, 147.6145
569.4893, 163.9929
569.9714, 179.2340
570.4536, 195.2211
570.9357, 214.6184
571.4178, 237.3513
571.8999, 262.9532
572.3820, 291.4432
572.8641, 322.2235
573.3463, 354.4604
573.8284, 388.6631
574.3105, 423.5198
574.7926, 463.4092
575.2747, 502.0132
575.7568, 531.3259
576.2390, 558.2974
576.7211, 566.1927
577.2032, 549.8562
577.6853, 513.3242
578.1674, 468.8995
578.6495, 413.1196
579.1317, 359.5246
579.6138, 312.7828
580.0959, 272.8892
580.5780, 240.3500
581.0601, 215.0931
581.5422, 195.2545
582.0244, 179.6600
582.5065, 168.1219
582.9886, 160.5902
583.4707, 157.1166
583.9528, 156.6332
584.4349, 158.9582
584.9171, 163.4411
585.3992, 169.1241
585.8813, 176.1229
586.3634, 183.7852
586.8455, 190.7477
587.3276, 198.0579
587.8098, 208.3185
588.2919, 222.7303
588.7740, 239.4961
589.2561, 257.7613
589.7382, 277.4984
590.2203, 300.6571
590.7025, 327.2915
591.1846, 356.7019
591.6667, 388.3726
592.1488, 422.4210
592.6309, 459.1112
593.1130, 498.7297
593.5952, 540.4402
594.0773, 584.3951
594.5594, 630.0341
595.0415, 675.2542
595.5236, 722.9924
596.0057, 764.4258
596.4879, 792.8651
596.9700, 807.2483
597.4521, 804.4749
597.9342, 779.5336
598.4163, 739.8453
598.8984, 684.4564
599.3806, 615.1215
599.8627, 547.8383
600.3448, 483.5697
600.8269, 424.8750
601.3090, 372.1370
601.7911, 325.1057
602.2733, 283.6913
602.7554, 248.3301
603.2375, 218.2892
603.7196, 193.7656
604.2017, 174.6979
604.6838, 158.4482
605.1660, 144.8418
605.6481, 133.2008
606.1302, 122.9856
606.6123, 114.1559
607.0944, 106.1183
607.5765, 98.23950
608.0587, 91.14392
608.5408, 86.05676
609.0229, 82.56750
609.5050, 78.97278
609.9871, 74.04932
610.4692, 68.99011
610.9514, 64.18445
611.4335, 59.64978
611.9156, 56.52576
612.3977, 56.73193
612.8798, 57.28564
613.3619, 56.19714
613.8441, 51.88391
614.3262, 49.73340
614.8083, 50.67456
615.2904, 52.52136
615.7725, 52.40344
616.2546, 50.31604
616.7368, 48.51770
617.2189, 47.17249
617.7010, 46.60938
618.1831, 47.85876
618.6652, 50.75037
619.1473, 53.98999
619.6295, 57.21851
620.1116, 60.02820
620.5937, 61.39563
621.0758, 61.66821
621.5579, 63.01233
622.0400, 66.40234
622.5222, 71.34766
623.0043, 77.74524
623.4864, 85.77527
623.9685, 94.06055
624.4506, 100.8840
624.9327, 108.9838
625.4149, 120.0259
625.8970, 133.5179
626.3791, 150.9995
626.8612, 172.3488
627.3433, 198.0104
627.8254, 229.6539
628.3076, 267.2112
628.7897, 306.3523
629.2718, 347.1552
629.7539, 386.7144
630.2360, 418.6998
630.7181, 445.2981
631.2003, 472.5927
631.6824, 502.1418
632.1645, 534.9144
632.6466, 570.2716
633.1287, 608.9933
633.6108, 653.6545
634.0930, 699.3613
634.5751, 756.7360
635.0572, 829.3953
635.5393, 916.7781
636.0214, 1025.402
636.5035, 1159.031
636.9857, 1309.964
637.4678, 1469.797
637.9499, 1635.799
638.4320, 1821.520
638.9141, 2020.948
639.3962, 2253.985
639.8784, 2524.273
640.3605, 2843.184
640.8426, 3278.952
641.3247, 3869.853
641.8068, 4541.152
642.2889, 5450.399
642.7711, 6376.371
643.2532, 6839.130
643.7353, 6452.888
644.2174, 5712.840
644.6995, 4661.519
645.1816, 3381.440
645.6638, 2338.111
646.1459, 1673.896
646.6280, 1191.187
647.1101, 846.6616
647.5922, 648.6108
648.0743, 492.2294
648.5565, 384.0415
649.0386, 303.7191
649.5207, 242.2391
650.0028, 198.3457
650.4849, 162.9181
650.9670, 136.0817
651.4492, 114.6495
651.9313, 96.63806
652.4134, 81.64709
652.8955, 69.48523
653.3776, 60.88831
653.8597, 52.84119
654.3419, 42.54797
654.8240, 31.76709
655.3061, 23.33057
655.7882, 18.79797
656.2703, 15.82227
656.7524, 14.97778
657.2346, 15.33838
657.7167, 13.96399
658.1988, 9.817383
658.6809, 6.372314
659.1630, 5.145630
659.6451, 5.620605
660.1273, 4.412720
660.6094, 1.413330
661.0915, 1.130493
661.5736, 1.592529
662.0557, 0.6042480
662.5378, 0.8906250
663.0200, 2.822144
663.5021, 4.470825
663.9842, 4.597168
664.4663, 4.614990
664.9484, 5.901978
665.4305, 9.074097
665.9127, 12.45288
666.3948, 16.26294
666.8769, 19.76245
667.3590, 22.19080
667.8411, 22.75220
668.3232, 23.99023
668.8054, 26.63025
669.2875, 29.39990
669.7696, 29.89612
670.2517, 28.08203
670.7338, 25.71021
671.2159, 23.39502
671.6981, 20.64661
672.1802, 16.08191
672.6623, 10.21997
673.1444, 4.840820
673.6265, 0.8674320
674.1086, 2.230469
674.5908, 4.280884
675.0729, 5.543335
675.5550, 7.609375
676.0371, 12.21106
676.5192, 16.58044
677.0013, 19.51880
677.4835, 20.94531
677.9656, 21.68335
678.4477, 21.33960
678.9298, 20.98840
679.4119, 21.50122
679.8940, 22.86914
680.3762, 24.17163
680.8583, 25.46631
681.3404, 26.13037
681.8225, 25.19519
682.3046, 23.20264
682.7867, 21.12268
683.2689, 19.13696
683.7510, 17.28223
684.2331, 15.50684
684.7152, 13.97620
685.1973, 12.99585
685.6794, 14.69128
686.1616, 14.41418
686.6437, 10.16895
687.1258, 3.700439
687.6079, 1.830322
688.0900, 5.789673
688.5721, 10.16919
689.0543, 15.25171
689.5364, 21.07349
690.0185, 28.03357
690.5006, 36.07092
690.9827, 44.65381
691.4648, 54.20007
691.9470, 63.85205
692.4291, 71.85400
692.9112, 78.67456
693.3933, 86.88977
693.8754, 98.89734
694.3575, 112.1659
694.8397, 124.6505
695.3218, 136.0486
695.8039, 149.9159
696.2860, 167.5698
696.7681, 187.1171
697.2502, 207.8512
697.7324, 229.5029
698.2145, 253.2383
698.6966, 279.0837
699.1787, 306.9893
699.6608, 335.9806
700.1429, 366.5723
700.6251, 402.8820
701.1072, 445.6382
701.5893, 492.9254
702.0714, 543.7834
702.5535, 597.6420
703.0356, 653.9623
703.5178, 712.3190
703.9999, 772.3447
704.4820, 837.4594
704.9641, 902.8628
705.4462, 962.4937
705.9283, 1023.373
706.4105, 1067.620
706.8926, 1093.916
707.3747, 1101.665
707.8568, 1088.163
708.3389, 1052.717
708.8210, 1005.166
709.3032, 946.1831
709.7853, 879.4529
710.2674, 810.3250
710.7495, 739.5923
711.2316, 673.1036
711.7137, 613.3679
712.1959, 559.5892
712.6780, 512.4650
713.1601, 471.3129
713.6422, 432.9403
714.1243, 395.1318
714.6064, 360.8602
715.0886, 331.6149
715.5707, 307.2540
716.0528, 284.0291
716.5349, 261.8734
717.0170, 240.6641
717.4991, 219.6780
717.9813, 199.2400
718.4634, 181.3860
718.9455, 166.3025
719.4276, 152.6993
719.9097, 139.5288
720.3918, 127.1622
720.8740, 115.9281
721.3561, 105.5164
721.8382, 97.68994
722.3203, 95.34302
722.8024, 94.75537
723.2845, 92.62793
723.7667, 87.54480
724.2488, 82.43420
724.7309, 76.55627
725.2130, 71.36572
725.6951, 68.36707
726.1772, 67.54480
726.6594, 69.34570
727.1415, 74.24561
727.6236, 80.43872
728.1057, 84.85474
728.5878, 88.61462
729.0699, 94.67566
729.5521, 104.1550
730.0342, 115.9989
730.5163, 129.7419
730.9984, 145.2748
731.4805, 162.3728
731.9626, 181.8392
732.4448, 201.9436
732.9269, 221.3093
733.4090, 241.3243
733.8911, 265.7838
734.3732, 295.5615
734.8553, 325.5439
735.3375, 354.9164
735.8196, 382.9435
736.3017, 408.8644
736.7838, 432.1835
737.2659, 449.8186
737.7480, 460.8212
738.2302, 464.7302
738.7123, 461.8704
739.1944, 451.9301
739.6765, 433.3989
740.1586, 400.0846
740.6407, 363.3014
741.1229, 327.4030
741.6050, 292.2283
742.0871, 257.5903
742.5692, 222.0291
743.0513, 189.9310
743.5334, 164.1548
744.0156, 144.1084
744.4977, 124.3843
744.9798, 104.9675
745.4619, 88.53894
745.9440, 77.75732
746.4261, 71.01904
746.9083, 66.46387
747.3904, 63.92126
747.8725, 63.36707
748.3546, 64.17395
748.8367, 67.37280
749.3188, 73.65735
749.8010, 82.69873
750.2831, 95.66724
750.7652, 113.5604
751.2473, 133.8473
751.7294, 154.2408
752.2115, 174.6110
752.6937, 199.7830
753.1758, 230.4542
753.6579, 263.9745
754.1400, 296.8063
754.6221, 330.8805
755.1042, 370.2998
755.5864, 416.1689
756.0685, 464.6212
756.5506, 512.0571
757.0327, 561.7324
757.5148, 615.4553
757.9969, 673.6367
758.4791, 737.3937
758.9612, 805.9563
759.4433, 880.8888
759.9254, 961.6732
760.4075, 1048.749
760.8896, 1147.275
761.3718, 1258.174
761.8539, 1380.362
762.3360, 1512.520
762.8181, 1654.867
763.3002, 1807.366
763.7823, 1972.033
764.2645, 2146.371
764.7466, 2333.786
765.2287, 2527.636
765.7108, 2723.787
766.1929, 2940.378
766.6750, 3132.531
767.1572, 3307.083
767.6393, 3447.075
768.1214, 3524.519
768.6035, 3538.590
769.0856, 3488.650
769.5677, 3367.822
770.0499, 3195.823
770.5320, 2987.166
771.0141, 2751.626
771.4962, 2514.213
771.9783, 2276.521
772.4604, 2048.388
772.9426, 1834.383
773.4247, 1635.078
773.9068, 1454.553
774.3889, 1292.339
774.8710, 1149.570
775.3531, 1027.040
775.8353, 923.9176
776.3174, 838.2744
776.7995, 770.9146
777.2816, 718.6218
777.7637, 681.2322
778.2458, 657.3582
778.7280, 645.7998
779.2101, 645.9636
779.6922, 655.9027
780.1743, 674.5391
780.6564, 702.8625
781.1385, 741.1429
781.6207, 789.7480
782.1028, 849.5192
782.5849, 920.3398
783.0670, 1001.619
783.5491, 1093.244
784.0313, 1195.378
784.5134, 1310.787
784.9955, 1440.488
785.4776, 1576.626
785.9597, 1713.724
786.4418, 1858.401
786.9240, 2017.048
787.4061, 2190.550
787.8882, 2381.596
788.3703, 2584.160
788.8524, 2807.109
789.3345, 3050.833
789.8167, 3318.386
790.2988, 3608.230
790.7809, 3917.929
791.2630, 4257.432
791.7451, 4636.309
792.2272, 5046.606
792.7094, 5487.819
793.1915, 5956.036
793.6736, 6446.035
794.1557, 6964.403
794.6378, 7492.354
795.1199, 8029.513
795.6021, 8553.079
796.0842, 8995.710
796.5663, 9385.088
797.0484, 9625.031
797.5305, 9661.756
798.0126, 9504.057
798.4948, 9177.996
798.9769, 8650.574
799.4590, 8032.534
799.9411, 7350.891
800.4232, 6622.004
800.9053, 5930.981
801.3875, 5279.340
801.8696, 4684.713
802.3517, 4150.977
802.8338, 3675.159
803.3159, 3262.972
803.7980, 2909.379
804.2802, 2598.351
804.7623, 2337.842
805.2444, 2107.337
805.7265, 1901.509
806.2086, 1719.876
806.6907, 1558.404
807.1729, 1417.594
807.6550, 1293.081
808.1371, 1184.162
808.6192, 1088.073
809.1013, 998.3848
809.5834, 915.0393
810.0656, 837.5505
810.5477, 765.2123
811.0298, 699.0544
811.5119, 639.5920
811.9940, 586.5400
812.4761, 537.9147
812.9583, 493.8235
813.4404, 453.7788
813.9225, 418.2386
814.4046, 386.8777
814.8867, 355.5884
815.3688, 324.5347
815.8510, 296.2749
816.3331, 272.7188
816.8152, 252.3088
817.2973, 232.8490
817.7794, 214.4431
818.2615, 197.8939
818.7437, 184.7144
819.2258, 172.7434
819.7079, 160.9259
820.1900, 149.2975
820.6721, 138.6982
821.1542, 129.3733
821.6364, 120.2640
822.1185, 110.7465
822.6006, 101.3511
823.0827, 93.13770
823.5648, 86.20984
824.0469, 80.61926
824.5291, 77.24854
825.0112, 74.56079
825.4933, 71.83521
825.9754, 68.59460
826.4575, 63.35852
826.9396, 52.37585
827.4218, 43.37842
827.9039, 38.97339
828.3860, 37.92932
828.8681, 36.39026
829.3502, 34.24841
829.8323, 32.04211
830.3145, 29.95984
830.7966, 27.93103
831.2787, 25.78516
831.7608, 23.52710
832.2429, 21.27380
832.7250, 18.43298
833.2072, 16.23230
833.6893, 16.40540
834.1714, 17.70349
834.6535, 16.61523
835.1356, 11.02771
835.6177, 6.705688
836.0999, 5.012329
836.5820, 4.785400
837.0641, 3.103638
837.5462, 0.1633300
838.0283, 1.732910
838.5104, 1.511353
838.9926, 0.5810550
839.4747, 0.2252200
839.9568, 0.3369140
840.4389, 0.7227780
840.9210, 1.782471
841.4031, 2.579712
841.8853, 3.001831
842.3674, 3.030762
842.8495, 2.329346
843.3316, 0.5007320
843.8137, 0.2408450
844.2958, 2.410889
844.7780, 5.206177
845.2601, 5.754761
845.7422, 4.849365
846.2243, 4.468018
846.7064, 5.377808
847.1885, 6.295776
847.6707, 6.054321
848.1528, 5.600342
848.6349, 6.097900
849.1170, 8.448853
849.5991, 10.29480
850.0812, 11.83203
850.5634, 12.42053
851.0455, 10.46973
851.5276, 6.490845
852.0097, 4.733643
852.4918, 5.892578
852.9739, 8.104492
853.4561, 11.22632
853.9382, 13.63342
854.4203, 13.03296
854.9024, 7.809082
855.3845, 3.765381
855.8666, 2.260864
856.3488, 2.101074
856.8309, 2.813354
857.3130, 4.600098
857.7951, 6.047729
858.2772, 7.194214
858.7593, 7.864746
859.2415, 7.140503
859.7236, 6.142334
860.2057, 7.434204
860.6878, 11.19470
861.1699, 13.49915
861.6520, 11.37427
862.1342, 8.093750
862.6163, 5.190308
863.0984, 2.655640
863.5805, 1.906494
864.0626, 3.562744
864.5447, 5.086792
865.0269, 4.769409
865.5090, 3.183472
865.9911, 2.355469
866.4732, 2.199341
866.9553, 2.214966
867.4374, 2.429810
867.9196, 2.427002
868.4017, 2.010986
868.8838, 1.174194
869.3659, 0.2391360
869.8480, 2.775513
870.3301, 4.825317
870.8123, 5.729248
871.2944, 5.876099
871.7765, 7.004150
872.2586, 8.918457
872.7407, 9.876465
873.2228, 8.248535
873.7050, 6.246704
874.1871, 6.050415
874.6692, 7.238037
875.1513, 8.914185
875.6334, 11.94324
876.1155, 14.01086
876.5977, 14.61938
877.0798, 14.24109
877.5619, 13.49756
878.0440, 12.34912
878.5261, 11.70996
879.0082, 11.79431
879.4904, 12.31665
879.9725, 13.34363
880.4546, 14.46362
880.9367, 14.83582
881.4188, 13.67566
881.9009, 12.89075
882.3831, 12.84692
882.8652, 13.74866
883.3473, 15.96338
883.8294, 20.29248
884.3115, 22.79016
884.7936, 23.03821
885.2758, 22.60107
885.7579, 22.72375
886.2400, 23.46802
886.7221, 25.24304
887.2042, 28.16187
887.6863, 30.77441
888.1685, 31.44434
888.6506, 32.15015
889.1327, 34.43652
889.6148, 38.58789
890.0969, 42.53455
890.5790, 46.23206
891.0612, 49.80811
891.5433, 53.25598
892.0254, 56.61792
892.5075, 59.80249
892.9896, 62.91394
893.4717, 66.74573
893.9539, 72.46472
894.4360, 78.48303
894.9181, 83.30042
895.4002, 87.32654
895.8823, 92.92529
896.3644, 100.5042
896.8466, 109.3225
897.3287, 119.6753
897.8108, 130.8912
898.2929, 140.8440
898.7750, 149.9506
899.2571, 161.1451
899.7393, 176.2599
900.2214, 192.8705
900.7035, 208.7538
901.1856, 224.6084
901.6677, 241.2250
902.1498, 257.7106
902.6320, 276.7666
903.1141, 298.5607
903.5962, 323.2255
904.0783, 351.6278
904.5604, 383.5250
905.0425, 412.7075
905.5247, 438.3053
906.0068, 461.3262
906.4889, 484.0177
906.9710, 503.8446
907.4531, 518.5989
907.9352, 528.9396
908.4174, 530.6938
908.8995, 522.9089
909.3816, 507.7814
909.8637, 485.2786
910.3458, 455.0444
910.8279, 424.3220
911.3101, 393.0011
911.7922, 362.2386
912.2743, 331.9282
912.7564, 303.8005
913.2385, 279.7891
913.7206, 259.4543
914.2028, 240.2811
914.6849, 220.8281
915.1670, 203.1936
915.6491, 188.2854
916.1312, 175.6705
916.6133, 163.7639
917.0955, 152.6361
917.5776, 142.0037
918.0597, 130.9861
918.5418, 120.9506
919.0239, 114.5138
919.5060, 110.7198
919.9882, 107.2905
920.4703, 103.5902
920.9524, 99.82617
921.4345, 95.57910
921.9166, 91.26721
922.3987, 87.88318
922.8809, 85.63147
923.3630, 82.26050
923.8451, 77.26013
924.3272, 72.00415
924.8093, 67.23743
925.2914, 63.50549
925.7736, 62.22205
926.2557, 64.20544
926.7378, 64.79980
927.2199, 61.93457
927.7020, 58.09521
928.1841, 54.11487
928.6663, 49.96265
929.1484, 46.51453
929.6305, 43.76147
930.1126, 42.79834
930.5947, 46.32837
931.0768, 50.57153
931.5590, 50.08264
932.0411, 45.92639
932.5232, 42.49866
933.0053, 41.55432
933.4874, 41.30579
933.9695, 41.97461
934.4517, 42.55298
934.9338, 39.91028
935.4159, 33.95239
935.8980, 30.07568
936.3801, 30.43323
936.8622, 31.77112
937.3444, 29.44312
937.8265, 25.82996
938.3086, 24.62988
938.7907, 28.78320
939.2728, 31.30334
939.7549, 30.09448
940.2371, 27.84070
940.7192, 26.63367
941.2013, 26.52039
941.6834, 26.82446
942.1655, 27.47754
942.6476, 27.83313
943.1298, 27.15771
943.6119, 25.99817
944.0940, 24.91650
944.5761, 23.96729
945.0582, 22.98022
945.5403, 22.07397
946.0225, 20.82678
946.5046, 18.67786
946.9867, 16.20703
947.4688, 16.30334
947.9509, 18.74829
948.4330, 20.70264
948.9152, 21.15186
949.3973, 20.37354
949.8794, 17.51428
950.3615, 13.87427
950.8436, 11.79041
951.3257, 13.90393
951.8079, 14.41968
952.2900, 12.06091
952.7721, 9.392334
953.2542, 10.30469
953.7363, 14.11621
954.2184, 15.52148
954.7006, 13.80957
955.1827, 11.27979
955.6648, 9.658936
956.1469, 8.191650
956.6290, 5.900146
957.1111, 2.486328
957.5933, 0.7163090
958.0754, 1.308838
958.5575, 2.316650
959.0396, 3.057861
959.5217, 3.413086
960.0038, 2.333496
960.4860, 0.2556150
960.9681, 0.5527340
961.4502, 2.281738
961.9323, 5.490234
962.4144, 6.973145
962.8965, 7.478271
963.3787, 8.697998
963.8608, 11.44946
964.3429, 12.77954
964.8250, 11.92456
965.3071, 10.57104
965.7892, 10.94238
966.2714, 12.61523
966.7535, 14.94604
967.2356, 17.99512
967.7177, 20.11597
968.1998, 19.72705
968.6819, 18.53589
969.1641, 17.81396
969.6462, 17.69287
970.1283, 16.47974
970.6104, 13.88037
971.0925, 11.93799
971.5746, 11.86084
972.0568, 13.20825
972.5389, 16.42993
973.0210, 20.49365
973.5031, 22.06348
973.9852, 16.91797
974.4673, 12.47949
974.9495, 11.22485
975.4316, 11.77075
975.9137, 11.95532
976.3958, 11.76147
976.8779, 11.09912
977.3600, 9.758301
977.8422, 8.961182
978.3243, 10.97949
978.8064, 13.89331
979.2885, 15.06982
979.7706, 13.69556
980.2527, 12.52612
980.7349, 11.57275
981.2170, 11.54199
981.6991, 13.27808
982.1812, 16.35474
982.6633, 17.10742
983.1454, 15.73218
983.6276, 14.62891
984.1097, 15.32056
984.5918, 16.66382
985.0739, 17.75049
985.5560, 18.77319
986.0381, 20.39404
986.5203, 23.65063
987.0024, 25.16602
987.4845, 23.90942
987.9666, 21.98511
988.4487, 22.26587
988.9308, 24.43188
989.4130, 28.16919
989.8951, 33.85034
990.3772, 37.93701
990.8593, 38.09106
991.3414, 36.07227
991.8235, 32.25171
992.3057, 26.49292
992.7878, 24.63135
993.2699, 27.34644
993.7520, 29.63818
994.2341, 28.22266
994.7162, 25.18408
995.1984, 23.80420
995.6805, 23.73291
996.1626, 24.06030
996.6447, 25.20776
997.1268, 25.76758
997.6089, 25.02783
998.0911, 23.92896
998.5732, 23.69116
999.0553, 24.30908
999.5374, 25.93408
1000.020, 28.74829
1000.502, 30.55981
1000.984, 27.72241
1001.466, 23.86621
1001.948, 23.17993
1002.430, 26.65454
1002.912, 27.68799
1003.394, 24.48242
1003.876, 20.55322
1004.359, 16.75415
1004.841, 13.72705
1005.323, 14.34839
1005.805, 17.80591
1006.287, 20.66455
1006.769, 22.18042
1007.251, 22.02539
1007.733, 17.05444
1008.216, 11.18115
1008.698, 10.33838
1009.180, 16.86133
1009.662, 19.35254
1010.144, 16.60229
1010.626, 12.86450
1011.108, 12.24976
1011.590, 13.43164
1012.072, 14.57178
1012.555, 15.52148
1013.037, 16.35791
1013.519, 17.33228
1014.001, 17.89673
1014.483, 17.83594
1014.965, 17.22705
1015.447, 16.58911
1015.929, 15.92529
1016.411, 14.41675
1016.894, 11.47192
1017.376, 8.351807
1017.858, 5.076172
1018.340, 2.727783
1018.822, 3.045410
1019.304, 8.493164
1019.786, 11.13745
1020.268, 10.29907
1020.751, 8.405762
1021.233, 7.073975
1021.715, 6.212646
1022.197, 5.423828
1022.679, 4.766113
1023.161, 4.644531
1023.643, 5.963623
1024.125, 7.066895
1024.607, 6.832275
1025.090, 6.082764
1025.572, 6.750000
1026.054, 8.960205
1026.536, 10.72632
1027.018, 11.86792
1027.500, 11.74170
1027.982, 8.638428
1028.464, 4.414795
1028.947, 1.047607
1029.429, 1.197754
1029.911, 1.762207
1030.393, 0.4545900
1030.875, 2.280273
1031.357, 1.865479
1031.839, 6.9335997E-02
1032.321, 1.336670
1032.803, 1.912842
1033.286, 1.801270
1033.768, 0.7778320
1034.250, 0.6618650
1034.732, 2.682861
1035.214, 4.840820
1035.696, 6.416504
1036.178, 7.314453
1036.660, 8.344482
1037.143, 9.658203
1037.625, 10.33179
1038.107, 8.812744
1038.589, 6.635498
1039.071, 5.876465
1039.553, 6.579834
1040.035, 6.847412
1040.517, 5.572266
1041.000, 4.904541
1041.482, 5.621582
1041.964, 7.118652
1042.446, 7.470215
1042.928, 7.180176
1043.410, 8.515625
1043.892, 13.10620
1044.374, 16.61548
1044.856, 16.31348
1045.339, 13.64111
1045.821, 9.465088
1046.303, 3.359863
1046.785, 0.4416500
1047.267, 1.861816
1047.749, 1.658936
1048.231, 0.7814940
1048.713, 3.734619
1049.195, 4.844971
1049.677, 4.605957
1050.160, 4.401123
1050.642, 4.637207
1051.124, 4.745850
1051.606, 4.441895
1052.088, 4.295898
1052.570, 5.448486
1053.052, 7.430176
1053.534, 8.263672
1054.017, 7.699951
1054.499, 6.354492
1054.981, 3.242920
1055.463, 0.7487790
1055.945, 0.9296880
1056.427, 3.205566
1056.909, 4.113770
1057.391, 3.532959
1057.874, 3.335449
1058.356, 4.770020
1058.838, 5.662109
1059.320, 1.882324
1059.802, 3.544434
1060.284, 6.200439
1060.766, 3.667236
1061.248, 1.778564
1061.730, 1.258545
1062.213, 0.4348140
1062.695, 3.234375
1063.177, 8.073730
1063.659, 6.531738
1064.141, 2.1973001E-02
1064.623, 4.548340
1065.105, 2.647217
1065.587, 0.6721190
1066.070, 5.109619
1066.552, 8.867920
1067.034, 8.453125
1067.516, 3.638428
1067.998, 0.5930180
1068.480, 4.6386998E-02
1068.962, 0.8764650
1069.444, 3.294434
1069.927, 5.768555
1070.409, 6.905518
1070.891, 6.382080
1071.373, 5.752686
1071.855, 4.899414
1072.337, 5.021240
1072.819, 6.018311
1073.301, 7.547607
1073.783, 10.97827
1074.266, 15.12720
1074.748, 16.84546
1075.230, 13.68359
1075.712, 12.74829
1076.194, 17.08252
1076.676, 22.57568
1077.158, 27.32007
1077.640, 31.29541
1078.122, 34.00586
1078.604, 35.75708
1079.087, 39.19629
1079.569, 47.76367
1080.051, 56.37573
1080.533, 60.87427
1081.015, 63.68579
1081.497, 69.30200
1081.979, 77.94604
1082.461, 87.84668
1082.944, 98.84106
1083.426, 111.0557
1083.908, 124.2085
1084.390, 138.6990
1084.872, 154.6321
1085.354, 172.2549
1085.836, 192.9614
1086.318, 219.0706
1086.801, 244.9587
1087.283, 269.9395
1087.765, 293.0906
1088.247, 315.4329
1088.729, 334.3618
1089.211, 343.0952
1089.693, 340.3481
1090.175, 327.2310
1090.657, 298.8513
1091.140, 264.8242
1091.622, 228.8286
1092.104, 191.6106
1092.586, 158.6858
1093.068, 130.0273
1093.550, 106.9177
1094.032, 91.37720
1094.514, 78.99609
1094.997, 66.15576
1095.479, 54.86792
1095.961, 47.87256
1096.443, 46.37451
1096.925, 44.81738
1097.407, 43.09326
1097.889, 41.91162
1098.371, 41.32788
1098.854, 41.91187
1099.336, 45.86328
1099.818, 51.88599
1100.300, 54.84375
1100.782, 51.89819
1101.264, 48.81079
1101.746, 46.65845
1102.228, 43.86011
1102.710, 36.96143
1103.193, 28.04736
1103.675, 22.49194
1104.157, 20.97656
1104.639, 19.80420
1105.121, 16.71021
1105.603, 14.61621
1106.085, 15.23438
1106.567, 17.14868
1107.049, 14.33545
1107.531, 7.708984
1108.014, 4.799316
1108.496, 8.522461
1108.978, 13.17139
1109.460, 15.13477
1109.942, 15.84473
1110.424, 16.49194
1110.906, 17.16284
1111.388, 17.02954
1111.871, 16.06543
1112.353, 14.60352
1112.835, 12.75732
1113.317, 10.54614
1113.799, 7.130615
1114.281, 3.685547
1114.763, 2.241455
1115.245, 4.512695
1115.728, 5.978271
1116.210, 6.636719
1116.692, 6.643555
1117.174, 5.485107
1117.656, 3.895264
1118.138, 3.338867
1118.620, 4.045654
1119.102, 5.442139
1119.584, 8.629150
1120.067, 10.26099
1120.549, 8.992432
1121.031, 7.145996
1121.513, 8.674805
1121.995, 12.17090
1122.477, 12.16895
1122.959, 8.584961
1123.441, 5.497559
1123.924, 5.676514
1124.406, 5.958984
1124.888, 4.819824
1125.370, 2.875977
1125.852, 2.056641
1126.334, 2.286377
1126.816, 1.878418
1127.298, 0.2753910
1127.781, 0.9323730
1128.263, 0.8388670
1128.745, 2.393066
1129.227, 4.7851998E-02
1129.709, 6.148438
1130.191, 6.812500
1130.673, 1.622559
1131.155, 2.678467
1131.637, 3.183350
1132.120, 2.044922
1132.602, 0.3474120
1133.084, 1.073975
1133.566, 0.8601070
1134.048, 1.891846
1134.530, 3.631348
1135.012, 4.278320
1135.494, 4.159180
1135.976, 3.035156
1136.458, 1.620850
1136.941, 0.9812010
1137.423, 0.9797360
1137.905, 1.267090
1138.387, 1.072998
1138.869, 2.563232
1139.351, 6.509277
1139.833, 10.60986
1140.315, 12.07129
1140.798, 12.04980
1141.280, 14.10864
1141.762, 17.74902
1142.244, 18.85742
1142.726, 12.62964
1143.208, 7.847168
1143.690, 6.827637
1144.172, 7.769531
1144.655, 8.998535
1145.137, 10.30029
1145.619, 10.27271
1146.101, 8.734619
1146.583, 7.656250
1147.065, 8.394287
1147.547, 9.765381
1148.029, 11.75708
1148.511, 13.74268
1148.994, 13.30249
1149.476, 10.79688
1149.958, 9.523193
1150.440, 10.32788
1150.922, 12.08789
1151.404, 15.18066
1151.886, 17.83691
1152.368, 18.18164
1152.851, 16.57764
1153.333, 17.09985
1153.815, 19.72290
1154.297, 21.63550
1154.779, 21.74585
1155.261, 20.78198
1155.743, 18.89160
1156.225, 16.51562
1156.708, 13.87573
1157.190, 10.70435
1157.672, 9.710449
1158.154, 11.17065
1158.636, 12.46484
1159.118, 11.71924
1159.600, 10.61206
1160.082, 12.30420
1160.564, 14.59448
1161.047, 13.30200
1161.529, 5.435059
1162.011, 7.0556998E-02
1162.493, 3.187988
1162.975, 3.734619
1163.457, 0.1499020
1163.939, 5.471680
1164.421, 8.395752
1164.903, 9.139160
1165.385, 8.496094
1165.868, 5.189941
1166.350, 3.134033
1166.832, 2.617676
1167.314, 3.166748
1167.796, 5.182861
1168.278, 7.483154
1168.760, 7.293701
1169.242, 5.097168
1169.725, 4.326416
1170.207, 7.521973
1170.689, 9.667725
1171.171, 9.748779
1171.653, 9.215820
1172.135, 10.03638
1172.617, 11.62329
1173.099, 12.82886
1173.582, 13.52930
1174.064, 14.58472
1174.546, 17.10327
1175.028, 18.81323
1175.510, 19.22485
1175.992, 18.35059
1176.474, 15.39819
1176.956, 11.14819
1177.438, 7.631348
1177.921, 5.090088
1178.403, 4.273193
1178.885, 6.219727
1179.367, 9.511719
1179.849, 14.44360
1180.331, 19.73560
1180.813, 21.08301
1181.295, 19.16138
1181.778, 15.83716
1182.260, 10.34985
1182.742, 7.610352
1183.224, 13.27734
1183.706, 18.93311
1184.188, 19.63818
1184.670, 16.42578
1185.152, 14.05493
1185.635, 12.52271
1186.117, 12.66748
1186.599, 15.64990
1187.081, 18.14087
1187.563, 18.51709
1188.045, 17.29346
1188.527, 14.22876
1189.009, 9.527588
1189.491, 8.626221
1189.974, 11.06421
1190.456, 13.48560
1190.938, 13.73340
1191.420, 14.11255
1191.902, 16.91235
1192.384, 19.60156
1192.866, 19.48389
1193.348, 16.46460
1193.830, 14.50708
1194.313, 13.62231
1194.795, 13.84619
1195.277, 16.45972
1195.759, 18.77710
1196.241, 19.51880
1196.723, 18.92065
1197.205, 16.79419
1197.687, 13.07324
1198.169, 11.49683
1198.652, 12.14209
1199.134, 12.52026
1199.616, 11.28564
1200.098, 8.901611
1200.580, 3.287842
1201.062, 2.162598
1201.544, 0.8310550
1202.026, 7.572266
1202.509, 11.95557
1202.991, 11.30127
1203.473, 10.08350
1203.955, 12.20361
1204.437, 14.17041
1204.919, 13.45947
1205.401, 10.96460
1205.883, 8.061523
1206.365, 4.656250
1206.848, 4.396240
1207.330, 7.896973
1207.812, 11.70142
1208.294, 13.45630
1208.776, 14.40894
1209.258, 14.85962
1209.740, 15.15161
1210.222, 16.48853
1210.705, 18.97778
1211.187, 18.35522
1211.669, 13.51636
1212.151, 9.336182
1212.633, 10.62988
1213.115, 13.26440
1213.597, 14.56421
1214.079, 14.63965
1214.562, 13.32666
1215.044, 10.70068
1215.526, 10.51880
1216.008, 14.36719
1216.490, 16.80273
1216.972, 10.83960
1217.454, 4.094971
1217.936, 2.477295
1218.418, 5.123047
1218.901, 8.639893
1219.383, 12.88135
1219.865, 14.53784
1220.347, 11.85913
1220.829, 9.368408
1221.311, 11.19849
1221.793, 13.82739
1222.275, 14.91284
1222.757, 14.50708
1223.240, 12.68872
1223.722, 9.665039
1224.204, 8.023682
1224.686, 9.485840
1225.168, 10.20215
1225.650, 6.769531
1226.132, 2.366943
1226.614, 0.7961430
1227.096, 2.692139
1227.579, 2.834229
1228.061, 1.404785
1228.543, 0.2504880
1229.025, 0.4865720
1229.507, 0.3718260
1229.989, 2.172363
1230.471, 4.409424
1230.953, 3.599365
1231.436, 0.3090820
1231.918, 0.8300780
1232.400, 4.522461
1232.882, 6.982910
1233.364, 5.834961
1233.846, 4.232666
1234.328, 2.933838
1234.810, 2.583984
1235.292, 4.298584
1235.775, 7.563965
1236.257, 7.811523
1236.739, 5.626221
1237.221, 4.088623
1237.703, 5.637207
1238.185, 6.331299
1238.667, 2.493408
1239.149, 0.4335940
1239.632, 2.224609
1240.114, 9.121338
1240.596, 12.61499
1241.078, 12.99927
1241.560, 11.59741
1242.042, 5.695557
1242.524, 2.978271
1243.006, 6.916260
1243.489, 12.20605
1243.971, 15.11499
1244.453, 15.92798
1244.935, 14.75879
1245.417, 12.22437
1245.899, 10.92920
1246.381, 14.96875
1246.863, 15.83252
1247.345, 10.83545
1247.828, 5.445313
1248.310, 5.023193
1248.792, 7.595459
1249.274, 7.321045
1249.756, 5.251221
1250.238, 5.163574
1250.720, 11.88232
1251.202, 15.05566
1251.684, 12.51001
1252.167, 9.207764
1252.649, 9.451172
1253.131, 11.43481
1253.613, 12.06592
1254.095, 11.64746
1254.577, 11.58252
1255.059, 12.53418
1255.541, 13.53442
1256.023, 14.54785
1256.506, 15.23193
1256.988, 15.30371
1257.470, 14.85815
1257.952, 13.45581
1258.434, 11.77515
1258.916, 12.12793
1259.398, 16.49023
1259.880, 17.71265
1260.363, 14.98755
1260.845, 12.08350
1261.327, 12.66553
1261.809, 13.96460
1262.291, 12.72852
1262.773, 10.03345
1263.255, 9.212158
1263.737, 11.21729
1264.219, 10.80518
1264.702, 7.028564
1265.184, 2.951172
1265.666, 0.3186040
1266.148, 0.9035640
1266.630, 0.2893070
1267.112, 2.623047
1267.594, 4.245605
1268.076, 5.072998
1268.559, 4.234375
1269.041, 1.797119
1269.523, 0.7753910
1270.005, 4.441895
1270.487, 8.838623
1270.969, 12.88892
1271.451, 15.56665
1271.933, 13.43359
1272.416, 6.875000
1272.898, 2.471191
1273.380, 0.5993650
1273.862, 1.276611
1274.344, 8.364746
1274.826, 12.99194
1275.308, 10.63037
1275.790, 6.243164
1276.272, 6.792969
1276.755, 10.53418
1277.237, 9.177002
1277.719, 3.198730
1278.201, 0.6665040
1278.683, 3.000000
1279.165, 5.547363
1279.647, 4.779297
1280.129, 3.678467
1280.611, 6.725830
1281.094, 11.54956
1281.576, 12.80444
1282.058, 10.94141
1282.540, 9.351807
1283.022, 8.533447
1283.504, 8.978027
1283.986, 11.02124
1284.468, 12.53906
1284.950, 11.42725
1285.433, 9.342041
1285.915, 8.869629
1286.397, 9.838867
1286.879, 9.829590
1287.361, 7.790039
1287.843, 8.325928
1288.325, 12.58276
1288.807, 15.91211
1289.290, 11.97217
1289.772, 7.347168
1290.254, 8.270752
1290.736, 13.04932
1291.218, 15.06323
1291.700, 14.19092
1292.182, 12.49609
1292.664, 10.09937
1293.146, 8.101074
1293.629, 6.606445
1294.111, 6.490967
1294.593, 10.82153
1295.075, 15.00098
1295.557, 11.45654
1296.039, 1.682617
1296.521, 1.033447
1297.003, 3.153320
1297.486, 7.335205
1297.968, 8.536621
1298.450, 8.881348
1298.932, 9.035645
1299.414, 6.012451
1299.896, 4.304932
1300.378, 2.011963
1300.860, 0.3920900
1301.343, 2.7832000E-02
1301.825, 0.0000000E+00
##END=



