##NAMES=Synchysite-(Y)
##RRUFFID=R060984
##IDEAL CHEMISTRY=CaY(CO_3_)_2_F
##LOCALITY=Scrub Oaks mine, near Dover, Morris County, New Jersey, USA
##OWNER=RRUFF
##SOURCE=Michael Scott
##DESCRIPTION=Brownish-red earthy blebs associated with quartz and magnetite
##STATUS=The identification of this mineral is not yet confirmed.
##URL=rruff.info/R060984
143.7004, 0.0000000E+00
144.1825, 2.052490
144.6646, 15.28955
145.1467, 28.66711
145.6288, 43.55750
146.1110, 53.48877
146.5931, 54.56921
147.0752, 41.91809
147.5573, 38.24670
148.0394, 49.69446
148.5215, 67.88318
149.0037, 80.21277
149.4858, 85.65186
149.9679, 84.92053
150.4500, 76.62109
150.9321, 49.70520
151.4142, 34.36340
151.8964, 42.44043
152.3785, 63.03589
152.8606, 69.10339
153.3427, 38.72949
153.8248, 9.464722
154.3069, 2.762085
154.7890, 17.91199
155.2712, 38.53125
155.7533, 58.58020
156.2354, 76.29504
156.7175, 83.67578
157.1996, 63.46765
157.6817, 40.77979
158.1639, 32.16711
158.6460, 61.72437
159.1281, 85.93152
159.6102, 88.03442
160.0923, 69.17407
160.5744, 54.36694
161.0566, 29.72546
161.5387, 53.69995
162.0208, 67.29077
162.5029, 75.22595
162.9850, 49.65552
163.4671, 69.04944
163.9493, 68.36865
164.4314, 63.68420
164.9135, 84.21118
165.3956, 76.22913
165.8777, 86.91931
166.3598, 86.35339
166.8420, 78.76270
167.3241, 75.04932
167.8062, 76.56873
168.2883, 77.97668
168.7704, 76.97485
169.2525, 77.00293
169.7346, 73.06995
170.2168, 78.41016
170.6989, 85.45288
171.1810, 85.87683
171.6631, 76.23694
172.1452, 65.69983
172.6273, 62.09888
173.1095, 64.06250
173.5916, 67.08398
174.0737, 71.80066
174.5558, 75.06274
175.0379, 71.31738
175.5201, 56.09192
176.0022, 38.88049
176.4843, 32.18274
176.9664, 34.37695
177.4485, 35.76746
177.9306, 26.46228
178.4128, 11.52100
178.8949, 1.260864
179.3770, 0.6441650
179.8591, 4.033569
180.3412, 2.508423
180.8233, 3.752563
181.3055, 10.26587
181.7876, 13.39697
182.2697, 13.72217
182.7518, 13.08459
183.2339, 12.46765
183.7160, 11.14258
184.1981, 7.307007
184.6803, 0.8706050
185.1624, 6.669678
185.6445, 18.26697
186.1266, 31.62122
186.6087, 34.76477
187.0908, 14.19836
187.5730, 20.71289
188.0551, 35.63733
188.5372, 28.39160
189.0193, 11.42163
189.5014, 2.661255
189.9835, 13.91418
190.4657, 21.00488
190.9478, 22.17261
191.4299, 18.17920
191.9120, 14.08887
192.3941, 10.30017
192.8762, 5.591675
193.3584, 4.949097
193.8405, 21.61072
194.3226, 31.84631
194.8047, 24.40308
195.2868, 0.5550540
195.7689, 12.38562
196.2511, 11.01453
196.7332, 2.303345
197.2153, 0.1104740
197.6974, 4.452515
198.1795, 9.683350
198.6616, 12.23669
199.1437, 12.08569
199.6259, 10.38623
200.1080, 4.869263
200.5901, 5.7617001E-02
201.0722, 10.57092
201.5543, 40.27014
202.0364, 68.60901
202.5186, 80.80725
203.0007, 74.70898
203.4828, 70.52332
203.9649, 70.29236
204.4470, 73.22876
204.9291, 75.85596
205.4113, 76.87744
205.8934, 81.31702
206.3755, 94.26733
206.8576, 117.8451
207.3397, 138.4836
207.8218, 153.3984
208.3040, 164.0079
208.7861, 176.7523
209.2682, 190.5388
209.7503, 208.5874
210.2324, 233.2725
210.7145, 264.3445
211.1967, 302.5450
211.6788, 349.5751
212.1609, 404.5291
212.6430, 459.8173
213.1251, 516.5088
213.6072, 570.9673
214.0894, 619.2766
214.5715, 658.2607
215.0536, 700.6133
215.5357, 747.8430
216.0178, 800.0903
216.4999, 857.7173
216.9820, 922.2749
217.4642, 989.0773
217.9463, 1054.486
218.4284, 1117.384
218.9105, 1179.479
219.3926, 1240.550
219.8747, 1299.899
220.3569, 1363.789
220.8390, 1440.121
221.3211, 1512.309
221.8032, 1564.186
222.2853, 1590.679
222.7674, 1607.642
223.2496, 1622.436
223.7317, 1637.729
224.2138, 1621.442
224.6959, 1567.978
225.1780, 1488.453
225.6601, 1391.484
226.1423, 1269.941
226.6244, 1146.026
227.1065, 1023.348
227.5886, 898.4099
228.0707, 791.3850
228.5528, 702.7236
229.0350, 630.1851
229.5171, 572.2085
229.9992, 531.6222
230.4813, 498.7584
230.9634, 472.4678
231.4455, 454.1077
231.9276, 433.2084
232.4098, 403.9736
232.8919, 376.0876
233.3740, 366.1650
233.8561, 385.0006
234.3382, 402.8713
234.8203, 409.8135
235.3025, 401.2158
235.7846, 401.8575
236.2667, 416.6967
236.7488, 437.5581
237.2309, 451.2297
237.7130, 451.9838
238.1952, 455.1167
238.6773, 465.9492
239.1594, 487.1687
239.6415, 506.0071
240.1236, 525.3396
240.6057, 541.2632
241.0879, 545.7418
241.5700, 529.6965
242.0521, 517.2590
242.5342, 518.3796
243.0163, 539.4150
243.4984, 550.1670
243.9806, 551.1089
244.4627, 541.3701
244.9448, 517.2632
245.4269, 465.4529
245.9090, 417.5137
246.3911, 386.7028
246.8732, 380.3783
247.3554, 367.5215
247.8375, 343.9884
248.3196, 315.1967
248.8017, 290.5897
249.2838, 270.7871
249.7659, 254.5200
250.2481, 241.1733
250.7302, 230.4163
251.2123, 224.7253
251.6944, 228.2168
252.1765, 233.6616
252.6586, 227.2400
253.1408, 201.7723
253.6229, 177.9990
254.1050, 162.5890
254.5871, 155.7473
255.0692, 157.7147
255.5513, 172.0100
256.0334, 192.9113
256.5156, 212.1204
256.9977, 234.1174
257.4798, 245.7712
257.9619, 238.8821
258.4440, 205.5593
258.9261, 185.6421
259.4083, 182.2512
259.8904, 189.7235
260.3725, 198.5936
260.8546, 210.1256
261.3367, 220.4128
261.8188, 227.6716
262.3010, 231.1936
262.7831, 234.9337
263.2652, 238.2361
263.7473, 242.7911
264.2294, 251.9856
264.7115, 266.6049
265.1937, 280.8394
265.6758, 293.7023
266.1579, 306.0215
266.6400, 309.2040
267.1221, 297.0288
267.6042, 282.5007
268.0864, 290.7461
268.5685, 331.5425
269.0506, 365.8857
269.5327, 375.0161
270.0148, 354.5662
270.4969, 353.6300
270.9791, 375.8645
271.4612, 412.4838
271.9433, 453.6105
272.4254, 502.8704
272.9075, 541.7747
273.3896, 558.0488
273.8718, 550.0216
274.3539, 559.5012
274.8360, 591.1501
275.3181, 634.6163
275.8002, 674.2162
276.2823, 707.2261
276.7645, 744.1313
277.2466, 790.0642
277.7287, 845.2124
278.2108, 902.8560
278.6929, 964.8622
279.1750, 1023.957
279.6572, 1066.113
280.1393, 1088.995
280.6214, 1121.992
281.1035, 1177.238
281.5856, 1252.582
282.0677, 1331.103
282.5499, 1415.670
283.0320, 1493.762
283.5141, 1540.561
283.9962, 1554.766
284.4783, 1588.739
284.9604, 1671.756
285.4425, 1790.573
285.9247, 1870.479
286.4068, 1908.023
286.8889, 1928.381
287.3710, 1953.454
287.8531, 1982.919
288.3352, 2017.927
288.8174, 2068.469
289.2995, 2122.690
289.7816, 2139.172
290.2637, 2115.632
290.7458, 2070.923
291.2279, 2016.022
291.7101, 1953.373
292.1922, 1895.880
292.6743, 1850.236
293.1564, 1810.732
293.6385, 1764.226
294.1206, 1710.822
294.6028, 1656.747
295.0849, 1608.252
295.5670, 1563.455
296.0491, 1515.237
296.5312, 1460.068
297.0133, 1403.074
297.4955, 1356.173
297.9776, 1319.165
298.4597, 1277.984
298.9418, 1215.241
299.4239, 1141.036
299.9060, 1079.022
300.3882, 1039.717
300.8703, 1008.293
301.3524, 966.2428
301.8345, 914.8225
302.3166, 862.1011
302.7987, 810.1539
303.2809, 760.8196
303.7630, 716.3496
304.2451, 678.5984
304.7272, 643.7225
305.2093, 607.4332
305.6914, 570.4565
306.1736, 537.6963
306.6557, 516.4680
307.1378, 498.5049
307.6199, 473.5247
308.1020, 437.7041
308.5841, 399.9836
309.0663, 364.7028
309.5484, 332.4744
310.0305, 306.1350
310.5126, 289.1790
310.9947, 277.1157
311.4768, 268.1139
311.9590, 263.7021
312.4411, 255.2567
312.9232, 232.1172
313.4053, 201.7080
313.8874, 177.8516
314.3695, 168.2998
314.8516, 165.0793
315.3337, 166.9994
315.8159, 176.3059
316.2980, 175.6171
316.7801, 145.6805
317.2622, 104.1761
317.7443, 74.68164
318.2264, 79.16296
318.7086, 85.41406
319.1907, 78.97742
319.6728, 58.03687
320.1549, 37.74072
320.6370, 17.83997
321.1191, 2.612183
321.6013, 3.748901
322.0834, 7.211182
322.5655, 19.70288
323.0476, 31.35425
323.5297, 41.97388
324.0118, 47.56128
324.4940, 42.13733
324.9761, 34.37146
325.4582, 30.61890
325.9403, 36.52551
326.4224, 40.93079
326.9045, 41.49243
327.3867, 38.64172
327.8688, 37.33203
328.3509, 38.43408
328.8330, 40.53296
329.3151, 43.14355
329.7972, 51.73047
330.2794, 53.17920
330.7615, 44.75952
331.2436, 28.55591
331.7257, 12.15039
332.2078, 9.125732
332.6899, 25.15088
333.1721, 30.26099
333.6542, 16.92163
334.1363, 9.102539
334.6184, 9.493652
335.1005, 14.10669
335.5826, 13.59399
336.0648, 4.928955
336.5469, 2.742920
337.0290, 5.895020
337.5111, 3.933594
337.9932, 0.1813960
338.4753, 6.029785
338.9575, 13.28662
339.4396, 20.34302
339.9217, 28.06177
340.4038, 31.86377
340.8859, 28.96899
341.3680, 19.78760
341.8502, 11.62622
342.3323, 3.885254
342.8144, 0.5827640
343.2965, 3.843750
343.7786, 17.24414
344.2607, 28.03711
344.7429, 32.37061
345.2250, 31.72437
345.7071, 32.35449
346.1892, 34.55078
346.6713, 34.00415
347.1534, 25.23438
347.6355, 9.778076
348.1176, 4.811523
348.5998, 16.56543
349.0819, 27.09692
349.5640, 40.54395
350.0461, 56.60083
350.5282, 70.04663
351.0103, 75.52222
351.4925, 76.08374
351.9746, 77.27954
352.4567, 79.10498
352.9388, 83.91650
353.4209, 95.04785
353.9030, 111.5532
354.3852, 130.3689
354.8673, 159.1790
355.3494, 185.0508
355.8315, 188.3740
356.3136, 162.4380
356.7957, 140.4224
357.2779, 149.6716
357.7600, 179.8577
358.2421, 212.4409
358.7242, 247.4692
359.2063, 276.6924
359.6884, 291.8110
360.1706, 291.9170
360.6527, 292.7051
361.1348, 302.2766
361.6169, 316.0894
362.0990, 329.1382
362.5811, 337.1101
363.0633, 346.9214
363.5454, 359.3293
364.0275, 374.7375
364.5096, 396.8337
364.9917, 436.9822
365.4738, 477.6299
365.9560, 507.7458
366.4381, 515.0996
366.9202, 523.6179
367.4023, 538.1167
367.8844, 556.3792
368.3665, 570.1663
368.8487, 573.6831
369.3308, 577.3359
369.8129, 585.2146
370.2950, 599.8525
370.7771, 613.3076
371.2592, 624.9858
371.7414, 635.6616
372.2235, 647.5527
372.7056, 664.3850
373.1877, 676.1008
373.6698, 678.1440
374.1519, 669.0920
374.6341, 662.5964
375.1162, 659.7249
375.5983, 657.8125
376.0804, 654.9861
376.5625, 652.4495
377.0446, 642.8679
377.5267, 621.0481
378.0089, 590.4199
378.4910, 573.7822
378.9731, 573.6296
379.4552, 575.5127
379.9373, 566.0286
380.4194, 545.7957
380.9016, 534.6665
381.3837, 539.8650
381.8658, 549.9053
382.3479, 536.8901
382.8300, 502.5688
383.3121, 472.6445
383.7943, 468.7834
384.2764, 481.9829
384.7585, 487.6643
385.2406, 481.6184
385.7227, 472.8184
386.2048, 470.0891
386.6870, 473.7600
387.1691, 482.8792
387.6512, 500.5864
388.1333, 519.6309
388.6154, 533.6609
389.0975, 542.4155
389.5797, 545.8186
390.0618, 530.9802
390.5439, 513.3162
391.0260, 513.8062
391.5081, 554.4963
391.9902, 601.6633
392.4724, 637.3264
392.9545, 662.8706
393.4366, 688.3484
393.9187, 717.4695
394.4008, 749.0361
394.8829, 783.4927
395.3651, 826.0779
395.8472, 861.7581
396.3293, 880.2905
396.8114, 889.2954
397.2935, 905.3259
397.7756, 935.5002
398.2578, 969.3577
398.7399, 1003.234
399.2220, 1035.165
399.7041, 1074.421
400.1862, 1123.496
400.6683, 1178.253
401.1505, 1236.225
401.6326, 1318.491
402.1147, 1368.591
402.5968, 1365.516
403.0789, 1313.353
403.5610, 1287.772
404.0432, 1298.197
404.5253, 1319.839
405.0074, 1338.552
405.4895, 1357.825
405.9716, 1359.477
406.4537, 1337.281
406.9359, 1298.972
407.4180, 1263.698
407.9001, 1231.599
408.3822, 1200.259
408.8643, 1170.891
409.3464, 1142.276
409.8285, 1101.249
410.3106, 1044.708
410.7928, 986.8230
411.2749, 947.4221
411.7570, 922.9834
412.2391, 896.8020
412.7212, 859.5457
413.2033, 817.3538
413.6855, 781.8831
414.1676, 752.9358
414.6497, 724.3506
415.1318, 685.5747
415.6139, 645.6746
416.0960, 620.4026
416.5782, 621.8398
417.0603, 625.6926
417.5424, 613.5686
418.0245, 588.5562
418.5066, 559.8350
418.9887, 522.2456
419.4709, 488.8230
419.9530, 467.6340
420.4351, 460.5852
420.9172, 463.5779
421.3993, 488.8564
421.8814, 519.6133
422.3636, 533.7920
422.8457, 510.1030
423.3278, 486.1362
423.8099, 471.7783
424.2920, 467.5215
424.7741, 465.0823
425.2563, 467.9912
425.7384, 469.7627
426.2205, 466.4783
426.7026, 458.8047
427.1847, 444.7332
427.6668, 421.9893
428.1490, 393.1853
428.6311, 365.8574
429.1132, 339.9519
429.5953, 314.7834
430.0774, 289.3142
430.5595, 262.9204
431.0417, 242.7620
431.5238, 230.4502
432.0059, 221.1743
432.4880, 209.6401
432.9701, 195.8574
433.4522, 179.0432
433.9344, 158.1204
434.4165, 134.3003
434.8986, 108.5781
435.3807, 81.00269
435.8628, 56.75024
436.3449, 39.01221
436.8271, 27.76270
437.3092, 24.83691
437.7913, 34.05811
438.2734, 42.89233
438.7555, 35.17236
439.2376, 15.98511
439.7197, 1.117432
440.2018, 7.433105
440.6840, 9.898682
441.1661, 15.37061
441.6482, 24.78687
442.1303, 30.37085
442.6124, 21.15649
443.0945, 8.847168
443.5767, 5.791504
444.0588, 30.78711
444.5409, 49.32593
445.0230, 50.01147
445.5051, 35.02734
445.9872, 16.74292
446.4694, 17.24585
446.9515, 42.65308
447.4336, 45.32300
447.9157, 3.479736
448.3978, 15.65649
448.8799, 0.8339840
449.3621, 31.20679
449.8442, 55.26196
450.3263, 68.73462
450.8084, 79.43677
451.2905, 88.05444
451.7726, 94.80078
452.2548, 105.9277
452.7369, 122.2820
453.2190, 140.7014
453.7011, 159.3496
454.1832, 178.1250
454.6653, 195.8572
455.1475, 212.1306
455.6296, 227.9741
456.1117, 248.1462
456.5938, 271.5654
457.0759, 289.6475
457.5580, 290.3650
458.0402, 284.0566
458.5223, 294.1118
459.0044, 322.6670
459.4865, 349.6970
459.9686, 355.6938
460.4507, 349.3533
460.9329, 344.3694
461.4150, 342.3250
461.8971, 346.4705
462.3792, 364.0859
462.8613, 391.2141
463.3434, 412.9468
463.8256, 415.9792
464.3077, 416.1711
464.7898, 423.6836
465.2719, 442.9851
465.7540, 461.2961
466.2361, 475.8950
466.7183, 488.3066
467.2004, 500.2820
467.6825, 512.0984
468.1646, 523.1279
468.6467, 531.2268
469.1288, 536.7600
469.6109, 551.2800
470.0930, 580.0786
470.5752, 609.9521
471.0573, 632.9553
471.5394, 648.0210
472.0215, 658.9207
472.5036, 663.7979
472.9857, 667.2495
473.4679, 680.2241
473.9500, 703.2019
474.4321, 721.9568
474.9142, 727.7791
475.3963, 725.0183
475.8784, 729.5686
476.3606, 741.7705
476.8427, 754.1902
477.3248, 759.4182
477.8069, 760.1514
478.2890, 762.6182
478.7711, 771.1580
479.2533, 776.4114
479.7354, 764.2004
480.2175, 741.0735
480.6996, 724.1941
481.1817, 731.5420
481.6638, 741.1838
482.1460, 735.9331
482.6281, 712.5000
483.1102, 694.1616
483.5923, 693.9832
484.0744, 700.0579
484.5565, 701.7764
485.0387, 695.9824
485.5208, 688.8760
486.0029, 678.5710
486.4850, 664.4089
486.9671, 652.1064
487.4492, 650.1531
487.9314, 643.4731
488.4135, 623.3740
488.8956, 583.8936
489.3777, 558.2161
489.8598, 547.6628
490.3419, 547.8645
490.8241, 557.2622
491.3062, 577.0691
491.7883, 590.4138
492.2704, 592.0967
492.7525, 587.8010
493.2346, 591.8843
493.7168, 603.3357
494.1989, 609.9954
494.6810, 598.7346
495.1631, 577.9153
495.6452, 563.2620
496.1273, 556.1091
496.6095, 556.6577
497.0916, 573.6755
497.5737, 597.4429
498.0558, 612.6472
498.5379, 605.5706
499.0201, 593.9724
499.5022, 585.3787
499.9843, 580.5518
500.4664, 581.2090
500.9485, 597.4734
501.4306, 611.7070
501.9127, 611.2622
502.3948, 583.9050
502.8770, 571.6223
503.3591, 591.5127
503.8412, 621.8533
504.3233, 638.0825
504.8054, 631.5125
505.2875, 623.8508
505.7697, 616.2119
506.2518, 609.6436
506.7339, 616.3450
507.2160, 641.0386
507.6981, 662.5920
508.1802, 662.9802
508.6624, 643.4287
509.1445, 640.5408
509.6266, 658.6204
510.1087, 683.4146
510.5908, 696.7710
511.0729, 701.2798
511.5551, 707.4648
512.0372, 722.7493
512.5193, 738.2476
513.0014, 739.9153
513.4835, 730.2847
513.9656, 721.3652
514.4478, 718.8997
514.9299, 721.1675
515.4120, 727.8042
515.8941, 740.0278
516.3762, 750.8931
516.8583, 759.2334
517.3405, 763.8770
517.8226, 763.4084
518.3047, 748.6987
518.7868, 738.4670
519.2689, 740.3025
519.7510, 751.2505
520.2332, 754.5828
520.7153, 748.3110
521.1974, 737.0447
521.6795, 721.0332
522.1616, 697.9399
522.6437, 683.7644
523.1259, 681.9419
523.6080, 682.7661
524.0901, 676.0117
524.5722, 661.5437
525.0543, 638.0735
525.5364, 601.3489
526.0186, 559.5122
526.5007, 530.6523
526.9828, 513.4138
527.4649, 496.0486
527.9470, 465.8286
528.4291, 433.6519
528.9113, 417.7314
529.3934, 421.1599
529.8755, 418.8271
530.3576, 386.1208
530.8397, 341.2734
531.3218, 304.4785
531.8040, 289.5225
532.2861, 275.1321
532.7682, 253.1260
533.2503, 226.4790
533.7324, 204.5474
534.2145, 196.6418
534.6967, 185.7227
535.1788, 164.1533
535.6609, 129.4663
536.1430, 104.0264
536.6251, 92.77075
537.1072, 84.80908
537.5894, 68.87598
538.0715, 41.98218
538.5536, 27.06641
539.0357, 30.67578
539.5178, 42.41455
539.9999, 40.73828
540.4821, 26.40771
540.9642, 12.95801
541.4463, 9.438721
541.9284, 10.02563
542.4105, 1.522705
542.8926, 24.07593
543.3748, 38.58618
543.8569, 16.36523
544.3390, 15.74316
544.8211, 24.54565
545.3032, 5.032471
545.7853, 35.86670
546.2675, 50.69946
546.7495, 54.65527
547.2316, 55.54272
547.7137, 53.07788
548.1959, 50.05298
548.6780, 45.29541
549.1601, 39.33447
549.6422, 39.54785
550.1243, 51.39771
550.6064, 62.61670
551.0886, 67.18384
551.5707, 64.10522
552.0528, 57.94019
552.5349, 47.83252
553.0170, 36.43921
553.4991, 26.14209
553.9813, 17.02124
554.4634, 12.44409
554.9455, 15.52563
555.4276, 20.86914
555.9097, 17.58105
556.3918, 6.965820
556.8740, 4.373047
557.3561, 15.95068
557.8382, 24.39038
558.3203, 24.21973
558.8024, 14.77832
559.2845, 5.628906
559.7667, 3.445801
560.2488, 6.924805
560.7309, 0.6308590
561.2130, 32.17603
561.6951, 58.76367
562.1772, 76.60181
562.6594, 85.75049
563.1415, 85.57812
563.6236, 59.29150
564.1057, 48.38843
564.5878, 69.24219
565.0699, 118.8354
565.5521, 151.4075
566.0342, 163.6880
566.5163, 168.3752
566.9984, 170.1436
567.4805, 169.9124
567.9626, 183.4626
568.4448, 214.6375
568.9269, 248.8713
569.4090, 270.4329
569.8911, 281.0581
570.3732, 285.2876
570.8553, 276.5920
571.3375, 271.1956
571.8196, 291.9875
572.3017, 330.6042
572.7838, 359.0405
573.2659, 354.0776
573.7480, 343.8752
574.2302, 344.5693
574.7123, 359.2175
575.1944, 373.2034
575.6765, 381.6770
576.1586, 390.3079
576.6407, 404.0193
577.1229, 432.0322
577.6050, 446.3015
578.0871, 439.7041
578.5692, 423.6125
579.0513, 419.8821
579.5334, 429.7817
580.0156, 444.1992
580.4977, 462.8083
580.9798, 482.7004
581.4619, 492.7197
581.9440, 493.3025
582.4261, 494.3354
582.9083, 501.7437
583.3904, 514.4863
583.8725, 533.0476
584.3546, 558.4187
584.8367, 581.1687
585.3188, 590.4004
585.8010, 595.2766
586.2831, 606.6494
586.7652, 635.9863
587.2473, 662.6604
587.7294, 682.5706
588.2115, 696.1909
588.6937, 704.1013
589.1758, 692.2781
589.6579, 693.7014
590.1400, 723.3032
590.6221, 780.4998
591.1042, 816.6875
591.5864, 825.6084
592.0685, 830.2561
592.5506, 847.9448
593.0327, 877.6575
593.5148, 906.2271
593.9969, 933.7925
594.4791, 955.8215
594.9612, 958.2683
595.4433, 950.9670
595.9254, 958.9509
596.4075, 999.1899
596.8896, 1046.942
597.3718, 1086.071
597.8539, 1116.214
598.3360, 1135.707
598.8181, 1134.235
599.3002, 1130.003
599.7823, 1131.776
600.2645, 1140.009
600.7466, 1146.584
601.2287, 1143.084
601.7108, 1147.608
602.1929, 1174.194
602.6750, 1238.067
603.1572, 1270.152
603.6393, 1260.558
604.1214, 1231.848
604.6035, 1212.689
605.0856, 1203.221
605.5677, 1201.099
606.0499, 1210.077
606.5320, 1220.773
607.0141, 1211.708
607.4962, 1187.113
607.9783, 1166.470
608.4604, 1172.177
608.9425, 1180.663
609.4246, 1167.964
609.9067, 1133.442
610.3889, 1098.443
610.8710, 1066.497
611.3531, 1041.461
611.8352, 1027.828
612.3173, 1040.814
612.7994, 1035.511
613.2816, 997.9099
613.7637, 949.3972
614.2458, 916.6052
614.7279, 905.3613
615.2100, 892.3760
615.6921, 873.8962
616.1743, 850.7336
616.6564, 823.4670
617.1385, 792.1116
617.6206, 763.7717
618.1027, 742.1489
618.5848, 726.8975
619.0670, 717.4692
619.5491, 713.1926
620.0312, 706.7009
620.5133, 692.2913
620.9954, 673.2717
621.4775, 650.6521
621.9597, 620.9939
622.4418, 600.4109
622.9239, 607.4983
623.4060, 620.5256
623.8881, 615.3833
624.3702, 567.5249
624.8524, 532.1255
625.3345, 517.1843
625.8166, 515.9895
626.2987, 512.3804
626.7808, 505.6619
627.2629, 499.2029
627.7451, 492.9470
628.2272, 488.1091
628.7093, 493.4822
629.1914, 508.8525
629.6735, 518.2947
630.1556, 502.6250
630.6378, 476.4668
631.1199, 461.0012
631.6020, 458.4910
632.0841, 464.6047
632.5662, 488.4968
633.0483, 513.9614
633.5305, 523.7664
634.0126, 494.6060
634.4947, 476.9651
634.9768, 492.9524
635.4589, 522.5525
635.9410, 530.0396
636.4232, 494.9431
636.9053, 478.1787
637.3874, 500.0767
637.8695, 548.4436
638.3516, 571.0112
638.8337, 565.5842
639.3159, 556.8770
639.7980, 556.4355
640.2801, 563.3174
640.7622, 575.8721
641.2443, 594.1267
641.7264, 614.3770
642.2086, 633.1355
642.6907, 652.7686
643.1728, 677.1074
643.6549, 709.9290
644.1370, 737.7368
644.6191, 751.3472
645.1013, 758.8130
645.5834, 769.5413
646.0655, 794.2017
646.5476, 809.2307
647.0297, 806.2639
647.5118, 794.7744
647.9940, 798.5095
648.4761, 820.7993
648.9582, 845.3904
649.4403, 868.2458
649.9224, 888.7476
650.4045, 906.8025
650.8867, 922.3164
651.3688, 932.3535
651.8509, 930.9128
652.3330, 924.5823
652.8151, 922.2710
653.2972, 924.7488
653.7794, 930.6453
654.2615, 943.5320
654.7436, 956.1521
655.2257, 961.9480
655.7078, 955.2188
656.1899, 950.3867
656.6721, 955.8860
657.1542, 961.0793
657.6363, 952.1016
658.1184, 922.2073
658.6005, 895.3096
659.0826, 874.5493
659.5648, 859.8391
660.0469, 852.4075
660.5290, 852.1804
661.0111, 853.5649
661.4932, 859.6101
661.9753, 862.6504
662.4575, 838.2800
662.9396, 793.6589
663.4217, 786.7085
663.9038, 797.0508
664.3859, 797.0547
664.8680, 787.3093
665.3502, 741.9753
665.8323, 742.4675
666.3144, 724.6423
666.7965, 706.2380
667.2786, 713.5342
667.7607, 689.5693
668.2429, 693.9590
668.7250, 675.1680
669.2071, 649.6914
669.6892, 642.3069
670.1713, 652.1917
670.6534, 646.2383
671.1355, 612.1509
671.6176, 569.2354
672.0997, 551.0864
672.5818, 550.7524
673.0640, 545.7039
673.5461, 521.7661
674.0282, 495.4993
674.5103, 476.9797
674.9924, 464.9812
675.4745, 450.1765
675.9567, 427.6028
676.4388, 407.2937
676.9209, 392.1501
677.4030, 382.1045
677.8851, 367.9561
678.3672, 348.8345
678.8494, 331.5842
679.3315, 319.0513
679.8136, 310.7397
680.2957, 309.0295
680.7778, 315.1924
681.2599, 321.4590
681.7421, 320.5889
682.2242, 313.7524
682.7063, 302.0942
683.1884, 282.1165
683.6705, 265.7776
684.1526, 264.1294
684.6348, 270.9163
685.1169, 276.9302
685.5990, 288.0317
686.0811, 289.9109
686.5632, 272.4175
687.0453, 243.7515
687.5275, 224.2998
688.0096, 216.2373
688.4917, 213.7175
688.9738, 217.0757
689.4559, 224.2568
689.9380, 225.3208
690.4202, 220.3179
690.9023, 209.5806
691.3844, 187.7742
691.8665, 162.5347
692.3486, 146.6255
692.8307, 140.4241
693.3129, 137.7048
693.7950, 135.0862
694.2771, 132.6575
694.7592, 130.5618
695.2413, 129.7122
695.7234, 127.3394
696.2056, 120.7717
696.6877, 114.9800
697.1698, 115.5142
697.6519, 129.6624
698.1340, 127.8176
698.6161, 101.9163
699.0983, 70.78979
699.5804, 70.83081
700.0625, 97.05103
700.5446, 112.3157
701.0267, 101.9807
701.5089, 81.21631
701.9910, 65.42700
702.4731, 53.82080
702.9552, 44.48706
703.4373, 36.30884
703.9194, 30.51587
704.4016, 27.07520
704.8837, 26.24658
705.3658, 30.20239
705.8479, 49.35962
706.3300, 59.67847
706.8121, 48.21313
707.2943, 15.45386
707.7764, 0.5585940
708.2585, 5.945313
708.7406, 16.64868
709.2227, 25.60376
709.7048, 31.01782
710.1870, 23.20483
710.6691, 0.5727540
711.1512, 17.38965
711.6333, 10.18115
712.1154, 6.924072
712.5975, 17.51074
713.0797, 17.35278
713.5618, 13.63599
714.0439, 4.116455
714.5260, 5.781738
715.0081, 10.07837
715.4902, 6.232910
715.9724, 1.625732
716.4545, 4.305176
716.9366, 9.301514
717.4187, 6.347168
717.9008, 4.165771
718.3829, 4.659424
718.8651, 18.05176
719.3472, 41.70581
719.8293, 25.36011
720.3114, 17.36987
720.7935, 48.25439
721.2756, 41.40063
721.7578, 23.96143
722.2399, 5.032227
722.7220, 13.55762
723.2041, 21.84863
723.6862, 8.689453
724.1683, 3.523438
724.6505, 6.282715
725.1326, 0.1665040
725.6147, 2.808838
726.0968, 16.66748
726.5789, 28.28101
727.0610, 26.05933
727.5432, 14.31738
728.0253, 7.632813
728.5074, 6.523438
728.9895, 5.685547
729.4716, 4.552490
729.9537, 13.71533
730.4359, 6.737061
730.9180, 26.69287
731.4000, 44.65454
731.8821, 12.93311
732.3643, 24.91992
732.8464, 28.24365
733.3285, 30.52417
733.8106, 55.46362
734.2927, 31.23975
734.7748, 7.826172
735.2570, 12.09424
735.7391, 14.58057
736.2212, 33.81763
736.7033, 36.54175
737.1854, 30.63501
737.6675, 20.61255
738.1497, 9.527588
738.6318, 3.186035
739.1139, 8.564209
739.5960, 14.01001
740.0781, 15.35645
740.5602, 13.24072
741.0424, 9.591797
741.5245, 6.195313
742.0066, 1.731445
742.4887, 18.21558
742.9708, 39.27271
743.4529, 49.13965
743.9351, 47.31836
744.4172, 41.48755
744.8993, 31.47363
745.3814, 21.61597
745.8635, 22.38843
746.3456, 32.01440
746.8278, 40.67798
747.3099, 43.31982
747.7920, 42.31396
748.2741, 37.06079
748.7562, 27.29028
749.2383, 23.30347
749.7205, 34.58423
750.2026, 43.27930
750.6847, 21.13818
751.1668, 41.57373
751.6489, 52.61841
752.1310, 54.77637
752.6132, 21.46338
753.0953, 33.92310
753.5774, 28.02075
754.0595, 21.35083
754.5416, 40.21094
755.0237, 11.98535
755.5059, 30.40674
755.9880, 30.18628
756.4701, 38.47778
756.9522, 28.29370
757.4343, 23.79761
757.9164, 28.99072
758.3986, 33.58691
758.8807, 33.58301
759.3628, 26.53467
759.8449, 24.87891
760.3270, 30.71533
760.8091, 40.26416
761.2913, 51.72974
761.7734, 63.04492
762.2555, 64.97437
762.7376, 50.97607
763.2197, 36.44751
763.7018, 35.01001
764.1840, 42.41357
764.6661, 51.81201
765.1482, 68.15186
765.6303, 77.62476
766.1124, 71.69580
766.5945, 58.33740
767.0767, 53.76221
767.5588, 61.13574
768.0409, 66.28833
768.5230, 63.70532
769.0051, 58.25024
769.4872, 65.09399
769.9694, 81.98511
770.4515, 95.77588
770.9336, 97.92407
771.4157, 95.83008
771.8978, 95.84375
772.3799, 97.30151
772.8621, 98.15479
773.3442, 100.4099
773.8263, 99.49512
774.3084, 90.31958
774.7905, 75.35010
775.2726, 72.24829
775.7548, 85.82275
776.2369, 96.62280
776.7190, 93.34814
777.2011, 80.70972
777.6832, 78.02222
778.1653, 85.34009
778.6475, 107.2864
779.1296, 120.1887
779.6117, 125.1934
780.0938, 95.63013
780.5759, 111.9932
781.0580, 109.9939
781.5402, 107.2280
782.0223, 129.8569
782.5044, 105.2791
782.9865, 127.5706
783.4686, 103.3738
783.9507, 108.6316
784.4329, 113.7478
784.9150, 113.8977
785.3971, 110.4805
785.8792, 104.9773
786.3613, 97.13428
786.8434, 92.73022
787.3256, 100.2051
787.8077, 111.4241
788.2898, 119.6978
788.7719, 122.2227
789.2540, 119.9927
789.7361, 108.4985
790.2183, 100.8191
790.7004, 106.7637
791.1825, 131.1873
791.6646, 136.7830
792.1467, 123.0889
792.6288, 106.1660
793.1110, 95.97656
793.5930, 90.75610
794.0751, 90.80225
794.5573, 97.65991
795.0394, 107.5005
795.5215, 120.7644
796.0036, 133.4180
796.4857, 141.4568
796.9678, 145.1804
797.4500, 139.0269
797.9321, 113.0715
798.4142, 86.05762
798.8963, 76.81372
799.3784, 88.95288
799.8605, 95.60034
800.3427, 92.94434
800.8248, 90.81299
801.3069, 108.2900
801.7890, 135.3813
802.2711, 146.1729
802.7532, 129.3667
803.2354, 111.5115
803.7175, 111.5842
804.1996, 119.1274
804.6817, 121.7722
805.1638, 110.8896
805.6459, 103.6091
806.1281, 99.37183
806.6102, 100.0005
807.0923, 110.4009
807.5744, 130.7837
808.0565, 144.7051
808.5386, 149.2859
809.0208, 148.6106
809.5029, 143.8267
809.9850, 137.0295
810.4671, 131.9563
810.9492, 131.0791
811.4313, 131.6147
811.9135, 134.5444
812.3956, 138.0564
812.8777, 137.3833
813.3598, 132.2112
813.8419, 127.1292
814.3240, 122.9839
814.8062, 118.4187
815.2883, 110.6914
815.7704, 100.8240
816.2525, 93.42188
816.7346, 88.73975
817.2167, 88.75952
817.6989, 101.3345
818.1810, 119.3142
818.6631, 130.3569
819.1452, 127.3142
819.6273, 120.9387
820.1094, 107.1372
820.5916, 94.67578
821.0737, 99.54077
821.5558, 130.7063
822.0379, 149.4954
822.5200, 147.5203
823.0021, 133.4675
823.4843, 119.7354
823.9664, 107.6572
824.4485, 101.1597
824.9306, 103.6660
825.4127, 108.5950
825.8948, 113.6370
826.3770, 117.5017
826.8591, 118.0818
827.3412, 112.9460
827.8233, 106.3831
828.3054, 93.93018
828.7875, 83.86694
829.2697, 98.01392
829.7518, 137.7661
830.2339, 157.7634
830.7160, 143.5779
831.1981, 114.7437
831.6802, 91.58057
832.1624, 74.31714
832.6445, 63.92432
833.1266, 63.71167
833.6087, 67.04370
834.0908, 77.36304
834.5729, 87.63879
835.0551, 84.76013
835.5372, 57.78027
836.0193, 47.67139
836.5014, 65.77954
836.9835, 93.90234
837.4656, 98.86499
837.9478, 84.99097
838.4299, 71.74792
838.9120, 63.09973
839.3941, 60.28137
839.8762, 69.09387
840.3583, 83.53662
840.8405, 93.14758
841.3226, 96.53662
841.8047, 93.63696
842.2868, 78.96777
842.7689, 62.36316
843.2510, 61.82068
843.7332, 79.33240
844.2153, 88.55945
844.6974, 83.08496
845.1795, 72.24146
845.6616, 70.90552
846.1437, 73.30115
846.6259, 67.12732
847.1080, 39.96228
847.5901, 19.27344
848.0722, 23.01965
848.5543, 37.32739
849.0364, 43.26282
849.5186, 36.14856
850.0007, 31.71594
850.4828, 32.23230
850.9649, 33.79626
851.4470, 30.58557
851.9291, 23.64673
852.4113, 16.63623
852.8934, 9.280518
853.3755, 6.116943
853.8576, 14.56372
854.3397, 27.43860
854.8218, 36.75085
855.3039, 40.49927
855.7860, 41.12524
856.2681, 37.22314
856.7502, 32.04150
857.2324, 29.17249
857.7145, 28.77563
858.1966, 26.88489
858.6787, 22.95154
859.1608, 17.89453
859.6429, 8.025269
860.1251, 0.5643310
860.6072, 3.956543
861.0893, 29.15857
861.5714, 45.87842
862.0535, 37.16602
862.5356, 19.57336
863.0178, 6.138672
863.4999, 2.842163
863.9820, 8.576294
864.4641, 11.57043
864.9462, 9.476563
865.4283, 5.824951
865.9105, 27.48010
866.3926, 35.44360
866.8747, 27.29907
867.3568, 17.96997
867.8389, 17.15247
868.3210, 19.76355
868.8032, 23.06287
869.2853, 28.03064
869.7674, 26.96973
870.2495, 16.31152
870.7316, 6.529419
871.2137, 3.243042
871.6959, 3.939209
872.1780, 11.64270
872.6601, 26.45288
873.1422, 38.90869
873.6243, 40.84631
874.1064, 37.91003
874.5886, 34.64526
875.0707, 31.40308
875.5528, 29.14563
876.0349, 34.50623
876.5170, 33.21423
876.9991, 14.76111
877.4813, 18.02417
877.9634, 24.28137
878.4455, 2.256226
878.9276, 18.18042
879.4097, 9.394531
879.8918, 7.575562
880.3740, 3.562988
880.8561, 35.59167
881.3382, 55.18262
881.8203, 27.02808
882.3024, 5.479980
882.7845, 21.53174
883.2667, 62.70020
883.7488, 78.94312
884.2309, 65.12830
884.7130, 49.64172
885.1951, 41.71826
885.6772, 38.78699
886.1594, 35.95337
886.6415, 33.61133
887.1236, 32.88623
887.6057, 32.61804
888.0878, 35.91858
888.5699, 51.74988
889.0521, 71.11755
889.5342, 72.34277
890.0163, 44.98621
890.4984, 22.50195
890.9805, 8.721069
891.4626, 4.025513
891.9448, 13.91919
892.4269, 34.30811
892.9090, 49.97595
893.3911, 56.72961
893.8732, 57.11377
894.3553, 43.94812
894.8375, 29.25500
895.3196, 28.84253
895.8017, 73.01501
896.2838, 85.52295
896.7659, 51.19812
897.2480, 7.865112
897.7302, 3.908813
898.2123, 11.67834
898.6944, 19.12817
899.1765, 13.08582
899.6586, 8.491455
900.1407, 26.74329
900.6229, 48.78040
901.1050, 52.41602
901.5871, 28.02026
902.0692, 10.82751
902.5513, 7.589722
903.0334, 8.334961
903.5156, 6.182129
903.9977, 1.020142
904.4798, 4.168945
904.9619, 15.85095
905.4440, 26.02917
905.9261, 22.95276
906.4083, 17.10291
906.8904, 22.36804
907.3725, 38.49573
907.8546, 48.77490
908.3367, 41.78296
908.8188, 35.14355
909.3010, 37.23059
909.7831, 45.52917
910.2652, 39.93335
910.7473, 19.59558
911.2294, 6.273071
911.7115, 17.36975
912.1937, 35.38416
912.6758, 34.03369
913.1579, 19.65735
913.6400, 9.330322
914.1221, 13.65002
914.6042, 17.68567
915.0864, 16.54883
915.5685, 14.19165
916.0506, 18.60840
916.5327, 30.42773
917.0148, 39.17676
917.4969, 43.63733
917.9790, 43.33435
918.4611, 34.16602
918.9432, 21.02808
919.4254, 12.71265
919.9075, 13.87207
920.3896, 16.04016
920.8717, 14.64771
921.3538, 14.16980
921.8359, 20.95972
922.3181, 38.88440
922.8002, 42.52368
923.2823, 28.54382
923.7644, 11.67603
924.2465, 6.737061
924.7286, 10.02112
925.2108, 16.73816
925.6929, 26.52356
926.1750, 36.59375
926.6571, 56.90247
927.1392, 66.67029
927.6213, 46.82727
928.1035, 3.943726
928.5856, 19.89709
929.0677, 4.125610
929.5498, 33.01172
930.0319, 46.02563
930.5140, 49.13879
930.9962, 51.43604
931.4783, 53.41150
931.9604, 56.87634
932.4425, 72.01550
932.9246, 78.88660
933.4067, 61.89758
933.8889, 31.27441
934.3710, 17.77625
934.8531, 24.94678
935.3352, 26.20605
935.8173, 11.70703
936.2994, 3.309570
936.7816, 7.476318
937.2637, 32.20557
937.7458, 44.85938
938.2279, 26.59985
938.7100, 13.20996
939.1921, 21.95972
939.6743, 38.35278
940.1564, 47.78442
940.6385, 50.21094
941.1206, 44.52905
941.6027, 28.03882
942.0848, 14.73145
942.5670, 26.91455
943.0491, 49.47241
943.5312, 56.50586
944.0133, 42.95703
944.4954, 31.25684
944.9775, 35.00391
945.4597, 38.85864
945.9418, 32.64502
946.4239, 16.14526
946.9060, 8.611816
947.3881, 10.73218
947.8702, 15.55615
948.3524, 18.87622
948.8345, 22.48682
949.3166, 31.52734
949.7987, 43.99170
950.2808, 51.42456
950.7629, 45.91016
951.2451, 39.09863
951.7272, 33.29712
952.2093, 29.15698
952.6914, 30.78931
953.1735, 39.22339
953.6556, 34.04004
954.1378, 2.877441
954.6199, 26.37036
955.1020, 10.78687
955.5841, 26.23145
956.0662, 49.30444
956.5483, 41.09155
957.0305, 31.55640
957.5126, 18.82935
957.9947, 14.47241
958.4768, 36.63867
958.9589, 85.70776
959.4410, 97.84448
959.9232, 68.34814
960.4053, 36.52637
960.8874, 38.41724
961.3695, 52.92432
961.8516, 58.77173
962.3337, 54.42969
962.8159, 47.07910
963.2980, 34.28857
963.7801, 23.36743
964.2622, 15.39819
964.7443, 11.56030
965.2264, 22.79956
965.7086, 46.57104
966.1907, 58.28735
966.6728, 37.94067
967.1549, 10.83423
967.6370, 3.867188
968.1191, 9.393555
968.6013, 11.87476
969.0834, 12.67627
969.5655, 9.191650
970.0476, 1.043945
970.5297, 12.05811
971.0118, 17.02490
971.4940, 15.94775
971.9761, 6.245850
972.4582, 14.40186
972.9403, 29.32788
973.4224, 23.94043
973.9045, 9.971436
974.3867, 4.243164
974.8688, 19.00098
975.3509, 26.68896
975.8330, 25.08936
976.3151, 22.56836
976.7972, 21.53540
977.2794, 23.97412
977.7615, 41.53979
978.2435, 69.75513
978.7256, 87.43042
979.2078, 78.21484
979.6899, 61.74683
980.1720, 38.64062
980.6541, 16.21606
981.1362, 12.86768
981.6183, 32.65918
982.1005, 51.50488
982.5826, 66.17090
983.0647, 74.27661
983.5468, 64.29370
984.0289, 47.60474
984.5110, 45.67822
984.9932, 68.13892
985.4753, 90.53052
985.9574, 106.4927
986.4395, 117.2954
986.9216, 126.4331
987.4037, 132.8003
987.8859, 131.8254
988.3680, 123.1465
988.8501, 117.0908
989.3322, 120.3252
989.8143, 130.5117
990.2964, 148.2742
990.7786, 171.7319
991.2607, 192.0464
991.7428, 209.3484
992.2249, 219.5151
992.7070, 219.7529
993.1891, 214.0989
993.6713, 214.3657
994.1534, 217.8535
994.6355, 211.4160
995.1176, 186.6824
995.5997, 160.7322
996.0818, 147.1218
996.5640, 138.9736
997.0461, 128.0171
997.5282, 108.4832
998.0103, 101.5254
998.4924, 111.8457
998.9745, 121.7703
999.4567, 116.2148
999.9388, 99.30029
1000.421, 77.46191
1000.903, 52.35425
1001.385, 35.83862
1001.867, 42.88062
1002.349, 51.36060
1002.831, 52.04272
1003.314, 45.71777
1003.796, 31.37378
1004.278, 6.833740
1004.760, 4.555176
1005.242, 8.563965
1005.724, 27.34009
1006.206, 27.97290
1006.688, 17.11548
1007.171, 4.993408
1007.653, 9.774414
1008.135, 17.12231
1008.617, 13.05762
1009.099, 5.448242
1009.581, 0.1149900
1010.063, 3.715820
1010.545, 3.940918
1011.027, 0.9912110
1011.510, 1.206299
1011.992, 17.16406
1012.474, 29.25537
1012.956, 20.76636
1013.438, 4.261475
1013.920, 10.89478
1014.402, 12.47729
1014.884, 24.28564
1015.367, 8.500244
1015.849, 15.43701
1016.331, 5.036865
1016.813, 25.76636
1017.295, 39.80322
1017.777, 14.70190
1018.259, 1.6845999E-02
1018.741, 29.34961
1019.223, 67.20605
1019.706, 85.48682
1020.188, 81.52637
1020.670, 76.16211
1021.152, 69.37939
1021.634, 61.43628
1022.116, 46.89648
1022.598, 35.30054
1023.080, 43.00342
1023.563, 65.67114
1024.045, 77.76855
1024.527, 67.42871
1025.009, 54.34131
1025.491, 38.35107
1025.973, 25.53125
1026.455, 31.79688
1026.937, 52.99219
1027.419, 71.84180
1027.901, 84.92432
1028.384, 91.92920
1028.866, 93.22974
1029.348, 87.85156
1029.830, 69.97998
1030.312, 32.91504
1030.794, 28.15601
1031.276, 63.75024
1031.758, 98.51367
1032.241, 100.6917
1032.723, 84.91406
1033.205, 70.64771
1033.687, 59.28809
1034.169, 54.33032
1034.651, 57.32935
1035.133, 67.88916
1035.615, 91.88110
1036.098, 117.3433
1036.580, 119.9751
1037.062, 102.9751
1037.544, 95.58325
1038.026, 104.1411
1038.508, 114.4019
1038.990, 109.8193
1039.472, 105.1404
1039.954, 117.7112
1040.437, 152.2485
1040.919, 167.2004
1041.401, 157.3904
1041.883, 146.6038
1042.365, 145.2590
1042.847, 152.0679
1043.329, 169.4302
1043.811, 192.7703
1044.293, 209.5857
1044.776, 209.2925
1045.258, 209.1748
1045.740, 210.9309
1046.222, 216.3398
1046.704, 232.3071
1047.186, 258.0513
1047.668, 261.2268
1048.150, 237.8291
1048.633, 219.5002
1049.115, 243.4490
1049.597, 275.0371
1050.079, 281.7522
1050.561, 262.2070
1051.043, 261.2390
1051.525, 288.8416
1052.007, 305.2939
1052.490, 291.4834
1052.972, 267.9729
1053.454, 281.4832
1053.936, 313.8970
1054.418, 323.4021
1054.900, 279.8413
1055.382, 246.4133
1055.864, 247.3276
1056.346, 257.3682
1056.828, 258.6711
1057.311, 251.2769
1057.793, 244.1975
1058.275, 237.5815
1058.757, 233.9399
1059.239, 239.3623
1059.721, 244.4565
1060.203, 239.5742
1060.685, 228.1716
1061.168, 224.8711
1061.650, 233.7361
1062.132, 239.4043
1062.614, 238.3914
1063.096, 234.8848
1063.578, 230.6592
1064.060, 228.9255
1064.542, 237.5989
1065.025, 260.7405
1065.507, 277.8103
1065.989, 277.1421
1066.471, 275.1257
1066.953, 278.2671
1067.435, 285.5425
1067.917, 299.3347
1068.399, 319.0779
1068.881, 337.0393
1069.364, 349.5500
1069.846, 359.2266
1070.328, 366.4377
1070.810, 372.3560
1071.292, 378.5686
1071.774, 384.6826
1072.256, 391.5488
1072.738, 398.3101
1073.220, 408.2498
1073.703, 425.1304
1074.185, 446.4011
1074.667, 468.8547
1075.149, 491.8538
1075.631, 510.5876
1076.113, 519.8176
1076.595, 531.1399
1077.077, 550.5076
1077.559, 571.6995
1078.042, 577.4089
1078.524, 572.9932
1079.006, 580.5818
1079.488, 610.1167
1079.970, 629.4260
1080.452, 614.1978
1080.934, 589.8838
1081.416, 576.2080
1081.899, 574.1729
1082.381, 571.2566
1082.863, 565.0591
1083.345, 562.5564
1083.827, 579.0735
1084.309, 595.3850
1084.791, 592.1262
1085.273, 575.0408
1085.755, 556.6807
1086.238, 532.5229
1086.720, 519.4658
1087.202, 523.2168
1087.684, 526.7573
1088.166, 506.0840
1088.648, 473.0151
1089.130, 452.4009
1089.612, 446.0945
1090.094, 446.3003
1090.577, 454.4634
1091.059, 464.2400
1091.541, 475.1138
1092.023, 484.5720
1092.505, 487.5884
1092.987, 484.4746
1093.469, 473.9480
1093.951, 450.8191
1094.434, 438.4031
1094.916, 470.4307
1095.398, 504.6204
1095.880, 499.6965
1096.362, 450.4751
1096.844, 425.8145
1097.326, 427.0559
1097.808, 437.5120
1098.291, 460.1899
1098.773, 475.9343
1099.255, 453.8689
1099.737, 408.4324
1100.219, 370.7471
1100.701, 352.9749
1101.183, 333.3174
1101.665, 309.8862
1102.147, 284.7258
1102.630, 259.9663
1103.112, 235.6099
1103.594, 208.1941
1104.076, 178.3276
1104.558, 157.5071
1105.040, 160.7134
1105.522, 162.1633
1106.004, 151.4585
1106.486, 134.9336
1106.969, 130.8145
1107.451, 136.6750
1107.933, 133.5693
1108.415, 113.9126
1108.897, 97.40967
1109.379, 102.0522
1109.861, 112.3970
1110.343, 115.2673
1110.826, 110.6731
1111.308, 108.9255
1111.790, 110.5784
1112.272, 105.4492
1112.754, 82.64404
1113.236, 58.50391
1113.718, 49.44971
1114.200, 51.80054
1114.682, 60.17749
1115.165, 83.99170
1115.647, 89.30322
1116.129, 70.00928
1116.611, 50.52661
1117.093, 53.58057
1117.575, 69.68091
1118.057, 87.09375
1118.539, 102.7583
1119.021, 104.8115
1119.504, 73.52002
1119.986, 49.02124
1120.468, 39.16504
1120.950, 38.25854
1121.432, 40.16797
1121.914, 43.37427
1122.396, 42.42993
1122.878, 36.62988
1123.361, 26.85181
1123.843, 2.449463
1124.325, 13.96509
1124.807, 8.724121
1125.289, 13.51831
1125.771, 34.31201
1126.253, 53.16895
1126.735, 63.86475
1127.218, 63.75488
1127.700, 56.52734
1128.182, 36.91187
1128.664, 16.55151
1129.146, 9.210693
1129.628, 16.84570
1130.110, 21.28809
1130.592, 21.71704
1131.074, 25.70898
1131.557, 47.90137
1132.039, 67.35840
1132.521, 49.30322
1133.003, 11.26660
1133.485, 9.279541
1133.967, 4.553711
1134.449, 15.59717
1134.931, 23.82031
1135.413, 25.17847
1135.896, 6.772705
1136.378, 16.95801
1136.860, 16.19287
1137.342, 7.105225
1137.824, 23.84375
1138.306, 26.86792
1138.788, 18.67383
1139.270, 7.636963
1139.752, 34.65234
1140.235, 27.93774
1140.717, 1.583496
1141.199, 24.17749
1141.681, 35.11841
1142.163, 35.75244
1142.645, 11.89209
1143.127, 5.585693
1143.609, 1.129150
1144.092, 23.42505
1144.574, 23.78760
1145.056, 6.267334
1145.538, 2.518555
1146.020, 9.772949
1146.502, 22.86499
1146.984, 25.97803
1147.466, 22.92749
1147.948, 14.57129
1148.431, 1.174805
1148.913, 3.501953
1149.395, 0.5207520
1149.877, 9.929932
1150.359, 33.72559
1150.841, 50.20630
1151.323, 29.08667
1151.805, 5.853271
1152.287, 12.61743
1152.770, 20.63721
1153.252, 42.62402
1153.734, 51.61426
1154.216, 51.82227
1154.698, 39.45679
1155.180, 25.54419
1155.662, 24.03027
1156.144, 32.17505
1156.627, 37.37817
1157.109, 39.29077
1157.591, 34.62549
1158.073, 19.70093
1158.555, 8.874512
1159.037, 29.90674
1159.519, 60.30103
1160.001, 60.57080
1160.484, 28.32300
1160.966, 11.38452
1161.448, 29.40674
1161.930, 41.23242
1162.412, 33.70190
1162.894, 18.55225
1163.376, 19.62085
1163.858, 28.79419
1164.340, 26.77979
1164.823, 6.866211
1165.305, 8.400391
1165.787, 18.51758
1166.269, 13.81860
1166.751, 18.81006
1167.233, 63.83569
1167.715, 72.49121
1168.197, 54.28760
1168.679, 40.40747
1169.162, 44.28784
1169.644, 48.57935
1170.126, 47.96704
1170.608, 44.91699
1171.090, 37.77441
1171.572, 28.33057
1172.054, 38.77563
1172.536, 64.98340
1173.019, 81.24390
1173.501, 62.90479
1173.983, 45.28418
1174.465, 43.82227
1174.947, 50.12891
1175.429, 57.82202
1175.911, 66.63013
1176.393, 67.47046
1176.875, 60.37744
1177.358, 55.28589
1177.840, 60.76855
1178.322, 68.27026
1178.804, 75.78784
1179.286, 80.74756
1179.768, 75.43628
1180.250, 59.25342
1180.732, 55.59399
1181.214, 68.49463
1181.697, 76.15967
1182.179, 46.11890
1182.661, 17.20703
1183.143, 27.89429
1183.625, 67.49756
1184.107, 76.23950
1184.589, 50.59033
1185.071, 42.45044
1185.554, 67.35986
1186.036, 94.56348
1186.518, 95.21729
1187.000, 82.76904
1187.482, 64.69678
1187.964, 44.31470
1188.446, 44.60132
1188.928, 66.69238
1189.411, 80.99463
1189.893, 69.10059
1190.375, 48.09473
1190.857, 45.51074
1191.339, 53.44263
1191.821, 58.65479
1192.303, 59.08545
1192.785, 57.84082
1193.267, 53.54688
1193.750, 43.84912
1194.232, 17.69946
1194.714, 4.934082
1195.196, 11.34717
1195.678, 46.24170
1196.160, 61.00073
1196.642, 35.87280
1197.124, 23.74780
1197.606, 22.56396
1198.089, 28.25366
1198.571, 48.16919
1199.053, 66.54565
1199.535, 50.54590
1200.017, 17.52344
1200.499, 12.75244
1200.981, 64.75806
1201.463, 88.71191
1201.945, 75.74048
1202.428, 52.53735
1202.910, 40.79102
1203.392, 29.39087
1203.874, 10.67310
1204.356, 10.30542
1204.838, 17.60596
1205.320, 1.259521
1205.802, 11.25537
1206.285, 15.64258
1206.767, 19.39893
1207.249, 33.38306
1207.731, 48.71533
1208.213, 51.04126
1208.695, 41.64624
1209.177, 43.19849
1209.659, 69.17407
1210.141, 78.24463
1210.624, 57.71948
1211.106, 29.74951
1211.588, 20.33740
1212.070, 22.59253
1212.552, 32.64258
1213.034, 47.88403
1213.516, 59.33960
1213.998, 63.85815
1214.480, 69.54492
1214.963, 82.60352
1215.445, 91.77026
1215.927, 68.72632
1216.409, 34.48340
1216.891, 23.16602
1217.373, 44.05029
1217.855, 47.58008
1218.337, 29.92529
1218.820, 19.08716
1219.302, 27.16382
1219.784, 42.48901
1220.266, 42.16553
1220.748, 31.63940
1221.230, 27.80347
1221.712, 31.37524
1222.194, 37.87158
1222.677, 46.79395
1223.159, 42.87378
1223.641, 19.85815
1224.123, 6.425293
1224.605, 3.730225
1225.087, 33.23706
1225.569, 56.01880
1226.051, 63.44067
1226.533, 59.62378
1227.016, 43.54297
1227.498, 29.24463
1227.980, 23.59668
1228.462, 25.57324
1228.944, 38.97266
1229.426, 58.77197
1229.908, 66.29883
1230.390, 53.48267
1230.872, 42.08252
1231.355, 31.13037
1231.837, 23.37012
1232.319, 17.32104
1232.801, 7.397949
1233.283, 20.27441
1233.765, 40.08984
1234.247, 43.89038
1234.729, 17.48145
1235.212, 4.976563
1235.694, 8.976318
1236.176, 15.31982
1236.658, 7.800537
1237.140, 0.9274900
1237.622, 6.446777
1238.104, 21.19409
1238.586, 27.07324
1239.068, 15.98926
1239.551, 7.938721
1240.033, 2.369873
1240.515, 0.0000000E+00
##END=



