##NAMES=Szaibelyite
##RRUFFID=R060289
##IDEAL CHEMISTRY=MgBO_2_(OH)
##LOCALITY=Franklin, Sussex County, New Jersey, USA
##OWNER=RRUFF
##SOURCE=Herb Obodda
##DESCRIPTION=Pink massive, associated with rhodochrosite.
##STATUS=The identification of this mineral has been confirmed by X-ray diffraction and chemical analysis
##URL=rruff.info/R060289
##MEASURED CHEMISTRY=gray phase: (Mg_0.66_Mn^2+^_0.34_)_Σ=1_BO_2_(OH); B and OH assumed by stoichiometry; light rim: (Mn^2+^_0.70_Ca_0.18_Mg_0.12_)_Σ=1_CO_3_ is rhodochrosite; CO_2_ estimated by difference
149.4132, 0.0000000E+00
149.8953, 0.1518100
150.3774, 0.7443960
150.8595, 1.072884
151.3417, 0.7925340
151.8238, 0.4094280
152.3059, 0.3131980
152.7880, 0.6033940
153.2701, 1.129528
153.7522, 1.428879
154.2344, 1.443794
154.7165, 1.351303
155.1986, 1.206249
155.6807, 1.119946
156.1628, 1.234734
156.6449, 1.336777
157.1271, 1.349777
157.6092, 1.136829
158.0913, 0.6141590
158.5734, 0.1982190
159.0555, 3.9489999E-02
159.5376, 7.5924002E-02
160.0198, 0.1555940
160.5019, 0.2163430
160.9840, 0.2428780
161.4661, 0.2013550
161.9482, 3.4935001E-02
162.4303, 0.1368290
162.9125, 0.2355960
163.3946, 0.2635000
163.8767, 0.2649570
164.3588, 0.2749020
164.8409, 0.2691190
165.3230, 0.2042850
165.8052, 4.9591001E-02
166.2873, 0.1453860
166.7694, 0.3282510
167.2515, 0.5122180
167.7336, 0.6382060
168.2157, 0.6299170
168.6979, 0.5640600
169.1800, 0.5136600
169.6621, 0.4754790
170.1442, 0.4979520
170.6263, 0.7458690
171.1084, 1.405022
171.5906, 1.998459
172.0727, 2.366028
172.5548, 2.585926
173.0369, 2.762806
173.5190, 2.951389
174.0011, 3.153603
174.4833, 3.386028
174.9654, 3.666500
175.4475, 3.965092
175.9296, 4.286476
176.4117, 4.620548
176.8938, 4.949581
177.3760, 5.254669
177.8581, 5.533344
178.3402, 5.886784
178.8223, 6.313087
179.3044, 6.802956
179.7865, 7.396286
180.2687, 8.060265
180.7508, 8.716381
181.2329, 9.303799
181.7150, 9.821606
182.1971, 10.21557
182.6792, 10.23682
183.1614, 10.35336
183.6435, 10.91500
184.1256, 11.90200
184.6077, 12.96292
185.0898, 13.81349
185.5719, 14.42367
186.0541, 14.91425
186.5362, 15.22699
187.0183, 15.45362
187.5004, 15.65407
187.9825, 15.83210
188.4646, 16.02701
188.9468, 16.27681
189.4289, 16.57444
189.9110, 16.90814
190.3931, 17.32139
190.8752, 17.75524
191.3573, 18.12483
191.8395, 18.42194
192.3216, 18.65842
192.8037, 18.77937
193.2858, 18.84167
193.7679, 18.98530
194.2500, 19.31685
194.7322, 19.78229
195.2143, 20.21620
195.6964, 20.61469
196.1785, 20.97620
196.6606, 21.33210
197.1427, 21.66167
197.6249, 21.91206
198.1070, 22.01120
198.5891, 21.97960
199.0712, 22.02842
199.5533, 22.20898
200.0354, 22.42188
200.5176, 22.70672
200.9997, 22.99824
201.4818, 23.16286
201.9639, 23.07651
202.4460, 22.73368
202.9281, 22.38550
203.4103, 21.94255
203.8924, 21.58164
204.3745, 21.53943
204.8566, 21.65493
205.3387, 21.53351
205.8208, 20.78153
206.3030, 19.29521
206.7851, 18.12283
207.2672, 17.47752
207.7493, 16.90239
208.2314, 16.20611
208.7135, 15.41493
209.1957, 14.67945
209.6778, 14.14276
210.1599, 13.83556
210.6420, 13.51018
211.1241, 13.20380
211.6062, 12.85237
212.0884, 12.36203
212.5705, 11.76882
213.0526, 11.23338
213.5347, 10.91425
214.0168, 10.84552
214.4989, 10.67230
214.9811, 10.31166
215.4632, 9.920940
215.9453, 9.608833
216.4274, 9.371403
216.9095, 9.131180
217.3916, 8.820194
217.8737, 8.438309
218.3559, 8.114845
218.8380, 7.866547
219.3201, 7.660915
219.8022, 7.477264
220.2843, 7.307259
220.7664, 7.138935
221.2486, 6.970810
221.7307, 6.799660
222.2128, 6.612225
222.6949, 6.380764
223.1770, 6.148277
223.6591, 5.936863
224.1413, 5.731232
224.6234, 5.620255
225.1055, 5.776192
225.5876, 6.068676
226.0697, 6.257893
226.5518, 6.230244
227.0340, 6.091305
227.5161, 5.989262
227.9982, 5.929882
228.4803, 5.887314
228.9624, 5.809505
229.4445, 5.746277
229.9267, 5.785091
230.4088, 6.019821
230.8909, 6.323269
231.3730, 6.445992
231.8551, 6.343918
232.3372, 6.165497
232.8194, 5.849049
233.3015, 5.534859
233.7836, 5.429356
234.2657, 5.684498
234.7478, 6.089947
235.2299, 6.128109
235.7121, 5.560673
236.1942, 5.101879
236.6763, 5.025909
237.1584, 5.122810
237.6405, 5.176525
238.1227, 5.092545
238.6048, 4.921028
239.0869, 4.793121
239.5690, 4.750874
240.0511, 4.676575
240.5332, 4.525276
241.0154, 4.346493
241.4975, 4.188538
241.9796, 4.071915
242.4617, 3.987259
242.9438, 3.912872
243.4259, 3.840630
243.9081, 3.794296
244.3902, 3.821793
244.8723, 3.852493
245.3544, 3.794724
245.8365, 3.615788
246.3186, 3.395752
246.8008, 3.323570
247.2829, 3.573868
247.7650, 3.722992
248.2471, 3.771740
248.7292, 3.710484
249.2113, 3.451271
249.6935, 2.982681
250.1756, 2.490463
250.6577, 2.348274
251.1398, 2.926647
251.6219, 3.338516
252.1040, 3.489437
252.5862, 3.530434
253.0683, 3.581535
253.5504, 3.680561
254.0325, 3.806087
254.5146, 3.918850
254.9967, 3.958435
255.4789, 4.112701
255.9610, 4.484276
256.4431, 4.909382
256.9252, 5.234058
257.4073, 5.426212
257.8894, 5.581409
258.3716, 5.835018
258.8537, 6.257107
259.3358, 6.589520
259.8179, 6.678814
260.3000, 6.770943
260.7821, 7.136593
261.2643, 7.809464
261.7464, 8.524002
262.2285, 8.980412
262.7106, 9.105106
263.1927, 9.303677
263.6748, 9.615688
264.1570, 9.993011
264.6391, 10.41266
265.1212, 10.85642
265.6033, 11.24081
266.0854, 11.46064
266.5675, 11.50974
267.0497, 11.65096
267.5318, 11.88600
268.0139, 12.21793
268.4960, 12.68254
268.9781, 13.27177
269.4602, 13.86092
269.9424, 14.36263
270.4245, 14.77787
270.9066, 15.17802
271.3887, 15.50312
271.8708, 15.84610
272.3529, 16.30790
272.8351, 16.87782
273.3172, 17.41811
273.7993, 17.89897
274.2814, 18.26467
274.7635, 18.40191
275.2456, 18.03749
275.7278, 17.74668
276.2099, 18.07012
276.6920, 18.91932
277.1741, 19.57999
277.6562, 19.64373
278.1383, 19.36270
278.6205, 19.30048
279.1026, 19.55488
279.5847, 19.82277
280.0668, 19.91544
280.5489, 19.84726
281.0310, 19.66972
281.5132, 19.28131
281.9953, 18.91233
282.4774, 18.89985
282.9595, 19.29583
283.4416, 19.71698
283.9237, 19.95376
284.4059, 20.03317
284.8880, 20.04808
285.3701, 19.97808
285.8522, 19.90794
286.3343, 19.92774
286.8164, 20.03279
287.2986, 20.15752
287.7807, 20.29022
288.2628, 20.41926
288.7449, 20.50223
289.2270, 20.52678
289.7091, 20.51337
290.1913, 20.46183
290.6734, 20.38526
291.1555, 20.32709
291.6376, 20.28327
292.1197, 20.27462
292.6018, 20.40880
293.0840, 20.81429
293.5661, 21.06028
294.0482, 20.68632
294.5303, 19.97494
295.0124, 19.43559
295.4945, 19.37527
295.9767, 19.54745
296.4588, 19.52477
296.9409, 19.28607
297.4230, 18.92204
297.9051, 18.34023
298.3872, 17.69846
298.8694, 17.20663
299.3515, 16.98852
299.8336, 16.83032
300.3157, 16.41777
300.7978, 15.70138
301.2799, 15.01228
301.7621, 14.52330
302.2442, 14.09286
302.7263, 13.57040
303.2084, 12.90840
303.6905, 12.27336
304.1726, 11.89754
304.6548, 11.79874
305.1369, 11.54247
305.6190, 10.89283
306.1011, 10.14568
306.5832, 9.512663
307.0653, 9.009201
307.5475, 8.578911
308.0296, 8.204531
308.5117, 7.880699
308.9938, 7.535063
309.4759, 7.191364
309.9580, 6.778330
310.4402, 6.177940
310.9223, 5.454082
311.4044, 4.844419
311.8865, 4.578283
312.3686, 4.572067
312.8507, 4.451349
313.3329, 4.175556
313.8150, 3.839861
314.2971, 3.415609
314.7792, 2.978323
315.2613, 2.681334
315.7434, 2.672544
316.2256, 2.793633
316.7077, 2.674183
317.1898, 2.217184
317.6719, 1.783684
318.1540, 1.543856
318.6361, 1.406351
319.1183, 1.301102
319.6004, 1.229958
320.0825, 1.118589
320.5646, 0.8053130
321.0467, 0.2352750
321.5288, 0.1847400
322.0110, 0.2039740
322.4931, 8.8884003E-02
322.9752, 1.9014001E-02
323.4573, 2.1057000E-02
323.9394, 7.6747999E-02
324.4215, 0.2138180
324.9037, 0.4278950
325.3858, 0.5288300
325.8679, 0.3661420
326.3500, 0.1994360
326.8321, 0.2382450
327.3142, 0.4568900
327.7964, 0.6718920
328.2785, 0.7727380
328.7606, 0.7700670
329.2427, 0.7053970
329.7248, 0.5380480
330.2069, 0.3817560
330.6891, 0.2912770
331.1712, 0.2600000
331.6533, 0.2816100
332.1354, 0.3882730
332.6175, 0.5284460
333.0996, 0.6071550
333.5818, 0.6305370
334.0639, 0.5730270
334.5460, 0.2865390
335.0281, 4.2112000E-02
335.5102, 0.1718650
335.9923, 1.6027000E-02
336.4745, 0.2866610
336.9566, 0.3439180
337.4387, 0.1715240
337.9208, 4.2366002E-02
338.4029, 0.1053180
338.8850, 0.2084350
339.3671, 0.2010650
339.8492, 6.4801998E-02
340.3314, 0.1302010
340.8135, 0.3408150
341.2956, 0.5465450
341.7777, 0.6877540
342.2598, 0.7440340
342.7419, 0.7740170
343.2241, 0.7921410
343.7062, 0.7940670
344.1883, 0.8431890
344.6704, 1.051130
345.1525, 1.323225
345.6346, 1.419949
346.1168, 1.272781
346.5989, 1.130316
347.0810, 1.219597
347.5631, 1.435759
348.0452, 1.598711
348.5273, 1.626722
349.0095, 1.613665
349.4916, 1.643278
349.9737, 1.715061
350.4558, 1.878113
350.9379, 2.241503
351.4200, 2.657604
351.9022, 2.884981
352.3843, 2.864891
352.8664, 2.788265
353.3485, 2.789545
353.8306, 2.840605
354.3127, 2.806921
354.7949, 2.589952
355.2770, 2.379650
355.7591, 2.446844
356.2412, 2.781557
356.7233, 3.113100
357.2054, 3.386169
357.6876, 3.583132
358.1697, 3.650202
358.6518, 3.566477
359.1339, 3.450436
359.6160, 3.380209
360.0981, 3.360935
360.5803, 3.419985
361.0624, 3.643839
361.5445, 3.885315
362.0266, 4.020258
362.5087, 4.056253
362.9908, 4.062393
363.4730, 4.059017
363.9551, 4.063852
364.4372, 4.126522
364.9193, 4.271118
365.4014, 4.426723
365.8835, 4.612648
366.3657, 4.784071
366.8478, 4.830500
367.3299, 4.699841
367.8120, 4.495588
368.2941, 4.373930
368.7762, 4.342020
369.2584, 4.350391
369.7405, 4.419916
370.2226, 4.511271
370.7047, 4.641119
371.1868, 4.795248
371.6689, 4.806610
372.1511, 4.467752
372.6332, 3.759293
373.1153, 3.376587
373.5974, 3.507837
374.0795, 3.739721
374.5616, 3.941835
375.0438, 4.087091
375.5259, 4.134380
376.0080, 4.053154
376.4901, 3.876633
376.9722, 3.720783
377.4543, 3.622782
377.9365, 3.497675
378.4186, 3.273729
378.9007, 3.045599
379.3828, 2.932346
379.8649, 2.971977
380.3470, 3.067230
380.8292, 3.062401
381.3113, 2.894686
381.7934, 2.794168
382.2755, 2.805349
382.7576, 2.820446
383.2397, 2.791435
383.7219, 2.736238
384.2040, 2.683617
384.6861, 2.643961
385.1682, 2.604164
385.6503, 2.534273
386.1324, 2.467651
386.6146, 2.353010
387.0967, 2.147089
387.5788, 1.910362
388.0609, 1.689951
388.5430, 1.503691
389.0251, 1.377563
389.5073, 1.389395
389.9894, 1.659575
390.4715, 1.793692
390.9536, 1.767307
391.4357, 1.632576
391.9178, 1.360090
392.4000, 1.001568
392.8821, 0.7018510
393.3642, 0.6149790
393.8463, 0.7345730
394.3284, 0.7092360
394.8105, 0.3993340
395.2927, 0.1457250
395.7748, 0.1095050
396.2569, 0.1784820
396.7390, 0.1694180
397.2211, 1.8170999E-02
397.7032, 0.2824120
398.1854, 0.3952810
398.6675, 0.3036990
399.1496, 0.2425520
399.6317, 0.3763770
400.1138, 0.5077880
400.5959, 0.4501210
401.0781, 0.1760750
401.5602, 0.1158850
402.0423, 0.2218670
402.5244, 0.1619260
403.0065, 0.1638490
403.4886, 0.3089070
403.9708, 0.4337180
404.4529, 0.3944890
404.9350, 0.2445220
405.4171, 0.1312790
405.8992, 0.1459690
406.3813, 0.2182140
406.8635, 0.2221150
407.3456, 0.1461560
407.8277, 0.1129670
408.3098, 0.2372760
408.7919, 0.4148410
409.2740, 0.4556620
409.7562, 0.2911760
410.2383, 0.1435380
410.7204, 0.1798860
411.2025, 0.3414340
411.6846, 0.4397050
412.1667, 0.4042800
412.6489, 0.3635120
413.1310, 0.5406510
413.6131, 0.9320680
414.0952, 1.130816
414.5773, 0.8618320
415.0594, 0.5088880
415.5416, 0.4467260
416.0237, 0.6708220
416.5058, 0.9416280
416.9879, 1.118710
417.4700, 1.208097
417.9521, 1.246151
418.4343, 1.159538
418.9164, 1.117697
419.3985, 1.240503
419.8806, 1.414202
420.3627, 1.452318
420.8448, 1.296513
421.3270, 1.061583
421.8091, 0.9108260
422.2912, 0.8537180
422.7733, 0.8749870
423.2554, 1.134899
423.7375, 1.329075
424.2197, 1.209879
424.7018, 0.8476730
425.1839, 0.4929750
425.6660, 0.3193090
426.1481, 0.3146250
426.6302, 0.4012490
427.1124, 0.7142720
427.5945, 0.9532830
428.0766, 1.103996
428.5587, 1.154373
429.0408, 1.037035
429.5229, 0.7509250
430.0051, 0.4653260
430.4872, 0.4512120
430.9693, 0.7960380
431.4514, 1.045855
431.9335, 1.205727
432.4156, 1.246782
432.8978, 1.056570
433.3799, 0.7297840
433.8620, 0.4869020
434.3441, 0.4753570
434.8262, 0.6344570
435.3083, 0.8125610
435.7905, 1.042437
436.2726, 1.198080
436.7547, 1.116045
437.2368, 1.002535
437.7189, 1.073782
438.2010, 1.381666
438.6832, 1.696941
439.1653, 1.793613
439.6474, 1.715839
440.1295, 1.713482
440.6116, 1.857296
441.0938, 2.018629
441.5759, 2.085245
442.0580, 2.079586
442.5401, 2.060501
443.0222, 2.045610
443.5043, 2.023718
443.9865, 1.988226
444.4686, 1.937931
444.9507, 1.848129
445.4328, 1.673418
445.9149, 1.487158
446.3970, 1.481573
446.8792, 1.735926
447.3613, 1.910788
447.8434, 1.857979
448.3255, 1.701874
448.8076, 1.592686
449.2897, 1.555532
449.7719, 1.532234
450.2540, 1.461758
450.7361, 1.339079
451.2182, 1.281889
451.7003, 1.310501
452.1824, 1.372416
452.6646, 1.454119
453.1467, 1.553932
453.6288, 1.683115
454.1109, 1.847122
454.5930, 2.012844
455.0751, 2.112049
455.5573, 2.101086
456.0394, 2.073309
456.5215, 2.027546
457.0036, 1.989002
457.4857, 1.970781
457.9678, 1.964417
458.4500, 1.944492
458.9321, 1.883299
459.4142, 1.795551
459.8963, 1.807659
460.3784, 1.977900
460.8605, 2.144745
461.3427, 2.284128
461.8248, 2.391926
462.3069, 2.440928
462.7890, 2.424379
463.2711, 2.430807
463.7532, 2.571308
464.2354, 2.836454
464.7175, 3.088720
465.1996, 3.347279
465.6817, 3.531769
466.1638, 3.502745
466.6459, 3.357128
467.1281, 3.349394
467.6102, 3.651390
468.0923, 4.046984
468.5744, 4.311398
469.0565, 4.455009
469.5386, 4.552395
470.0208, 4.612467
470.5029, 4.667320
470.9850, 4.753805
471.4671, 4.847900
471.9492, 5.065905
472.4313, 5.535603
472.9135, 6.087276
473.3956, 6.575111
473.8777, 6.972443
474.3598, 7.249784
474.8419, 7.365131
475.3240, 7.337431
475.8062, 7.350668
476.2883, 7.363804
476.7704, 7.462051
477.2525, 7.694653
477.7346, 8.007866
478.2167, 8.347498
478.6989, 8.696308
479.1810, 9.048210
479.6631, 9.399990
480.1452, 9.748520
480.6273, 10.10179
481.1094, 10.58997
481.5916, 10.94472
482.0737, 10.94016
482.5558, 10.76867
483.0379, 10.79162
483.5200, 11.20499
484.0021, 11.74877
484.4843, 11.87575
484.9664, 11.48092
485.4485, 11.19546
485.9306, 11.24171
486.4127, 11.33974
486.8948, 11.32307
487.3770, 11.18982
487.8591, 10.99614
488.3412, 10.76429
488.8233, 10.50801
489.3054, 10.19110
489.7875, 9.817623
490.2697, 9.460308
490.7518, 9.165480
491.2339, 8.912067
491.7160, 8.746943
492.1981, 8.714735
492.6802, 8.623667
493.1624, 8.446703
493.6445, 8.167328
494.1266, 7.775452
494.6087, 7.265480
495.0908, 6.873741
495.5729, 6.820648
496.0551, 7.086586
496.5372, 7.213022
497.0193, 7.122396
497.5014, 7.008572
497.9835, 6.908936
498.4656, 6.841896
498.9478, 6.901802
499.4299, 7.132172
499.9120, 7.345673
500.3941, 7.256029
500.8762, 6.734760
501.3583, 6.499298
501.8405, 6.901291
502.3226, 7.301279
502.8047, 7.367424
503.2868, 7.247433
503.7689, 7.212091
504.2510, 7.398003
504.7331, 7.713921
505.2152, 8.016825
505.6974, 8.320526
506.1795, 8.538162
506.6616, 8.620527
507.1437, 8.624296
507.6258, 8.580624
508.1079, 8.500391
508.5901, 8.412514
509.0722, 8.309887
509.5543, 8.215994
510.0364, 8.174187
510.5185, 8.184752
511.0006, 8.217077
511.4828, 8.268646
511.9649, 8.323250
512.4470, 8.359154
512.9291, 8.403847
513.4113, 8.355780
513.8934, 8.154541
514.3755, 7.870975
514.8576, 7.550808
515.3397, 7.210382
515.8218, 6.896513
516.3040, 6.647474
516.7861, 6.458227
517.2682, 6.244053
517.7503, 6.011196
518.2324, 5.703629
518.7145, 5.221834
519.1967, 4.739832
519.6788, 4.453222
520.1609, 4.370594
520.6430, 4.308249
521.1251, 4.073027
521.6072, 3.669498
522.0894, 3.314842
522.5715, 3.024500
523.0536, 2.759520
523.5357, 2.482033
524.0178, 2.229315
524.4999, 2.055000
524.9821, 1.977036
525.4642, 1.927898
525.9463, 1.862280
526.4284, 1.776569
526.9105, 1.634304
527.3926, 1.404636
527.8748, 1.199781
528.3569, 1.136461
528.8390, 1.172585
529.3211, 1.158913
529.8032, 1.021732
530.2853, 0.8997880
530.7675, 0.8876930
531.2496, 0.9412730
531.7317, 0.9860020
532.2138, 1.000725
532.6959, 0.9685500
533.1780, 0.8584440
533.6602, 0.6475980
534.1423, 0.5009560
534.6244, 0.4433170
535.1065, 0.4103930
535.5886, 0.3929710
536.0707, 0.3802280
536.5529, 0.3495060
537.0350, 0.2934420
537.5171, 0.2478640
537.9992, 0.3019490
538.4813, 0.5038830
538.9634, 0.5512490
539.4456, 0.2663670
539.9277, 5.4720002E-03
540.4098, 2.5423000E-02
540.8919, 8.1078000E-02
541.3740, 0.1289420
541.8561, 2.4214000E-02
542.3383, 0.1317450
542.8204, 0.2270770
543.3025, 0.2644020
543.7846, 0.2607320
544.2667, 0.2031630
544.7488, 0.1398040
545.2310, 0.1574130
545.7131, 0.2410740
546.1952, 0.4540830
546.6773, 0.1509660
547.1594, 2.1377999E-02
547.6415, 7.0037998E-02
548.1237, 0.3748850
548.6058, 0.1829990
549.0879, 0.2467310
549.5700, 0.3212470
550.0521, 4.0591002E-02
550.5342, 0.4152200
551.0164, 0.1407900
551.4985, 0.1258430
551.9806, 7.5039999E-03
552.4627, 0.1162320
552.9448, 0.1608480
553.4269, 5.1291998E-02
553.9091, 0.1209940
554.3912, 3.3073999E-02
554.8733, 0.1067150
555.3554, 0.2789860
555.8375, 0.2039840
556.3196, 6.9668002E-02
556.8018, 7.2503000E-02
557.2839, 7.0951998E-02
557.7660, 0.1054300
558.2481, 0.3549480
558.7302, 4.4712000E-02
559.2123, 7.2149999E-02
559.6945, 0.2825860
560.1766, 1.7969999E-02
560.6587, 7.1985997E-02
561.1408, 6.0811002E-02
561.6229, 5.1150001E-03
562.1050, 2.7184000E-02
562.5872, 3.0843999E-02
563.0693, 4.6611998E-02
563.5514, 0.1119080
564.0335, 0.1520510
564.5156, 0.1024850
564.9977, 6.1490000E-03
565.4799, 4.8259001E-02
565.9620, 2.6594000E-02
566.4441, 1.0950000E-02
566.9262, 4.4828001E-02
567.4083, 0.2375850
567.8904, 0.3462020
568.3726, 0.3271090
568.8547, 0.2626120
569.3368, 0.1297860
569.8189, 1.7483000E-02
570.3010, 9.2941001E-02
570.7831, 6.1016001E-02
571.2653, 2.6389999E-02
571.7474, 0.1456310
572.2295, 0.2827530
572.7116, 0.3168920
573.1937, 0.2051770
573.6758, 4.4597000E-02
574.1580, 0.1426650
574.6401, 0.3202400
575.1222, 0.3417480
575.6043, 8.9780003E-02
576.0864, 0.2031200
576.5685, 0.4568960
577.0507, 0.6650490
577.5328, 0.8203100
578.0149, 0.9200330
578.4970, 0.9518350
578.9791, 0.8907350
579.4612, 0.7310450
579.9434, 0.6230410
580.4255, 0.6110600
580.9076, 0.6002950
581.3897, 0.5379820
581.8718, 0.4867430
582.3539, 0.5269050
582.8361, 0.6710000
583.3182, 0.8460970
583.8003, 0.9727790
584.2824, 1.062536
584.7645, 1.204108
585.2466, 1.415496
585.7288, 1.629953
586.2108, 1.811325
586.6929, 1.978355
587.1750, 2.160694
587.6572, 2.369675
588.1393, 2.552681
588.6214, 2.651999
589.1035, 2.728731
589.5856, 2.856754
590.0677, 3.044208
590.5499, 3.275386
591.0320, 3.541288
591.5141, 3.842924
591.9962, 4.181713
592.4783, 4.666958
592.9604, 5.028854
593.4426, 5.152748
593.9247, 5.246668
594.4068, 5.454830
594.8889, 5.767073
595.3710, 6.098818
595.8531, 6.396734
596.3353, 6.674913
596.8174, 6.967562
597.2995, 7.273024
597.7816, 7.578459
598.2637, 7.833712
598.7458, 8.153889
599.2280, 8.661200
599.7101, 9.317003
600.1922, 9.922089
600.6743, 10.40514
601.1564, 10.83322
601.6385, 11.23586
602.1207, 11.63298
602.6028, 12.07892
603.0849, 12.58565
603.5670, 13.12178
604.0491, 13.64728
604.5313, 14.19794
605.0134, 14.73909
605.4955, 15.28568
605.9776, 15.76265
606.4597, 16.23040
606.9418, 16.62850
607.4240, 16.89120
607.9061, 17.02456
608.3882, 17.02957
608.8703, 16.91338
609.3524, 16.68555
609.8345, 16.73319
610.3167, 17.14064
610.7988, 17.57638
611.2809, 17.97480
611.7630, 18.26634
612.2451, 18.29021
612.7272, 17.94590
613.2094, 17.78364
613.6915, 18.22813
614.1736, 18.95919
614.6557, 19.54527
615.1378, 19.98460
615.6199, 20.43600
616.1021, 20.97864
616.5842, 21.60983
617.0663, 22.14910
617.5484, 22.54289
618.0305, 22.91853
618.5126, 23.26600
618.9948, 23.57845
619.4769, 23.82259
619.9590, 24.02934
620.4411, 24.27767
620.9232, 24.62153
621.4053, 24.96363
621.8875, 25.16816
622.3696, 25.24130
622.8517, 25.20749
623.3338, 25.03313
623.8159, 24.80836
624.2980, 24.61177
624.7802, 24.42954
625.2623, 24.20427
625.7444, 23.99586
626.2265, 23.65742
626.7086, 23.01517
627.1907, 22.24533
627.6729, 21.60838
628.1550, 21.14078
628.6371, 20.70007
629.1192, 20.14239
629.6013, 19.49519
630.0834, 19.03845
630.5656, 18.91419
631.0477, 18.74228
631.5298, 18.57918
632.0119, 18.26357
632.4940, 17.51064
632.9761, 16.44374
633.4583, 15.64898
633.9404, 15.63948
634.4225, 15.92412
634.9046, 15.67460
635.3867, 14.93301
635.8688, 14.23437
636.3510, 13.70368
636.8331, 13.38135
637.3152, 13.39150
637.7973, 13.78366
638.2794, 13.92618
638.7615, 13.60890
639.2437, 13.26755
639.7258, 13.09160
640.2079, 12.99745
640.6900, 12.87578
641.1721, 12.69051
641.6542, 12.43851
642.1364, 12.08211
642.6185, 11.63977
643.1006, 11.37761
643.5827, 11.36114
644.0648, 11.38229
644.5469, 11.46385
645.0291, 11.48973
645.5112, 11.30101
645.9933, 10.89121
646.4754, 10.54319
646.9575, 10.46681
647.4396, 10.45698
647.9218, 10.26173
648.4039, 9.923250
648.8860, 9.668133
649.3681, 9.596741
649.8502, 9.561676
650.3323, 9.309477
650.8145, 8.732624
651.2966, 8.437231
651.7787, 8.748297
652.2608, 8.954453
652.7429, 8.736818
653.2250, 8.339941
653.7072, 8.112181
654.1893, 8.112955
654.6714, 8.120497
655.1535, 7.851624
655.6356, 7.415747
656.1177, 7.242968
656.5999, 7.390223
657.0820, 7.400797
657.5641, 7.001064
658.0462, 6.402424
658.5283, 5.969208
659.0104, 5.695875
659.4926, 5.587555
659.9747, 5.850950
660.4568, 6.063047
660.9389, 5.924734
661.4210, 5.556501
661.9031, 5.188602
662.3853, 4.908436
662.8674, 4.686491
663.3495, 4.481974
663.8316, 4.292414
664.3137, 4.148399
664.7958, 4.090878
665.2780, 4.004997
665.7601, 3.814543
666.2422, 3.586800
666.7243, 3.357294
667.2064, 3.112064
667.6885, 3.012026
668.1707, 3.277632
668.6528, 3.622219
669.1349, 3.695374
669.6170, 3.544674
670.0991, 3.430696
670.5812, 3.479391
671.0634, 3.593317
671.5455, 3.602116
672.0276, 3.479033
672.5097, 3.332266
672.9918, 3.085739
673.4739, 2.902863
673.9561, 2.949308
674.4382, 3.064774
674.9203, 2.960566
675.4024, 2.554979
675.8845, 2.176062
676.3666, 2.161833
676.8488, 2.354433
677.3309, 2.423176
677.8130, 2.351583
678.2951, 2.165306
678.7772, 1.824736
679.2593, 1.485592
679.7415, 1.436098
680.2236, 1.832180
680.7057, 2.002438
681.1878, 1.793154
681.6699, 1.522232
682.1520, 1.261297
682.6342, 1.073589
683.1163, 1.018944
683.5984, 1.107494
684.0805, 1.280542
684.5626, 1.533308
685.0447, 1.821466
685.5269, 1.855501
686.0090, 1.576488
686.4911, 1.389339
686.9732, 1.499687
687.4553, 1.754023
687.9374, 1.910042
688.4196, 1.978277
688.9017, 2.032547
689.3838, 2.041512
689.8659, 2.081900
690.3480, 2.283121
690.8301, 2.522636
691.3123, 2.511629
691.7944, 2.188644
692.2765, 1.918890
692.7586, 2.165644
693.2407, 2.887533
693.7228, 3.507914
694.2050, 4.059952
694.6871, 4.420296
695.1692, 4.342606
695.6513, 4.217319
696.1334, 4.531061
696.6155, 5.283409
697.0977, 5.892307
697.5798, 6.060219
698.0619, 6.142365
698.5440, 6.485390
699.0261, 6.923454
699.5082, 7.116993
699.9904, 6.966936
700.4725, 6.559322
700.9546, 5.942123
701.4367, 5.140631
701.9188, 4.530310
702.4009, 4.177483
702.8831, 3.888010
703.3652, 3.684799
703.8473, 3.472542
704.3294, 3.156300
704.8115, 2.752609
705.2936, 2.384295
705.7758, 2.128420
706.2579, 1.900928
706.7400, 1.590439
707.2221, 1.260946
707.7042, 1.077444
708.1863, 1.071541
708.6685, 1.093733
709.1506, 1.013227
709.6327, 0.8369790
710.1148, 0.5971970
710.5969, 0.1280570
711.0790, 9.2891999E-02
711.5612, 0.2426870
712.0433, 0.6152990
712.5254, 0.6678200
713.0075, 0.4727650
713.4896, 0.3168530
713.9717, 0.3304310
714.4539, 0.3805810
714.9360, 0.3647610
715.4181, 0.2933730
715.9002, 0.1618350
716.3823, 2.3581000E-02
716.8644, 0.1511920
717.3466, 0.1251070
717.8287, 5.4199999E-04
718.3108, 2.0059999E-02
718.7929, 0.1578080
719.2750, 0.2688540
719.7571, 0.2804340
720.2393, 0.2530560
720.7214, 0.2047500
721.2035, 0.1416610
721.6856, 5.8143999E-02
722.1677, 5.8607001E-02
722.6498, 0.1346530
723.1320, 7.8901000E-02
723.6141, 5.2871998E-02
724.0962, 0.1627670
724.5783, 0.2393760
725.0604, 0.2510970
725.5425, 0.1672670
726.0247, 4.9555000E-02
726.5068, 2.7009999E-02
726.9889, 0.1358810
727.4710, 0.2301850
727.9531, 0.3372710
728.4352, 0.3988040
728.9174, 0.3885310
729.3995, 0.3241900
729.8816, 0.1848220
730.3637, 2.5810000E-02
730.8458, 0.1325450
731.3279, 0.1147900
731.8101, 0.4785630
732.2922, 0.5451670
732.7743, 0.3468550
733.2564, 0.1391030
733.7385, 1.1183000E-02
734.2206, 7.1866997E-02
734.7028, 0.1628420
735.1849, 0.2697070
735.6670, 0.2631300
736.1491, 2.3289001E-02
736.6312, 0.1784630
737.1133, 0.3404370
737.5955, 0.4186760
738.0776, 0.3079050
738.5597, 5.4313999E-02
739.0418, 9.7659998E-02
739.5239, 6.3210003E-02
740.0060, 0.2775780
740.4882, 0.2070370
740.9703, 5.8093999E-02
741.4524, 0.2555200
741.9345, 0.3299770
742.4166, 0.2964780
742.8987, 0.1469590
743.3809, 8.4856004E-02
743.8630, 0.2338940
744.3451, 0.3140300
744.8272, 0.2819820
745.3093, 1.7309001E-02
745.7914, 0.2724080
746.2736, 0.2690320
746.7557, 0.1061040
747.2378, 2.5100000E-03
747.7199, 1.2815000E-02
748.2020, 8.0955997E-02
748.6841, 0.1957130
749.1663, 0.3068980
749.6484, 0.3132880
750.1305, 0.2200760
750.6126, 8.9766003E-02
751.0947, 6.0074002E-02
751.5768, 0.1363390
752.0590, 7.9738997E-02
752.5411, 0.7306730
753.0232, 0.9882340
753.5053, 0.5172420
753.9874, 9.6028998E-02
754.4695, 5.1286999E-02
754.9517, 2.7727000E-02
755.4338, 9.8488003E-02
755.9159, 0.3100010
756.3980, 0.4888190
756.8801, 0.5460220
757.3622, 0.5748940
757.8444, 0.6670700
758.3265, 0.8018300
758.8086, 0.9622880
759.2907, 1.131659
759.7728, 1.184362
760.2549, 0.9689710
760.7371, 0.5480750
761.2192, 0.3291150
761.7013, 0.3953000
762.1834, 0.4377370
762.6655, 0.3816810
763.1476, 0.3114050
763.6298, 0.2756840
764.1119, 0.2709640
764.5940, 0.2860280
765.0761, 0.3208870
765.5582, 0.3709510
766.0403, 0.4715310
766.5225, 0.5612810
767.0046, 0.5152280
767.4867, 0.3843670
767.9688, 0.3966660
768.4509, 0.6733260
768.9330, 1.010448
769.4152, 1.075010
769.8973, 0.8440840
770.3794, 0.6969130
770.8615, 0.6427500
771.3436, 0.6739770
771.8257, 0.8792230
772.3079, 1.100948
772.7900, 1.071564
773.2721, 0.7659650
773.7542, 0.5552430
774.2363, 0.4721470
774.7184, 0.5104850
775.2006, 0.8154560
775.6827, 1.186071
776.1648, 1.334082
776.6469, 1.215796
777.1290, 0.9926410
777.6111, 0.7349820
778.0933, 0.5468410
778.5754, 0.7923810
779.0575, 1.445992
779.5396, 1.676807
780.0217, 1.214081
780.5038, 0.7212700
780.9860, 0.7349550
781.4681, 1.128010
781.9502, 1.370094
782.4323, 1.345890
782.9144, 1.374184
783.3965, 1.508400
783.8787, 1.670702
784.3608, 1.873331
784.8429, 2.039740
785.3250, 2.020025
785.8071, 1.764509
786.2892, 1.530109
786.7714, 1.618423
787.2535, 1.847347
787.7356, 1.791008
788.2177, 1.507914
788.6998, 1.484463
789.1819, 1.908401
789.6641, 2.449888
790.1462, 2.746212
790.6283, 2.814775
791.1104, 2.842651
791.5925, 2.705446
792.0746, 2.722973
792.5568, 3.062424
793.0389, 3.466583
793.5210, 3.766733
794.0031, 3.977585
794.4852, 4.168467
794.9673, 4.350447
795.4495, 4.554464
795.9316, 4.820797
796.4137, 5.128609
796.8958, 5.417789
797.3779, 5.689377
797.8600, 5.996727
798.3422, 6.387638
798.8243, 6.849155
799.3064, 7.324514
799.7885, 7.812815
800.2706, 8.396107
800.7527, 9.083925
801.2349, 9.826090
801.7170, 10.60379
802.1991, 11.42391
802.6812, 12.28878
803.1633, 13.20371
803.6454, 14.22940
804.1276, 15.39832
804.6097, 16.64280
805.0918, 17.81527
805.5739, 19.12141
806.0560, 20.85774
806.5381, 22.95923
807.0203, 25.06082
807.5024, 26.88653
807.9845, 28.78727
808.4666, 31.28861
808.9487, 34.28569
809.4308, 37.40169
809.9130, 40.61227
810.3951, 43.84863
810.8772, 47.06008
811.3593, 50.32697
811.8414, 53.84604
812.3235, 57.69648
812.8057, 61.57099
813.2878, 65.47106
813.7699, 69.41135
814.2520, 73.48998
814.7341, 77.56046
815.2162, 81.31554
815.6984, 84.80946
816.1805, 88.76468
816.6626, 93.78822
817.1447, 99.07892
817.6268, 104.1435
818.1089, 109.0258
818.5911, 113.7005
819.0732, 118.2345
819.5553, 122.9223
820.0374, 128.0004
820.5195, 133.2432
821.0016, 138.2442
821.4838, 143.0045
821.9659, 147.6033
822.4480, 152.2715
822.9301, 156.0263
823.4122, 158.3013
823.8943, 159.4323
824.3765, 160.0702
824.8586, 160.3560
825.3407, 159.3667
825.8228, 157.1045
826.3049, 153.5250
826.7870, 148.0666
827.2692, 141.6277
827.7513, 135.2209
828.2334, 128.8338
828.7155, 121.6608
829.1976, 112.9546
829.6797, 103.8062
830.1619, 95.33369
830.6440, 87.40536
831.1261, 79.73154
831.6082, 72.28261
832.0903, 65.30912
832.5724, 58.91760
833.0546, 53.09867
833.5367, 47.85122
834.0188, 43.16712
834.5009, 39.03437
834.9830, 35.49089
835.4651, 32.42934
835.9473, 30.07501
836.4294, 28.01366
836.9115, 25.66634
837.3936, 23.07513
837.8757, 20.91343
838.3578, 19.47635
838.8400, 18.23725
839.3221, 16.96795
839.8042, 15.81719
840.2863, 14.97711
840.7684, 14.39818
841.2505, 13.90349
841.7327, 13.41863
842.2148, 12.88560
842.6969, 12.20363
843.1790, 11.42355
843.6611, 10.64348
844.1432, 9.880011
844.6254, 9.252897
845.1075, 8.816158
845.5896, 8.516541
846.0717, 8.308273
846.5538, 8.193920
847.0359, 7.898170
847.5181, 7.263744
848.0002, 6.748623
848.4823, 6.579573
848.9644, 6.430796
849.4465, 6.018635
849.9286, 5.434366
850.4108, 5.009386
850.8929, 4.868496
851.3750, 4.734568
851.8571, 4.531048
852.3392, 4.280182
852.8214, 3.955448
853.3035, 3.607204
853.7856, 3.322615
854.2677, 3.130188
854.7498, 3.005749
855.2319, 2.956758
855.7141, 2.945883
856.1962, 2.878433
856.6783, 2.762743
857.1604, 2.633814
857.6425, 2.499298
858.1246, 2.388470
858.6068, 2.318058
859.0889, 2.270100
859.5710, 2.210316
860.0531, 2.132437
860.5352, 2.065390
861.0173, 2.016558
861.4995, 1.986525
861.9816, 1.967079
862.4637, 1.955294
862.9458, 1.956577
863.4279, 1.973112
863.9100, 1.986586
864.3922, 1.994234
864.8743, 2.004908
865.3564, 2.046696
865.8385, 2.079330
866.3206, 2.028877
866.8027, 1.925493
867.2849, 1.888802
867.7670, 1.993147
868.2491, 2.078081
868.7312, 1.868996
869.2133, 1.485495
869.6954, 1.262550
870.1776, 1.224564
870.6597, 1.285574
871.1418, 1.411954
871.6239, 1.564621
872.1060, 1.705787
872.5881, 1.830861
873.0703, 1.878940
873.5524, 1.832856
874.0345, 1.722891
874.5166, 1.483960
874.9987, 1.286252
875.4808, 1.303452
875.9630, 1.466118
876.4451, 1.577618
876.9272, 1.599308
877.4093, 1.615806
877.8914, 1.663558
878.3735, 1.701472
878.8557, 1.740558
879.3378, 1.744000
879.8199, 1.576635
880.3020, 1.226830
880.7841, 0.9499480
881.2662, 0.9523060
881.7484, 1.086281
882.2305, 1.245360
882.7126, 1.382026
883.1947, 1.308829
883.6768, 1.046145
884.1589, 0.8785380
884.6411, 1.002448
885.1232, 1.236907
885.6053, 1.169755
886.0874, 0.7927850
886.5695, 0.6181820
887.0516, 0.7231110
887.5338, 0.7449240
888.0159, 0.4867980
888.4980, 0.1827780
888.9801, 0.1082790
889.4622, 0.2638400
889.9443, 0.4791560
890.4265, 0.9692450
890.9086, 1.209886
891.3907, 0.9586930
891.8728, 0.6335280
892.3549, 0.4506280
892.8370, 0.3951500
893.3192, 0.4324050
893.8013, 0.5722070
894.2834, 0.6512390
894.7655, 0.4864470
895.2476, 0.3264290
895.7297, 0.4293860
896.2119, 0.6646080
896.6940, 0.8124680
897.1761, 0.8286090
897.6582, 0.7759890
898.1403, 0.6896860
898.6224, 0.5840980
899.1046, 0.4203220
899.5867, 0.2499690
900.0688, 0.3800960
900.5509, 0.8265740
901.0330, 1.098314
901.5151, 0.9441790
901.9973, 0.6170020
902.4794, 0.5013050
902.9615, 0.5975210
903.4436, 0.5060840
903.9257, 8.4183000E-02
904.4078, 0.1378300
904.8900, 0.1174550
905.3721, 0.3847400
905.8542, 0.2382070
906.3363, 0.1731160
906.8184, 0.3834370
907.3005, 0.3084330
907.7827, 0.2204320
908.2648, 0.1828240
908.7469, 0.1052190
909.2290, 0.1391430
909.7111, 0.4001660
910.1932, 0.4753310
910.6754, 0.3576200
911.1575, 0.2187280
911.6396, 0.1296840
912.1217, 6.7574002E-02
912.6038, 1.1936000E-02
913.0859, 6.1540999E-02
913.5681, 5.1534001E-02
914.0502, 0.2648810
914.5323, 0.3206870
915.0144, 0.1092470
915.4965, 0.1589360
915.9786, 0.2312970
916.4607, 0.1548500
916.9428, 7.2288997E-02
917.4249, 1.1716000E-02
917.9070, 1.0078000E-02
918.3892, 0.1066440
918.8713, 0.2170630
919.3534, 0.2235820
919.8355, 0.1533870
920.3176, 8.9582004E-02
920.7997, 4.0792000E-02
921.2819, 4.0904000E-02
921.7640, 0.1917470
922.2461, 0.3076780
922.7282, 0.3668930
923.2103, 0.3550970
923.6924, 0.1959750
924.1746, 9.6642002E-02
924.6567, 0.2261710
925.1388, 2.7775999E-02
925.6209, 0.1188680
926.1030, 0.1329920
926.5851, 8.6916998E-02
927.0673, 2.8700000E-04
927.5494, 0.1002600
928.0315, 0.1663640
928.5136, 0.1840600
928.9957, 0.2349010
929.4778, 0.4770480
929.9600, 0.6536630
930.4421, 0.4638180
930.9242, 0.1152370
931.4063, 6.8400003E-02
931.8884, 6.1579000E-02
932.3705, 1.7841000E-02
932.8527, 2.2182001E-02
933.3348, 3.2150000E-02
933.8169, 6.1312001E-02
934.2990, 0.1805740
934.7811, 2.6445000E-02
935.2632, 0.3515460
935.7454, 0.4895610
936.2275, 0.2340280
936.7096, 6.8719998E-02
937.1917, 7.3618002E-02
937.6738, 0.1391490
938.1559, 0.2771070
938.6381, 0.3408540
939.1202, 0.2849700
939.6023, 3.1261999E-02
940.0844, 7.9556003E-02
940.5665, 0.2109750
941.0486, 0.6240070
941.5308, 0.6878090
942.0129, 0.3530650
942.4950, 0.2174080
942.9771, 0.4678580
943.4592, 0.6343920
943.9413, 0.5668510
944.4235, 0.4820230
944.9056, 0.5546590
945.3877, 0.7003460
945.8698, 0.7100870
946.3519, 0.5121900
946.8340, 0.3896540
947.3162, 0.4717060
947.7983, 0.5813980
948.2804, 0.6392270
948.7625, 0.6649270
949.2446, 0.6786060
949.7267, 0.6871890
950.2089, 0.6883020
950.6910, 0.6595240
951.1731, 0.6949850
951.6552, 0.9840670
952.1373, 1.295068
952.6194, 1.277687
953.1016, 1.045164
953.5837, 0.9041910
954.0658, 0.9433540
954.5479, 1.081954
955.0300, 1.286812
955.5121, 1.487558
955.9943, 1.486299
956.4764, 1.364499
956.9585, 1.482874
957.4406, 1.863235
957.9227, 2.266273
958.4048, 2.593433
958.8870, 2.770122
959.3691, 2.631211
959.8512, 2.236119
960.3333, 2.009973
960.8154, 1.970400
961.2975, 1.982040
961.7797, 2.052488
962.2618, 2.146490
962.7439, 2.231010
963.2260, 2.311235
963.7081, 2.401683
964.1902, 2.503240
964.6724, 2.578962
965.1545, 2.643518
965.6366, 2.698239
966.1187, 2.686176
966.6008, 2.714041
967.0829, 2.917411
967.5651, 3.220572
968.0472, 3.396158
968.5293, 3.404943
969.0114, 3.356980
969.4935, 3.172606
969.9756, 3.045894
970.4578, 3.097764
970.9399, 3.225133
971.4220, 3.328363
971.9041, 3.398115
972.3862, 3.470212
972.8683, 3.590943
973.3505, 3.630421
973.8326, 3.481826
974.3147, 3.282989
974.7968, 3.101447
975.2789, 2.973571
975.7610, 2.967528
976.2432, 3.071977
976.7253, 3.164602
977.2074, 3.192327
977.6895, 3.150973
978.1716, 2.961460
978.6537, 2.730827
979.1359, 2.678852
979.6180, 2.764154
980.1001, 2.755388
980.5822, 2.575387
981.0643, 2.422220
981.5464, 2.527429
982.0286, 2.758386
982.5107, 2.863573
982.9928, 2.864608
983.4749, 2.706097
983.9570, 2.392447
984.4391, 2.180699
984.9213, 2.212162
985.4034, 2.329507
985.8855, 2.315170
986.3676, 2.183498
986.8497, 2.014103
987.3318, 1.788156
987.8140, 1.597238
988.2961, 1.480217
988.7782, 1.447735
989.2603, 1.512314
989.7424, 1.595349
990.2245, 1.545934
990.7067, 1.342506
991.1888, 1.206044
991.6709, 1.115196
992.1530, 1.127258
992.6351, 1.344913
993.1172, 1.585416
993.5994, 1.720160
994.0815, 1.746736
994.5636, 1.634794
995.0457, 1.306783
995.5278, 1.123565
996.0099, 1.208442
996.4921, 1.254361
996.9742, 1.079352
997.4563, 0.9117510
997.9384, 1.038991
998.4205, 1.371152
998.9026, 1.471292
999.3848, 1.142165
999.8669, 0.9436720
1000.349, 1.119340
1000.831, 1.293303
1001.313, 1.202939
1001.795, 1.064433
1002.277, 1.197288
1002.760, 1.534433
1003.242, 1.667821
1003.724, 1.414423
1004.206, 1.079174
1004.688, 0.6235740
1005.170, 0.3174900
1005.652, 0.5128780
1006.134, 0.9181450
1006.617, 1.069665
1007.099, 0.9350920
1007.581, 0.8332370
1008.063, 0.9417490
1008.545, 1.081010
1009.027, 1.124104
1009.509, 1.105730
1009.991, 1.043559
1010.473, 0.9605580
1010.956, 0.8922430
1011.438, 0.8491230
1011.920, 0.8334290
1012.402, 0.8561330
1012.884, 0.8828330
1013.366, 0.8712740
1013.848, 0.8332050
1014.330, 0.8226280
1014.813, 0.8073890
1015.295, 0.6015910
1015.777, 0.1820580
1016.259, 7.6558001E-02
1016.741, 0.2142520
1017.223, 0.7117050
1017.705, 0.7857890
1018.187, 0.5248370
1018.669, 0.1272040
1019.152, 0.3335080
1019.634, 0.4719720
1020.116, 0.1520620
1020.598, 0.2861670
1021.080, 0.5139250
1021.562, 0.5631990
1022.044, 0.4663450
1022.526, 0.2468290
1023.008, 0.1837210
1023.491, 0.3045990
1023.973, 0.3653340
1024.455, 0.2572360
1024.937, 0.1098560
1025.419, 6.7982003E-02
1025.901, 0.1172110
1026.383, 0.2168490
1026.865, 0.3774980
1027.348, 0.4089290
1027.830, 0.2717950
1028.312, 0.1256890
1028.794, 3.2083999E-02
1029.276, 7.4870000E-03
1029.758, 3.8020001E-03
1030.240, 7.1699999E-02
1030.722, 0.2786560
1031.204, 0.7021100
1031.687, 0.8938780
1032.169, 0.7441150
1032.651, 0.5569820
1033.133, 0.4691300
1033.615, 0.4171930
1034.097, 0.2986560
1034.579, 0.1277770
1035.061, 0.1562380
1035.544, 0.5467160
1036.026, 0.6965110
1036.508, 0.4184330
1036.990, 0.1471620
1037.472, 3.5030998E-02
1037.954, 9.1833003E-02
1038.436, 0.4141000
1038.918, 0.9830060
1039.401, 1.213283
1039.883, 0.9058770
1040.365, 0.6228060
1040.847, 0.3336540
1041.329, 0.1598930
1041.811, 0.2415700
1042.293, 0.4083270
1042.775, 0.4272330
1043.257, 0.3032730
1043.740, 0.2402030
1044.222, 0.2948880
1044.704, 0.3218890
1045.186, 0.3154870
1045.668, 0.2875210
1046.150, 0.1515980
1046.632, 3.9207000E-02
1047.114, 0.1586290
1047.596, 0.4926950
1048.079, 0.7298490
1048.561, 0.8292050
1049.043, 0.8527370
1049.525, 0.7279860
1050.007, 0.6182800
1050.489, 0.5914660
1050.971, 0.6293060
1051.453, 0.7452070
1051.936, 0.9181550
1052.418, 0.9950770
1052.900, 0.8653030
1053.382, 0.7871410
1053.864, 0.8739700
1054.346, 0.9512380
1054.828, 0.9233020
1055.310, 0.8393750
1055.792, 0.7230670
1056.275, 0.6006220
1056.757, 0.5911750
1057.239, 0.7868410
1057.721, 0.9596570
1058.203, 1.032199
1058.685, 1.082709
1059.167, 1.132544
1059.649, 1.206267
1060.131, 1.330593
1060.614, 1.490568
1061.096, 1.606659
1061.578, 1.656771
1062.060, 1.662617
1062.542, 1.600872
1063.024, 1.531920
1063.506, 1.482614
1063.988, 1.467955
1064.471, 1.494948
1064.953, 1.553947
1065.435, 1.546567
1065.917, 1.422451
1066.399, 1.317557
1066.881, 1.293689
1067.363, 1.294273
1067.845, 1.306119
1068.328, 1.310198
1068.810, 1.268938
1069.292, 1.204286
1069.774, 1.196588
1070.256, 1.284175
1070.738, 1.335476
1071.220, 1.269655
1071.702, 1.180697
1072.184, 1.123049
1072.667, 1.069538
1073.149, 0.9534230
1073.631, 0.8212650
1074.113, 0.8131510
1074.595, 0.9971850
1075.077, 1.137671
1075.559, 1.067104
1076.041, 1.000675
1076.523, 1.095213
1077.006, 1.197660
1077.488, 1.196456
1077.970, 1.139482
1078.452, 1.090940
1078.934, 1.056095
1079.416, 1.000265
1079.898, 0.8214380
1080.380, 0.7269380
1080.862, 0.8989520
1081.345, 1.138022
1081.827, 1.300685
1082.309, 1.377364
1082.791, 1.358816
1083.273, 1.252263
1083.755, 1.165511
1084.237, 1.110361
1084.719, 1.133557
1085.202, 1.322916
1085.684, 1.535083
1086.166, 1.709410
1086.648, 1.799230
1087.130, 1.713334
1087.612, 1.466111
1088.094, 1.233232
1088.576, 1.076795
1089.058, 0.9519380
1089.541, 0.8231790
1090.023, 0.7367500
1090.505, 0.7715770
1090.987, 0.8392000
1091.469, 0.8125060
1091.951, 0.6986680
1092.433, 0.6062060
1092.915, 0.5771530
1093.397, 0.5535290
1093.880, 0.5023860
1094.362, 0.4609510
1094.844, 0.4920840
1095.326, 0.5121150
1095.808, 0.3875450
1096.290, 0.1763970
1096.772, 8.0603004E-02
1097.254, 0.1694310
1097.737, 0.2602190
1098.219, 0.3195090
1098.701, 0.3342520
1099.183, 0.2643030
1099.665, 0.1768310
1100.147, 0.1056270
1100.629, 7.0485003E-02
1101.111, 0.1388240
1101.594, 0.3391680
1102.076, 0.3956950
1102.558, 8.2396999E-02
1103.040, 0.1737430
1103.522, 0.2160180
1104.004, 0.1730330
1104.486, 9.0406999E-02
1104.968, 5.1159998E-03
1105.450, 1.4620000E-02
1105.932, 3.3797000E-02
1106.415, 2.3599001E-02
1106.897, 0.1465290
1107.379, 0.2610500
1107.861, 0.2359560
1108.343, 0.1945500
1108.825, 0.1871760
1109.307, 0.2073910
1109.789, 0.2617810
1110.272, 0.3393960
1110.754, 0.3737420
1111.236, 0.3569340
1111.718, 0.2990650
1112.200, 0.1236170
1112.682, 6.3100001E-03
1113.164, 6.9269001E-02
1113.646, 0.1631600
1114.129, 0.1226490
1114.611, 2.4260001E-03
1115.093, 1.0174000E-02
1115.575, 0.2425960
1116.057, 0.3051880
1116.539, 6.6780001E-03
1117.021, 0.1707050
1117.503, 6.2817998E-02
1117.985, 0.1086080
1118.468, 0.2234800
1118.950, 0.2935630
1119.432, 0.3567440
1119.914, 0.4248620
1120.396, 0.3213010
1120.878, 0.1566980
1121.360, 0.3523690
1121.842, 2.5139000E-02
1122.324, 0.2896310
1122.807, 0.3223860
1123.289, 0.2215260
1123.771, 0.1562520
1124.253, 0.1299400
1124.735, 0.1869480
1125.217, 0.3924400
1125.699, 0.4381810
1126.181, 0.2542700
1126.664, 8.1432998E-02
1127.146, 4.4869999E-03
1127.628, 3.1925999E-02
1128.110, 1.7631000E-02
1128.592, 2.3998000E-02
1129.074, 4.0770002E-02
1129.556, 2.2438999E-02
1130.038, 0.1119820
1130.521, 0.3386220
1131.003, 0.4455780
1131.485, 0.3560060
1131.967, 0.2626360
1132.449, 0.2861730
1132.931, 0.3924170
1133.413, 0.5613500
1133.895, 0.7574810
1134.377, 0.6625970
1134.859, 0.2924110
1135.342, 0.1855280
1135.824, 0.4088880
1136.306, 0.6274890
1136.788, 0.6958230
1137.270, 0.7011060
1137.752, 0.7418820
1138.234, 0.7710320
1138.716, 0.6449050
1139.199, 0.4042120
1139.681, 0.1800900
1140.163, 6.5690000E-03
1140.645, 5.2740999E-02
1141.127, 0.3386260
1141.609, 0.6107880
1142.091, 0.6980720
1142.573, 0.6651020
1143.056, 0.5630500
1143.538, 0.4275480
1144.020, 0.3078090
1144.502, 0.2218750
1144.984, 0.2097150
1145.466, 0.2736530
1145.948, 0.4162580
1146.430, 0.6356840
1146.912, 0.8178950
1147.395, 0.8492090
1147.877, 0.8076930
1148.359, 0.7245330
1148.841, 0.6641540
1149.323, 0.7504780
1149.805, 0.9263900
1150.287, 1.076647
1150.769, 1.159768
1151.251, 1.119538
1151.734, 0.8470190
1152.216, 0.6476070
1152.698, 0.8613690
1153.180, 1.088611
1153.662, 0.8951380
1154.144, 0.5812050
1154.626, 0.5672130
1155.108, 0.8216560
1155.591, 1.097217
1156.073, 1.354522
1156.555, 1.456069
1157.037, 1.136076
1157.519, 0.9394550
1158.001, 1.227331
1158.483, 1.586745
1158.965, 1.740350
1159.448, 1.728006
1159.930, 1.568854
1160.412, 1.273292
1160.894, 1.238436
1161.376, 1.740585
1161.858, 2.155322
1162.340, 2.422114
1162.822, 2.604589
1163.304, 2.655286
1163.786, 2.694656
1164.269, 2.870648
1164.751, 3.123079
1165.233, 3.221136
1165.715, 3.074155
1166.197, 3.163535
1166.679, 3.651202
1167.161, 3.933383
1167.643, 3.798451
1168.126, 3.702151
1168.608, 3.938246
1169.090, 4.300373
1169.572, 4.474957
1170.054, 4.509139
1170.536, 4.692524
1171.018, 5.017278
1171.500, 5.407136
1171.983, 5.869350
1172.465, 6.184495
1172.947, 6.268933
1173.429, 6.407306
1173.911, 6.839520
1174.393, 7.389793
1174.875, 7.744589
1175.357, 7.968990
1175.839, 8.252683
1176.322, 8.575418
1176.804, 8.822534
1177.286, 8.986965
1177.768, 9.197621
1178.250, 9.536894
1178.732, 9.860202
1179.214, 10.03794
1179.696, 10.14580
1180.178, 10.11184
1180.661, 10.10878
1181.143, 10.49165
1181.625, 11.08127
1182.107, 11.51234
1182.589, 11.71243
1183.071, 11.70463
1183.553, 11.39273
1184.035, 11.28358
1184.518, 11.95987
1185.000, 12.65808
1185.482, 12.88882
1185.964, 12.81687
1186.446, 12.45190
1186.928, 11.99975
1187.410, 11.92921
1187.892, 12.33167
1188.375, 12.50868
1188.857, 12.03306
1189.339, 11.71084
1189.821, 11.96687
1190.303, 12.10581
1190.785, 11.65972
1191.267, 11.02995
1191.749, 10.60707
1192.231, 10.37329
1192.714, 10.28471
1193.196, 10.44784
1193.678, 10.32511
1194.160, 9.765429
1194.642, 9.343491
1195.124, 9.217938
1195.606, 9.113218
1196.088, 8.876908
1196.570, 8.564051
1197.053, 8.242313
1197.535, 7.918743
1198.017, 7.626638
1198.499, 7.367197
1198.981, 7.128675
1199.463, 6.909195
1199.945, 6.714783
1200.427, 6.543697
1200.910, 6.358993
1201.392, 6.134470
1201.874, 5.875648
1202.356, 5.551727
1202.838, 5.220392
1203.320, 5.042629
1203.802, 4.944337
1204.284, 4.730008
1204.766, 4.426866
1205.249, 4.230362
1205.731, 4.181651
1206.213, 4.061993
1206.695, 3.669726
1207.177, 3.323732
1207.659, 3.341300
1208.141, 3.436915
1208.623, 3.329552
1209.105, 3.171610
1209.588, 3.218669
1210.070, 3.396976
1210.552, 3.434991
1211.034, 3.271016
1211.516, 3.012047
1211.998, 2.534507
1212.480, 2.179699
1212.962, 2.100679
1213.445, 2.082605
1213.927, 2.028416
1214.409, 1.965044
1214.891, 1.948164
1215.373, 1.945763
1215.855, 1.792516
1216.337, 1.402071
1216.819, 1.267511
1217.302, 1.479522
1217.784, 1.589857
1218.266, 1.492481
1218.748, 1.357261
1219.230, 1.281195
1219.712, 1.188572
1220.194, 0.9610080
1220.676, 0.6677930
1221.158, 0.5799990
1221.641, 0.6349960
1222.123, 0.4249770
1222.605, 1.2824000E-02
1223.087, 0.1159830
1223.569, 0.1106380
1224.051, 0.3180400
1224.533, 0.2972760
1225.015, 0.1903470
1225.497, 0.1048820
1225.980, 4.6287000E-02
1226.462, 6.2231001E-02
1226.944, 7.7230997E-02
1227.426, 7.0866004E-02
1227.908, 0.2741210
1228.390, 0.2670440
1228.872, 4.4964999E-02
1229.354, 0.1225430
1229.837, 0.1151920
1230.319, 4.0497001E-02
1230.801, 0.1545230
1231.283, 0.2924180
1231.765, 0.2385720
1232.247, 0.1572120
1232.729, 0.1812350
1233.211, 0.2645900
1233.693, 0.3456930
1234.176, 0.4197720
1234.658, 0.3239390
1235.140, 6.2445998E-02
1235.622, 0.2422120
1236.104, 0.1453440
1236.586, 1.2047000E-02
1237.068, 9.7585998E-02
1237.550, 0.1940510
1238.032, 0.2991500
1238.515, 0.3263200
1238.997, 7.3536001E-02
1239.479, 0.3470980
1239.961, 0.4290070
1240.443, 0.2646340
1240.925, 0.3094380
1241.407, 0.5419110
1241.889, 0.6197380
1242.372, 0.4702530
1242.854, 0.3333340
1243.336, 0.3453840
1243.818, 0.4883770
1244.300, 0.8247870
1244.782, 1.201633
1245.264, 1.491155
1245.746, 1.717444
1246.229, 1.880897
1246.711, 2.021276
1247.193, 2.223989
1247.675, 2.489204
1248.157, 2.674936
1248.639, 2.655534
1249.121, 2.739557
1249.603, 3.075003
1250.085, 3.390517
1250.568, 3.599813
1251.050, 3.759161
1251.532, 3.868097
1252.014, 3.984857
1252.496, 4.209896
1252.978, 4.535128
1253.460, 4.953979
1253.942, 5.480330
1254.424, 5.910379
1254.907, 6.176857
1255.389, 6.392155
1255.871, 6.526201
1256.353, 6.687888
1256.835, 6.975767
1257.317, 7.289406
1257.799, 7.663082
1258.281, 8.114327
1258.764, 8.536109
1259.246, 8.829005
1259.728, 8.835752
1260.210, 8.639438
1260.692, 8.669805
1261.174, 9.073593
1261.656, 9.269933
1262.138, 9.001820
1262.620, 8.649170
1263.103, 8.576758
1263.585, 8.499080
1264.067, 8.267175
1264.549, 7.991072
1265.031, 7.719272
1265.513, 7.463610
1265.995, 7.205145
1266.477, 6.932643
1266.959, 6.669377
1267.442, 6.457533
1267.924, 6.024817
1268.406, 5.258110
1268.888, 4.848864
1269.370, 4.989380
1269.852, 4.982752
1270.334, 4.468528
1270.816, 3.810797
1271.299, 3.379358
1271.781, 3.115660
1272.263, 2.934124
1272.745, 2.813587
1273.227, 2.725859
1273.709, 2.658602
1274.191, 2.585743
1274.673, 2.500484
1275.156, 2.387550
1275.638, 2.238071
1276.120, 2.047922
1276.602, 1.736969
1277.084, 1.516632
1277.566, 1.628454
1278.048, 1.701523
1278.530, 1.464218
1279.012, 1.125847
1279.495, 0.8318120
1279.977, 0.6313380
1280.459, 0.6307260
1280.941, 0.8330630
1281.423, 0.9611190
1281.905, 1.053583
1282.387, 0.8970280
1282.869, 0.4128530
1283.351, 8.7560996E-02
1283.834, 7.6164000E-02
1284.316, 0.1871300
1284.798, 0.3136290
1285.280, 0.3598750
1285.762, 0.2249600
1286.244, 0.0000000E+00
##END=



