##NAMES=Szaibelyite
##RRUFFID=R060289
##IDEAL CHEMISTRY=MgBO_2_(OH)
##LOCALITY=Franklin, Sussex County, New Jersey, USA
##OWNER=RRUFF
##SOURCE=Herb Obodda
##DESCRIPTION=Pink massive, associated with rhodochrosite.
##STATUS=The identification of this mineral has been confirmed by X-ray diffraction and chemical analysis
##URL=rruff.info/R060289
##MEASURED CHEMISTRY=gray phase: (Mg_0.66_Mn^2+^_0.34_)_Σ=1_BO_2_(OH); B and OH assumed by stoichiometry; light rim: (Mn^2+^_0.70_Ca_0.18_Mg_0.12_)_Σ=1_CO_3_ is rhodochrosite; CO_2_ estimated by difference
148.2791, 0.0000000E+00
148.7612, 4.4532999E-02
149.2433, 0.4272690
149.7254, 0.6611100
150.2075, 0.5255580
150.6896, 0.4080350
151.1718, 0.4622420
151.6539, 0.9131470
152.1360, 1.218910
152.6181, 1.331360
153.1002, 1.310356
153.5823, 1.246994
154.0645, 1.054611
154.5466, 1.006523
155.0287, 0.9915770
155.5108, 1.093056
155.9929, 1.174477
156.4750, 1.243996
156.9572, 1.280449
157.4393, 1.266304
157.9214, 1.162415
158.4035, 0.7343750
158.8856, 0.4067310
159.3677, 0.3016360
159.8499, 0.2371370
160.3320, 0.1113590
160.8141, 4.5547001E-02
161.2962, 4.1435000E-02
161.7783, 0.3959350
162.2604, 0.9282530
162.7426, 1.276482
163.2247, 1.260704
163.7068, 1.131180
164.1889, 0.9792250
164.6710, 0.8064880
165.1531, 0.6065600
165.6353, 0.3118520
166.1174, 9.1930004E-03
166.5995, 0.2079390
167.0816, 0.4049380
167.5637, 0.4355470
168.0458, 6.4217001E-02
168.5280, 0.7026900
169.0101, 1.320625
169.4922, 1.313477
169.9743, 0.9617390
170.4564, 0.6553040
170.9385, 0.6027600
171.4207, 0.6339110
171.9028, 0.5634310
172.3849, 0.3768160
172.8670, 0.2709730
173.3491, 0.5272370
173.8312, 0.9693830
174.3134, 1.261147
174.7955, 1.067795
175.2776, 0.7194140
175.7597, 0.6466370
176.2418, 0.8998640
176.7239, 1.182404
177.2061, 1.203102
177.6882, 1.033638
178.1703, 0.8679430
178.6524, 0.8200840
179.1345, 0.8305590
179.6166, 0.7656100
180.0988, 0.5928800
180.5809, 0.4754260
181.0630, 0.6551280
181.5451, 1.071556
182.0272, 1.472939
182.5093, 1.732002
182.9915, 1.884369
183.4736, 1.991318
183.9557, 2.042969
184.4378, 2.105278
184.9199, 2.242599
185.4020, 2.455704
185.8842, 2.781174
186.3663, 3.440765
186.8484, 4.267654
187.3305, 4.535271
187.8126, 4.069672
188.2947, 3.366005
188.7769, 3.277603
189.2590, 3.776939
189.7411, 4.289642
190.2232, 4.417458
190.7053, 4.249191
191.1874, 4.289185
191.6696, 4.627708
192.1517, 5.125702
192.6338, 5.574760
193.1159, 5.978531
193.5980, 6.250923
194.0801, 6.267174
194.5623, 6.050552
195.0444, 5.930962
195.5265, 5.932449
196.0086, 6.050842
196.4907, 6.363571
196.9728, 6.908989
197.4550, 7.324631
197.9371, 7.236862
198.4192, 6.631348
198.9013, 6.459991
199.3834, 6.914253
199.8655, 7.731804
200.3477, 8.292091
200.8298, 8.559036
201.3119, 8.721985
201.7940, 8.896576
202.2761, 9.089516
202.7582, 9.224152
203.2404, 9.291176
203.7225, 9.299385
204.2046, 9.283905
204.6867, 9.262100
205.1688, 9.159981
205.6509, 8.889984
206.1331, 8.406136
206.6152, 8.050499
207.0973, 7.919395
207.5794, 7.899643
208.0615, 7.614128
208.5436, 6.985123
209.0258, 6.292976
209.5079, 5.650894
209.9900, 5.000000
210.4721, 4.726173
210.9542, 5.038940
211.4363, 5.687943
211.9185, 5.752769
212.4006, 4.984108
212.8827, 4.164360
213.3648, 3.820267
213.8469, 4.099152
214.3290, 4.301239
214.8112, 4.403801
215.2933, 4.384537
215.7754, 4.120697
216.2575, 3.470650
216.7396, 2.844040
217.2217, 2.515961
217.7039, 2.611580
218.1860, 2.617538
218.6681, 2.471664
219.1502, 2.220520
219.6323, 2.005508
220.1144, 1.812881
220.5966, 1.654564
221.0787, 1.551315
221.5608, 1.543541
222.0429, 1.479263
222.5250, 1.321671
223.0071, 1.105515
223.4893, 0.9636760
223.9714, 0.9226300
224.4535, 0.9021610
224.9356, 0.8850330
225.4177, 0.9469300
225.8998, 0.8677440
226.3820, 0.4952010
226.8641, 3.5918999E-02
227.3462, 0.2039110
227.8283, 0.2160260
228.3104, 0.6541750
228.7925, 0.7876360
229.2747, 0.4115830
229.7568, 0.2091370
230.2389, 0.2989650
230.7210, 0.5605470
231.2031, 0.5875240
231.6852, 0.2261120
232.1674, 0.1426320
232.6495, 0.3448260
233.1316, 0.3849870
233.6137, 0.2274550
234.0958, 0.2625580
234.5779, 0.9217760
235.0601, 1.271034
235.5422, 1.179100
236.0243, 0.9735570
236.5064, 0.7724610
236.9885, 0.4877320
237.4706, 0.4213030
237.9528, 0.7060320
238.4349, 1.173691
238.9170, 1.381683
239.3991, 1.155022
239.8812, 0.9303820
240.3633, 0.9221570
240.8455, 1.315536
241.3276, 1.438965
241.8097, 1.085846
242.2918, 0.5375670
242.7739, 0.4539180
243.2560, 1.156044
243.7382, 1.827316
244.2203, 2.157356
244.7024, 2.053528
245.1845, 1.854584
245.6666, 1.471573
246.1487, 1.036842
246.6309, 0.8021240
247.1130, 0.8309480
247.5951, 0.9579320
248.0772, 1.148232
248.5593, 1.445320
249.0414, 1.653130
249.5236, 1.776978
250.0057, 1.806976
250.4878, 1.695335
250.9699, 1.286888
251.4520, 1.016899
251.9341, 1.092148
252.4163, 1.640923
252.8984, 1.865196
253.3805, 1.546127
253.8626, 1.070702
254.3447, 1.049324
254.8268, 1.726845
255.3090, 2.358330
255.7911, 2.720398
256.2732, 2.786469
256.7553, 2.833778
257.2374, 2.881676
257.7195, 2.891838
258.2017, 2.783180
258.6838, 2.432800
259.1659, 2.246445
259.6480, 2.361000
260.1301, 2.787804
260.6122, 3.178673
261.0944, 3.543510
261.5765, 3.862213
262.0586, 4.091110
262.5407, 4.165115
263.0228, 4.342476
263.5049, 4.759544
263.9871, 5.398422
264.4692, 5.642586
264.9513, 5.309006
265.4334, 4.878654
265.9155, 4.813347
266.3976, 5.219971
266.8798, 5.632240
267.3619, 5.961861
267.8440, 6.224739
268.3261, 6.525497
268.8082, 6.869652
269.2903, 7.237778
269.7725, 7.664490
270.2546, 8.210968
270.7367, 8.478127
271.2188, 8.276337
271.7009, 7.772995
272.1830, 7.703270
272.6652, 8.158600
273.1473, 8.798309
273.6294, 9.477013
274.1115, 10.24235
274.5936, 10.68546
275.0757, 10.63715
275.5579, 10.33484
276.0400, 10.54227
276.5221, 11.41652
277.0042, 12.28913
277.4863, 12.70912
277.9684, 12.63726
278.4506, 12.49158
278.9327, 12.27688
279.4148, 12.05982
279.8969, 11.98546
280.3790, 12.10036
280.8611, 12.25944
281.3433, 12.36870
281.8254, 12.43106
282.3075, 12.49577
282.7896, 12.57960
283.2717, 12.68560
283.7538, 12.89894
284.2360, 13.24256
284.7181, 13.39854
285.2002, 13.07647
285.6823, 12.36497
286.1644, 12.00938
286.6465, 12.04894
287.1287, 12.29589
287.6108, 12.59230
288.0929, 12.92780
288.5750, 13.15979
289.0571, 13.21344
289.5392, 13.11691
290.0214, 12.91499
290.5035, 12.58129
290.9856, 12.33411
291.4677, 12.45793
291.9498, 12.90816
292.4319, 13.41965
292.9141, 14.04731
293.3962, 14.62764
293.8783, 14.65131
294.3604, 14.12090
294.8425, 13.51402
295.3246, 13.23085
295.8068, 13.20193
296.2889, 13.19463
296.7710, 13.13929
297.2531, 13.09642
297.7352, 13.14912
298.2173, 13.29736
298.6995, 13.55029
299.1816, 14.14594
299.6637, 14.83160
300.1458, 14.98789
300.6279, 14.34743
301.1100, 13.49203
301.5922, 13.16307
302.0743, 13.26081
302.5564, 13.38510
303.0385, 13.30155
303.5206, 13.09618
304.0027, 12.86472
304.4849, 12.59950
304.9670, 12.39451
305.4491, 12.45996
305.9312, 12.66831
306.4133, 12.71405
306.8954, 12.35153
307.3776, 11.80460
307.8597, 11.28024
308.3418, 10.78780
308.8239, 10.33807
309.3060, 10.00490
309.7881, 9.707344
310.2703, 9.327713
310.7524, 8.562119
311.2345, 7.880539
311.7166, 7.778099
312.1987, 8.233345
312.6808, 8.525581
313.1630, 8.074753
313.6451, 7.312668
314.1272, 6.701225
314.6093, 6.628807
315.0914, 6.522598
315.5735, 5.967247
316.0557, 5.071060
316.5378, 4.412308
317.0199, 4.389870
317.5020, 4.610115
317.9841, 4.799614
318.4662, 4.938637
318.9484, 4.972221
319.4305, 4.856255
319.9126, 4.618797
320.3947, 4.332947
320.8768, 3.942513
321.3589, 3.568283
321.8411, 3.267212
322.3232, 3.055756
322.8053, 2.902802
323.2874, 2.874825
323.7695, 2.888794
324.2516, 2.813271
324.7338, 2.515556
325.2159, 2.228516
325.6980, 2.019798
326.1801, 1.899055
326.6622, 1.825508
327.1443, 1.927132
327.6265, 2.018204
328.1086, 1.909424
328.5907, 1.340088
329.0728, 0.8629610
329.5549, 0.5707630
330.0370, 0.4646760
330.5192, 0.4040910
331.0013, 0.3845670
331.4834, 0.4141770
331.9655, 0.5236130
332.4476, 0.9335940
332.9297, 1.024719
333.4119, 0.5627750
333.8940, 0.2787400
334.3761, 0.7138520
334.8582, 0.5818710
335.3403, 0.2899930
335.8224, 9.5370002E-03
336.3046, 0.4198150
336.7867, 0.4837650
337.2688, 1.7700000E-02
337.7509, 0.6661380
338.2330, 0.8865200
338.7151, 0.4850770
339.1973, 0.1150510
339.6794, 9.4802998E-02
340.1615, 0.4526140
340.6436, 0.4785610
341.1257, 6.3460998E-02
341.6078, 0.4494170
342.0900, 0.6105800
342.5721, 0.3986510
343.0542, 9.5656998E-02
343.5363, 0.2964630
344.0184, 0.7117840
344.5005, 0.7283710
344.9827, 0.3005070
345.4648, 0.1943970
345.9469, 0.4088670
346.4290, 0.3738020
346.9111, 0.3117600
347.3932, 0.2350390
347.8754, 0.1908190
348.3575, 0.3434450
348.8396, 0.6668780
349.3217, 0.8832090
349.8038, 0.6408310
350.2859, 0.1550900
350.7681, 5.9130001E-03
351.2502, 0.2782210
351.7323, 0.6788860
352.2144, 0.7972180
352.6965, 0.7165070
353.1786, 0.6847760
353.6608, 0.9696660
354.1429, 1.308105
354.6250, 1.283829
355.1071, 0.8679890
355.5892, 0.5273360
356.0714, 0.7282100
356.5535, 1.215469
357.0356, 1.612694
357.5177, 1.804314
357.9998, 1.842178
358.4819, 1.653931
358.9641, 1.290550
359.4462, 1.041916
359.9283, 1.124496
360.4104, 1.351318
360.8925, 1.582809
361.3746, 1.854744
361.8568, 2.008423
362.3389, 1.822113
362.8210, 1.465492
363.3031, 1.320374
363.7852, 1.834244
364.2673, 2.322762
364.7495, 2.410088
365.2316, 1.914680
365.7137, 1.543449
366.1958, 1.479675
366.6779, 1.598907
367.1600, 1.754623
367.6422, 1.964905
368.1243, 2.175026
368.6064, 2.395393
369.0885, 2.630013
369.5706, 2.780922
370.0527, 2.787918
370.5349, 2.760048
371.0170, 2.780479
371.4991, 2.989891
371.9812, 3.001389
372.4633, 2.693245
372.9454, 2.172173
373.4276, 1.805702
373.9097, 1.580894
374.3918, 1.529709
374.8739, 1.725845
375.3560, 2.273918
375.8381, 2.604172
376.3203, 2.680435
376.8024, 2.581253
377.2845, 2.378708
377.7666, 2.040833
378.2487, 1.776421
378.7308, 1.648331
379.2130, 1.651184
379.6951, 1.808403
380.1772, 2.152557
380.6593, 2.493713
381.1414, 2.676376
381.6235, 2.698685
382.1057, 2.536316
382.5878, 2.082184
383.0699, 1.580856
383.5520, 1.567192
384.0341, 1.999382
384.5162, 2.449013
384.9984, 2.750763
385.4805, 2.862694
385.9626, 2.601326
386.4447, 1.877113
386.9268, 1.165604
387.4089, 1.020393
387.8911, 1.259041
388.3732, 1.476318
388.8553, 1.320549
389.3374, 1.166588
389.8195, 1.544090
390.3016, 2.405571
390.7838, 3.020828
391.2659, 2.734291
391.7480, 2.033730
392.2301, 1.421829
392.7122, 1.103874
393.1943, 0.9230960
393.6765, 0.8150330
394.1586, 0.7767640
394.6407, 0.8142320
395.1228, 1.017860
395.6049, 1.185051
396.0870, 1.276733
396.5692, 1.340271
397.0513, 1.296974
397.5334, 0.9439470
398.0155, 0.4866870
398.4976, 0.2331090
398.9797, 0.5431590
399.4619, 0.7428360
399.9440, 0.5834660
400.4261, 6.6986002E-02
400.9082, 0.1411820
401.3903, 0.2319640
401.8724, 0.6175540
402.3546, 0.6526260
402.8367, 0.1266710
403.3188, 0.2109530
403.8009, 0.3220060
404.2830, 0.2553630
404.7651, 8.8477999E-02
405.2473, 0.2449950
405.7294, 0.4787830
406.2115, 0.4332430
406.6936, 9.0461999E-02
407.1757, 6.8253003E-02
407.6578, 0.4621810
408.1400, 0.9148100
408.6221, 0.9506610
409.1042, 0.6003950
409.5863, 0.3949200
410.0684, 0.5433120
410.5505, 0.8724750
411.0327, 0.9511180
411.5148, 0.7867200
411.9969, 0.6080930
412.4790, 0.5845410
412.9611, 0.6675490
413.4432, 0.7402270
413.9254, 0.7848210
414.4075, 0.8317720
414.8896, 0.9424900
415.3717, 1.083084
415.8538, 1.172066
416.3359, 1.098587
416.8181, 1.001297
417.3002, 0.9948120
417.7823, 1.081764
418.2644, 1.237892
418.7465, 1.559990
419.2286, 1.894783
419.7108, 2.082558
420.1929, 1.959106
420.6750, 1.850418
421.1571, 1.901207
421.6392, 2.061684
422.1213, 2.202271
422.6035, 2.413101
423.0856, 2.490585
423.5677, 2.291626
424.0498, 1.680122
424.5319, 1.254059
425.0140, 1.193367
425.4962, 1.274918
425.9783, 1.267517
426.4604, 1.016212
426.9425, 0.9154590
427.4246, 1.125267
427.9067, 1.571770
428.3889, 1.690994
428.8710, 1.324005
429.3531, 0.9120250
429.8352, 0.6859890
430.3173, 0.6670300
430.7994, 0.7668690
431.2816, 1.034424
431.7637, 1.334488
432.2458, 1.425194
432.7279, 1.294334
433.2100, 1.141602
433.6921, 1.037445
434.1743, 0.9635770
434.6564, 0.8525010
435.1385, 0.7013240
435.6206, 0.5476530
436.1027, 0.4352720
436.5848, 0.3460690
437.0670, 0.2094420
437.5491, 2.5681000E-02
438.0312, 0.2143780
438.5133, 0.1686780
438.9954, 6.0341001E-02
439.4775, 0.3292390
439.9597, 0.6855700
440.4418, 0.9745100
440.9239, 1.012054
441.4060, 0.7884060
441.8881, 0.5516970
442.3702, 0.4510800
442.8524, 0.4051900
443.3345, 0.3333890
443.8166, 0.1495590
444.2987, 1.1848000E-02
444.7808, 1.9301999E-02
445.2629, 3.2822002E-02
445.7451, 0.1021650
446.2272, 0.2486650
446.7093, 0.3424450
447.1914, 0.3222580
447.6735, 0.1487200
448.1556, 3.2852001E-02
448.6378, 0.4302830
449.1199, 0.6959300
449.6020, 0.3917540
450.0841, 0.9638210
450.5662, 1.846375
451.0483, 1.872688
451.5305, 1.258316
452.0126, 1.000031
452.4947, 1.207817
452.9768, 1.425095
453.4589, 1.337990
453.9410, 0.9338460
454.4232, 0.7698440
454.9053, 0.8929370
455.3874, 1.131996
455.8695, 1.285805
456.3516, 1.362801
456.8337, 1.417740
457.3159, 1.438972
457.7980, 1.473839
458.2801, 1.672058
458.7622, 1.994751
459.2443, 2.229950
459.7264, 2.097992
460.2086, 1.825562
460.6907, 1.735344
461.1728, 1.904099
461.6549, 2.076889
462.1370, 2.014938
462.6191, 1.863564
463.1013, 1.827904
463.5834, 2.131805
464.0655, 2.426384
464.5476, 2.507828
465.0297, 2.404594
465.5118, 2.388458
465.9940, 2.539856
466.4761, 2.790314
466.9582, 3.119530
467.4403, 3.678818
467.9224, 4.040283
468.4045, 4.078072
468.8867, 3.964508
469.3688, 3.950951
469.8509, 4.119041
470.3330, 4.233635
470.8151, 4.192192
471.2972, 4.027222
471.7794, 4.103050
472.2615, 4.490845
472.7436, 4.930298
473.2257, 5.257462
473.7078, 5.472687
474.1899, 5.579834
474.6721, 5.533257
475.1542, 5.507942
475.6363, 5.785652
476.1184, 6.334778
476.6005, 6.968399
477.0826, 7.788628
477.5648, 8.540985
478.0469, 8.631271
478.5290, 8.140472
479.0111, 7.801849
479.4932, 8.297195
479.9753, 9.164818
480.4575, 9.892982
480.9396, 10.40725
481.4217, 10.72106
481.9038, 10.69757
482.3859, 10.50586
482.8680, 10.39384
483.3502, 10.33976
483.8323, 10.47829
484.3144, 10.99264
484.7965, 11.83934
485.2786, 12.47221
485.7607, 12.83382
486.2429, 12.93025
486.7250, 12.73820
487.2071, 12.05928
487.6892, 11.52047
488.1713, 11.15031
488.6534, 10.91553
489.1356, 10.78529
489.6177, 10.81657
490.0998, 10.69016
490.5819, 10.28892
491.0640, 9.702385
491.5461, 9.288269
492.0283, 9.044685
492.5104, 8.770752
492.9925, 8.276772
493.4746, 7.614494
493.9567, 7.065552
494.4388, 6.630447
494.9210, 6.364639
495.4031, 6.510429
495.8852, 6.873032
496.3673, 6.968651
496.8494, 6.398468
497.3315, 5.719238
497.8137, 5.386978
498.2958, 5.314034
498.7779, 5.336212
499.2600, 5.392937
499.7421, 5.481445
500.2242, 5.627434
500.7064, 5.870209
501.1885, 6.024628
501.6706, 6.015404
502.1527, 5.888939
502.6348, 5.699982
503.1169, 5.190948
503.5991, 4.941528
504.0812, 5.134789
504.5633, 5.656960
505.0454, 6.047554
505.5275, 6.197426
506.0096, 6.374603
506.4918, 6.757835
506.9739, 7.397438
507.4560, 7.511009
507.9381, 6.991470
508.4202, 6.354416
508.9023, 6.073105
509.3845, 6.083801
509.8666, 6.167740
510.3487, 6.326775
510.8308, 6.564194
511.3129, 6.957367
511.7950, 7.433113
512.2772, 7.698792
512.7593, 7.362785
513.2414, 6.882324
513.7235, 6.841347
514.2056, 7.214233
514.6877, 7.512230
515.1699, 7.361633
515.6520, 7.041046
516.1341, 6.805901
516.6162, 6.775909
517.0983, 6.705009
517.5804, 6.509705
518.0626, 6.220604
518.5447, 5.888428
519.0268, 5.386757
519.5089, 4.995155
519.9910, 4.790688
520.4731, 4.753815
520.9553, 4.747482
521.4374, 4.828239
521.9195, 4.873055
522.4016, 4.807068
522.8837, 4.615387
523.3658, 4.415901
523.8480, 4.238953
524.3301, 3.993980
524.8122, 3.458260
525.2943, 2.664146
525.7764, 2.109276
526.2585, 1.989738
526.7407, 2.116112
527.2228, 2.196121
527.7049, 2.226204
528.1870, 2.184502
528.6691, 1.932381
529.1512, 1.664986
529.6334, 1.720215
530.1155, 2.136780
530.5976, 2.336006
531.0797, 1.605377
531.5618, 0.6584090
532.0439, 0.2262730
532.5261, 0.8898390
533.0082, 1.496933
533.4903, 1.834511
533.9724, 1.913605
534.4545, 1.759972
534.9366, 0.9718780
535.4188, 0.4178010
535.9009, 0.3583830
536.3830, 0.7818450
536.8651, 1.168884
537.3472, 1.563606
537.8293, 1.838814
538.3115, 1.869400
538.7936, 1.636826
539.2757, 1.440247
539.7578, 1.294670
540.2399, 1.190010
540.7220, 1.114174
541.2042, 1.067413
541.6863, 1.051422
542.1684, 1.095459
542.6505, 1.134537
543.1326, 1.059128
543.6147, 0.8921890
544.0969, 0.7202910
544.5790, 0.6285550
545.0611, 0.5320740
545.5432, 0.3160780
546.0253, 3.8162000E-02
546.5074, 0.2821810
546.9896, 0.1985400
547.4717, 2.2057001E-02
547.9538, 5.3055000E-02
548.4359, 0.2429200
548.9180, 0.3128810
549.4001, 4.1618001E-02
549.8823, 0.6018300
550.3644, 1.009918
550.8465, 1.276840
551.3286, 1.370323
551.8107, 1.227211
552.2928, 0.8898700
552.7750, 0.7044750
553.2571, 0.7102200
553.7392, 0.6726910
554.2213, 0.2772140
554.7034, 0.3505170
555.1855, 0.3862080
555.6677, 0.2748110
556.1498, 1.033653
556.6319, 1.288620
557.1140, 1.166092
557.5961, 0.8938220
558.0782, 0.4339980
558.5604, 1.7181000E-02
559.0425, 0.1496580
559.5246, 0.1304020
560.0067, 6.3339002E-02
560.4888, 9.1415003E-02
560.9709, 0.1938250
561.4531, 0.1409070
561.9352, 6.8664998E-02
562.4173, 0.2123720
562.8994, 0.2325670
563.3815, 0.1997680
563.8636, 0.1164250
564.3458, 0.1422120
564.8279, 6.1829001E-02
565.3100, 0.5802920
565.7921, 1.281395
566.2742, 1.284782
566.7563, 0.4978180
567.2385, 6.0608000E-02
567.7206, 0.1118010
568.2027, 0.1125950
568.6848, 8.2801998E-02
569.1669, 0.1603930
569.6490, 0.3072740
570.1312, 5.4306000E-02
570.6133, 0.3314670
571.0954, 0.4615710
571.5775, 0.3380130
572.0596, 0.1113970
572.5417, 0.2370990
573.0239, 0.5790100
573.5060, 0.7947390
573.9881, 0.8441850
574.4702, 0.8276670
574.9523, 0.7677080
575.4344, 0.6614990
575.9166, 0.5044630
576.3987, 0.1690750
576.8808, 5.0026000E-02
577.3629, 0.1251600
577.8450, 6.2119000E-02
578.3271, 0.1674040
578.8093, 0.6661070
579.2914, 1.014610
579.7735, 0.9391480
580.2556, 0.5232470
580.7377, 0.4532090
581.2198, 0.7520220
581.7020, 1.145119
582.1841, 1.531548
582.6662, 1.826469
583.1483, 1.755867
583.6304, 1.221657
584.1125, 0.6653520
584.5947, 0.4802630
585.0768, 0.5243990
585.5589, 0.5884250
586.0410, 0.5110090
586.5231, 0.5436860
587.0052, 0.9413830
587.4874, 1.542450
587.9695, 1.903778
588.4516, 1.776917
588.9337, 1.570381
589.4158, 1.312019
589.8979, 0.9987720
590.3801, 1.087585
590.8622, 1.785309
591.3443, 2.517174
591.8264, 2.885857
592.3085, 2.864937
592.7906, 2.937462
593.2728, 3.151100
593.7549, 3.331429
594.2370, 3.117859
594.7191, 2.663483
595.2012, 2.612335
595.6833, 3.277054
596.1655, 4.090012
596.6476, 4.409882
597.1297, 4.391563
597.6118, 4.402573
598.0939, 4.628487
598.5760, 4.913322
599.0582, 5.170937
599.5403, 5.403755
600.0224, 5.687546
600.5045, 6.091965
600.9866, 6.508492
601.4688, 6.894936
601.9509, 7.249336
602.4330, 7.576408
602.9151, 7.827362
603.3972, 8.114632
603.8793, 8.585670
604.3615, 9.276627
604.8436, 9.748566
605.3257, 9.912437
605.8078, 9.922241
606.2899, 9.890228
606.7720, 9.876991
607.2542, 10.15861
607.7363, 11.05412
608.2184, 12.01452
608.7005, 12.34242
609.1826, 12.17206
609.6647, 11.95760
610.1469, 11.91260
610.6290, 11.90959
611.1111, 11.84667
611.5932, 11.71389
612.0753, 11.68636
612.5574, 11.82317
613.0396, 12.03864
613.5217, 12.29052
614.0038, 12.49550
614.4859, 12.88326
614.9680, 13.59682
615.4501, 14.29903
615.9323, 14.43365
616.4144, 13.93649
616.8965, 13.94519
617.3786, 14.83486
617.8607, 16.05464
618.3428, 16.62975
618.8250, 16.67807
619.3071, 16.71483
619.7892, 16.99001
620.2713, 17.35031
620.7534, 17.71414
621.2355, 18.06358
621.7177, 18.28068
622.1998, 18.06865
622.6819, 17.90394
623.1640, 18.17353
623.6461, 19.04790
624.1282, 19.38069
624.6104, 18.65686
625.0925, 17.78264
625.5746, 17.31220
626.0567, 17.41518
626.5388, 17.39576
627.0209, 17.25851
627.5031, 16.97600
627.9852, 16.45330
628.4673, 15.68782
628.9494, 14.95633
629.4315, 14.30912
629.9136, 13.79329
630.3958, 13.58392
630.8779, 13.56630
631.3600, 13.43195
631.8421, 12.85621
632.3242, 12.25086
632.8063, 11.94633
633.2885, 11.90452
633.7706, 11.87144
634.2527, 11.79011
634.7348, 11.66277
635.2169, 11.49110
635.6990, 11.28236
636.1812, 11.05176
636.6633, 10.74204
637.1454, 10.46619
637.6275, 10.36388
638.1096, 10.49621
638.5917, 10.30580
639.0739, 9.670593
639.5560, 8.986664
640.0381, 8.839027
640.5202, 9.099281
641.0023, 9.178932
641.4844, 8.832710
641.9666, 8.447472
642.4487, 8.510864
642.9308, 8.844009
643.4129, 9.055290
643.8950, 8.806190
644.3771, 8.569244
644.8593, 8.633957
645.3414, 8.931633
645.8235, 9.075378
646.3056, 8.872131
646.7877, 8.640450
647.2698, 8.491890
647.7520, 8.430771
648.2341, 8.265793
648.7162, 7.949257
649.1983, 7.658272
649.6804, 7.565933
650.1625, 7.642761
650.6447, 7.603745
651.1268, 7.425209
651.6089, 7.200829
652.0910, 7.054230
652.5731, 6.925896
653.0552, 6.674500
653.5374, 6.170570
654.0195, 5.779808
654.5016, 5.858353
654.9837, 6.153908
655.4658, 6.295525
655.9479, 6.064125
656.4301, 5.815216
656.9122, 5.621368
657.3943, 5.460251
657.8764, 5.251282
658.3585, 4.933876
658.8406, 4.711754
659.3228, 4.673592
659.8049, 4.779175
660.2870, 4.842682
660.7691, 4.862640
661.2512, 4.824448
661.7333, 4.708130
662.2155, 4.528160
662.6976, 4.295898
663.1797, 4.013000
663.6618, 3.736473
664.1439, 3.448944
664.6260, 3.220116
665.1082, 3.144737
665.5903, 3.312317
666.0724, 3.400696
666.5545, 3.226318
667.0366, 2.974144
667.5187, 2.802689
668.0009, 2.746490
668.4830, 2.722900
668.9651, 2.783997
669.4472, 2.814018
669.9293, 2.536697
670.4114, 1.946625
670.8936, 1.610535
671.3757, 1.802063
671.8578, 2.187691
672.3399, 2.105988
672.8220, 1.677811
673.3041, 1.354485
673.7863, 1.393272
674.2684, 1.589546
674.7505, 1.927177
675.2326, 2.340538
675.7147, 2.494560
676.1968, 1.980446
676.6790, 1.478401
677.1611, 1.335693
677.6432, 1.585129
678.1253, 1.631500
678.6074, 1.401024
679.0895, 1.148880
679.5717, 0.9998780
680.0538, 0.9511180
680.5359, 1.140633
681.0180, 1.618820
681.5001, 1.964790
681.9822, 1.558624
682.4644, 0.7638320
682.9465, 0.3733980
683.4286, 0.6178130
683.9107, 0.9215850
684.3928, 0.9187930
684.8749, 0.7608030
685.3571, 0.6288830
685.8392, 0.4797970
686.3213, 0.4740140
686.8034, 0.7357640
687.2855, 1.122375
687.7676, 1.412621
688.2498, 1.608681
688.7319, 1.698097
689.2140, 1.632286
689.6961, 1.500298
690.1782, 1.608910
690.6603, 1.948830
691.1425, 2.154106
691.6246, 1.998863
692.1067, 1.717278
692.5888, 1.626205
693.0709, 1.719887
693.5530, 1.976028
694.0352, 2.704445
694.5173, 3.328033
694.9994, 3.330803
695.4815, 2.662933
695.9636, 2.373360
696.4457, 2.821381
696.9279, 3.484970
697.4100, 4.206657
697.8921, 5.058540
698.3742, 5.519264
698.8563, 5.507393
699.3384, 5.320488
699.8206, 5.230202
700.3027, 5.205673
700.7848, 5.051544
701.2669, 4.722267
701.7490, 4.417549
702.2311, 4.359261
702.7133, 4.441742
703.1954, 4.555672
703.6775, 4.843094
704.1596, 4.795677
704.6417, 3.862305
705.1238, 2.614296
705.6060, 1.860001
706.0881, 1.911972
706.5702, 1.940094
707.0523, 1.860130
707.5344, 1.740303
708.0165, 1.764687
708.4987, 1.950821
708.9808, 2.002647
709.4629, 1.805817
709.9450, 1.456970
710.4271, 1.050018
710.9092, 0.6305920
711.3914, 0.3666380
711.8735, 0.4401250
712.3556, 0.5867540
712.8377, 0.6869580
713.3198, 0.7348020
713.8019, 0.6693040
714.2841, 0.2391280
714.7662, 5.6480002E-02
715.2483, 4.2488001E-02
715.7304, 0.4866260
716.2125, 0.6445620
716.6946, 0.4238660
717.1768, 0.1983950
717.6589, 0.1995850
718.1410, 0.3972470
718.6231, 0.5650250
719.1052, 0.7044070
719.5873, 0.8352890
720.0695, 1.005867
720.5516, 1.165718
721.0337, 1.294426
721.5158, 1.384544
721.9979, 1.290756
722.4800, 0.6308140
722.9622, 4.6448000E-02
723.4443, 0.2769010
723.9264, 0.2450030
724.4085, 0.6492770
724.8906, 0.9330140
725.3727, 1.106392
725.8549, 1.159966
726.3370, 1.086044
726.8191, 1.035263
727.3012, 1.057953
727.7833, 0.9910580
728.2654, 0.4326020
728.7476, 0.3689880
729.2297, 0.7901690
729.7118, 0.5053330
730.1939, 0.1143490
730.6760, 1.5984001E-02
731.1581, 7.7620998E-02
731.6403, 9.3116999E-02
732.1224, 0.1047440
732.6045, 0.1992110
733.0866, 5.7845999E-02
733.5687, 0.1784590
734.0508, 0.1675260
734.5330, 0.1920170
735.0151, 0.3590010
735.4972, 0.1205140
735.9793, 0.3126450
736.4614, 0.4651790
736.9435, 0.3764340
737.4257, 0.2490690
737.9078, 0.1917720
738.3899, 0.1346440
738.8720, 4.7065999E-02
739.3541, 0.2949450
739.8362, 0.4008790
740.3184, 1.1757000E-02
740.8005, 0.2569660
741.2826, 1.0818000E-02
741.7647, 0.6518250
742.2468, 0.8531650
742.7289, 0.3921660
743.2111, 2.6505001E-02
743.6932, 4.9286000E-02
744.1753, 0.2491910
744.6574, 0.4635010
745.1395, 0.5928270
745.6216, 0.6650700
746.1038, 0.7476730
746.5859, 0.7567290
747.0680, 0.4538880
747.5501, 0.1431810
748.0322, 0.4424210
748.5143, 0.2579800
748.9965, 0.9986270
749.4786, 1.120674
749.9607, 0.4062500
750.4428, 3.4591999E-02
750.9249, 0.1199420
751.4070, 0.3426280
751.8892, 0.4948040
752.3713, 0.5788570
752.8534, 0.7037890
753.3355, 0.8891980
753.8176, 0.9655530
754.2997, 0.6681590
754.7819, 0.1983180
755.2640, 0.1490710
755.7461, 0.3233180
756.2282, 0.3873440
756.7103, 0.2794490
757.1924, 0.1289520
757.6746, 5.2490000E-02
758.1567, 0.1319200
758.6388, 0.1472850
759.1209, 7.0518002E-02
759.6030, 3.5393000E-02
760.0851, 0.1179280
760.5673, 0.1779480
761.0494, 0.1691280
761.5315, 7.4730001E-02
762.0136, 4.4753999E-02
762.4957, 0.2345050
762.9778, 0.3743970
763.4600, 0.1735610
763.9421, 0.6369930
764.4242, 1.302956
764.9063, 1.321266
765.3884, 0.9964830
765.8705, 0.6992650
766.3527, 0.4555130
766.8348, 0.2933500
767.3169, 0.2658540
767.7990, 0.2731480
768.2811, 0.1130220
768.7632, 0.2310180
769.2454, 0.3693310
769.7275, 0.1733170
770.2096, 0.1323090
770.6917, 0.2789460
771.1738, 0.2871480
771.6559, 0.1863100
772.1381, 0.1889340
772.6202, 0.4216230
773.1023, 0.1205670
773.5844, 0.4400710
774.0665, 0.7724690
774.5486, 0.6639400
775.0308, 0.5419010
775.5129, 0.4415970
775.9950, 0.3695760
776.4771, 0.3730090
776.9592, 0.4583820
777.4413, 0.4250790
777.9235, 0.1283870
778.4056, 0.1770550
778.8877, 4.2000000E-04
779.3698, 0.4901430
779.8519, 0.8536530
780.3340, 0.7974240
780.8162, 0.6626740
781.2983, 0.5689390
781.7804, 0.5332640
782.2625, 0.5198900
782.7446, 0.5721820
783.2267, 0.5543140
783.7089, 0.3602750
784.1910, 0.1210400
784.6731, 0.2768170
785.1552, 0.8234480
785.6373, 1.323257
786.1194, 1.628471
786.6016, 1.740662
787.0837, 1.561554
787.5658, 1.238297
788.0479, 1.071198
788.5300, 1.297615
789.0121, 1.567619
789.4943, 1.790848
789.9764, 1.949982
790.4585, 1.949860
790.9406, 1.637085
791.4227, 1.464279
791.9048, 1.635078
792.3870, 2.020241
792.8691, 2.104805
793.3512, 1.914459
793.8333, 1.815399
794.3154, 2.061836
794.7975, 2.465492
795.2797, 2.849037
795.7618, 3.191788
796.2439, 3.420326
796.7260, 3.385880
797.2081, 3.366348
797.6902, 3.489594
798.1724, 3.719421
798.6545, 3.897491
799.1366, 4.010262
799.6187, 4.198334
800.1008, 4.514580
800.5829, 4.933189
801.0651, 5.372253
801.5472, 5.836838
802.0293, 6.367973
802.5114, 7.116577
802.9935, 7.820824
803.4756, 8.097115
803.9578, 8.099838
804.4399, 8.342316
804.9220, 9.130699
805.4041, 10.01166
805.8862, 10.84760
806.3683, 11.70486
806.8505, 12.61652
807.3326, 13.54804
807.8147, 14.73856
808.2968, 16.37576
808.7789, 18.25941
809.2610, 19.92497
809.7432, 21.42656
810.2253, 22.98503
810.7074, 24.42477
811.1895, 26.23058
811.6716, 29.06996
812.1537, 32.60593
812.6359, 35.58086
813.1180, 37.13932
813.6001, 39.01180
814.0822, 41.57424
814.5643, 44.76197
815.0464, 48.35641
815.5286, 52.34625
816.0107, 56.32088
816.4928, 60.04202
816.9749, 63.73568
817.4570, 67.69254
817.9391, 71.87714
818.4213, 76.32222
818.9034, 81.10001
819.3855, 86.02586
819.8676, 90.91516
820.3497, 95.85483
820.8318, 101.0521
821.3140, 106.4148
821.7961, 112.2458
822.2782, 118.8717
822.7603, 125.7358
823.2424, 131.9630
823.7245, 137.5463
824.2067, 142.2603
824.6888, 145.9411
825.1709, 148.8886
825.6530, 151.4656
826.1351, 153.5716
826.6172, 154.9015
827.0994, 156.0167
827.5815, 155.5866
828.0636, 153.2538
828.5457, 149.3773
829.0278, 144.4897
829.5099, 138.5138
829.9921, 132.1735
830.4742, 125.6410
830.9563, 118.8923
831.4384, 111.6622
831.9205, 104.0665
832.4026, 96.35218
832.8848, 88.23731
833.3669, 80.41792
833.8490, 73.13420
834.3311, 66.38973
834.8132, 60.23416
835.2953, 54.73573
835.7775, 49.60710
836.2596, 44.83682
836.7417, 40.45617
837.2238, 36.51418
837.7059, 32.95676
838.1880, 29.74010
838.6702, 26.81493
839.1523, 24.25780
839.6344, 22.30584
840.1165, 20.71135
840.5986, 19.15110
841.0807, 17.45832
841.5629, 15.91915
842.0450, 14.63153
842.5271, 13.51030
843.0092, 12.46478
843.4913, 11.46430
843.9734, 10.77741
844.4556, 10.46575
844.9377, 10.24658
845.4198, 9.773750
845.9019, 9.176636
846.3840, 8.758339
846.8661, 8.635338
847.3483, 8.403389
847.8304, 7.640045
848.3125, 6.783493
848.7946, 6.267105
849.2767, 6.363647
849.7589, 6.116943
850.2410, 5.341225
850.7231, 4.573753
851.2052, 4.356522
851.6873, 4.599823
852.1694, 4.738777
852.6516, 4.739143
853.1337, 4.593292
853.6158, 4.138931
854.0979, 3.631996
854.5800, 3.314659
855.0621, 3.226631
855.5443, 3.228111
856.0264, 3.380486
856.5085, 3.554710
856.9906, 3.714447
857.4727, 3.828232
857.9548, 3.586334
858.4370, 2.957413
858.9191, 2.435219
859.4012, 2.463356
859.8833, 2.751381
860.3654, 2.873398
860.8475, 2.833466
861.3297, 2.729836
861.8118, 2.539497
862.2939, 2.364761
862.7760, 2.260109
863.2581, 2.216225
863.7402, 2.176910
864.2224, 2.145691
864.7045, 2.106010
865.1866, 2.040962
865.6687, 1.967773
866.1508, 1.957977
866.6329, 1.992332
867.1151, 1.982315
867.5972, 1.764671
868.0793, 1.578049
868.5614, 1.546997
869.0435, 1.658379
869.5256, 1.885178
870.0078, 2.362457
870.4899, 2.685005
870.9720, 2.749214
871.4541, 2.651283
871.9362, 2.604805
872.4183, 2.599251
872.9005, 2.534561
873.3826, 2.348328
873.8647, 2.151176
874.3468, 2.068382
874.8289, 2.068619
875.3110, 2.069031
875.7932, 1.858360
876.2753, 1.858276
876.7574, 2.307663
877.2395, 2.815643
877.7216, 2.870049
878.2037, 2.453720
878.6859, 2.148178
879.1680, 1.998909
879.6501, 1.864151
880.1322, 1.488876
880.6143, 1.064217
881.0964, 0.8738860
881.5786, 0.9824680
882.0607, 1.218147
882.5428, 1.704857
883.0249, 2.132843
883.5070, 2.249519
883.9891, 1.972054
884.4713, 1.958298
884.9534, 2.277718
885.4355, 2.515045
885.9176, 2.207344
886.3997, 1.615181
886.8818, 1.255531
887.3640, 1.168343
887.8461, 1.254097
888.3282, 1.554878
888.8103, 1.873604
889.2924, 2.125435
889.7745, 2.301643
890.2567, 2.316582
890.7388, 2.153358
891.2209, 1.860893
891.7030, 1.329994
892.1851, 0.7695540
892.6672, 0.8744130
893.1494, 1.483437
893.6315, 1.893547
894.1136, 1.554909
894.5957, 1.105324
895.0778, 0.8343510
895.5599, 0.7311250
896.0421, 0.7824550
896.5242, 1.110313
897.0063, 1.324799
897.4884, 1.364929
897.9705, 1.257698
898.4526, 0.9750980
898.9348, 0.5689090
899.4169, 0.2947310
899.8990, 0.2521510
900.3811, 0.2403790
900.8632, 1.5503000E-02
901.3453, 0.2773740
901.8275, 0.2592770
902.3096, 0.3703690
902.7917, 0.7684860
903.2738, 0.8651120
903.7559, 0.8250270
904.2380, 0.7876820
904.7202, 0.7476040
905.2023, 0.6340870
905.6844, 0.4416120
906.1665, 0.2896190
906.6486, 0.3242870
907.1307, 0.4136280
907.6129, 0.4299850
908.0950, 0.3563000
908.5771, 0.3140640
909.0592, 0.3671800
909.5413, 0.3890000
910.0234, 0.3105700
910.5056, 0.1562580
910.9877, 6.6794999E-02
911.4698, 4.2022999E-02
911.9519, 7.1243003E-02
912.4340, 0.2843020
912.9161, 0.4412380
913.3983, 0.1696170
913.8804, 0.3633040
914.3625, 0.6894000
914.8446, 0.4855420
915.3267, 0.3098530
915.8088, 0.2848130
916.2910, 0.3238300
916.7731, 0.2717590
917.2552, 0.1278990
917.7373, 0.1563420
918.2194, 0.6584700
918.7015, 1.091957
919.1837, 1.055634
919.6658, 0.7909620
920.1479, 0.6357500
920.6300, 0.7516780
921.1121, 0.7967530
921.5942, 0.6898800
922.0764, 0.5360570
922.5585, 0.4159700
923.0406, 0.3313600
923.5227, 0.2066880
924.0048, 3.3271998E-02
924.4869, 5.5374000E-02
924.9691, 0.1457060
925.4512, 0.4293670
925.9333, 0.5276570
926.4154, 0.4355850
926.8975, 0.4157330
927.3796, 0.6366960
927.8618, 0.8371810
928.3439, 0.9572300
928.8260, 0.9856030
929.3081, 0.8153230
929.7902, 0.4504930
930.2723, 0.1682590
930.7545, 0.1703870
931.2366, 0.2259750
931.7187, 2.4871999E-02
932.2008, 0.4097980
932.6829, 0.5752330
933.1650, 0.2405170
933.6472, 0.1059570
934.1293, 0.5016250
934.6114, 0.7841190
935.0935, 0.5951390
935.5756, 5.8364999E-02
936.0577, 0.2918090
936.5399, 7.4355997E-02
937.0220, 0.4951710
937.5041, 0.4004360
937.9862, 7.7156000E-02
938.4683, 0.1765820
938.9504, 0.3323750
939.4326, 0.3034440
939.9147, 4.5531999E-02
940.3968, 0.4201200
940.8789, 0.7082290
941.3610, 0.8999400
941.8431, 0.8251040
942.3253, 0.4940490
942.8074, 0.2008820
943.2895, 0.2393950
943.7716, 0.3143540
944.2537, 1.6060000E-02
944.7358, 0.4991840
945.2180, 0.6481400
945.7001, 7.0189998E-02
946.1822, 0.6527180
946.6643, 0.9151990
947.1464, 0.9707410
947.6285, 1.044228
948.1107, 1.130516
948.5928, 1.197845
949.0749, 1.262444
949.5570, 1.231949
950.0391, 0.8653720
950.5212, 0.4303360
951.0034, 0.2567370
951.4855, 0.5562060
951.9676, 0.7680440
952.4497, 0.8784560
952.9318, 0.9061200
953.4139, 0.7576750
953.8961, 0.5121150
954.3782, 0.7008670
954.8603, 1.307396
955.3424, 1.942917
955.8245, 2.473976
956.3066, 2.830528
956.7888, 2.929214
957.2709, 2.783890
957.7530, 2.547699
958.2351, 2.125267
958.7172, 1.864891
959.1993, 1.886528
959.6815, 2.074005
960.1636, 2.192070
960.6457, 2.241058
961.1278, 2.243896
961.6099, 2.149658
962.0920, 2.135864
962.5742, 2.380692
963.0563, 2.720604
963.5384, 2.982697
964.0205, 3.205185
964.5026, 3.146065
964.9847, 2.715866
965.4669, 2.328888
965.9490, 2.412598
966.4311, 2.800133
966.9132, 3.221802
967.3953, 3.642685
967.8774, 3.908867
968.3596, 3.912292
968.8417, 3.770935
969.3238, 3.349762
969.8059, 2.791847
970.2880, 2.923302
970.7701, 3.869118
971.2523, 4.413635
971.7344, 3.954918
972.2165, 3.180000
972.6986, 2.999420
973.1807, 3.222397
973.6628, 3.622566
974.1450, 4.490166
974.6271, 4.920364
975.1092, 4.430962
975.5913, 3.747078
976.0734, 3.509956
976.5555, 3.726402
977.0377, 4.098045
977.5198, 4.622665
978.0019, 4.961479
978.4840, 4.644005
978.9661, 4.142319
979.4482, 3.997086
979.9304, 4.213013
980.4125, 4.178513
980.8946, 3.449295
981.3767, 3.008469
981.8588, 3.251007
982.3409, 3.881523
982.8231, 4.102150
983.3052, 3.953461
983.7873, 3.709541
984.2694, 3.394081
984.7515, 3.153870
985.2336, 3.158730
985.7158, 3.269867
986.1979, 3.305573
986.6800, 3.244087
987.1621, 3.133476
987.6442, 2.980988
988.1263, 2.756020
988.6085, 2.290062
989.0906, 1.758438
989.5727, 1.703232
990.0548, 2.084229
990.5369, 2.354370
991.0190, 2.095901
991.5012, 1.853828
991.9833, 1.979134
992.4654, 2.308731
992.9475, 2.182289
993.4296, 1.506889
993.9117, 1.155014
994.3939, 1.537209
994.8760, 2.119377
995.3581, 2.226440
995.8402, 2.032616
996.3223, 1.804039
996.8044, 1.524994
997.2866, 1.451653
997.7687, 1.845299
998.2508, 2.200638
998.7329, 2.079628
999.2150, 1.509201
999.6971, 1.063011
1000.179, 0.7542950
1000.661, 0.6325070
1001.143, 0.9260250
1001.626, 1.266251
1002.108, 1.350655
1002.590, 1.188972
1003.072, 1.018677
1003.554, 0.8636700
1004.036, 0.8488850
1004.518, 1.051468
1005.000, 1.301727
1005.483, 1.317017
1005.965, 1.144447
1006.447, 0.8451390
1006.929, 0.3395160
1007.411, 9.4337001E-02
1007.893, 0.6910250
1008.375, 1.343216
1008.857, 1.411713
1009.339, 0.8365630
1009.822, 0.6335220
1010.304, 0.8316190
1010.786, 1.074944
1011.268, 1.103493
1011.750, 1.069389
1012.232, 1.222214
1012.714, 1.481438
1013.196, 1.610313
1013.679, 1.458145
1014.161, 1.260948
1014.643, 1.036652
1015.125, 0.8053360
1015.607, 0.5608670
1016.089, 0.3249590
1016.571, 0.2495350
1017.053, 0.3671340
1017.535, 0.5380020
1018.018, 0.7292330
1018.500, 0.8752140
1018.982, 0.9427870
1019.464, 0.9294360
1019.946, 0.7195130
1020.428, 0.2220690
1020.910, 0.1242520
1021.392, 6.7703001E-02
1021.875, 0.1847380
1022.357, 0.2277370
1022.839, 0.1452940
1023.321, 0.1367260
1023.803, 0.4175420
1024.285, 0.5698780
1024.767, 0.4136050
1025.249, 0.1507870
1025.731, 8.3382003E-02
1026.214, 0.2924190
1026.696, 0.2092740
1027.178, 0.1874080
1027.660, 0.6091690
1028.142, 1.024269
1028.624, 1.216904
1029.106, 0.7549440
1029.588, 0.2242360
1030.071, 0.5611720
1030.553, 0.1416550
1031.035, 0.6644440
1031.517, 0.6678770
1031.999, 0.4242400
1032.481, 0.3908540
1032.963, 0.5101240
1033.445, 0.6313480
1033.927, 0.7059170
1034.410, 0.8241040
1034.892, 1.110085
1035.374, 1.378540
1035.856, 1.543648
1036.338, 1.610985
1036.820, 1.244713
1037.302, 0.4378810
1037.784, 0.1765670
1038.266, 6.6450001E-03
1038.749, 0.3925090
1039.231, 0.3180920
1039.713, 1.6930001E-02
1040.195, 0.1222840
1040.677, 0.2977910
1041.159, 0.5724030
1041.641, 0.6210710
1042.123, 0.5699230
1042.605, 0.4905700
1043.088, 0.4457240
1043.570, 0.7602230
1044.052, 1.466995
1044.534, 1.814713
1045.016, 0.8980330
1045.498, 2.4871999E-02
1045.980, 4.2282000E-02
1046.462, 0.5006030
1046.945, 0.8190380
1047.427, 0.9211270
1047.909, 0.8227540
1048.391, 0.4147190
1048.873, 8.2047001E-02
1049.355, 0.3442460
1049.837, 0.8917540
1050.319, 1.317436
1050.802, 1.530548
1051.284, 1.599609
1051.766, 1.460838
1052.248, 1.339630
1052.730, 1.421127
1053.212, 1.638458
1053.694, 1.782333
1054.176, 1.868073
1054.658, 1.972160
1055.141, 2.215858
1055.623, 2.384949
1056.105, 2.340843
1056.587, 2.212372
1057.069, 2.222900
1057.551, 2.381035
1058.033, 2.294945
1058.515, 1.876289
1058.998, 1.594955
1059.480, 2.106369
1059.962, 2.796997
1060.444, 3.039597
1060.926, 2.774437
1061.408, 2.739899
1061.890, 3.083717
1062.372, 3.308655
1062.854, 3.194687
1063.337, 2.953339
1063.819, 3.024719
1064.301, 3.286217
1064.783, 3.469788
1065.265, 3.420044
1065.747, 3.459648
1066.229, 3.993286
1066.711, 4.376060
1067.193, 4.044975
1067.676, 3.065796
1068.158, 2.800453
1068.640, 3.200035
1069.122, 3.577370
1069.604, 3.549789
1070.086, 3.330948
1070.568, 2.890587
1071.050, 2.398605
1071.532, 2.251831
1072.015, 2.589745
1072.497, 2.820618
1072.979, 2.890549
1073.461, 2.835205
1073.943, 2.658478
1074.425, 2.416245
1074.907, 2.130074
1075.389, 1.817871
1075.872, 1.698517
1076.354, 2.035057
1076.836, 2.261215
1077.318, 2.174294
1077.800, 1.934341
1078.282, 1.855118
1078.764, 1.927589
1079.246, 2.207703
1079.729, 2.835144
1080.211, 3.212830
1080.693, 2.764549
1081.175, 2.142036
1081.657, 1.876709
1082.139, 1.968422
1082.621, 1.774559
1083.103, 1.284531
1083.585, 1.001419
1084.068, 1.353790
1084.550, 1.869690
1085.032, 2.143356
1085.514, 2.230476
1085.996, 2.211472
1086.478, 2.013710
1086.960, 1.892899
1087.442, 1.866791
1087.925, 1.844002
1088.407, 1.825081
1088.889, 1.760277
1089.371, 1.578445
1089.853, 1.299721
1090.335, 1.065704
1090.817, 0.9264680
1091.299, 0.8445740
1091.781, 0.7890630
1092.264, 0.8089600
1092.746, 1.059242
1093.228, 1.470650
1093.710, 1.728889
1094.192, 1.782806
1094.674, 1.668335
1095.156, 1.163231
1095.638, 0.7467120
1096.120, 0.8133540
1096.603, 1.240326
1097.085, 1.267159
1097.567, 0.8684310
1098.049, 0.7169110
1098.531, 1.176826
1099.013, 1.753265
1099.495, 2.054810
1099.977, 2.101616
1100.459, 1.889259
1100.942, 1.293472
1101.424, 0.8390500
1101.906, 0.5462490
1102.388, 0.3229290
1102.870, 7.5370997E-02
1103.352, 0.1304860
1103.834, 0.1332240
1104.316, 2.5024001E-02
1104.799, 0.2099530
1105.281, 0.4661790
1105.763, 0.6144940
1106.245, 0.6289600
1106.727, 0.5393830
1107.209, 0.3022690
1107.691, 1.4008000E-02
1108.173, 6.7489997E-02
1108.656, 0.1406560
1109.138, 0.3039700
1109.620, 0.1736220
1110.102, 4.2296998E-02
1110.584, 4.0305998E-02
1111.066, 0.1340260
1111.548, 0.2898790
1112.030, 0.5058670
1112.512, 0.6020050
1112.995, 0.5313030
1113.477, 0.4442670
1113.959, 0.5355070
1114.441, 0.6187290
1114.923, 0.4760130
1115.405, 0.1133420
1115.887, 3.8711999E-02
1116.369, 5.5335999E-02
1116.852, 0.1561280
1117.334, 0.1821520
1117.816, 0.1702120
1118.298, 9.7297996E-02
1118.780, 4.9109999E-02
1119.262, 0.2041470
1119.744, 0.8098070
1120.226, 0.8950120
1120.708, 0.2205660
1121.191, 0.4484560
1121.673, 0.6898800
1122.155, 0.5911410
1122.637, 0.2754290
1123.119, 0.1960070
1123.601, 0.6535720
1124.083, 1.298759
1124.565, 1.506859
1125.047, 0.9331590
1125.530, 0.2623290
1126.012, 0.2243960
1126.494, 0.6679760
1126.976, 0.6718670
1127.458, 0.2732700
1127.940, 3.8910002E-02
1128.422, 0.6186600
1128.904, 1.059975
1129.386, 0.7567600
1129.869, 0.1657180
1130.351, 4.0890002E-03
1130.833, 0.2395940
1131.315, 0.5121840
1131.797, 0.7783200
1132.279, 0.9172970
1132.761, 0.6981120
1133.243, 0.4361880
1133.726, 0.3935850
1134.208, 0.5234910
1134.690, 0.5198290
1135.172, 0.3437960
1135.654, 0.3524860
1136.136, 0.6702040
1136.618, 1.052086
1137.100, 1.250847
1137.583, 1.353157
1138.065, 1.486252
1138.547, 1.686386
1139.029, 1.596207
1139.511, 1.105476
1139.993, 0.6812970
1140.475, 0.4932630
1140.957, 0.4938510
1141.439, 0.8002400
1141.922, 1.179298
1142.404, 1.181366
1142.886, 0.4058910
1143.368, 8.7738000E-02
1143.850, 0.5299840
1144.332, 0.9500430
1144.814, 0.7409520
1145.296, 0.2226330
1145.779, 0.2381740
1146.261, 0.6567540
1146.743, 1.099846
1147.225, 1.519691
1147.707, 1.799210
1148.189, 1.991165
1148.671, 1.978462
1149.153, 1.491356
1149.635, 0.6924740
1150.118, 0.4618990
1150.600, 0.7372820
1151.082, 0.9290010
1151.564, 0.6997530
1152.046, 0.3632280
1152.528, 0.1606750
1153.010, 0.5769200
1153.492, 0.3810500
1153.974, 0.3625260
1154.457, 0.9699330
1154.939, 1.370590
1155.421, 1.549713
1155.903, 1.242683
1156.385, 0.9650500
1156.867, 1.133438
1157.349, 1.523567
1157.831, 1.578049
1158.313, 1.288376
1158.796, 1.236145
1159.278, 1.532372
1159.760, 1.936996
1160.242, 2.466805
1160.724, 2.840652
1161.206, 2.680359
1161.688, 2.093224
1162.170, 1.848312
1162.653, 1.957031
1163.135, 2.209381
1163.617, 2.573715
1164.099, 2.969482
1164.581, 3.443542
1165.063, 3.829857
1165.545, 3.859802
1166.027, 3.456871
1166.510, 3.461143
1166.992, 3.968033
1167.474, 4.290306
1167.956, 4.019981
1168.438, 3.665558
1168.920, 3.843857
1169.402, 4.386261
1169.884, 5.148621
1170.366, 6.381081
1170.849, 6.744637
1171.331, 5.918159
1171.813, 5.271629
1172.295, 5.810745
1172.777, 6.813614
1173.259, 7.107643
1173.741, 6.963623
1174.223, 6.911346
1174.706, 7.036606
1175.188, 7.372002
1175.670, 7.981133
1176.152, 8.641403
1176.634, 9.261459
1177.116, 9.781738
1177.598, 10.00059
1178.080, 10.03804
1178.563, 10.26054
1179.045, 11.09295
1179.527, 11.60618
1180.009, 11.65411
1180.491, 11.58032
1180.973, 11.64440
1181.455, 11.84045
1181.937, 12.28321
1182.419, 12.90208
1182.901, 13.38873
1183.384, 13.49438
1183.866, 13.68972
1184.348, 14.10909
1184.830, 14.47976
1185.312, 14.37137
1185.794, 14.01240
1186.276, 14.03163
1186.758, 14.45312
1187.240, 14.84240
1187.723, 14.89980
1188.205, 14.99937
1188.687, 15.35653
1189.169, 15.63937
1189.651, 15.10860
1190.133, 14.06708
1190.615, 13.50211
1191.097, 13.54181
1191.580, 13.62170
1192.062, 13.71691
1192.544, 13.48337
1193.026, 12.63746
1193.508, 11.59076
1193.990, 11.41036
1194.472, 11.81044
1194.954, 11.69322
1195.437, 10.78554
1195.919, 10.07803
1196.401, 10.19431
1196.883, 10.42628
1197.365, 10.52361
1197.847, 10.49545
1198.329, 10.35376
1198.811, 10.11026
1199.293, 9.790710
1199.776, 9.374420
1200.258, 9.001312
1200.740, 8.934532
1201.222, 8.675652
1201.704, 7.826363
1202.186, 6.657104
1202.668, 6.420464
1203.150, 6.878510
1203.633, 7.085258
1204.115, 6.699608
1204.597, 6.155296
1205.079, 5.361748
1205.561, 4.776703
1206.043, 4.780342
1206.525, 5.208565
1207.007, 5.202194
1207.490, 4.836281
1207.972, 4.444008
1208.454, 4.043877
1208.936, 3.869576
1209.418, 4.325111
1209.900, 4.748489
1210.382, 4.627960
1210.864, 4.055595
1211.346, 3.810608
1211.828, 3.836418
1212.311, 3.727936
1212.793, 3.048409
1213.275, 2.614220
1213.757, 2.924583
1214.239, 3.402733
1214.721, 3.708839
1215.203, 3.827744
1215.685, 3.552681
1216.167, 2.943634
1216.650, 2.322563
1217.132, 1.666069
1217.614, 1.273079
1218.096, 1.397156
1218.578, 1.649399
1219.060, 1.711060
1219.542, 1.602417
1220.024, 1.411125
1220.507, 1.168617
1220.989, 1.033447
1221.471, 1.205421
1221.953, 1.335434
1222.435, 1.274200
1222.917, 1.191208
1223.399, 1.305962
1223.881, 1.557884
1224.364, 1.611740
1224.846, 1.488838
1225.328, 1.385063
1225.810, 1.530609
1226.292, 1.514282
1226.774, 1.196983
1227.256, 0.7516940
1227.738, 0.2790830
1228.220, 0.1441650
1228.703, 0.2026370
1229.185, 8.1359997E-02
1229.667, 0.4392700
1230.149, 1.006561
1230.631, 1.242920
1231.113, 0.8950120
1231.595, 0.4066620
1232.077, 0.4018710
1232.560, 0.7012560
1233.042, 0.7697220
1233.524, 0.6068950
1234.006, 0.5318600
1234.488, 0.8734130
1234.970, 1.025177
1235.452, 0.8397370
1235.934, 0.4856950
1236.417, 0.1150590
1236.899, 0.2264400
1237.381, 0.4177470
1237.863, 0.4585950
1238.345, 0.4623870
1238.827, 0.4531630
1239.309, 0.4129260
1239.791, 0.3106540
1240.273, 0.2288890
1240.755, 0.3652880
1241.238, 0.5598370
1241.720, 0.4570920
1242.202, 5.9181001E-02
1242.684, 0.1981430
1243.166, 0.2026980
1243.648, 8.8150002E-02
1244.130, 0.2075810
1244.612, 0.3824230
1245.094, 0.1361310
1245.577, 0.9419630
1246.059, 1.459099
1246.541, 1.644547
1247.023, 1.582649
1247.505, 1.117516
1247.987, 0.9632640
1248.469, 1.325531
1248.951, 1.839996
1249.434, 2.050972
1249.916, 2.141823
1250.398, 2.342628
1250.880, 2.662285
1251.362, 2.892021
1251.844, 2.984550
1252.326, 3.206383
1252.808, 3.666893
1253.291, 4.053062
1253.773, 3.884224
1254.255, 3.583939
1254.737, 3.633965
1255.219, 4.007462
1255.701, 4.043907
1256.183, 3.661926
1256.665, 3.717682
1257.147, 4.472435
1257.630, 5.308655
1258.112, 5.593559
1258.594, 5.761826
1259.076, 6.201500
1259.558, 6.856415
1260.040, 7.480682
1260.522, 8.067642
1261.004, 8.472809
1261.487, 8.626961
1261.969, 8.846153
1262.451, 9.658066
1262.933, 10.31551
1263.415, 10.19469
1263.897, 9.582962
1264.379, 9.504852
1264.861, 9.867493
1265.344, 9.947189
1265.826, 9.541962
1266.308, 9.208069
1266.790, 9.453674
1267.272, 9.648499
1267.754, 9.310181
1268.236, 8.671310
1268.718, 8.422485
1269.200, 8.482422
1269.682, 8.556183
1270.165, 8.595779
1270.647, 8.583405
1271.129, 8.488113
1271.611, 8.240768
1272.093, 7.783463
1272.575, 7.280777
1273.057, 6.898529
1273.539, 6.692917
1274.021, 6.660660
1274.504, 6.666779
1274.986, 6.591553
1275.468, 6.455002
1275.950, 6.359116
1276.432, 6.339462
1276.914, 6.428116
1277.396, 6.735229
1277.878, 7.158386
1278.361, 7.633484
1278.843, 8.153549
1279.325, 8.176270
1279.807, 7.525696
1280.289, 7.012024
1280.771, 6.902740
1281.253, 6.860886
1281.735, 6.347626
1282.218, 5.771103
1282.700, 5.620529
1283.182, 5.905640
1283.664, 6.143982
1284.146, 6.342987
1284.628, 6.366043
1285.110, 6.146790
1285.592, 5.902573
1286.074, 5.838745
1286.557, 5.817047
1287.039, 5.731750
1287.521, 5.594925
1288.003, 5.460388
1288.485, 5.334045
1288.967, 5.237595
1289.449, 5.187637
1289.931, 5.050995
1290.414, 4.701660
1290.896, 4.278992
1291.378, 3.804794
1291.860, 3.361069
1292.342, 3.166473
1292.824, 3.179688
1293.306, 3.325668
1293.788, 3.613693
1294.271, 3.655930
1294.753, 3.121704
1295.235, 2.520584
1295.717, 1.950638
1296.199, 1.442566
1296.681, 1.087067
1297.163, 0.8229680
1297.645, 0.4976500
1298.127, 9.4589002E-02
1298.609, 4.5425002E-02
1299.092, 0.1503140
1299.574, 0.5012820
1300.056, 1.063370
1300.538, 1.463303
1301.020, 0.9990230
1301.502, 0.3072200
1301.984, 0.2334750
1302.466, 0.7566990
1302.948, 0.8014980
1303.431, 0.2920680
1303.913, 9.8420000E-03
1304.395, 0.0000000E+00
##END=



