##NAMES=Szenicsite
##RRUFFID=R050146
##IDEAL CHEMISTRY=Cu_3_MoO_4_(OH)_4_
##LOCALITY=Jardinera mine, Inca del Oro, Chile
##OWNER=RRUFF
##SOURCE=Jim McGlasson
##DESCRIPTION=Green lamellar crystals
##STATUS=The identification of this mineral is confirmed by single-crystal X-ray diffraction and chemical analysis.
##URL=rruff.info/R050146
##MEASURED CHEMISTRY=Cu_3.00_Mo_1.00_O_4_(OH)_4_
52.866, 0.000
54.266, 4.452
55.666, 22.847
57.065, 5.275
58.464, 0.731
59.863, 1.314
61.262, 1.429
62.661, 4.937
64.059, 420.916
65.458, 681.938
66.856, 416.975
68.253, 458.902
69.651, 252.617
71.048, 111.035
72.445, 74.088
73.842, 136.715
75.239, 187.868
76.635, 239.499
78.031, 233.568
79.427, 288.855
80.823, 262.876
82.218, 363.057
83.614, 347.557
85.009, 391.355
86.404, 457.434
87.798, 544.776
89.193, 589.369
90.587, 569.199
91.981, 482.255
93.375, 430.526
94.768, 400.003
96.161, 336.673
97.554, 349.517
98.947, 365.524
100.340, 441.683
101.732, 566.985
103.124, 688.425
104.516, 784.996
105.908, 803.693
107.300, 646.512
108.691, 537.450
110.082, 440.502
111.473, 421.667
112.864, 416.940
114.254, 488.319
115.644, 520.802
117.034, 501.387
118.424, 490.071
119.813, 440.852
121.203, 426.729
122.592, 373.699
123.981, 332.401
125.369, 289.912
126.758, 234.151
128.146, 207.477
129.534, 152.887
130.922, 115.381
132.309, 53.956
133.696, 39.613
135.083, 35.361
136.470, 33.170
137.857, 35.978
139.243, 49.789
140.630, 35.612
142.016, 29.452
143.401, 40.317
144.787, 82.211
146.172, 88.137
147.557, 97.098
148.942, 134.098
150.327, 146.137
151.711, 187.219
153.096, 210.343
154.480, 259.512
155.863, 284.726
157.247, 291.986
158.630, 315.293
160.013, 341.647
161.396, 360.048
162.779, 367.834
164.161, 375.992
165.544, 368.535
166.926, 346.126
168.308, 330.765
169.689, 290.451
171.070, 259.184
172.452, 211.964
173.833, 185.791
175.213, 174.664
176.594, 130.583
177.974, 109.547
179.354, 108.557
180.734, 98.611
182.114, 65.710
183.493, 71.853
184.872, 48.040
186.251, 18.269
187.630, 40.542
189.008, 31.857
190.387, 30.214
191.765, 38.612
193.143, 20.052
194.520, 50.532
195.898, 43.053
197.275, 41.613
198.652, 65.213
200.029, 92.852
201.405, 72.529
202.782, 118.245
204.158, 109.998
205.534, 127.789
206.909, 159.617
208.285, 160.481
209.660, 203.381
211.035, 241.318
212.410, 264.289
213.784, 308.373
215.159, 354.815
216.533, 402.248
217.907, 431.393
219.281, 393.382
220.654, 370.411
222.027, 321.534
223.400, 276.731
224.773, 263.978
226.146, 276.373
227.518, 276.353
228.891, 317.503
230.263, 333.261
231.634, 365.103
233.006, 424.026
234.377, 433.026
235.748, 479.098
237.119, 425.240
238.490, 416.452
239.860, 367.730
241.231, 325.073
242.601, 306.475
243.970, 245.937
245.340, 244.458
246.709, 229.035
248.079, 233.662
249.448, 249.343
250.816, 276.070
252.185, 314.849
253.553, 355.674
254.921, 378.541
256.289, 416.457
257.657, 431.421
259.024, 497.096
260.391, 607.475
261.758, 646.560
263.125, 768.683
264.492, 886.842
265.858, 1014.037
267.224, 1132.268
268.590, 1286.873
269.956, 1451.834
271.321, 1631.167
272.687, 1820.530
274.052, 2056.931
275.416, 2245.363
276.781, 2470.827
278.146, 2616.322
279.510, 2661.851
280.874, 2689.411
282.237, 2563.000
283.601, 2452.616
284.964, 2242.261
286.327, 2024.932
287.690, 1979.630
289.053, 1764.354
290.416, 1658.102
291.778, 1565.874
293.140, 1536.670
294.502, 1514.490
295.863, 1454.334
297.225, 1505.203
298.586, 1566.099
299.947, 1666.018
301.308, 1849.959
302.668, 2085.923
304.029, 2507.910
305.389, 2910.919
306.749, 3556.949
308.108, 4211.002
309.468, 5125.076
310.827, 5886.171
312.186, 6534.287
313.545, 6536.423
314.903, 6076.582
316.262, 5197.760
317.620, 4200.958
318.978, 3377.175
320.336, 2535.411
321.693, 1979.668
323.051, 1551.943
324.408, 1244.237
325.765, 1149.549
327.121, 855.772
328.478, 691.228
329.834, 570.595
331.190, 479.979
332.546, 475.380
333.902, 458.799
335.257, 436.237
336.612, 452.694
337.967, 488.166
339.322, 537.656
340.677, 625.163
342.031, 762.686
343.385, 946.224
344.739, 1136.779
346.093, 1251.349
347.446, 1246.936
348.799, 1214.540
350.153, 1060.160
351.505, 887.794
352.858, 729.442
354.210, 541.106
355.563, 433.785
356.915, 315.478
358.267, 223.187
359.618, 169.912
360.969, 142.650
362.321, 110.407
363.672, 66.178
365.022, 71.962
366.373, 49.758
367.723, 30.570
369.073, 22.393
370.423, 9.771
371.773, 4.075
373.122, 24.199
374.471, 11.731
375.821, 21.078
377.169, 11.189
378.518, 4.878
379.866, 2.125
381.215, 4.390
382.563, 0.584
383.910, 2.067
385.258, 14.044
386.605, 21.093
387.952, 48.789
389.299, 47.306
390.646, 58.451
391.992, 79.400
393.339, 122.270
394.685, 125.530
396.031, 169.945
397.376, 254.164
398.722, 314.305
400.067, 356.450
401.412, 436.079
402.757, 547.252
404.101, 712.317
405.446, 834.269
406.790, 1059.644
408.134, 1263.066
409.478, 1637.121
410.821, 2032.137
412.165, 2550.821
413.508, 3234.935
414.851, 4053.103
416.193, 4876.626
417.536, 5633.016
418.878, 6171.206
420.220, 6271.942
421.562, 5852.867
422.904, 5051.627
424.245, 4204.311
425.586, 3429.154
426.927, 2726.990
428.268, 2212.818
429.609, 1789.740
430.949, 1433.657
432.289, 1189.024
433.629, 1006.601
434.969, 842.427
436.309, 698.103
437.648, 627.288
438.987, 549.128
440.326, 487.489
441.665, 437.783
443.003, 393.750
444.342, 367.807
445.680, 343.789
447.018, 315.397
448.355, 319.930
449.693, 255.423
451.030, 302.795
452.367, 277.192
453.704, 307.602
455.041, 286.042
456.377, 285.723
457.713, 236.600
459.049, 271.171
460.385, 315.585
461.721, 284.307
463.056, 342.785
464.391, 331.511
465.726, 417.008
467.061, 479.387
468.395, 519.119
469.730, 611.589
471.064, 740.966
472.398, 864.342
473.731, 935.862
475.065, 991.322
476.398, 1014.695
477.731, 1032.066
479.064, 1065.436
480.397, 1008.804
481.729, 1028.169
483.062, 1064.533
484.394, 1000.895
485.725, 992.254
487.057, 918.610
488.389, 865.965
489.720, 727.316
491.051, 627.664
492.382, 564.016
493.712, 453.358
495.043, 448.298
496.373, 366.916
497.703, 367.248
499.032, 326.772
500.362, 319.296
501.691, 318.664
503.020, 278.980
504.349, 265.505
505.678, 222.055
507.007, 211.818
508.335, 175.421
509.663, 153.085
510.991, 135.410
512.319, 111.816
513.646, 115.321
514.973, 95.893
516.300, 62.488
517.627, 69.406
518.954, 50.216
520.280, 27.600
521.607, 43.442
522.933, 24.102
524.259, 14.415
525.584, 7.877
526.910, 15.781
528.235, 22.157
529.560, 24.622
530.885, 7.746
532.209, 12.056
533.534, 7.030
534.858, 9.964
536.182, 13.866
537.506, 16.283
538.829, 1.168
540.152, 5.065
541.476, 30.007
542.799, 20.944
544.121, 44.901
545.444, 7.893
546.766, 26.892
548.088, 18.924
549.410, 11.979
550.732, 8.052
552.053, 6.143
553.375, 12.249
554.696, 14.375
556.017, 10.521
557.337, 8.687
558.658, 24.871
559.978, 16.082
561.298, 24.315
562.618, 5.575
563.938, 19.854
565.257, 26.041
566.576, 10.373
567.895, 3.726
569.214, 19.097
570.533, 3.507
571.851, 19.904
573.170, 4.340
574.488, 8.204
575.805, 23.264
577.123, 19.760
578.440, 12.284
579.758, 1.169
581.075, 4.606
582.391, 6.526
583.708, 3.436
585.024, 3.828
586.341, 4.206
587.657, 2.568
588.972, 2.914
590.288, 20.243
591.603, 11.447
592.918, 11.132
594.233, 9.151
595.548, 0.581
596.863, 5.670
598.177, 3.095
599.491, 1.880
600.805, 12.316
602.119, 21.500
603.432, 3.672
604.746, 12.828
606.059, 15.970
607.372, 18.101
608.685, 29.219
609.997, 25.836
611.309, 24.565
612.621, 22.512
613.933, 11.587
615.245, 6.649
616.557, 5.305
617.868, 25.720
619.179, 10.734
620.490, 20.734
621.801, 10.723
623.111, 19.698
624.421, 32.661
625.731, 10.614
627.041, 21.552
628.351, 43.480
629.660, 33.396
630.970, 18.303
632.279, 22.197
633.588, 40.080
634.896, 47.953
636.205, 36.815
637.513, 43.667
638.821, 45.509
640.129, 45.340
641.437, 44.161
642.744, 33.971
644.051, 47.772
645.358, 41.562
646.665, 45.341
647.972, 52.111
649.278, 31.871
650.584, 40.620
651.890, 3.359
653.196, 12.082
654.502, 37.793
655.807, 15.493
657.113, 15.181
658.418, 24.858
659.722, 36.524
661.027, 14.180
662.331, 12.824
663.636, 5.456
664.940, 10.074
666.244, 7.679
667.547, 25.271
668.851, 17.853
670.154, 12.424
671.457, 0.983
672.760, 29.526
674.062, 0.060
675.365, 1.579
676.667, 16.082
677.969, 15.425
679.271, 4.044
680.572, 18.500
681.874, 9.946
683.175, 1.620
684.476, 12.799
685.777, 8.207
687.077, 33.604
688.378, 26.992
689.678, 12.502
690.978, 25.271
692.278, 7.857
693.577, 2.794
694.877, 26.375
696.176, 25.363
697.475, 32.114
698.774, 17.387
700.072, 19.161
701.371, 17.452
702.669, 9.934
703.967, 33.275
705.265, 17.057
706.562, 21.219
707.860, 19.586
709.157, 14.041
710.454, 21.113
711.751, 4.037
713.047, 26.164
714.344, 26.377
715.640, 6.592
716.936, 1.329
718.232, 10.528
719.527, 23.841
720.823, 9.727
722.118, 18.289
723.413, 18.262
724.708, 3.610
726.002, 25.002
727.297, 15.731
728.591, 8.035
729.885, 24.289
731.179, 22.192
732.472, 31.236
733.766, 40.486
735.059, 38.190
736.352, 32.715
737.645, 58.411
738.937, 62.187
740.230, 76.811
741.522, 62.445
742.814, 60.091
744.106, 62.646
745.397, 84.210
746.689, 69.330
747.980, 84.247
749.271, 77.919
750.562, 105.746
751.853, 129.065
753.143, 116.732
754.433, 150.881
755.723, 189.099
757.013, 196.007
758.303, 217.107
759.592, 250.647
760.881, 330.564
762.170, 352.558
763.459, 453.595
764.748, 524.760
766.036, 592.901
767.325, 665.030
768.613, 714.130
769.901, 761.991
771.188, 808.657
772.476, 822.628
773.763, 823.758
775.050, 797.581
776.337, 796.647
777.624, 777.028
778.910, 698.516
780.196, 731.683
781.482, 650.497
782.768, 603.574
784.054, 616.743
785.339, 667.914
786.625, 628.941
787.910, 641.028
789.195, 612.202
790.479, 647.378
791.764, 713.554
793.048, 704.732
794.332, 728.912
795.616, 837.093
796.900, 827.277
798.183, 972.463
799.467, 1010.651
800.750, 1160.841
802.033, 1278.033
803.316, 1388.227
804.598, 1566.416
805.880, 1661.615
807.163, 1837.214
808.445, 1998.135
809.726, 2166.340
811.008, 2311.355
812.289, 2416.367
813.570, 2384.534
814.851, 2322.752
816.132, 2220.764
817.413, 2204.750
818.693, 2158.523
819.973, 2235.454
821.253, 2385.322
822.533, 2465.528
823.813, 2694.651
825.092, 2900.674
826.371, 3178.310
827.650, 3519.559
828.929, 3887.163
830.208, 4402.875
831.486, 4964.011
832.764, 5451.688
834.042, 5980.543
835.320, 6654.746
836.598, 7031.796
837.875, 7315.403
839.152, 7336.537
840.429, 6925.579
841.706, 6583.885
842.983, 5865.191
844.259, 5381.378
845.536, 4773.703
846.812, 4082.858
848.088, 3682.660
849.363, 3264.021
850.639, 2924.389
851.914, 2712.766
853.189, 2444.154
854.464, 2303.559
855.739, 2111.982
857.013, 2040.412
858.288, 1904.865
859.562, 1869.337
860.836, 1858.819
862.110, 1884.313
863.383, 1879.820
864.656, 1929.340
865.930, 1995.872
867.203, 2040.417
868.475, 2168.973
869.748, 2228.545
871.020, 2332.129
872.292, 2547.732
873.564, 2716.421
874.836, 2962.254
876.108, 3146.910
877.379, 3430.114
878.650, 3857.792
879.922, 4271.490
881.192, 4700.252
882.463, 5126.984
883.733, 5513.167
885.004, 6010.985
886.274, 6731.105
887.544, 7796.930
888.813, 9724.488
890.083, 12265.846
891.352, 16424.938
892.621, 22846.510
893.890, 32196.336
895.159, 45501.332
896.427, 58762.395
897.695, 64769.246
898.964, 60031.855
900.232, 45589.160
901.499, 31561.252
902.767, 21620.379
904.034, 15108.282
905.301, 10912.320
906.568, 8299.583
907.835, 6592.518
909.102, 5235.464
910.368, 4350.928
911.634, 3662.287
912.900, 3137.827
914.166, 2735.820
915.432, 2317.384
916.697, 2087.250
917.962, 1881.419
919.227, 1698.427
920.492, 1501.444
921.757, 1389.580
923.021, 1261.610
924.285, 1205.649
925.550, 1116.700
926.813, 1014.758
928.077, 956.824
929.341, 870.898
930.604, 837.980
931.867, 786.069
933.130, 707.164
934.393, 654.269
935.655, 633.380
936.918, 571.587
938.180, 544.711
939.442, 495.843
940.703, 437.983
941.965, 416.129
943.226, 379.360
944.488, 401.440
945.749, 341.606
947.009, 330.778
948.270, 334.174
949.530, 280.361
950.791, 282.554
952.051, 278.753
953.311, 266.960
954.570, 234.172
955.830, 218.392
957.089, 222.617
958.348, 214.850
959.607, 242.091
960.866, 231.349
962.124, 204.823
963.383, 255.087
964.641, 264.359
965.899, 293.637
967.156, 383.659
968.414, 444.256
969.671, 576.557
970.928, 694.866
972.185, 703.182
973.442, 623.507
974.699, 500.838
975.955, 363.176
977.211, 273.521
978.468, 231.876
979.723, 160.236
980.979, 137.605
982.234, 80.984
983.490, 109.369
984.745, 58.768
986.000, 71.175
987.254, 84.588
988.509, 50.010
989.763, 70.440
991.017, 63.876
992.271, 50.320
993.525, 56.769
994.779, 60.223
996.032, 29.685
997.285, 37.151
998.538, 33.018
999.791, 10.500
1001.044, 41.102
1002.296, 27.595
1003.548, 24.187
1004.800, 24.691
1006.052, 22.645
1007.304, 23.001
1008.555, 30.521
1009.807, 25.396
1011.058, 29.928
1012.309, 2.544
1013.559, 19.855
1014.810, 10.849
1016.060, 27.434
1017.310, 24.103
1018.560, 4.662
1019.810, 10.469
1021.060, 4.036
1022.309, 3.869
1023.558, 4.556
1024.807, 12.855
1026.056, 0.147
1027.305, 17.733
1028.553, 14.532
1029.801, 17.286
1031.049, 2.869
1032.297, 0.042
1033.545, 14.360
1034.793, 3.463
1036.040, 11.863
1037.287, 2.265
1038.534, 20.603
1039.781, 15.967
1041.027, 9.375
1042.274, 19.681
1043.520, 5.907
1044.766, 5.502
1046.012, 6.882
1047.257, 2.792
1048.503, 18.556
1049.748, 30.953
1050.993, 6.361
1052.238, 6.773
1053.483, 7.815
1054.727, 3.596
1055.971, 9.006
1057.216, 7.582
1058.459, 9.172
1059.703, 12.236
1060.947, 9.646
1062.190, 13.055
1063.433, 0.527
1064.676, 12.890
1065.919, 18.309
1067.162, 3.737
1068.404, 5.834
1069.646, 1.406
1070.888, 2.019
1072.130, 5.556
1073.372, 19.132
1074.613, 16.710
1075.855, 13.288
1077.096, 19.867
1078.337, 13.446
1079.578, 15.026
1080.818, 15.607
1082.059, 10.188
1083.299, 16.770
1084.539, 41.352
1085.779, 0.066
1087.018, 24.516
1088.258, 46.098
1089.497, 33.698
1090.736, 43.282
1091.975, 15.865
1093.213, 45.449
1094.452, 33.032
1095.690, 34.625
1096.928, 1.709
1098.166, 38.930
1099.404, 21.581
1100.642, 25.161
1101.879, 25.740
1103.116, 21.319
1104.353, 23.897
1105.590, 10.475
1106.827, 14.052
1108.063, 24.628
1109.299, 5.231
1110.536, 0.175
1111.771, 10.546
1113.007, 7.117
1114.243, 31.740
1115.478, 8.576
1116.713, 1.010
1117.948, 16.663
1119.183, 14.267
1120.418, 25.822
1121.652, 49.385
1122.886, 55.938
1124.120, 42.489
1125.354, 31.055
1126.588, 16.603
1127.821, 19.035
1129.055, 36.712
1130.288, 23.273
1131.521, 20.895
1132.753, 15.466
1133.986, 13.059
1135.218, 14.646
1136.450, 10.236
1137.682, 22.800
1138.914, 25.330
1140.146, 28.251
1141.377, 35.384
1142.609, 34.907
1143.840, 34.460
1145.071, 35.978
1146.301, 1.526
1147.532, 38.245
1148.762, 7.834
1149.992, 26.387
1151.222, 8.887
1152.452, 16.383
1153.682, 9.876
1154.911, 10.364
1156.140, 29.194
1157.369, 12.306
1158.598, 15.484
1159.827, 10.942
1161.055, 2.606
1162.284, 2.836
1163.512, 13.301
1164.740, 10.830
1165.967, 21.356
1167.195, 7.807
1168.422, 19.356
1169.650, 7.769
1170.877, 20.235
1172.103, 12.004
1173.330, 11.910
1174.557, 2.469
1175.783, 0.080
1177.009, 7.711
1178.235, 8.641
1179.461, 7.351
1180.686, 28.690
1181.912, 7.585
1183.137, 18.849
1184.362, 30.815
1185.587, 15.087
1186.811, 15.647
1188.036, 26.414
1189.260, 12.531
1190.484, 33.165
1191.708, 24.562
1192.932, 16.913
1194.155, 13.995
1195.378, 16.484
1196.602, 20.067
1197.825, 18.916
1199.047, 33.095
1200.270, 25.175
1201.492, 26.442
1202.715, 41.620
1203.937, 30.540
1205.159, 28.036
1206.380, 34.288
1207.602, 21.058
1208.823, 19.903
1210.044, 40.605
1211.265, 40.825
1212.486, 20.504
1213.707, 36.895
1214.927, 24.949
1216.147, 33.169
1217.367, 34.823
1218.587, 47.146
1219.807, 40.588
1221.027, 38.717
1222.246, 35.918
1223.465, 30.149
1224.684, 42.342
1225.903, 32.531
1227.121, 40.716
1228.340, 31.896
1229.558, 41.257
1230.776, 41.431
1231.994, 28.600
1233.212, 30.738
1234.429, 28.899
1235.646, 21.131
1236.864, 25.353
1238.081, 55.648
1239.297, 41.791
1240.514, 48.974
1241.730, 24.137
1242.947, 15.268
1244.163, 17.179
1245.378, 16.303
1246.594, 31.423
1247.810, 35.539
1249.025, 38.659
1250.240, 46.784
1251.455, 44.675
1252.670, 35.989
1253.885, 44.093
1255.099, 22.292
1256.313, 24.399
1257.527, 12.272
1258.741, 35.359
1259.955, 19.434
1261.168, 14.504
1262.382, 27.850
1263.595, 13.607
1264.808, 19.666
1266.021, 30.735
1267.233, 26.848
1268.446, 34.894
1269.658, 35.283
1270.870, 25.966
1272.082, 32.040
1273.294, 36.063
1274.505, 26.097
1275.716, 26.111
1276.928, 17.121
1278.139, 23.149
1279.349, 20.148
1280.560, 20.663
1281.770, 20.126
1282.981, 23.104
1284.191, 35.081
1285.401, 36.109
1286.610, 31.078
1287.820, 36.646
1289.029, 24.013
1290.239, 31.954
1291.448, 23.890
1292.656, 9.428
1293.865, 17.354
1295.073, 21.161
1296.282, 38.077
1297.490, 34.895
1298.698, 31.803
1299.906, 6.631
1301.113, 16.317
1302.320, 24.206
1303.528, 2.759
1304.735, 28.637
1305.942, 30.477
1307.148, 28.577
1308.355, 21.000
1309.561, 12.825
1310.767, 12.566
1311.973, 21.417
1313.179, 10.026
1314.384, 41.867
1315.590, 16.442
1316.795, 0.726
1318.000, 25.979
1319.205, 26.395
1320.410, 4.322
1321.614, 24.813
1322.819, 28.459
1324.023, 1.988
1325.227, 22.497
1326.431, 22.294
1327.634, 21.788
1328.838, 27.978
1330.041, 26.366
1331.244, 21.087
1332.447, 20.831
1333.650, 8.613
1334.852, 9.291
1336.055, 8.089
1337.257, 15.138
1338.459, 35.604
1339.661, 14.710
1340.862, 10.997
1342.064, 30.747
1343.265, 6.500
1344.466, 14.255
1345.667, 26.017
1346.868, 14.765
1348.068, 33.511
1349.269, 0.255
1350.469, 42.994
1351.669, 15.730
1352.869, 26.464
1354.069, 16.198
1355.268, 29.931
1356.468, 17.662
1357.667, 15.391
1358.866, 34.177
1360.065, 24.907
1361.263, 3.366
1362.462, 0.592
1363.660, 21.313
1364.858, 4.030
1366.056, 32.745
1367.254, 15.458
1368.451, 25.170
1369.649, 30.904
1370.846, 41.612
1372.043, 28.326
1373.240, 2.015
1374.436, 26.932
1375.633, 50.613
1376.829, 11.287
1378.025, 37.995
1379.221, 9.626
1380.417, 10.221
1381.613, 3.796
1382.808, 25.340
1384.003, 13.187
1385.199, 16.933
1386.393, 38.637
1387.588, 26.466
1388.783, 37.289
1389.977, 27.107
1391.171, 24.823
1392.365, 21.515
1393.559, 19.256
1394.753, 22.922
1395.946, 26.538
1397.140, 21.315
1398.333, 6.096
1399.526, 16.854
1400.719, 21.605
1401.911, 21.255
1403.104, 34.912
1404.296, 31.536
1405.488, 19.240
1406.680, 26.976
1407.872, 22.669
1409.063, 19.354
1410.255, 9.717
1411.446, 22.373
1412.637, 33.086
1413.828, 33.353
1415.018, 11.612
1416.209, 27.327
1417.399, 19.013
1418.589, 28.476
1419.779, 27.983
1420.969, 16.625
1422.159, 22.525
1423.348, 28.587
1424.537, 26.318
1425.726, 30.454
1426.915, 26.787
1428.104, 8.912
1429.293, 21.616
1430.481, 16.091
1431.669, 18.831
1432.857, 37.718
1434.045, 27.299
1435.233, 39.735
1436.420, 47.349
1437.608, 45.626
1438.795, 33.234
1439.982, 34.841
1441.169, 32.454
1442.355, 42.046
1443.542, 37.923
1444.728, 27.137
1445.914, 11.490
1447.100, 38.037
1448.286, 5.643
1449.472, 23.897
1450.657, 13.485
1451.842, 25.950
1453.027, 28.243
1454.212, 14.520
1455.397, 12.936
1456.581, 24.488
1457.766, 39.029
1458.950, 17.544
1460.134, 33.025
1461.318, 11.524
1462.501, 21.724
1463.685, 23.178
1464.868, 26.663
1466.051, 14.098
1467.234, 29.516
1468.417, 19.803
1469.600, 19.253
1470.782, 17.586
1471.965, 30.990
1473.147, 21.362
1474.329, 24.808
1475.510, 33.257
1476.692, 24.537
1477.873, 7.906
1479.055, 15.392
1480.236, 22.898
1481.416, 35.405
1482.597, 42.909
1483.778, 26.406
1484.958, 15.923
1486.138, 37.383
1487.318, 9.735
1488.498, 26.223
1489.678, 32.746
1490.857, 17.248
1492.037, 24.782
1493.216, 17.262
1494.395, 21.809
1495.574, 11.360
1496.752, 18.924
1497.931, 22.502
1499.109, 33.096
1500.287, 2.704
1501.465, 25.215
1502.643, 22.856
1503.820, 2.490
1504.998, 33.178
1506.175, 17.786
1507.352, 16.500
1508.529, 24.238
1509.706, 18.007
1510.882, 8.757
1512.059, 16.586
1513.235, 12.775
1514.411, 40.306
1515.587, 1.258
1516.762, 35.077
1517.938, 17.691
1519.113, 6.185
1520.288, 18.407
1521.463, 20.307
1522.638, 5.835
1523.813, 0.000
##END=



