##NAMES=Tamarugite
##RRUFFID=R061060
##IDEAL CHEMISTRY=NaAl(SO_4_)_2_&#183;6H_2_O
##LOCALITY=El Desierto mine fumaroles, Potos√≠, Bolivia
##OWNER=RRUFF
##SOURCE=Michael Scott
##DESCRIPTION=Colorless thin tabular crystals associated with yellow sulfur and colorless potassium alum
##STATUS=The identification of this mineral has been confirmed by single-crystal X-ray diffraction.
##URL=rruff.info/R061060
106.5825, 0.0000000E+00
107.0646, 3.147690
107.5468, 7.518578
108.0289, 9.951042
108.5110, 8.985863
108.9931, 5.428017
109.4752, 2.783279
109.9573, 0.6569060
110.4395, 3.4210000E-02
110.9216, 2.647820
111.4037, 8.796707
111.8858, 13.39320
112.3679, 13.68923
112.8500, 11.63696
113.3322, 9.485405
113.8143, 8.077209
114.2964, 7.520699
114.7785, 9.732048
115.2606, 19.83861
115.7427, 25.35810
116.2249, 21.22794
116.7070, 14.48053
117.1891, 9.342697
117.6712, 7.660057
118.1533, 8.490891
118.6354, 9.920387
119.1175, 13.32823
119.5997, 14.67963
120.0818, 11.17201
120.5639, 5.282166
121.0460, 0.7246630
121.5281, 0.1381450
122.0102, 2.672478
122.4924, 3.064667
122.9745, 1.421860
123.4566, 4.960083
123.9387, 5.802353
124.4208, 4.410088
124.9029, 1.838051
125.3851, 1.180260
125.8672, 4.647934
126.3493, 8.866638
126.8314, 13.79577
127.3135, 19.60590
127.7956, 26.95822
128.2778, 35.40397
128.7599, 44.05889
129.2420, 52.36171
129.7241, 60.72082
130.2062, 66.06666
130.6884, 65.45222
131.1705, 64.68648
131.6526, 66.26814
132.1347, 70.33110
132.6168, 75.78346
133.0989, 81.74464
133.5811, 89.52733
134.0632, 93.33955
134.5453, 92.99709
135.0274, 89.69737
135.5095, 82.18753
135.9916, 71.21284
136.4738, 60.72244
136.9559, 56.05270
137.4380, 59.40361
137.9201, 64.87512
138.4022, 74.78447
138.8843, 85.29893
139.3665, 93.37526
139.8486, 98.20369
140.3307, 100.9454
140.8128, 103.0851
141.2949, 102.2662
141.7770, 105.5878
142.2592, 114.6758
142.7413, 127.3199
143.2234, 141.9354
143.7055, 158.0418
144.1876, 174.6510
144.6697, 189.7938
145.1519, 201.2068
145.6340, 215.7417
146.1161, 235.6630
146.5982, 253.6423
147.0803, 265.6775
147.5624, 275.6424
148.0446, 284.1567
148.5267, 292.6207
149.0088, 303.5355
149.4909, 309.8575
149.9730, 306.7014
150.4551, 298.3223
150.9372, 292.9563
151.4194, 294.0795
151.9015, 298.4922
152.3836, 299.3538
152.8657, 295.8091
153.3478, 291.3972
153.8299, 289.2673
154.3121, 287.4303
154.7942, 279.8947
155.2763, 262.6389
155.7584, 239.9648
156.2405, 221.4908
156.7226, 207.9212
157.2048, 196.2397
157.6869, 185.6160
158.1690, 175.8224
158.6511, 165.3896
159.1332, 152.6452
159.6153, 140.1412
160.0975, 132.5357
160.5796, 131.5088
161.0617, 131.6937
161.5438, 129.0852
162.0259, 124.2897
162.5080, 121.3864
162.9902, 122.1603
163.4723, 125.9462
163.9544, 131.3915
164.4365, 139.8590
164.9186, 147.3762
165.4007, 151.1995
165.8829, 151.5022
166.3650, 148.9194
166.8471, 141.2058
167.3292, 132.2455
167.8113, 127.4574
168.2934, 128.1180
168.7756, 131.3989
169.2577, 136.5623
169.7398, 143.7387
170.2219, 147.0300
170.7040, 140.9014
171.1861, 131.1568
171.6683, 124.8667
172.1504, 123.2152
172.6325, 124.0405
173.1146, 126.6032
173.5967, 131.5045
174.0788, 134.6061
174.5610, 132.5365
175.0431, 127.5686
175.5252, 121.9349
176.0073, 115.1366
176.4894, 110.1292
176.9715, 111.5066
177.4537, 120.3074
177.9358, 127.6859
178.4179, 128.4858
178.9000, 126.4565
179.3821, 124.9173
179.8642, 124.4325
180.3464, 125.2238
180.8285, 127.3736
181.3106, 130.7868
181.7927, 135.9819
182.2748, 145.9900
182.7569, 156.9862
183.2391, 165.3229
183.7212, 169.6016
184.2033, 171.6427
184.6854, 172.8137
185.1675, 172.4730
185.6496, 174.4881
186.1318, 185.1632
186.6139, 196.7162
187.0960, 201.7831
187.5781, 197.4034
188.0602, 189.3482
188.5423, 185.1686
189.0245, 185.7676
189.5066, 186.1307
189.9887, 185.5949
190.4708, 183.5252
190.9529, 178.1251
191.4350, 167.9839
191.9172, 158.0642
192.3993, 156.1187
192.8814, 164.2477
193.3635, 170.4955
193.8456, 169.2121
194.3277, 165.3416
194.8099, 162.7481
195.2920, 162.6381
195.7741, 162.6937
196.2562, 159.3335
196.7383, 151.5792
197.2204, 145.2196
197.7026, 143.8002
198.1847, 143.5089
198.6668, 141.7223
199.1489, 137.8042
199.6310, 132.5167
200.1131, 125.6625
200.5953, 116.4044
201.0774, 110.4523
201.5595, 113.7140
202.0416, 118.5615
202.5237, 119.0106
203.0058, 113.5381
203.4880, 107.4953
203.9701, 108.5654
204.4522, 118.3427
204.9343, 123.8398
205.4164, 115.6449
205.8985, 105.8783
206.3807, 103.6013
206.8628, 110.2939
207.3449, 118.6283
207.8270, 119.9389
208.3091, 113.2756
208.7912, 109.5034
209.2734, 111.1918
209.7555, 116.5491
210.2376, 125.8309
210.7197, 138.9371
211.2018, 151.8752
211.6839, 160.1156
212.1661, 163.4642
212.6482, 168.1196
213.1303, 178.1613
213.6124, 187.1167
214.0945, 190.5531
214.5766, 188.3163
215.0588, 183.3925
215.5409, 175.8468
216.0230, 165.9104
216.5051, 163.0143
216.9872, 176.8006
217.4693, 189.6203
217.9515, 190.1567
218.4336, 178.6947
218.9157, 161.9633
219.3978, 142.8529
219.8799, 121.7967
220.3620, 102.6900
220.8442, 84.70929
221.3263, 70.53842
221.8084, 63.41788
222.2905, 61.95532
222.7726, 59.37036
223.2547, 49.44510
223.7369, 34.07153
224.2190, 23.14839
224.7011, 18.78706
225.1832, 16.89565
225.6653, 15.58228
226.1474, 14.43321
226.6296, 12.05077
227.1117, 6.579712
227.5938, 0.7382050
228.0759, 6.413773
228.5580, 10.56314
229.0401, 12.43166
229.5223, 9.540543
230.0044, 4.046646
230.4865, 0.9261470
230.9686, 4.848389
231.4507, 12.02483
231.9328, 14.21558
232.4150, 9.865891
232.8971, 4.996964
233.3792, 3.669098
233.8613, 4.361420
234.3434, 4.732971
234.8255, 4.893112
235.3077, 3.834152
235.7898, 1.419739
236.2719, 12.09381
236.7540, 19.83107
237.2361, 15.60104
237.7182, 6.297379
238.2004, 3.126373
238.6825, 10.78479
239.1646, 22.60439
239.6467, 32.72859
240.1288, 41.21059
240.6109, 47.52513
241.0931, 50.69704
241.5752, 51.71935
242.0573, 52.34204
242.5394, 51.91000
243.0215, 52.36604
243.5036, 55.83412
243.9858, 61.91528
244.4679, 67.47607
244.9500, 70.77374
245.4321, 73.29759
245.9142, 78.10098
246.3963, 86.59979
246.8785, 93.66562
247.3606, 96.26361
247.8427, 95.18671
248.3248, 92.31691
248.8069, 87.13991
249.2890, 82.20874
249.7712, 82.44919
250.2533, 89.03271
250.7354, 94.20876
251.2175, 95.17046
251.6996, 92.88129
252.1817, 88.45291
252.6639, 81.74146
253.1460, 74.65741
253.6281, 70.55348
254.1102, 70.14957
254.5923, 66.87045
255.0744, 55.58002
255.5566, 42.56415
256.0387, 36.39673
256.5208, 38.64020
257.0029, 42.35707
257.4850, 40.16690
257.9671, 30.93628
258.4492, 23.31607
258.9314, 17.84111
259.4135, 13.88058
259.8956, 11.04889
260.3777, 9.272156
260.8598, 8.665207
261.3419, 9.845108
261.8241, 12.86488
262.3062, 12.61500
262.7883, 5.355774
263.2704, 1.274307
263.7525, 3.488754
264.2346, 1.831070
264.7168, 1.623871
265.1989, 5.967438
265.6810, 10.81461
266.1631, 12.45107
266.6452, 7.419952
267.1273, 3.559708
267.6095, 3.932251
268.0916, 6.660065
268.5737, 8.355103
269.0558, 7.271896
269.5379, 4.565918
270.0201, 3.908691
270.5022, 9.186203
270.9843, 11.93205
271.4664, 9.744659
271.9485, 5.753784
272.4306, 2.852982
272.9128, 2.102539
273.3949, 3.243698
273.8770, 6.050522
274.3591, 12.32887
274.8412, 16.98039
275.3233, 19.37523
275.8055, 20.82191
276.2876, 21.73521
276.7697, 22.44191
277.2518, 23.70296
277.7339, 26.81874
278.2160, 32.73940
278.6982, 36.48380
279.1803, 36.35864
279.6624, 35.64388
280.1445, 35.30386
280.6266, 35.54204
281.1087, 36.33804
281.5909, 37.57898
282.0730, 39.30014
282.5551, 42.27367
283.0372, 47.95215
283.5193, 53.22319
284.0014, 58.25984
284.4836, 62.05800
284.9657, 62.49481
285.4478, 57.18008
285.9299, 48.73570
286.4120, 45.53065
286.8941, 49.16133
287.3763, 55.21420
287.8584, 64.37891
288.3405, 73.99542
288.8226, 80.30164
289.3047, 81.04219
289.7868, 81.31337
290.2690, 90.14162
290.7511, 109.0927
291.2332, 122.1170
291.7153, 118.7457
292.1974, 110.8562
292.6795, 109.3240
293.1617, 115.6271
293.6438, 124.2440
294.1259, 131.2878
294.6080, 136.9786
295.0901, 142.7744
295.5722, 149.3800
296.0544, 155.4663
296.5365, 159.7387
297.0186, 162.3254
297.5007, 164.1783
297.9828, 164.5622
298.4649, 164.7928
298.9471, 167.4179
299.4292, 173.0280
299.9113, 179.1106
300.3934, 183.5589
300.8755, 186.5722
301.3576, 189.6329
301.8398, 192.0838
302.3219, 195.2537
302.8040, 200.8297
303.2861, 208.2791
303.7682, 215.0576
304.2503, 218.6393
304.7325, 220.8004
305.2146, 230.0284
305.6967, 249.9472
306.1788, 271.6797
306.6609, 294.4167
307.1430, 316.7108
307.6252, 335.3817
308.1073, 348.5956
308.5894, 359.0621
309.0715, 372.6466
309.5536, 393.3406
310.0357, 411.7160
310.5179, 426.7500
311.0000, 439.7875
311.4821, 452.4672
311.9642, 465.0518
312.4463, 476.2253
312.9284, 484.5602
313.4106, 490.5764
313.8927, 491.3407
314.3748, 483.1376
314.8569, 473.8758
315.3390, 469.6744
315.8211, 468.2344
316.3033, 461.9137
316.7854, 444.0335
317.2675, 415.5922
317.7496, 388.2929
318.2317, 361.1383
318.7138, 337.0106
319.1960, 318.3905
319.6781, 302.6220
320.1602, 285.9185
320.6423, 266.2995
321.1244, 246.3321
321.6065, 231.9285
322.0887, 225.0205
322.5708, 217.9472
323.0529, 207.6348
323.5350, 196.9022
324.0171, 188.2141
324.4992, 182.0396
324.9814, 176.1597
325.4635, 168.1267
325.9456, 158.1236
326.4277, 149.4066
326.9098, 142.7502
327.3919, 137.3036
327.8741, 132.2565
328.3562, 127.6433
328.8383, 123.6364
329.3204, 120.0071
329.8025, 117.2261
330.2846, 115.8134
330.7668, 116.0218
331.2489, 118.6803
331.7310, 124.6926
332.2131, 133.5830
332.6952, 141.9259
333.1773, 147.7426
333.6595, 154.4873
334.1416, 164.7987
334.6237, 177.9714
335.1058, 191.3667
335.5879, 203.7264
336.0700, 215.6680
336.5522, 229.0557
337.0343, 246.4996
337.5164, 260.5895
337.9985, 268.2314
338.4806, 272.6801
338.9627, 277.7155
339.4449, 284.1936
339.9270, 290.5062
340.4091, 294.9411
340.8912, 298.1273
341.3733, 296.4648
341.8554, 286.7637
342.3376, 275.9218
342.8197, 267.3286
343.3018, 260.7268
343.7839, 254.1243
344.2660, 245.9967
344.7481, 236.6429
345.2303, 228.4703
345.7124, 222.3906
346.1945, 216.4394
346.6766, 211.9059
347.1587, 206.5903
347.6408, 197.2467
348.1230, 182.4613
348.6051, 165.9035
349.0872, 153.6469
349.5693, 146.6143
350.0514, 139.2485
350.5335, 129.6590
351.0157, 120.1848
351.4978, 112.7833
351.9799, 107.3200
352.4620, 101.5222
352.9441, 93.05133
353.4262, 82.84450
353.9084, 74.32863
354.3905, 67.80447
354.8726, 62.72247
355.3547, 60.35451
355.8368, 59.24651
356.3189, 55.89977
356.8011, 46.44759
357.2832, 36.77330
357.7653, 33.77248
358.2474, 36.30836
358.7295, 35.89246
359.2116, 27.18602
359.6938, 14.29857
360.1759, 8.338562
360.6580, 13.04871
361.1401, 16.00050
361.6222, 12.84619
362.1043, 6.604980
362.5865, 0.6727450
363.0686, 4.091415
363.5507, 7.786835
364.0328, 10.59050
364.5149, 12.67250
364.9970, 12.86366
365.4792, 9.538177
365.9613, 6.129868
366.4434, 4.406631
366.9255, 4.035461
367.4076, 3.807678
367.8897, 2.896561
368.3719, 1.551575
368.8540, 0.9683530
369.3361, 1.425034
369.8182, 2.285721
370.3003, 3.716385
370.7824, 5.299072
371.2646, 6.647675
371.7467, 7.650391
372.2288, 8.476837
372.7109, 9.664917
373.1930, 11.32401
373.6751, 11.37485
374.1573, 8.322220
374.6394, 4.958801
375.1215, 2.982803
375.6036, 2.250229
376.0857, 2.052643
376.5678, 1.740952
377.0500, 1.857681
377.5321, 3.826645
378.0142, 7.895920
378.4963, 11.54015
378.9784, 13.46481
379.4605, 13.82056
379.9427, 13.39369
380.4248, 11.74469
380.9069, 10.00537
381.3890, 8.716568
381.8711, 7.709900
382.3532, 6.639160
382.8354, 5.391876
383.3175, 4.034439
383.7996, 2.576508
384.2817, 0.7197570
384.7638, 0.2325900
385.2459, 1.138687
385.7281, 2.221054
386.2102, 2.7222000E-02
386.6923, 4.270523
387.1744, 6.059494
387.6565, 1.398956
388.1386, 8.194153
388.6208, 11.80933
389.1029, 4.153381
389.5850, 2.685577
390.0671, 7.220779
390.5492, 9.839310
391.0313, 10.32446
391.5135, 8.721451
391.9956, 7.188095
392.4777, 9.231339
392.9598, 15.36084
393.4419, 18.85544
393.9240, 15.79411
394.4062, 13.69826
394.8883, 18.80048
395.3704, 29.11658
395.8525, 37.35875
396.3346, 37.68942
396.8167, 34.93442
397.2989, 37.68317
397.7810, 46.26811
398.2631, 52.99236
398.7452, 52.17255
399.2273, 47.87607
399.7094, 50.08466
400.1916, 61.89841
400.6737, 73.81894
401.1558, 82.28778
401.6379, 88.60786
402.1200, 94.46371
402.6021, 100.3178
403.0843, 106.1661
403.5664, 111.6724
404.0485, 116.2318
404.5306, 124.1434
405.0127, 138.3794
405.4948, 152.5775
405.9770, 164.5190
406.4591, 174.1028
406.9412, 181.2546
407.4233, 185.7049
407.9054, 188.7913
408.3875, 194.2305
408.8697, 202.7959
409.3518, 212.1738
409.8339, 223.4351
410.3160, 234.3740
410.7981, 243.6442
411.2802, 250.9933
411.7624, 256.3212
412.2445, 258.0501
412.7266, 257.2670
413.2087, 259.2407
413.6908, 264.0021
414.1729, 271.9751
414.6551, 288.5427
415.1372, 307.9467
415.6193, 318.9396
416.1014, 313.8966
416.5835, 306.9207
417.0656, 308.6165
417.5478, 316.8470
418.0299, 325.2557
418.5120, 332.3400
418.9941, 337.9702
419.4762, 341.9433
419.9583, 343.7072
420.4405, 344.7354
420.9226, 344.9629
421.4047, 344.5912
421.8868, 343.5789
422.3689, 342.1206
422.8510, 340.7562
423.3332, 340.0080
423.8153, 339.7996
424.2974, 339.5141
424.7795, 338.3453
425.2616, 338.1480
425.7437, 339.2761
426.2259, 341.4233
426.7080, 344.3866
427.1901, 348.0157
427.6722, 351.9927
428.1543, 354.4993
428.6364, 356.0230
429.1186, 364.6317
429.6007, 385.5242
430.0828, 405.2630
430.5649, 412.5015
431.0470, 412.4893
431.5291, 416.1617
432.0113, 426.1852
432.4934, 441.3171
432.9755, 462.7298
433.4576, 488.7547
433.9397, 512.6926
434.4218, 531.8477
434.9040, 549.2537
435.3861, 569.9920
435.8682, 595.9599
436.3503, 618.8227
436.8324, 638.1863
437.3145, 654.6031
437.7967, 666.3107
438.2788, 675.0768
438.7609, 686.3660
439.2430, 704.7734
439.7251, 727.5257
440.2072, 741.5092
440.6894, 743.2611
441.1715, 741.3568
441.6536, 734.5724
442.1357, 726.7291
442.6178, 721.5475
443.0999, 719.3636
443.5821, 716.5908
444.0642, 708.0157
444.5463, 695.1849
445.0284, 689.2429
445.5105, 693.2009
445.9926, 697.6052
446.4748, 694.1220
446.9569, 688.1382
447.4390, 688.7974
447.9211, 701.0460
448.4032, 715.1541
448.8853, 722.7209
449.3675, 727.4318
449.8496, 739.1318
450.3317, 761.0407
450.8138, 787.2444
451.2959, 809.7911
451.7780, 826.8611
452.2602, 847.7643
452.7423, 873.4744
453.2244, 901.6157
453.7065, 932.5327
454.1886, 964.7557
454.6707, 996.0820
455.1529, 1025.242
455.6350, 1052.518
456.1171, 1079.120
456.5992, 1106.664
457.0813, 1128.844
457.5634, 1144.926
458.0455, 1155.122
458.5276, 1158.765
459.0098, 1156.154
459.4919, 1148.688
459.9740, 1137.221
460.4561, 1121.436
460.9382, 1099.057
461.4203, 1069.487
461.9025, 1041.924
462.3846, 1023.655
462.8667, 1008.313
463.3488, 980.4358
463.8309, 934.5239
464.3130, 890.6314
464.7952, 855.4832
465.2773, 824.6887
465.7594, 792.2168
466.2415, 758.0561
466.7236, 729.1625
467.2057, 712.9882
467.6879, 708.5722
468.1700, 694.4864
468.6521, 656.2554
469.1342, 625.7656
469.6163, 613.4771
470.0984, 608.4296
470.5806, 599.2769
471.0627, 583.0696
471.5448, 564.2708
472.0269, 546.0834
472.5090, 528.7889
472.9911, 517.8334
473.4733, 517.3440
473.9554, 515.4221
474.4375, 501.1422
474.9196, 479.8379
475.4017, 461.9603
475.8839, 449.3462
476.3660, 440.3986
476.8481, 436.8094
477.3302, 435.8444
477.8123, 430.2964
478.2944, 417.8883
478.7766, 404.8489
479.2587, 399.7384
479.7408, 405.1788
480.2229, 404.7932
480.7050, 397.5240
481.1871, 386.5166
481.6693, 369.8674
482.1514, 351.1411
482.6335, 336.1140
483.1156, 327.4725
483.5977, 321.8710
484.0798, 314.7781
484.5620, 306.5826
485.0441, 293.7183
485.5262, 272.5873
486.0083, 250.2749
486.4904, 230.5010
486.9725, 213.5900
487.4547, 200.3564
487.9368, 194.6243
488.4189, 189.5665
488.9010, 177.3132
489.3831, 159.3700
489.8652, 142.2632
490.3474, 128.0304
490.8295, 117.3045
491.3116, 111.3922
491.7937, 113.3573
492.2758, 111.6111
492.7579, 102.5977
493.2401, 93.03131
493.7222, 86.50974
494.2043, 82.46933
494.6864, 78.55011
495.1685, 73.36871
495.6506, 68.11234
496.1328, 66.32355
496.6149, 69.87640
497.0970, 70.49472
497.5791, 63.99203
498.0612, 56.45453
498.5433, 51.12686
499.0255, 48.36746
499.5076, 48.30615
499.9897, 53.09866
500.4718, 58.87445
500.9539, 60.99283
501.4360, 59.72455
501.9182, 56.78540
502.4003, 52.20917
502.8824, 48.58633
503.3645, 50.75311
503.8466, 62.60352
504.3287, 70.27060
504.8109, 69.84375
505.2930, 68.15338
505.7751, 69.91016
506.2572, 74.15335
506.7393, 77.39297
507.2214, 77.22488
507.7036, 75.09195
508.1857, 74.17244
508.6678, 73.82260
509.1499, 77.23262
509.6320, 89.56619
510.1141, 101.6728
510.5963, 104.8626
511.0784, 101.1748
511.5605, 102.5033
512.0426, 120.2586
512.5247, 141.3974
513.0068, 148.9268
513.4890, 145.1797
513.9711, 144.6414
514.4532, 154.0143
514.9353, 167.2077
515.4174, 172.9918
515.8995, 166.4824
516.3817, 164.6578
516.8638, 169.5685
517.3459, 177.1618
517.8280, 186.8434
518.3101, 197.2475
518.7922, 205.8564
519.2744, 211.2541
519.7565, 214.8877
520.2386, 220.1956
520.7207, 227.8674
521.2028, 232.7681
521.6849, 233.7494
522.1671, 231.8934
522.6492, 226.5068
523.1313, 218.7578
523.6134, 213.7885
524.0955, 215.6201
524.5776, 218.8184
525.0598, 218.8780
525.5419, 216.5258
526.0240, 214.1351
526.5061, 212.5580
526.9882, 211.0051
527.4703, 208.5294
527.9525, 205.4871
528.4346, 199.8980
528.9167, 191.6712
529.3988, 181.3999
529.8809, 168.4640
530.3630, 153.8891
530.8452, 138.1416
531.3273, 121.2080
531.8094, 106.4930
532.2915, 100.8599
532.7736, 103.6386
533.2557, 99.48434
533.7379, 83.07478
534.2200, 66.86331
534.7021, 62.06021
535.1842, 65.33485
535.6663, 65.89355
536.1484, 61.22504
536.6306, 55.23332
537.1127, 48.69293
537.5948, 42.35684
538.0769, 37.82664
538.5590, 35.32062
539.0411, 33.17786
539.5233, 29.70653
540.0054, 24.92778
540.4875, 19.23024
540.9696, 10.54706
541.4517, 3.942108
541.9338, 1.574295
542.4160, 1.223221
542.8981, 0.9275820
543.3802, 0.2617950
543.8623, 1.129395
544.3444, 4.150391
544.8265, 7.977493
545.3087, 10.71138
545.7908, 12.22305
546.2729, 12.94904
546.7550, 12.85672
547.2371, 12.34714
547.7192, 12.71649
548.2014, 14.44611
548.6835, 16.13608
549.1656, 18.06404
549.6477, 19.56264
550.1298, 20.09724
550.6119, 19.69275
551.0941, 18.60434
551.5762, 16.91946
552.0583, 14.84912
552.5404, 12.78137
553.0225, 10.48396
553.5046, 9.349915
553.9868, 10.53679
554.4689, 12.17627
554.9510, 12.36057
555.4331, 11.32899
555.9152, 11.01010
556.3973, 13.36661
556.8795, 15.46388
557.3616, 14.80598
557.8437, 11.97038
558.3258, 8.118835
558.8079, 3.598206
559.2900, 0.2970890
559.7722, 1.518951
560.2543, 0.6841740
560.7364, 1.783600
561.2185, 1.702667
561.7006, 0.5229950
562.1827, 3.377136
562.6649, 7.774826
563.1470, 9.069702
563.6291, 5.954880
564.1112, 2.660706
564.5933, 4.066986
565.0754, 8.479431
565.5576, 10.10495
566.0397, 8.060913
566.5218, 5.961746
567.0039, 6.008759
567.4860, 7.980759
567.9681, 10.95143
568.4503, 13.76396
568.9324, 19.05124
569.4145, 31.29196
569.8966, 43.10622
570.3787, 47.34392
570.8608, 44.74211
571.3430, 40.96040
571.8251, 39.50278
572.3072, 40.41667
572.7893, 44.33511
573.2714, 51.69884
573.7535, 59.42755
574.2357, 67.92419
574.7178, 75.13646
575.1999, 78.70279
575.6820, 78.96243
576.1641, 78.66861
576.6462, 77.25238
577.1284, 76.60358
577.6105, 77.87097
578.0926, 80.84503
578.5747, 85.57350
579.0568, 91.98392
579.5389, 98.33090
580.0211, 101.9764
580.5032, 102.5015
580.9853, 105.9021
581.4674, 114.3239
581.9495, 122.6341
582.4316, 128.2582
582.9138, 133.3075
583.3959, 141.2074
583.8780, 152.9673
584.3601, 162.5007
584.8422, 164.6171
585.3243, 162.6810
585.8065, 160.4250
586.2886, 158.6513
586.7707, 161.3942
587.2528, 171.5821
587.7349, 186.2829
588.2170, 197.7154
588.6992, 203.1637
589.1813, 210.3252
589.6634, 222.0213
590.1455, 232.5372
590.6276, 236.3756
591.1097, 236.9194
591.5919, 242.3754
592.0740, 257.6414
592.5561, 275.0009
593.0382, 283.1477
593.5203, 284.3762
594.0024, 291.5266
594.4846, 307.8126
594.9667, 325.5939
595.4488, 339.3594
595.9309, 349.2035
596.4130, 356.6476
596.8951, 357.8878
597.3773, 362.0078
597.8594, 374.6924
598.3415, 388.2228
598.8236, 394.8511
599.3057, 394.6884
599.7878, 393.5374
600.2700, 395.3175
600.7521, 399.4869
601.2342, 406.1050
601.7163, 415.7396
602.1984, 419.9347
602.6805, 413.9988
603.1627, 405.0055
603.6448, 401.3538
604.1269, 402.7998
604.6090, 402.5727
605.0911, 397.7464
605.5732, 393.5328
606.0554, 394.3655
606.5375, 396.6149
607.0196, 393.6562
607.5017, 384.3555
607.9838, 375.1916
608.4659, 373.9526
608.9481, 379.6112
609.4302, 381.0894
609.9123, 376.9254
610.3944, 372.7551
610.8765, 368.4048
611.3586, 366.7480
611.8408, 373.4108
612.3229, 389.7878
612.8050, 399.5237
613.2871, 392.2595
613.7692, 381.4852
614.2513, 376.8293
614.7335, 377.3492
615.2156, 379.7596
615.6977, 382.7722
616.1798, 386.1096
616.6619, 388.7028
617.1440, 390.0231
617.6262, 395.5337
618.1083, 408.8123
618.5904, 419.8860
619.0725, 420.5626
619.5546, 418.2850
620.0367, 423.4985
620.5189, 438.9108
621.0010, 453.2004
621.4831, 461.5381
621.9652, 465.9535
622.4473, 466.1312
622.9294, 464.1525
623.4116, 467.5421
623.8937, 480.6156
624.3758, 497.5648
624.8579, 506.6869
625.3400, 505.7628
625.8221, 505.2350
626.3043, 505.2079
626.7864, 505.7108
627.2685, 506.1655
627.7506, 507.2769
628.2327, 511.0914
628.7148, 519.6899
629.1970, 525.2172
629.6791, 518.8235
630.1612, 508.8107
630.6433, 508.6898
631.1254, 517.8929
631.6075, 525.3535
632.0897, 524.4946
632.5718, 517.3085
633.0539, 508.4531
633.5360, 496.4525
634.0181, 487.0103
634.5002, 483.9541
634.9824, 479.7454
635.4645, 469.9626
635.9466, 456.6948
636.4287, 444.4130
636.9108, 435.5948
637.3929, 424.5481
637.8751, 403.9183
638.3572, 380.0502
638.8393, 363.8596
639.3214, 355.8283
639.8035, 349.3156
640.2856, 340.0190
640.7678, 328.8484
641.2499, 318.6414
641.7320, 310.2971
642.2141, 300.4628
642.6962, 286.3444
643.1783, 273.0990
643.6605, 262.9790
644.1426, 255.9540
644.6247, 251.7917
645.1068, 251.5153
645.5889, 251.8250
646.0710, 251.6076
646.5532, 250.6818
647.0353, 246.7665
647.5174, 240.4874
647.9995, 238.6884
648.4816, 246.8970
648.9637, 261.6085
649.4459, 270.6164
649.9280, 271.8619
650.4101, 273.0749
650.8922, 275.9087
651.3743, 277.7997
651.8564, 276.1517
652.3386, 272.6275
652.8207, 271.3704
653.3028, 274.1307
653.7849, 278.0225
654.2670, 282.7103
654.7491, 286.7766
655.2313, 289.1277
655.7134, 289.0935
656.1955, 284.0934
656.6776, 271.8618
657.1597, 255.2586
657.6418, 242.4446
658.1240, 234.3632
658.6061, 226.5340
659.0882, 218.4370
659.5703, 210.6420
660.0524, 203.8379
660.5345, 197.4701
661.0167, 190.4888
661.4988, 183.0725
661.9809, 174.1943
662.4630, 160.8637
662.9451, 147.2244
663.4272, 138.2096
663.9094, 133.8422
664.3915, 131.7940
664.8736, 130.9445
665.3557, 130.0134
665.8378, 125.8827
666.3199, 118.0904
666.8021, 110.1263
667.2842, 101.6433
667.7663, 94.13010
668.2484, 89.49655
668.7305, 86.39459
669.2126, 81.77980
669.6948, 74.20844
670.1769, 67.92867
670.6590, 65.09140
671.1411, 63.52614
671.6232, 61.70514
672.1053, 59.37491
672.5875, 56.39592
673.0696, 52.64622
673.5517, 48.72981
674.0338, 45.69455
674.5159, 43.50232
674.9980, 41.08063
675.4802, 38.13248
675.9623, 35.67618
676.4444, 34.64565
676.9265, 34.37088
677.4086, 33.04385
677.8907, 29.97939
678.3729, 27.74066
678.8550, 28.63722
679.3371, 28.56766
679.8192, 22.97234
680.3013, 14.92227
680.7834, 10.96803
681.2656, 13.55569
681.7477, 17.85402
682.2298, 18.56567
682.7119, 16.50546
683.1940, 14.44449
683.6761, 12.51398
684.1583, 10.81548
684.6404, 9.261719
685.1225, 8.204147
685.6046, 8.414246
686.0867, 10.61662
686.5688, 11.81252
687.0510, 12.27611
687.5331, 11.44536
688.0152, 7.935944
688.4973, 4.125153
688.9794, 3.339645
689.4615, 6.169449
689.9437, 9.019867
690.4258, 9.387970
690.9079, 8.171371
691.3900, 6.476822
691.8721, 4.401672
692.3542, 1.932404
692.8364, 1.032562
693.3185, 3.117401
693.8006, 2.161560
694.2827, 2.057755
694.7648, 3.869019
695.2469, 1.641693
695.7291, 0.3780210
696.2112, 0.4192810
696.6933, 0.3766480
697.1754, 2.433548
697.6575, 6.352371
698.1396, 8.971405
698.6218, 8.526917
699.1039, 6.976486
699.5860, 5.710938
700.0681, 4.345932
700.5502, 1.563629
701.0323, 2.546875
701.5145, 5.847504
701.9966, 6.848206
702.4787, 5.171478
702.9608, 2.381256
703.4429, 18.07324
703.9250, 26.72517
704.4072, 23.27149
704.8893, 15.38861
705.3714, 7.846344
705.8535, 0.9427950
706.3356, 4.053848
706.8177, 6.829330
707.2999, 8.083878
707.7820, 7.292175
708.2641, 5.591064
708.7462, 2.829712
709.2283, 5.3040002E-02
709.7104, 0.1221920
710.1926, 4.980118
710.6747, 10.73955
711.1568, 11.74174
711.6389, 9.025345
712.1210, 7.225311
712.6031, 6.883133
713.0853, 6.322998
713.5674, 4.197983
714.0495, 1.786011
714.5316, 2.341354
715.0137, 7.650726
715.4958, 11.52551
715.9780, 12.41373
716.4601, 13.62263
716.9422, 17.59482
717.4243, 22.09123
717.9064, 23.87845
718.3885, 22.19704
718.8707, 19.50113
719.3528, 17.10045
719.8349, 14.48764
720.3170, 9.204269
720.7991, 3.218216
721.2813, 3.362503
721.7634, 11.75858
722.2455, 21.74640
722.7276, 25.61618
723.2097, 23.74687
723.6918, 20.16260
724.1740, 13.75159
724.6561, 9.293304
725.1382, 8.251343
725.6203, 9.567047
726.1024, 14.10310
726.5845, 21.16431
727.0667, 23.16060
727.5488, 13.99121
728.0309, 6.484726
728.5130, 5.442444
728.9951, 7.638214
729.4772, 10.65112
729.9594, 13.69897
730.4415, 16.22766
730.9236, 18.02359
731.4057, 18.77852
731.8878, 17.54106
732.3699, 14.81596
732.8521, 12.41643
733.3342, 10.57005
733.8163, 9.922379
734.2984, 10.98662
734.7805, 13.34546
735.2626, 15.93199
735.7448, 19.06638
736.2269, 21.69170
736.7090, 25.62254
737.1911, 26.89610
737.6732, 20.81473
738.1553, 12.51595
738.6375, 9.954803
739.1196, 14.95464
739.6017, 20.16943
740.0838, 23.30359
740.5659, 24.55315
741.0480, 22.63261
741.5302, 19.23959
742.0123, 18.86292
742.4944, 22.35263
742.9765, 23.95245
743.4586, 15.90906
743.9407, 1.842316
744.4229, 3.281395
744.9050, 1.005920
745.3871, 7.808784
745.8692, 16.80534
746.3513, 24.17583
746.8334, 25.54779
747.3156, 21.41045
747.7977, 18.94099
748.2798, 18.13330
748.7619, 18.21990
749.2440, 21.04050
749.7261, 23.41096
750.2083, 21.76349
750.6904, 17.89864
751.1725, 17.24963
751.6546, 23.26669
752.1367, 28.86116
752.6188, 26.20761
753.1010, 21.43896
753.5831, 25.17400
754.0652, 35.87335
754.5473, 41.61655
755.0294, 36.46637
755.5115, 27.24315
755.9937, 25.18355
756.4758, 30.52032
756.9579, 34.41093
757.4400, 36.68629
757.9221, 38.18123
758.4042, 39.58459
758.8864, 40.03028
759.3685, 37.59362
759.8506, 31.67751
760.3327, 28.75404
760.8148, 32.24628
761.2969, 33.25330
761.7791, 28.14328
762.2612, 22.12567
762.7433, 20.09289
763.2254, 21.66564
763.7075, 22.91064
764.1896, 21.61983
764.6718, 18.79221
765.1539, 14.61050
765.6360, 9.937378
766.1181, 5.825233
766.6002, 2.768478
767.0823, 2.859604
767.5645, 7.591133
768.0466, 14.42920
768.5287, 18.73865
769.0108, 20.40413
769.4929, 20.53078
769.9750, 18.59422
770.4572, 16.77509
770.9393, 15.58734
771.4214, 15.49094
771.9035, 17.54472
772.3856, 22.25471
772.8677, 26.31805
773.3499, 31.18382
773.8320, 33.49127
774.3141, 30.33719
774.7962, 25.18438
775.2783, 21.13417
775.7604, 18.73666
776.2426, 17.59581
776.7247, 17.72610
777.2068, 18.71352
777.6889, 21.35609
778.1710, 24.18102
778.6531, 23.49609
779.1353, 19.38652
779.6174, 15.61948
780.0995, 14.51497
780.5816, 15.76760
781.0637, 19.95108
781.5458, 27.38010
782.0280, 29.97620
782.5101, 26.00961
782.9922, 21.39017
783.4743, 18.38000
783.9564, 17.01597
784.4385, 17.82709
784.9207, 21.85397
785.4028, 23.33469
785.8849, 19.46036
786.3670, 16.60116
786.8491, 17.93426
787.3312, 20.24765
787.8134, 20.34872
788.2955, 18.09397
788.7776, 15.20573
789.2597, 11.19617
789.7418, 8.479515
790.2239, 9.852486
790.7061, 13.20191
791.1882, 15.79846
791.6703, 17.12889
792.1524, 17.21175
792.6345, 15.99354
793.1166, 14.00275
793.5988, 11.19202
794.0809, 8.007454
794.5630, 9.870407
795.0451, 17.90251
795.5272, 21.65630
796.0093, 15.14224
796.4915, 5.114655
796.9736, 2.031219
797.4557, 6.942566
797.9378, 9.697021
798.4199, 9.430916
798.9020, 8.149345
799.3842, 4.333992
799.8663, 1.266144
800.3484, 2.906952
800.8305, 8.033562
801.3126, 10.33633
801.7947, 4.486595
802.2769, 0.9804150
802.7590, 9.975258
803.2411, 20.10718
803.7232, 18.69299
804.2053, 8.701004
804.6874, 5.4680001E-02
805.1696, 3.404396
805.6517, 3.095444
806.1338, 0.9902650
806.6159, 6.719086
807.0980, 8.361229
807.5801, 6.429611
808.0623, 6.368584
808.5444, 10.15630
809.0265, 12.95251
809.5086, 8.440781
809.9907, 1.874222
810.4728, 4.787994
810.9550, 1.957825
811.4371, 8.284378
811.9192, 13.64218
812.4013, 16.19816
812.8834, 12.70775
813.3655, 5.248283
813.8477, 2.168007
814.3298, 6.511429
814.8119, 9.331161
815.2940, 9.415924
815.7761, 8.370300
816.2582, 5.616272
816.7404, 2.885651
817.2225, 2.934158
817.7046, 6.232468
818.1867, 9.431549
818.6688, 11.03973
819.1509, 11.62092
819.6331, 10.73870
820.1152, 9.164177
820.5973, 8.630013
821.0794, 9.204094
821.5615, 9.356590
822.0436, 7.916458
822.5258, 5.853989
823.0079, 5.610367
823.4900, 6.758537
823.9721, 4.282120
824.4542, 2.624863
824.9363, 7.579292
825.4185, 7.259575
825.9006, 3.310745
826.3827, 2.219101
826.8648, 10.06380
827.3469, 12.38818
827.8290, 5.795540
828.3111, 0.6362080
828.7932, 8.5739002E-02
829.2753, 1.830093
829.7574, 4.601723
830.2396, 8.075050
830.7217, 10.38334
831.2038, 10.26804
831.6859, 11.05929
832.1680, 15.07413
832.6501, 18.93370
833.1323, 19.78167
833.6144, 18.42051
834.0965, 16.32259
834.5786, 13.80511
835.0607, 12.69351
835.5428, 16.38994
836.0250, 20.51024
836.5071, 20.15181
836.9892, 16.87352
837.4713, 13.96138
837.9534, 12.35841
838.4355, 11.62144
838.9177, 11.29797
839.3998, 11.30538
839.8819, 11.75990
840.3640, 12.49154
840.8461, 12.17760
841.3282, 10.57912
841.8104, 9.972527
842.2925, 12.00685
842.7746, 15.35459
843.2567, 17.14672
843.7388, 17.03787
844.2209, 16.25919
844.7031, 14.07534
845.1852, 14.03620
845.6673, 19.38987
846.1494, 25.00842
846.6315, 24.41788
847.1136, 18.02504
847.5958, 15.39622
848.0779, 18.23275
848.5600, 22.64046
849.0421, 31.93020
849.5242, 38.55558
850.0063, 37.09842
850.4885, 30.04853
850.9706, 21.39545
851.4527, 11.33997
851.9348, 5.485687
852.4169, 9.151588
852.8990, 15.45425
853.3812, 21.08946
853.8633, 24.69827
854.3454, 22.99978
854.8275, 16.67372
855.3096, 12.42527
855.7917, 15.67646
856.2739, 20.97911
856.7560, 20.53032
857.2381, 16.22174
857.7202, 12.43855
858.2023, 9.824493
858.6844, 8.075974
859.1666, 6.970329
859.6487, 7.341545
860.1308, 11.40356
860.6129, 18.63171
861.0950, 21.56258
861.5771, 19.76147
862.0593, 17.79942
862.5414, 16.81862
863.0235, 16.01759
863.5056, 15.21655
863.9877, 14.45112
864.4698, 12.58194
864.9520, 8.210114
865.4341, 5.853905
865.9162, 6.375122
866.3983, 8.070442
866.8804, 11.04712
867.3625, 14.26045
867.8447, 16.47573
868.3268, 17.84646
868.8089, 16.82893
869.2910, 9.764122
869.7731, 3.905777
870.2552, 0.9082490
870.7374, 0.7111130
871.2195, 5.558907
871.7016, 13.08321
872.1837, 16.09728
872.6658, 10.83574
873.1479, 4.928169
873.6301, 2.294548
874.1122, 1.469673
874.5943, 2.004890
875.0764, 2.915413
875.5585, 1.911118
876.0406, 1.249252
876.5228, 3.214012
877.0049, 0.4024050
877.4870, 4.039841
877.9691, 5.105705
878.4512, 4.016373
878.9333, 4.613533
879.4155, 7.024429
879.8976, 7.443527
880.3797, 3.545166
880.8618, 1.223900
881.3439, 0.8349080
881.8260, 4.098335
882.3082, 8.268509
882.7903, 11.63634
883.2724, 11.50694
883.7545, 6.412949
884.2366, 1.775002
884.7188, 3.100601
885.2009, 8.741928
885.6830, 10.32291
886.1651, 6.673531
886.6472, 2.460831
887.1293, 3.586548
887.6115, 6.611519
888.0936, 1.814423
888.5757, 5.603683
889.0578, 6.758232
889.5399, 0.4667590
890.0220, 4.429390
890.5042, 9.043221
890.9863, 10.85362
891.4684, 7.192879
891.9505, 2.537270
892.4326, 0.7429050
892.9147, 2.257309
893.3969, 0.9282840
893.8790, 5.368996
894.3611, 8.861717
894.8432, 4.805672
895.3253, 6.3271001E-02
895.8074, 1.979584
896.2896, 2.036705
896.7717, 2.138420
897.2538, 2.418144
897.7359, 1.284470
898.2180, 3.697540
898.7001, 7.805084
899.1823, 6.078529
899.6644, 2.407120
900.1465, 2.235405
900.6286, 4.473183
901.1107, 4.244438
901.5928, 0.1858980
902.0750, 4.813522
902.5571, 5.497589
903.0392, 4.166634
903.5213, 4.329781
904.0034, 5.207146
904.4855, 4.161560
904.9677, 0.9815440
905.4498, 2.245544
905.9319, 4.304230
906.4140, 4.715889
906.8961, 1.453377
907.3782, 4.464935
907.8604, 6.171768
908.3425, 3.584335
908.8246, 3.687561
909.3067, 9.077713
909.7888, 15.00479
910.2709, 16.65895
910.7531, 15.10303
911.2352, 15.27971
911.7173, 17.51718
912.1994, 19.26479
912.6815, 20.85049
913.1636, 19.36729
913.6458, 11.96037
914.1279, 2.951874
914.6100, 0.8667600
915.0921, 0.7303920
915.5742, 4.613342
916.0563, 12.96907
916.5385, 18.91374
917.0206, 20.60661
917.5027, 20.25011
917.9848, 18.44916
918.4669, 15.93198
918.9490, 14.75993
919.4312, 14.61005
919.9133, 16.65016
920.3954, 23.76340
920.8775, 29.48155
921.3596, 31.47713
921.8417, 31.42693
922.3239, 29.70967
922.8060, 27.11360
923.2881, 27.28419
923.7702, 33.35300
924.2523, 37.85730
924.7344, 36.32985
925.2166, 35.36038
925.6987, 40.69576
926.1808, 48.43027
926.6629, 51.90285
927.1450, 50.45978
927.6271, 50.52095
928.1093, 57.35156
928.5914, 63.34454
929.0735, 62.81030
929.5556, 60.74312
930.0377, 62.70773
930.5198, 67.59203
931.0020, 71.36403
931.4841, 72.71759
931.9662, 73.89360
932.4483, 75.37091
932.9304, 78.56444
933.4125, 87.30582
933.8947, 97.37056
934.3768, 100.7819
934.8589, 98.50993
935.3410, 98.66275
935.8231, 105.5816
936.3052, 113.1346
936.7874, 112.5868
937.2695, 109.4097
937.7516, 114.2401
938.2337, 124.6798
938.7158, 132.4139
939.1979, 135.9755
939.6801, 139.1744
940.1622, 144.7268
940.6443, 150.6638
941.1264, 152.5537
941.6085, 152.1684
942.0906, 156.0249
942.5728, 164.0161
943.0549, 172.3399
943.5370, 179.5660
944.0191, 184.2662
944.5012, 184.2496
944.9833, 181.3534
945.4655, 182.8734
945.9476, 188.7034
946.4297, 190.4642
946.9118, 186.9137
947.3939, 188.5620
947.8760, 201.0769
948.3582, 215.0690
948.8403, 217.0193
949.3224, 209.1862
949.8045, 207.9998
950.2866, 213.9503
950.7687, 219.5761
951.2509, 223.8414
951.7330, 226.0978
952.2151, 226.1196
952.6972, 225.0954
953.1793, 224.2394
953.6614, 223.2006
954.1436, 223.0436
954.6257, 223.4212
955.1078, 226.3616
955.5899, 233.3642
956.0720, 240.2216
956.5541, 244.0076
957.0363, 245.5350
957.5184, 245.5825
958.0005, 242.0734
958.4826, 245.0309
958.9647, 259.5766
959.4468, 269.5230
959.9290, 266.1829
960.4111, 261.3723
960.8932, 266.8851
961.3753, 280.1768
961.8574, 288.7943
962.3395, 288.8443
962.8217, 292.7069
963.3038, 302.1088
963.7859, 312.5382
964.2680, 322.8523
964.7501, 333.4452
965.2322, 345.4344
965.7144, 358.4455
966.1965, 367.3898
966.6786, 362.9160
967.1607, 368.2764
967.6428, 392.6816
968.1249, 417.2177
968.6071, 431.1169
969.0892, 441.7291
969.5713, 458.8425
970.0534, 482.8957
970.5355, 508.9322
971.0176, 541.1526
971.4998, 568.1014
971.9819, 580.2211
972.4640, 595.2919
972.9461, 625.0878
973.4282, 663.0698
973.9103, 698.6627
974.3925, 731.0883
974.8746, 768.1523
975.3567, 806.9844
975.8388, 854.1003
976.3209, 914.7432
976.8030, 982.0657
977.2852, 1049.119
977.7673, 1120.247
978.2494, 1202.890
978.7315, 1297.957
979.2136, 1405.766
979.6957, 1514.078
980.1779, 1653.300
980.6600, 1835.475
981.1421, 2050.809
981.6242, 2289.210
982.1063, 2555.000
982.5884, 2853.379
983.0706, 3182.025
983.5527, 3576.632
984.0348, 4058.305
984.5169, 4594.818
984.9990, 5173.365
985.4811, 5799.288
985.9633, 6476.204
986.4454, 7206.042
986.9275, 8016.197
987.4096, 8922.167
987.8917, 9821.901
988.3738, 10746.10
988.8560, 11578.46
989.3381, 12337.37
989.8202, 12919.07
990.3023, 13247.38
990.7844, 13307.16
991.2665, 13082.47
991.7487, 12554.42
992.2308, 11813.52
992.7129, 10807.89
993.1950, 9702.117
993.6771, 8502.639
994.1592, 7319.285
994.6414, 6239.141
995.1235, 5280.396
995.6056, 4463.295
996.0877, 3801.005
996.5698, 3233.979
997.0519, 2748.888
997.5341, 2339.386
998.0162, 2019.775
998.4983, 1764.569
998.9804, 1551.215
999.4625, 1373.031
999.9446, 1221.402
1000.427, 1097.049
1000.909, 985.5191
1001.391, 878.1965
1001.873, 782.9329
1002.355, 708.3185
1002.837, 646.2675
1003.319, 586.6304
1003.802, 529.8408
1004.284, 483.3056
1004.766, 451.6684
1005.248, 423.4177
1005.730, 394.7643
1006.212, 366.0668
1006.694, 336.7118
1007.176, 308.1178
1007.659, 283.0649
1008.141, 260.6718
1008.623, 235.9182
1009.105, 204.3685
1009.587, 179.9107
1010.069, 173.9478
1010.551, 171.4164
1011.033, 163.9998
1011.515, 153.4670
1011.998, 141.5825
1012.480, 129.2350
1012.962, 117.9144
1013.444, 107.8392
1013.926, 99.73288
1014.408, 95.08978
1014.890, 91.11659
1015.372, 87.35880
1015.854, 82.42001
1016.337, 73.92152
1016.819, 62.73537
1017.301, 52.75780
1017.783, 45.07945
1018.265, 38.55983
1018.747, 31.01262
1019.229, 26.48804
1019.711, 31.97878
1020.194, 38.25533
1020.676, 33.43384
1021.158, 19.82622
1021.640, 9.543930
1022.122, 6.442581
1022.604, 3.649979
1023.086, 2.066330
1023.568, 6.659637
1024.051, 7.138321
1024.533, 6.300934
1025.015, 7.873672
1025.497, 10.73210
1025.979, 9.853622
1026.461, 2.468903
1026.943, 2.399750
1027.425, 7.5622998E-02
1027.907, 2.094772
1028.390, 1.029663
1028.872, 4.924393
1029.354, 5.569458
1029.836, 3.464539
1030.318, 1.079285
1030.800, 0.8565060
1031.282, 4.521210
1031.764, 15.32452
1032.246, 21.33589
1032.729, 13.45464
1033.211, 3.691650
1033.693, 2.503006
1034.175, 7.220169
1034.657, 9.664169
1035.139, 8.552795
1035.621, 7.912781
1036.103, 7.432724
1036.586, 8.302200
1037.068, 13.04176
1037.550, 17.08138
1038.032, 17.07869
1038.514, 13.99445
1038.996, 9.456146
1039.478, 2.362228
1039.960, 0.8923950
1040.443, 5.086624
1040.925, 6.250290
1041.407, 3.278366
1041.889, 13.81766
1042.371, 21.15015
1042.853, 24.39960
1043.335, 20.29124
1043.817, 7.114166
1044.299, 3.465179
1044.781, 13.92502
1045.264, 24.14047
1045.746, 33.37402
1046.228, 39.35973
1046.710, 38.60547
1047.192, 36.46115
1047.674, 41.42627
1048.156, 53.38466
1048.638, 66.60019
1049.121, 82.85431
1049.603, 93.01804
1050.085, 93.13380
1050.567, 96.14285
1051.049, 109.2289
1051.531, 125.9129
1052.013, 137.8838
1052.495, 145.7471
1052.978, 152.5021
1053.460, 157.3129
1053.942, 169.6611
1054.424, 191.9387
1054.906, 209.8769
1055.388, 216.5804
1055.870, 223.4186
1056.352, 243.4396
1056.834, 271.4367
1057.317, 288.9273
1057.799, 296.4038
1058.281, 309.3530
1058.763, 328.6403
1059.245, 344.7517
1059.727, 354.5881
1060.209, 362.7368
1060.691, 373.4332
1061.173, 383.8032
1061.656, 385.8116
1062.138, 382.1933
1062.620, 387.4875
1063.102, 399.9450
1063.584, 404.9553
1064.066, 399.7082
1064.548, 395.2873
1065.030, 399.6271
1065.513, 403.0827
1065.995, 388.3090
1066.477, 364.5230
1066.959, 353.8118
1067.441, 350.8074
1067.923, 337.6852
1068.405, 314.2574
1068.887, 295.7876
1069.370, 289.7995
1069.852, 287.3354
1070.334, 280.1326
1070.816, 271.2180
1071.298, 264.0514
1071.780, 257.9944
1072.262, 252.4034
1072.744, 246.7771
1073.226, 240.0064
1073.708, 231.7575
1074.191, 223.6459
1074.673, 214.8093
1075.155, 208.7756
1075.637, 210.2435
1076.119, 214.0823
1076.601, 216.0947
1077.083, 215.9093
1077.565, 212.9026
1078.047, 207.4462
1078.530, 203.8711
1079.012, 205.4422
1079.494, 206.6551
1079.976, 203.5283
1080.458, 201.3461
1080.940, 204.1301
1081.422, 209.1414
1081.904, 212.8286
1082.387, 215.4243
1082.869, 219.9914
1083.351, 227.9762
1083.833, 235.8890
1084.315, 244.4058
1084.797, 251.8953
1085.279, 254.3568
1085.761, 258.1149
1086.244, 271.4107
1086.726, 290.2598
1087.208, 302.9210
1087.690, 308.0103
1088.172, 312.1702
1088.654, 313.3508
1089.136, 317.9164
1089.618, 328.6613
1090.100, 339.1398
1090.583, 345.9377
1091.065, 350.8316
1091.547, 356.2144
1092.029, 361.7308
1092.511, 366.2312
1092.993, 370.2669
1093.475, 370.3785
1093.957, 365.4034
1094.439, 361.7322
1094.922, 362.1803
1095.404, 364.5558
1095.886, 367.7930
1096.368, 369.4709
1096.850, 358.3304
1097.332, 337.0744
1097.814, 325.7227
1098.296, 323.8280
1098.779, 320.0382
1099.261, 311.1923
1099.743, 298.1345
1100.225, 280.9254
1100.707, 264.1836
1101.189, 255.4244
1101.671, 251.8699
1102.153, 247.9595
1102.635, 244.5189
1103.118, 245.3948
1103.600, 249.8162
1104.082, 251.8271
1104.564, 248.6422
1105.046, 244.0856
1105.528, 241.1766
1106.010, 238.4179
1106.492, 234.4315
1106.974, 229.7862
1107.457, 224.4157
1107.939, 219.2298
1108.421, 217.5527
1108.903, 219.6570
1109.385, 216.1889
1109.867, 196.2311
1110.349, 180.0198
1110.831, 179.2330
1111.314, 179.9771
1111.796, 172.7821
1112.278, 162.3166
1112.760, 156.2877
1113.242, 153.8247
1113.724, 145.4968
1114.206, 126.3825
1114.688, 110.0358
1115.171, 96.11902
1115.653, 86.30875
1116.135, 83.87265
1116.617, 81.78723
1117.099, 74.08267
1117.581, 63.59836
1118.063, 56.67415
1118.545, 53.45509
1119.027, 51.95369
1119.510, 53.06418
1119.992, 50.44859
1120.474, 42.50914
1120.956, 34.70651
1121.438, 29.52884
1121.920, 28.58755
1122.402, 35.05432
1122.884, 44.55002
1123.366, 41.83992
1123.849, 30.04118
1124.331, 26.50032
1124.813, 31.17451
1125.295, 36.12772
1125.777, 39.01930
1126.259, 40.44281
1126.741, 40.41835
1127.223, 41.54257
1127.706, 47.95009
1128.188, 56.29155
1128.670, 63.31282
1129.152, 67.56825
1129.634, 63.98384
1130.116, 56.43724
1130.598, 57.65288
1131.080, 71.80865
1131.563, 86.16544
1132.045, 95.95462
1132.527, 101.4863
1133.009, 98.17892
1133.491, 95.15134
1133.973, 101.6325
1134.455, 112.8060
1134.937, 120.7026
1135.419, 125.3356
1135.901, 130.7332
1136.384, 135.9872
1136.866, 142.8637
1137.348, 155.1567
1137.830, 164.8011
1138.312, 168.6866
1138.794, 169.3775
1139.276, 166.3810
1139.758, 163.5533
1140.241, 171.5522
1140.723, 191.7534
1141.205, 200.5534
1141.687, 195.5500
1142.169, 192.5860
1142.651, 194.3915
1143.133, 195.2012
1143.615, 192.2815
1144.098, 187.2661
1144.580, 181.1737
1145.062, 175.8862
1145.544, 178.5122
1146.026, 185.6318
1146.508, 184.9259
1146.990, 177.5653
1147.472, 168.9517
1147.954, 161.5486
1148.437, 160.7491
1148.919, 170.3746
1149.401, 179.9679
1149.883, 180.5647
1150.365, 175.8992
1150.847, 165.8298
1151.329, 155.6114
1151.811, 153.3754
1152.293, 155.6179
1152.776, 152.3736
1153.258, 141.8781
1153.740, 133.9467
1154.222, 135.2342
1154.704, 134.0349
1155.186, 124.7579
1155.668, 115.6896
1156.150, 110.3841
1156.633, 107.6625
1157.115, 106.8351
1157.597, 107.4154
1158.079, 108.1295
1158.561, 109.7298
1159.043, 106.5957
1159.525, 96.40744
1160.007, 91.25281
1160.490, 94.36572
1160.972, 97.17224
1161.454, 94.99773
1161.936, 91.75233
1162.418, 93.19305
1162.900, 96.12534
1163.382, 88.54449
1163.864, 74.13350
1164.346, 69.11784
1164.828, 72.29468
1165.311, 74.58151
1165.793, 73.27060
1166.275, 67.32372
1166.757, 55.50938
1167.239, 44.20515
1167.721, 39.67448
1168.203, 37.93208
1168.685, 36.33221
1169.168, 34.27444
1169.650, 30.28110
1170.132, 25.67696
1170.614, 24.00873
1171.096, 25.63104
1171.578, 25.23433
1172.060, 20.47980
1172.542, 15.06444
1173.025, 5.420471
1173.507, 0.8601990
1173.989, 10.12457
1174.471, 19.90506
1174.953, 18.38040
1175.435, 9.842819
1175.917, 4.920975
1176.399, 3.845497
1176.881, 2.461960
1177.364, 0.7076190
1177.846, 0.5835190
1178.328, 1.203285
1178.810, 3.745132
1179.292, 9.413948
1179.774, 13.89696
1180.256, 12.69380
1180.738, 8.559608
1181.220, 6.077469
1181.703, 4.595558
1182.185, 2.396545
1182.667, 0.1445080
1183.149, 0.5495910
1183.631, 0.4852140
1184.113, 3.140358
1184.595, 7.441887
1185.077, 10.63150
1185.560, 11.38796
1186.042, 10.23757
1186.524, 5.178391
1187.006, 0.7228850
1187.488, 1.775192
1187.970, 4.393867
1188.452, 2.065933
1188.934, 4.252045
1189.417, 6.124969
1189.899, 0.8266220
1190.381, 8.8269999E-03
1190.863, 6.362930
1191.345, 9.651253
1191.827, 7.629219
1192.309, 2.230324
1192.791, 6.484459
1193.273, 13.57723
1193.755, 12.03795
1194.238, 4.920547
1194.720, 2.262711
1195.202, 2.449196
1195.684, 2.477219
1196.166, 10.87547
1196.648, 14.44978
1197.130, 11.92613
1197.612, 6.892395
1198.095, 0.7733460
1198.577, 2.573853
1199.059, 2.216293
1199.541, 8.144150
1200.023, 11.02509
1200.505, 11.55847
1200.987, 8.380341
1201.469, 4.503807
1201.952, 5.443398
1202.434, 10.83462
1202.916, 13.29639
1203.398, 9.597702
1203.880, 8.507545
1204.362, 11.34672
1204.844, 14.13379
1205.326, 16.34411
1205.808, 17.26474
1206.291, 15.93268
1206.773, 14.81247
1207.255, 17.72761
1207.737, 23.26045
1208.219, 25.77454
1208.701, 25.98566
1209.183, 28.23598
1209.665, 31.82134
1210.147, 31.47018
1210.630, 27.01182
1211.112, 25.02264
1211.594, 29.04762
1212.076, 32.74554
1212.558, 28.74395
1213.040, 25.18260
1213.522, 29.53555
1214.004, 36.03880
1214.487, 39.99492
1214.969, 42.29892
1215.451, 44.96024
1215.933, 47.64444
1216.415, 46.53902
1216.897, 38.51100
1217.379, 34.59680
1217.861, 35.33575
1218.344, 39.60717
1218.826, 49.40355
1219.308, 55.27882
1219.790, 51.60010
1220.272, 44.02360
1220.754, 38.67065
1221.236, 36.04482
1221.718, 39.28960
1222.200, 46.18270
1222.682, 48.52200
1223.165, 47.55500
1223.647, 49.07851
1224.129, 53.07191
1224.611, 54.11290
1225.093, 49.98492
1225.575, 46.03739
1226.057, 45.12557
1226.539, 45.34677
1227.022, 44.97251
1227.504, 46.21961
1227.986, 53.63063
1228.468, 59.56371
1228.950, 53.49972
1229.432, 41.03300
1229.914, 37.11473
1230.396, 41.69383
1230.879, 43.26876
1231.361, 39.70160
1231.843, 38.34949
1232.325, 40.16872
1232.807, 37.54935
1233.289, 30.66927
1233.771, 24.88218
1234.253, 23.77898
1234.735, 24.54787
1235.218, 24.22012
1235.700, 22.81686
1236.182, 21.88676
1236.664, 20.59920
1237.146, 17.58382
1237.628, 14.09639
1238.110, 14.18159
1238.592, 18.07474
1239.074, 18.37103
1239.557, 8.732269
1240.039, 3.254242
1240.521, 8.788689
1241.003, 13.61594
1241.485, 12.63325
1241.967, 12.32576
1242.449, 17.96564
1242.931, 24.82130
1243.414, 25.62410
1243.896, 21.39199
1244.378, 16.30775
1244.860, 10.70551
1245.342, 8.597046
1245.824, 9.508682
1246.306, 9.280861
1246.788, 7.277565
1247.271, 5.115250
1247.753, 3.554008
1248.235, 5.319733
1248.717, 17.38468
1249.199, 27.30972
1249.681, 24.04233
1250.163, 17.37023
1250.645, 13.59690
1251.127, 12.27567
1251.609, 14.01001
1252.092, 16.86563
1252.574, 13.84414
1253.056, 3.634537
1253.538, 0.5533980
1254.020, 2.768105
1254.502, 5.730087
1254.984, 7.534470
1255.466, 8.290733
1255.949, 7.964233
1256.431, 9.480263
1256.913, 15.55813
1257.395, 20.71841
1257.877, 14.63238
1258.359, 5.172188
1258.841, 5.618965
1259.323, 9.958168
1259.806, 9.460663
1260.288, 5.595787
1260.770, 2.510750
1261.252, 1.029671
1261.734, 1.136925
1262.216, 3.835503
1262.698, 4.982391
1263.180, 2.126274
1263.662, 1.181892
1264.145, 3.814629
1264.627, 6.777969
1265.109, 8.850426
1265.591, 9.553123
1266.073, 8.123817
1266.555, 5.729599
1267.037, 5.183472
1267.519, 5.814629
1268.001, 4.926254
1268.484, 3.596107
1268.966, 6.037178
1269.448, 10.63906
1269.930, 10.13353
1270.412, 3.596024
1270.894, 0.1137620
1271.376, 1.949448
1271.858, 0.0000000E+00
##END=



