##NAMES=Tantalite-(Fe)
##RRUFFID=R070548
##IDEAL CHEMISTRY=Fe^2+^Ta_2_O_6_
##LOCALITY=Grizzly Bear Gulch, Black Hills, Custer County, South Dakota, USA
##OWNER=RRUFF
##SOURCE=James Shigley
##DESCRIPTION=Submetallic dark grey fragments with parallel cleavage planes
##STATUS=The identification of this mineral has been made only by X-ray diffraction.
##URL=rruff.info/R070548
155.6303, 0.0000000E+00
156.1124, 33.66113
156.5945, 51.16357
157.0766, 71.32666
157.5587, 44.60596
158.0408, 11.24707
158.5230, 5.365723
159.0051, 8.226074
159.4872, 34.41455
159.9693, 79.87598
160.4514, 114.5508
160.9335, 129.2163
161.4157, 132.0732
161.8978, 131.0239
162.3799, 138.4097
162.8620, 154.3374
163.3441, 181.1318
163.8262, 238.3159
164.3084, 297.0400
164.7905, 326.2158
165.2726, 317.1577
165.7547, 286.0659
166.2368, 256.5293
166.7189, 223.5659
167.2011, 204.5386
167.6832, 208.8960
168.1653, 224.9751
168.6474, 240.7524
169.1295, 252.5825
169.6116, 263.6626
170.0938, 280.4771
170.5759, 304.5679
171.0580, 326.4570
171.5401, 340.8833
172.0222, 350.9609
172.5043, 357.9189
172.9865, 360.7441
173.4686, 363.0947
173.9507, 372.5903
174.4328, 390.6292
174.9149, 408.7280
175.3970, 427.6238
175.8792, 444.7681
176.3613, 459.9219
176.8434, 475.3259
177.3255, 479.4604
177.8076, 443.9585
178.2897, 357.1560
178.7719, 285.6797
179.2540, 260.1233
179.7361, 256.9561
180.2182, 235.5845
180.7003, 181.5520
181.1824, 116.0181
181.6646, 75.40015
182.1467, 60.92969
182.6288, 49.29395
183.1109, 33.08276
183.5930, 15.76733
184.0751, 3.530762
184.5573, 1.360596
185.0394, 1.738037
185.5215, 3.153809
186.0036, 6.529297
186.4857, 3.098633
186.9678, 21.46851
187.4500, 57.16650
187.9321, 80.35986
188.4142, 85.29224
188.8963, 83.09033
189.3784, 92.31519
189.8605, 116.2021
190.3427, 143.7966
190.8248, 180.9824
191.3069, 220.3604
191.7890, 246.7266
192.2711, 253.5288
192.7532, 255.4292
193.2354, 272.4800
193.7175, 303.9810
194.1996, 330.7563
194.6817, 341.0681
195.1638, 344.1028
195.6459, 355.8535
196.1281, 379.5813
196.6102, 411.5674
197.0923, 451.4138
197.5744, 498.3904
198.0565, 542.6553
198.5386, 580.9805
199.0207, 615.1025
199.5029, 645.8962
199.9850, 672.2058
200.4671, 700.6733
200.9492, 743.4832
201.4313, 797.9951
201.9134, 846.4595
202.3956, 885.4282
202.8777, 914.8855
203.3598, 933.8115
203.8419, 940.9380
204.3240, 942.0015
204.8061, 947.6304
205.2883, 955.2449
205.7704, 941.8726
206.2525, 891.2139
206.7346, 820.1235
207.2167, 748.2451
207.6988, 676.7351
208.1810, 610.9609
208.6631, 559.5356
209.1452, 519.5327
209.6273, 479.2642
210.1094, 435.7168
210.5915, 390.9150
211.0737, 346.7083
211.5558, 303.2825
212.0379, 261.4951
212.5200, 221.5657
213.0021, 183.9758
213.4842, 153.4292
213.9664, 129.8086
214.4485, 107.5112
214.9306, 77.19580
215.4127, 38.32861
215.8948, 6.736816
216.3769, 1.974854
216.8591, 7.200928
217.3412, 9.667725
217.8233, 4.633057
218.3054, 21.27515
218.7875, 27.46753
219.2696, 23.40942
219.7518, 16.89575
220.2339, 12.21289
220.7160, 8.669678
221.1981, 3.757324
221.6802, 9.053711
222.1623, 17.55029
222.6445, 8.118164
223.1266, 16.56030
223.6087, 36.37158
224.0908, 40.06201
224.5729, 31.04956
225.0550, 22.45923
225.5371, 14.21338
226.0193, 6.421143
226.5014, 1.081787
226.9835, 8.171875
227.4656, 14.49365
227.9477, 20.08594
228.4298, 24.52661
228.9120, 25.97437
229.3941, 18.99854
229.8762, 18.95605
230.3583, 36.48950
230.8404, 66.41748
231.3225, 96.42407
231.8047, 123.1838
232.2868, 145.4844
232.7689, 159.5764
233.2510, 163.6345
233.7331, 166.8992
234.2152, 168.0154
234.6974, 170.8894
235.1795, 184.5361
235.6616, 213.2515
236.1437, 247.6621
236.6258, 271.3037
237.1079, 281.2073
237.5901, 294.7048
238.0722, 316.8906
238.5543, 343.9167
239.0364, 371.9756
239.5185, 400.3894
240.0006, 427.3308
240.4828, 452.2351
240.9649, 477.2627
241.4470, 487.4739
241.9291, 469.4988
242.4112, 443.4561
242.8933, 423.9492
243.3755, 413.7810
243.8576, 418.0500
244.3397, 447.6030
244.8218, 509.9917
245.3039, 541.8452
245.7860, 520.2356
246.2682, 486.9753
246.7503, 468.9536
247.2324, 467.0266
247.7145, 469.4644
248.1966, 466.5952
248.6787, 458.1931
249.1608, 457.7888
249.6430, 477.8501
250.1251, 492.6738
250.6072, 483.5618
251.0893, 458.3889
251.5714, 439.7971
252.0535, 442.9856
252.5357, 465.4299
253.0178, 485.6909
253.4999, 503.7827
253.9820, 520.0620
254.4641, 536.9546
254.9462, 551.6843
255.4284, 557.0969
255.9105, 548.6462
256.3926, 533.4910
256.8747, 535.3472
257.3568, 569.7485
257.8390, 603.7446
258.3211, 634.8767
258.8032, 664.7378
259.2853, 696.8289
259.7674, 732.1748
260.2495, 766.1855
260.7316, 789.1055
261.2137, 788.5664
261.6959, 796.5725
262.1780, 819.5991
262.6601, 846.2300
263.1422, 868.3274
263.6243, 884.0266
264.1064, 895.7537
264.5886, 905.6401
265.0707, 910.9365
265.5528, 923.1436
266.0349, 953.4346
266.5170, 980.3650
266.9991, 989.7871
267.4813, 984.0200
267.9634, 976.5776
268.4455, 979.6523
268.9276, 993.7903
269.4097, 1010.476
269.8918, 1038.437
270.3740, 1060.453
270.8561, 1070.717
271.3382, 1071.157
271.8203, 1067.366
272.3024, 1060.137
272.7845, 1048.605
273.2667, 1039.024
273.7488, 1040.904
274.2309, 1033.108
274.7130, 1008.024
275.1951, 973.1753
275.6772, 935.4985
276.1594, 896.2764
276.6415, 857.4417
277.1236, 823.7129
277.6057, 796.4604
278.0878, 770.5872
278.5699, 745.6628
279.0521, 722.0938
279.5342, 699.9236
280.0163, 678.3982
280.4984, 655.9688
280.9805, 629.6606
281.4626, 599.5122
281.9448, 573.0415
282.4269, 551.6113
282.9090, 534.5918
283.3911, 523.9053
283.8732, 519.8960
284.3553, 515.3677
284.8375, 503.7417
285.3196, 485.8276
285.8017, 468.1816
286.2838, 453.7649
286.7659, 436.9326
287.2480, 410.9158
287.7302, 378.0786
288.2123, 347.4878
288.6944, 323.5322
289.1765, 303.5693
289.6586, 281.5508
290.1407, 255.7314
290.6229, 236.1313
291.1050, 235.6704
291.5871, 247.2339
292.0692, 250.1699
292.5513, 232.7083
293.0334, 212.4644
293.5156, 205.1958
293.9977, 209.2070
294.4798, 211.9226
294.9619, 206.5808
295.4440, 195.6829
295.9261, 186.5457
296.4083, 177.1150
296.8904, 172.2783
297.3725, 177.3801
297.8546, 188.1418
298.3367, 196.4102
298.8188, 199.3599
299.3010, 198.5576
299.7831, 196.4797
300.2652, 192.8381
300.7473, 188.6489
301.2294, 184.8940
301.7115, 180.1633
302.1937, 171.3555
302.6758, 158.5520
303.1579, 147.4473
303.6400, 144.9712
304.1221, 153.8059
304.6042, 157.6194
305.0864, 153.4353
305.5685, 147.7644
306.0506, 143.7288
306.5327, 141.1685
307.0148, 138.3152
307.4969, 133.6536
307.9791, 127.5884
308.4612, 124.2056
308.9433, 120.3972
309.4254, 123.1978
309.9075, 140.4795
310.3896, 163.0566
310.8717, 178.2080
311.3539, 179.9663
311.8360, 174.8433
312.3181, 178.3955
312.8002, 198.5178
313.2823, 211.2617
313.7644, 209.0264
314.2466, 203.0962
314.7287, 202.7000
315.2108, 209.0144
315.6929, 215.0886
316.1750, 211.0474
316.6571, 195.1638
317.1393, 186.0483
317.6214, 187.8240
318.1035, 193.7590
318.5856, 206.3503
319.0677, 221.2324
319.5498, 225.8413
320.0320, 205.3293
320.5141, 169.0188
320.9962, 149.1533
321.4783, 153.8442
321.9604, 154.7444
322.4425, 127.3423
322.9247, 88.65820
323.4068, 63.47705
323.8889, 63.07910
324.3710, 71.57300
324.8531, 73.73291
325.3352, 69.71021
325.8174, 62.10107
326.2995, 49.02734
326.7816, 35.32568
327.2637, 30.58105
327.7458, 39.09985
328.2279, 40.71924
328.7101, 15.91455
329.1922, 20.00391
329.6743, 35.34595
330.1564, 21.06348
330.6385, 2.635254
331.1206, 13.55762
331.6028, 10.51367
332.0849, 2.979248
332.5670, 15.38354
333.0491, 32.81006
333.5312, 39.92114
334.0133, 37.10083
334.4955, 30.05078
334.9776, 21.99854
335.4597, 13.29492
335.9418, 8.822510
336.4239, 14.00635
336.9060, 16.56958
337.3882, 9.583008
337.8703, 0.9394530
338.3524, 5.154053
338.8345, 1.121094
339.3166, 12.53149
339.7987, 17.08350
340.2809, 8.892090
340.7630, 4.396973
341.2451, 9.028564
341.7272, 13.45752
342.2093, 11.33301
342.6914, 2.023682
343.1736, 11.27881
343.6557, 25.34839
344.1378, 40.08252
344.6199, 58.01758
345.1020, 86.72510
345.5841, 109.7791
346.0663, 117.9102
346.5484, 116.6223
347.0305, 116.4421
347.5126, 123.3772
347.9947, 133.8809
348.4768, 139.5298
348.9590, 138.3528
349.4411, 140.5125
349.9232, 152.3447
350.4053, 168.3770
350.8874, 183.5920
351.3695, 197.3098
351.8517, 210.4287
352.3338, 223.7847
352.8159, 237.2354
353.2980, 249.9824
353.7801, 261.2939
354.2622, 272.9336
354.7444, 289.1846
355.2265, 309.4526
355.7086, 323.6865
356.1907, 323.9912
356.6728, 320.6536
357.1549, 323.2810
357.6371, 332.3345
358.1192, 345.1501
358.6013, 360.9529
359.0834, 378.8796
359.5655, 392.7593
360.0476, 405.1038
360.5297, 411.2620
361.0118, 402.6370
361.4940, 388.8257
361.9761, 384.8735
362.4582, 396.3596
362.9403, 416.5227
363.4224, 433.9976
363.9045, 449.4873
364.3867, 460.1538
364.8688, 464.3926
365.3509, 465.7537
365.8330, 464.3855
366.3151, 461.6863
366.7972, 461.1382
367.2794, 466.1077
367.7615, 476.2034
368.2436, 485.2012
368.7257, 490.0698
369.2078, 498.3804
369.6899, 512.5916
370.1721, 531.0725
370.6542, 552.8315
371.1363, 578.2334
371.6184, 603.2844
372.1005, 618.1616
372.5826, 621.0332
373.0648, 637.4797
373.5469, 684.7844
374.0290, 738.2690
374.5111, 773.8271
374.9932, 791.3298
375.4753, 809.3176
375.9575, 838.2341
376.4396, 873.7007
376.9217, 905.3079
377.4038, 930.7268
377.8859, 963.8997
378.3680, 1019.234
378.8502, 1093.153
379.3323, 1157.308
379.8144, 1202.900
380.2965, 1246.706
380.7786, 1296.345
381.2607, 1350.383
381.7429, 1405.608
382.2250, 1460.561
382.7071, 1515.862
383.1892, 1572.471
383.6713, 1628.701
384.1534, 1690.188
384.6356, 1761.940
385.1177, 1834.956
385.5998, 1901.884
386.0819, 1963.072
386.5640, 2024.338
387.0461, 2089.739
387.5283, 2159.755
388.0104, 2226.520
388.4925, 2285.417
388.9746, 2345.698
389.4567, 2411.252
389.9388, 2479.204
390.4210, 2545.300
390.9031, 2608.547
391.3852, 2667.921
391.8673, 2722.806
392.3494, 2773.499
392.8315, 2820.473
393.3137, 2866.861
393.7958, 2904.727
394.2779, 2924.058
394.7600, 2927.131
395.2421, 2933.001
395.7242, 2965.000
396.2064, 3000.493
396.6885, 2997.436
397.1706, 2952.686
397.6527, 2901.651
398.1348, 2867.000
398.6169, 2839.284
399.0991, 2793.865
399.5812, 2731.281
400.0633, 2652.453
400.5454, 2548.864
401.0275, 2430.973
401.5096, 2314.755
401.9918, 2205.473
402.4739, 2101.054
402.9560, 1996.230
403.4381, 1888.004
403.9202, 1792.255
404.4023, 1719.715
404.8845, 1647.437
405.3666, 1561.390
405.8487, 1465.379
406.3308, 1370.700
406.8129, 1283.769
407.2950, 1204.729
407.7772, 1133.695
408.2592, 1072.515
408.7414, 1016.522
409.2235, 965.9663
409.7056, 919.0063
410.1877, 877.4021
410.6698, 840.7048
411.1519, 798.1492
411.6341, 731.6187
412.1162, 648.2065
412.5983, 587.7043
413.0804, 559.8301
413.5625, 539.8240
414.0446, 510.4893
414.5268, 475.4355
415.0089, 443.2729
415.4910, 413.7219
415.9731, 389.0139
416.4552, 371.5405
416.9373, 360.2871
417.4195, 354.2834
417.9016, 354.9790
418.3837, 354.5845
418.8658, 337.9521
419.3479, 293.5874
419.8300, 261.7153
420.3122, 254.5090
420.7943, 251.7639
421.2764, 238.0679
421.7585, 214.6216
422.2406, 192.0247
422.7227, 178.0586
423.2049, 171.7441
423.6870, 167.0178
424.1691, 168.9897
424.6512, 164.7053
425.1333, 147.6331
425.6154, 126.5059
426.0976, 107.1646
426.5797, 91.49731
427.0618, 83.21509
427.5439, 92.14185
428.0260, 116.2490
428.5081, 123.9961
428.9903, 103.6526
429.4724, 82.99854
429.9545, 84.03613
430.4366, 98.65015
430.9187, 108.8528
431.4008, 109.7839
431.8830, 104.8591
432.3651, 91.52881
432.8472, 73.35889
433.3293, 67.09155
433.8114, 81.00122
434.2935, 103.2261
434.7757, 114.6843
435.2578, 114.3408
435.7399, 105.4871
436.2220, 72.84131
436.7041, 44.01587
437.1862, 47.06543
437.6684, 74.21021
438.1505, 92.49365
438.6326, 77.60596
439.1147, 38.47583
439.5968, 16.25464
440.0789, 19.82373
440.5611, 27.41797
441.0432, 44.47583
441.5253, 58.29956
442.0074, 55.60303
442.4895, 35.37549
442.9716, 11.90649
443.4538, 2.059814
443.9359, 7.833984
444.4180, 13.92969
444.9001, 21.71313
445.3822, 27.32520
445.8643, 26.87939
446.3465, 22.91650
446.8286, 19.93188
447.3107, 20.34375
447.7928, 19.22388
448.2749, 9.765625
448.7570, 3.490967
449.2392, 8.523682
449.7213, 1.491699
450.2034, 9.906006
450.6855, 16.81934
451.1676, 18.70190
451.6497, 17.34961
452.1319, 9.640381
452.6140, 2.003418
453.0961, 6.007568
453.5782, 11.19214
454.0603, 4.669678
454.5424, 18.82568
455.0246, 46.45654
455.5067, 45.46338
455.9888, 0.5463870
456.4709, 27.96265
456.9530, 9.921631
457.4351, 12.63843
457.9172, 19.65356
458.3994, 11.35742
458.8815, 3.245850
459.3636, 24.07129
459.8457, 45.45459
460.3278, 56.11768
460.8099, 55.49316
461.2921, 51.80981
461.7742, 46.56201
462.2563, 42.05200
462.7384, 42.79639
463.2205, 50.05664
463.7026, 57.92969
464.1848, 66.45679
464.6669, 73.82056
465.1490, 77.09375
465.6311, 76.61426
466.1132, 76.27563
466.5953, 78.93042
467.0775, 84.53125
467.5596, 92.57300
468.0417, 105.6543
468.5238, 118.1543
469.0059, 127.6428
469.4880, 137.3347
469.9702, 152.8352
470.4523, 174.2126
470.9344, 192.1174
471.4165, 192.9988
471.8986, 179.1934
472.3807, 177.0071
472.8629, 190.1128
473.3450, 207.7749
473.8271, 227.5884
474.3092, 247.0259
474.7913, 261.3186
475.2734, 267.3047
475.7556, 272.9658
476.2377, 285.8879
476.7198, 301.7551
477.2019, 309.3987
477.6840, 305.9263
478.1661, 302.1917
478.6483, 309.5095
479.1304, 328.8184
479.6125, 349.2263
480.0946, 374.6995
480.5767, 396.5442
481.0588, 411.1301
481.5410, 420.4141
482.0231, 426.1580
482.5052, 429.2139
482.9873, 432.6121
483.4694, 443.1628
483.9515, 463.1477
484.4337, 471.4792
484.9158, 454.6729
485.3979, 442.1057
485.8800, 457.0493
486.3621, 486.2544
486.8442, 500.4229
487.3264, 484.3508
487.8085, 458.6609
488.2906, 440.5654
488.7727, 429.2107
489.2548, 421.0300
489.7369, 415.1228
490.2191, 411.8147
490.7012, 412.2781
491.1833, 417.7341
491.6654, 419.8682
492.1475, 419.7686
492.6296, 415.3560
493.1118, 405.7295
493.5939, 391.0461
494.0760, 368.9490
494.5581, 338.3667
495.0402, 308.3667
495.5223, 295.9255
496.0045, 305.0815
496.4866, 315.7410
496.9687, 331.6743
497.4508, 343.7473
497.9329, 346.0125
498.4150, 341.0278
498.8972, 335.4780
499.3793, 333.5752
499.8614, 330.2107
500.3435, 316.4814
500.8256, 294.6626
501.3077, 278.4480
501.7899, 272.1384
502.2720, 271.7424
502.7541, 273.4988
503.2362, 278.5452
503.7183, 278.7930
504.2004, 263.9170
504.6826, 254.2798
505.1647, 267.9902
505.6468, 294.6362
506.1289, 311.1282
506.6110, 304.9939
507.0931, 289.1023
507.5752, 291.0227
508.0573, 317.2458
508.5395, 337.5039
509.0216, 345.1069
509.5037, 352.8242
509.9858, 369.0112
510.4679, 390.2490
510.9500, 407.8042
511.4322, 415.9607
511.9143, 422.4807
512.3964, 437.0298
512.8785, 455.8833
513.3607, 465.6169
513.8428, 461.9009
514.3249, 457.1853
514.8070, 467.7297
515.2891, 495.2832
515.7712, 527.4404
516.2534, 569.2307
516.7355, 609.6282
517.2176, 644.6089
517.6997, 674.7961
518.1818, 700.7578
518.6639, 722.7734
519.1461, 742.3137
519.6282, 759.7178
520.1103, 773.3542
520.5924, 796.5669
521.0745, 835.5452
521.5566, 876.6340
522.0388, 913.9070
522.5209, 948.3179
523.0030, 982.1514
523.4851, 1016.470
523.9672, 1049.430
524.4493, 1079.988
524.9315, 1108.240
525.4136, 1133.657
525.8957, 1155.934
526.3778, 1178.997
526.8599, 1207.525
527.3420, 1241.910
527.8242, 1270.021
528.3063, 1286.603
528.7884, 1304.373
529.2705, 1332.949
529.7526, 1361.298
530.2347, 1376.375
530.7169, 1375.405
531.1990, 1365.244
531.6810, 1351.410
532.1631, 1334.252
532.6453, 1317.589
533.1274, 1302.587
533.6095, 1285.362
534.0916, 1262.448
534.5737, 1236.816
535.0558, 1214.460
535.5380, 1199.498
536.0201, 1175.035
536.5022, 1128.537
536.9843, 1070.478
537.4664, 1010.957
537.9485, 952.3784
538.4307, 901.7446
538.9128, 864.9631
539.3949, 839.1863
539.8770, 812.2822
540.3591, 787.2078
540.8412, 755.6763
541.3234, 709.3228
541.8055, 662.8870
542.2876, 628.8857
542.7697, 605.6765
543.2518, 581.3833
543.7339, 546.2654
544.2161, 506.7727
544.6982, 476.6196
545.1803, 455.9778
545.6624, 435.0720
546.1445, 410.5178
546.6266, 384.3140
547.1088, 357.6443
547.5909, 329.1265
548.0730, 309.9851
548.5551, 316.2419
549.0372, 318.4595
549.5193, 292.2957
550.0015, 248.7651
550.4836, 212.8672
550.9657, 195.2039
551.4478, 187.9685
551.9299, 178.4194
552.4120, 165.7095
552.8942, 155.8025
553.3763, 152.1208
553.8584, 147.0173
554.3405, 133.9041
554.8226, 117.5974
555.3047, 107.7588
555.7869, 110.3901
556.2690, 111.5767
556.7511, 96.64673
557.2332, 73.92725
557.7153, 62.14087
558.1974, 64.40430
558.6796, 68.85474
559.1617, 65.32520
559.6438, 54.79370
560.1259, 47.31689
560.6080, 45.83228
561.0901, 43.79443
561.5723, 45.44604
562.0544, 42.96704
562.5365, 23.52368
563.0186, 9.826904
563.5007, 35.46094
563.9828, 34.90381
564.4650, 15.83032
564.9471, 6.891846
565.4292, 34.32202
565.9113, 49.18896
566.3934, 41.37744
566.8755, 22.24878
567.3577, 7.539551
567.8398, 2.776123
568.3219, 10.84985
568.8040, 19.34131
569.2861, 23.41333
569.7682, 15.37964
570.2504, 1.338379
570.7325, 6.479248
571.2146, 2.901123
571.6967, 7.189697
572.1788, 18.52930
572.6609, 32.50513
573.1431, 36.52026
573.6252, 25.49365
574.1073, 11.46558
574.5894, 2.698730
575.0715, 14.90918
575.5536, 20.55713
576.0358, 16.28711
576.5179, 12.66064
577.0000, 18.90015
577.4821, 28.42236
577.9642, 29.77124
578.4464, 22.39160
578.9285, 15.06152
579.4106, 14.17896
579.8927, 18.45068
580.3748, 21.92358
580.8569, 22.09766
581.3391, 25.98022
581.8212, 38.22144
582.3033, 50.40991
582.7854, 55.61963
583.2675, 55.53979
583.7496, 57.37207
584.2318, 64.96460
584.7139, 76.20068
585.1960, 91.48804
585.6781, 109.0032
586.1602, 117.1069
586.6423, 110.9934
587.1245, 101.3623
587.6066, 99.05664
588.0887, 104.2234
588.5708, 114.2288
589.0529, 137.9338
589.5350, 155.3201
590.0172, 153.1201
590.4993, 145.7568
590.9814, 152.9954
591.4635, 176.8313
591.9456, 197.7148
592.4277, 193.2153
592.9099, 171.5676
593.3920, 165.2263
593.8741, 176.1228
594.3562, 191.1052
594.8383, 207.4597
595.3204, 222.4321
595.8026, 229.0073
596.2847, 224.7390
596.7668, 229.6418
597.2489, 255.0127
597.7310, 283.0105
598.2131, 304.5588
598.6953, 319.0369
599.1774, 326.1284
599.6595, 326.0513
600.1416, 323.4751
600.6237, 323.9736
601.1058, 327.9026
601.5880, 340.4956
602.0701, 371.7170
602.5522, 389.7236
603.0343, 363.2910
603.5164, 319.4082
603.9985, 299.0999
604.4807, 311.0723
604.9628, 327.2893
605.4449, 342.0413
605.9270, 352.8630
606.4091, 354.3779
606.8912, 348.1772
607.3734, 342.9766
607.8555, 344.1890
608.3376, 348.2556
608.8197, 346.4312
609.3018, 336.9290
609.7839, 328.5818
610.2661, 321.0723
610.7482, 315.1694
611.2303, 313.1934
611.7124, 312.5200
612.1945, 307.3054
612.6766, 293.7046
613.1588, 281.3845
613.6409, 278.8577
614.1230, 280.7173
614.6051, 278.0830
615.0872, 270.4973
615.5693, 262.2002
616.0515, 254.7539
616.5336, 248.7859
617.0157, 249.7583
617.4978, 265.7993
617.9799, 273.1250
618.4620, 264.5220
618.9442, 251.0154
619.4263, 233.9539
619.9084, 216.4172
620.3905, 206.4070
620.8726, 210.8440
621.3547, 215.9741
621.8369, 210.0913
622.3190, 198.5969
622.8011, 190.7075
623.2832, 187.6987
623.7653, 191.1792
624.2474, 205.0703
624.7296, 225.7920
625.2117, 225.4600
625.6938, 179.5435
626.1759, 152.6631
626.6580, 163.9968
627.1401, 183.7778
627.6223, 192.6338
628.1044, 191.9255
628.5865, 192.8464
629.0686, 205.9636
629.5507, 217.1580
630.0328, 202.3306
630.5149, 170.6443
630.9970, 155.2363
631.4791, 165.1873
631.9612, 186.7122
632.4434, 208.5193
632.9255, 229.3474
633.4076, 237.4895
633.8897, 219.2964
634.3718, 207.5354
634.8539, 212.9336
635.3361, 221.0691
635.8182, 218.4666
636.3003, 206.3870
636.7824, 196.8328
637.2645, 197.1768
637.7466, 202.5122
638.2288, 209.1973
638.7109, 216.5459
639.1930, 221.2336
639.6751, 222.2200
640.1572, 217.2886
640.6393, 202.3245
641.1215, 177.9688
641.6036, 165.6213
642.0857, 178.3850
642.5678, 186.6079
643.0499, 187.1296
643.5320, 180.9133
644.0142, 164.4978
644.4963, 141.1697
644.9784, 123.1758
645.4605, 118.8125
645.9426, 121.6401
646.4247, 123.7166
646.9069, 125.7141
647.3890, 131.3801
647.8711, 142.3857
648.3532, 154.9336
648.8353, 166.3896
649.3174, 176.1675
649.7996, 175.8975
650.2817, 157.7124
650.7638, 140.4033
651.2459, 123.4585
651.7280, 110.3738
652.2101, 105.0432
652.6923, 106.7112
653.1744, 110.0420
653.6565, 115.3005
654.1386, 117.7676
654.6207, 106.8738
655.1028, 88.84448
655.5850, 84.90308
656.0671, 100.0090
656.5492, 118.2717
657.0313, 126.0867
657.5134, 123.8074
657.9955, 111.9878
658.4777, 75.57324
658.9598, 55.98901
659.4419, 71.67944
659.9240, 92.48169
660.4061, 94.54297
660.8882, 82.30640
661.3704, 79.11328
661.8525, 104.4163
662.3346, 129.0012
662.8167, 120.2537
663.2988, 93.00928
663.7809, 80.43970
664.2631, 88.45337
664.7452, 99.86572
665.2273, 100.5266
665.7094, 91.96094
666.1915, 81.64990
666.6736, 65.83301
667.1558, 56.34326
667.6379, 56.00269
668.1200, 60.55640
668.6021, 70.74023
669.0842, 85.11475
669.5663, 98.99219
670.0485, 113.7537
670.5306, 122.3386
671.0127, 120.1753
671.4948, 109.6165
671.9769, 87.90332
672.4590, 58.39355
672.9412, 39.68091
673.4233, 46.12036
673.9054, 67.54614
674.3875, 75.99805
674.8696, 68.05347
675.3517, 60.78638
675.8339, 53.83643
676.3160, 51.23291
676.7981, 61.84106
677.2802, 77.91943
677.7623, 81.22192
678.2444, 62.90210
678.7266, 45.98950
679.2087, 39.96021
679.6908, 38.34399
680.1729, 34.40161
680.6550, 28.97852
681.1371, 27.90991
681.6193, 34.58252
682.1014, 42.89966
682.5835, 40.70483
683.0656, 28.10889
683.5477, 24.75806
684.0298, 35.20654
684.5120, 44.74390
684.9941, 46.23340
685.4762, 40.71631
685.9583, 28.84424
686.4404, 4.950439
686.9225, 8.193359
687.4047, 1.893555
687.8868, 13.80444
688.3689, 12.91235
688.8510, 5.286865
689.3331, 3.565674
689.8152, 11.89038
690.2974, 22.20459
690.7795, 26.91309
691.2616, 26.95435
691.7437, 23.26270
692.2258, 15.84473
692.7079, 14.43579
693.1901, 24.71289
693.6722, 39.10205
694.1543, 47.04663
694.6364, 48.76807
695.1185, 42.79736
695.6006, 20.23169
696.0828, 1.244141
696.5649, 10.09644
697.0470, 14.69727
697.5291, 11.24219
698.0112, 0.7900390
698.4933, 8.161133
698.9755, 10.82104
699.4576, 9.162598
699.9397, 1.155762
700.4218, 9.323486
700.9039, 7.604492
701.3860, 9.965332
701.8682, 27.45557
702.3503, 28.95605
702.8324, 16.16968
703.3145, 4.789551
703.7966, 7.481201
704.2787, 12.65649
704.7609, 0.4343260
705.2430, 12.15503
705.7251, 4.853271
706.2072, 16.10596
706.6893, 29.29858
707.1714, 25.48462
707.6536, 19.58813
708.1357, 20.30566
708.6178, 22.00586
709.0999, 16.49341
709.5820, 4.952637
710.0641, 4.229492
710.5463, 5.953613
711.0284, 2.997803
711.5105, 0.3779300
711.9926, 1.969727
712.4747, 6.521973
712.9568, 15.12305
713.4390, 20.53955
713.9211, 16.25684
714.4032, 6.683838
714.8853, 3.266602
715.3674, 7.154785
715.8495, 14.42236
716.3317, 35.06299
716.8138, 49.29102
717.2959, 39.61792
717.7780, 18.31226
718.2601, 5.906006
718.7422, 8.275391
719.2244, 13.97583
719.7065, 13.33252
720.1886, 9.589600
720.6707, 6.949219
721.1528, 6.419922
721.6349, 11.98730
722.1171, 25.08667
722.5992, 40.01587
723.0813, 50.29883
723.5634, 56.06836
724.0455, 58.22461
724.5276, 58.47803
725.0098, 52.35107
725.4919, 26.22607
725.9740, 2.442627
726.4561, 2.071533
726.9382, 21.10547
727.4203, 33.88843
727.9025, 29.46558
728.3846, 22.04443
728.8667, 20.73413
729.3488, 19.61597
729.8309, 5.996338
730.3130, 16.08081
730.7951, 24.80591
731.2772, 5.119873
731.7593, 25.14038
732.2415, 33.98999
732.7236, 22.66602
733.2057, 7.227295
733.6878, 12.34668
734.1699, 27.69751
734.6520, 32.83228
735.1342, 31.94116
735.6163, 35.64331
736.0984, 48.27832
736.5805, 54.03516
737.0626, 46.67993
737.5447, 40.18970
738.0269, 42.61182
738.5090, 48.24023
738.9911, 47.24292
739.4732, 38.13110
739.9553, 34.43066
740.4374, 52.13672
740.9196, 73.36743
741.4017, 72.87695
741.8838, 59.23535
742.3659, 59.37988
742.8480, 80.02344
743.3301, 99.47217
743.8123, 93.59741
744.2944, 67.87671
744.7765, 61.02686
745.2586, 81.13599
745.7407, 94.25171
746.2228, 89.09766
746.7050, 79.60938
747.1871, 74.99341
747.6692, 76.46899
748.1513, 87.09717
748.6334, 116.6240
749.1155, 139.6074
749.5977, 145.7949
750.0798, 147.9651
750.5619, 157.3638
751.0440, 171.2090
751.5261, 179.0405
752.0082, 175.7251
752.4904, 173.0820
752.9725, 185.5933
753.4546, 205.8342
753.9367, 221.3677
754.4188, 230.7522
754.9009, 226.2561
755.3831, 203.2488
755.8652, 182.0134
756.3473, 193.5139
756.8294, 238.8286
757.3115, 263.3989
757.7936, 258.8257
758.2758, 249.0632
758.7579, 232.4661
759.2400, 222.3345
759.7221, 233.4810
760.2042, 262.4673
760.6863, 285.9705
761.1685, 297.8755
761.6506, 306.2075
762.1327, 315.0759
762.6148, 322.3374
763.0969, 324.2434
763.5790, 320.8274
764.0612, 312.8252
764.5433, 299.8469
765.0254, 291.7798
765.5075, 305.0708
765.9896, 331.3496
766.4717, 346.4248
766.9539, 349.2607
767.4360, 351.0217
767.9181, 357.0439
768.4002, 363.5029
768.8823, 363.3376
769.3644, 354.7874
769.8466, 354.4905
770.3287, 366.7490
770.8108, 379.0403
771.2929, 386.6487
771.7750, 393.8213
772.2571, 408.3416
772.7393, 428.4285
773.2214, 434.2622
773.7035, 406.6731
774.1856, 382.1050
774.6677, 375.7290
775.1498, 380.8875
775.6320, 394.5540
776.1141, 411.9534
776.5962, 422.6775
777.0783, 419.7185
777.5604, 414.9736
778.0425, 425.7944
778.5247, 445.8042
779.0068, 457.1726
779.4889, 458.6875
779.9710, 456.6785
780.4531, 453.6055
780.9352, 453.2185
781.4174, 464.7212
781.8995, 491.4312
782.3816, 492.8181
782.8637, 450.9722
783.3458, 423.9695
783.8279, 438.4688
784.3101, 466.8298
784.7922, 481.6113
785.2743, 483.5293
785.7564, 481.0610
786.2385, 467.1304
786.7206, 459.1162
787.2028, 467.0845
787.6849, 479.5710
788.1670, 488.4397
788.6491, 491.9519
789.1312, 488.0610
789.6133, 473.4050
790.0955, 460.7053
790.5776, 466.0776
791.0597, 480.8660
791.5418, 489.6741
792.0239, 491.8738
792.5060, 491.7385
792.9882, 491.1455
793.4703, 487.3582
793.9524, 475.0461
794.4345, 455.1323
794.9166, 443.0608
795.3987, 439.9277
795.8809, 440.4766
796.3630, 445.2063
796.8451, 450.0415
797.3272, 451.1340
797.8093, 448.6812
798.2914, 445.1353
798.7736, 440.8972
799.2557, 434.9871
799.7378, 422.1721
800.2199, 412.5042
800.7020, 415.4114
801.1841, 425.5000
801.6663, 431.8606
802.1484, 431.4099
802.6305, 427.8191
803.1126, 419.8953
803.5947, 412.5850
804.0768, 412.4265
804.5590, 416.9106
805.0411, 421.0085
805.5232, 422.7810
806.0053, 420.4436
806.4874, 411.7739
806.9695, 398.2346
807.4517, 378.5994
807.9338, 354.2480
808.4159, 353.5366
808.8980, 385.3286
809.3801, 416.6389
809.8622, 423.0916
810.3444, 410.8872
810.8265, 398.0461
811.3086, 379.3616
811.7907, 374.2410
812.2728, 398.4319
812.7549, 415.2666
813.2371, 396.0051
813.7192, 368.4126
814.2013, 371.6648
814.6834, 410.1421
815.1655, 437.1384
815.6476, 432.8542
816.1298, 427.0845
816.6119, 435.5435
817.0940, 447.7866
817.5761, 451.8347
818.0582, 447.6199
818.5403, 440.9663
819.0225, 432.0210
819.5046, 429.8926
819.9867, 452.4771
820.4688, 484.9629
820.9509, 499.9111
821.4330, 496.7078
821.9152, 484.3853
822.3973, 466.9758
822.8794, 451.9868
823.3615, 451.7102
823.8436, 464.2793
824.3257, 471.7207
824.8079, 473.6528
825.2900, 472.5422
825.7721, 466.6169
826.2542, 465.0967
826.7363, 480.1287
827.2184, 507.9089
827.7006, 519.2439
828.1826, 499.0454
828.6647, 488.4465
829.1469, 493.7668
829.6290, 504.4871
830.1111, 524.9561
830.5932, 544.1702
831.0753, 538.6582
831.5574, 499.3672
832.0396, 477.4180
832.5217, 504.7476
833.0038, 536.1611
833.4859, 544.6802
833.9680, 541.1086
834.4501, 540.5996
834.9323, 545.1904
835.4144, 547.8535
835.8965, 542.2505
836.3786, 537.3286
836.8607, 545.8694
837.3428, 561.8398
837.8250, 573.0393
838.3071, 578.6284
838.7892, 583.3250
839.2713, 589.5984
839.7534, 593.8467
840.2355, 588.7205
840.7177, 575.5413
841.1998, 569.6094
841.6819, 571.2764
842.1640, 575.8613
842.6461, 581.5466
843.1282, 590.9651
843.6104, 606.6560
844.0925, 628.3679
844.5746, 655.3843
845.0567, 695.3958
845.5388, 724.6743
846.0209, 735.7795
846.5031, 742.2249
846.9852, 744.7461
847.4673, 749.7046
847.9494, 767.7913
848.4315, 800.3318
848.9136, 837.3191
849.3958, 886.1917
849.8779, 929.4971
850.3600, 953.0564
850.8421, 971.7971
851.3242, 1003.203
851.8063, 1046.992
852.2885, 1090.440
852.7706, 1126.866
853.2527, 1161.451
853.7348, 1194.373
854.2169, 1231.283
854.6990, 1281.797
855.1812, 1342.518
855.6633, 1402.138
856.1454, 1457.408
856.6275, 1514.010
857.1096, 1573.931
857.5917, 1639.687
858.0739, 1721.190
858.5560, 1817.590
859.0381, 1924.649
859.5202, 2040.951
860.0023, 2148.369
860.4844, 2230.590
860.9666, 2303.548
861.4487, 2414.380
861.9308, 2569.828
862.4129, 2718.931
862.8950, 2849.985
863.3771, 3001.752
863.8593, 3199.694
864.3414, 3416.843
864.8235, 3616.520
865.3056, 3794.937
865.7877, 3991.713
866.2698, 4208.175
866.7520, 4441.118
867.2341, 4696.079
867.7162, 4964.012
868.1983, 5238.038
868.6804, 5519.457
869.1625, 5812.906
869.6447, 6119.064
870.1268, 6434.004
870.6089, 6760.171
871.0910, 7094.401
871.5731, 7443.226
872.0552, 7791.433
872.5374, 8114.274
873.0195, 8410.578
873.5016, 8707.566
873.9837, 9023.951
874.4658, 9337.579
874.9479, 9638.268
875.4301, 9912.978
875.9122, 10153.37
876.3943, 10349.97
876.8764, 10486.08
877.3585, 10553.22
877.8406, 10545.41
878.3228, 10456.90
878.8049, 10287.68
879.2870, 10032.16
879.7691, 9693.565
880.2512, 9290.218
880.7333, 8826.025
881.2155, 8328.087
881.6976, 7813.068
882.1797, 7285.024
882.6618, 6763.264
883.1439, 6245.578
883.6260, 5735.629
884.1082, 5228.954
884.5903, 4744.835
885.0724, 4286.113
885.5545, 3862.921
886.0366, 3490.666
886.5187, 3168.320
887.0009, 2860.933
887.4830, 2563.916
887.9651, 2293.124
888.4472, 2057.716
888.9293, 1841.787
889.4114, 1626.590
889.8936, 1424.585
890.3757, 1264.973
890.8578, 1159.009
891.3399, 1057.532
891.8220, 952.2498
892.3041, 853.2729
892.7863, 763.2504
893.2684, 682.8450
893.7505, 613.3455
894.2326, 553.8274
894.7147, 501.6184
895.1968, 456.4232
895.6790, 416.8875
896.1611, 387.8497
896.6432, 358.7822
897.1253, 318.1028
897.6074, 271.6404
898.0895, 229.5828
898.5717, 194.6143
899.0538, 166.7271
899.5359, 147.7428
900.0180, 133.9336
900.5001, 123.6403
900.9822, 114.6179
901.4644, 103.9032
901.9465, 90.70654
902.4286, 73.10596
902.9107, 49.96460
903.3928, 27.08862
903.8749, 11.86499
904.3571, 1.945190
904.8392, 11.97583
905.3213, 27.38892
905.8034, 28.09497
906.2855, 10.97351
906.7676, 3.726196
907.2498, 0.8227540
907.7319, 16.78809
908.2140, 25.56750
908.6961, 27.43689
909.1782, 33.55481
909.6603, 45.36536
910.1425, 52.77454
910.6246, 50.63367
911.1067, 46.76404
911.5888, 51.99243
912.0709, 64.32153
912.5530, 61.66272
913.0352, 37.50952
913.5173, 23.09741
913.9994, 26.10645
914.4815, 31.32751
914.9636, 29.86707
915.4457, 25.27209
915.9279, 24.91943
916.4100, 30.55273
916.8921, 30.04614
917.3742, 15.32300
917.8563, 6.752930
918.3384, 11.99756
918.8206, 21.56494
919.3027, 30.46191
919.7848, 38.14941
920.2669, 43.32373
920.7490, 45.68616
921.2311, 46.25781
921.7133, 45.94910
922.1954, 42.90112
922.6775, 34.51318
923.1596, 24.27661
923.6417, 13.70239
924.1238, 4.284546
924.6060, 2.396606
925.0881, 15.76929
925.5702, 26.34021
926.0523, 29.18079
926.5344, 24.69153
927.0165, 6.080688
927.4986, 16.56250
927.9807, 24.41394
928.4628, 15.15820
928.9449, 9.909912
929.4271, 25.17004
929.9092, 42.19824
930.3913, 46.63672
930.8734, 46.08337
931.3555, 49.06921
931.8376, 55.46936
932.3198, 62.99329
932.8019, 70.85327
933.2840, 74.47815
933.7661, 65.45679
934.2482, 53.99365
934.7303, 51.98254
935.2125, 57.31750
935.6946, 68.44739
936.1767, 82.67737
936.6588, 91.20093
937.1409, 89.02808
937.6230, 81.79199
938.1052, 74.09521
938.5873, 67.40369
939.0694, 63.56921
939.5515, 63.77112
940.0336, 75.76965
940.5157, 99.56763
940.9979, 116.7170
941.4800, 112.5922
941.9621, 96.72290
942.4442, 83.61096
942.9263, 74.32727
943.4084, 76.88843
943.8906, 90.71558
944.3727, 103.6156
944.8548, 111.4220
945.3369, 113.5620
945.8190, 108.0713
946.3011, 98.78223
946.7833, 99.42969
947.2654, 109.8499
947.7475, 120.1445
948.2296, 129.5081
948.7117, 136.9103
949.1938, 142.2065
949.6760, 143.5018
950.1581, 136.9004
950.6402, 124.0796
951.1223, 120.8849
951.6044, 129.2051
952.0865, 134.1025
952.5687, 132.3986
953.0508, 131.3251
953.5329, 135.7454
954.0150, 141.4897
954.4971, 140.5087
954.9792, 132.0693
955.4614, 133.5939
955.9435, 149.8639
956.4256, 161.2561
956.9077, 162.6512
957.3898, 161.3033
957.8719, 161.6414
958.3541, 163.0616
958.8362, 164.4393
959.3183, 166.1639
959.8004, 165.4012
960.2825, 158.1674
960.7646, 156.9067
961.2468, 171.6466
961.7289, 184.0104
962.2110, 176.3508
962.6931, 155.0853
963.1752, 141.9734
963.6573, 137.6191
964.1395, 142.6295
964.6216, 167.4054
965.1037, 185.8906
965.5858, 184.3239
966.0679, 177.8955
966.5500, 181.9994
967.0322, 193.3121
967.5143, 196.9402
967.9964, 188.2682
968.4785, 181.5276
968.9606, 176.3479
969.4427, 174.0236
969.9249, 179.4364
970.4070, 185.1383
970.8891, 182.8262
971.3712, 172.9514
971.8533, 164.1479
972.3354, 154.5779
972.8176, 150.9567
973.2997, 161.3746
973.7818, 169.7861
974.2639, 166.1191
974.7460, 157.5118
975.2281, 150.7351
975.7103, 146.7567
976.1924, 151.1019
976.6745, 174.6603
977.1566, 191.7633
977.6387, 197.2064
978.1208, 194.7184
978.6030, 181.8246
979.0851, 165.1033
979.5672, 152.6416
980.0493, 145.4398
980.5314, 141.2932
981.0135, 140.4366
981.4957, 141.9058
981.9778, 151.5608
982.4599, 155.9949
982.9420, 139.0836
983.4241, 113.1989
983.9063, 98.17236
984.3884, 97.30408
984.8705, 101.3055
985.3526, 113.2668
985.8347, 120.0818
986.3168, 109.7855
986.7990, 98.04065
987.2811, 100.9171
987.7632, 110.9290
988.2453, 111.1273
988.7274, 98.69873
989.2095, 92.74536
989.6917, 111.3456
990.1738, 124.0490
990.6559, 110.9276
991.1380, 91.62000
991.6201, 80.33545
992.1022, 76.50000
992.5844, 77.86450
993.0665, 84.02258
993.5486, 88.18921
994.0307, 87.18616
994.5128, 83.77026
994.9949, 73.97021
995.4771, 66.67773
995.9592, 74.74634
996.4413, 90.25452
996.9234, 93.74609
997.4055, 80.63574
997.8876, 73.93420
998.3698, 94.03369
998.8519, 110.3981
999.3340, 99.60571
999.8161, 83.43811
1000.298, 84.20044
1000.780, 96.18713
1001.262, 103.9382
1001.745, 103.9122
1002.227, 100.2563
1002.709, 89.79639
1003.191, 82.11499
1003.673, 84.91919
1004.155, 90.70288
1004.637, 91.42932
1005.119, 89.85840
1005.602, 94.41187
1006.084, 107.2837
1006.566, 116.3081
1007.048, 112.1686
1007.530, 107.5399
1008.012, 110.4803
1008.494, 114.8422
1008.976, 117.6204
1009.458, 116.5677
1009.941, 104.8319
1010.423, 80.30884
1010.905, 65.18469
1011.387, 77.08020
1011.869, 90.41345
1012.351, 92.94348
1012.833, 90.26904
1013.315, 87.29871
1013.797, 83.88977
1014.280, 77.16089
1014.762, 66.29578
1015.244, 58.43384
1015.726, 57.60718
1016.208, 58.73730
1016.690, 63.03845
1017.172, 65.08215
1017.654, 54.46716
1018.137, 40.14978
1018.619, 42.62537
1019.101, 66.30334
1019.583, 82.12695
1020.065, 75.58215
1020.547, 65.19055
1021.029, 56.10449
1021.511, 48.19324
1021.993, 37.85559
1022.476, 30.18652
1022.958, 37.26819
1023.440, 60.78345
1023.922, 74.83179
1024.404, 64.91003
1024.886, 54.89282
1025.368, 51.57959
1025.850, 51.33350
1026.333, 52.89648
1026.815, 55.21680
1027.297, 57.63159
1027.779, 60.04321
1028.261, 59.51648
1028.743, 50.21667
1029.225, 45.18115
1029.707, 53.82751
1030.189, 60.76648
1030.672, 51.76221
1031.154, 38.21387
1031.636, 39.59570
1032.118, 56.33179
1032.600, 63.68115
1033.082, 44.65491
1033.564, 36.84021
1034.046, 60.14343
1034.528, 78.99683
1035.011, 72.59998
1035.493, 54.09045
1035.975, 37.33191
1036.457, 23.39587
1036.939, 19.79382
1037.421, 44.44958
1037.903, 51.38245
1038.385, 18.37817
1038.868, 7.294312
1039.350, 4.708008
1039.832, 10.64197
1040.314, 27.29651
1040.796, 43.27380
1041.278, 43.74158
1041.760, 11.23010
1042.242, 0.3027340
1042.724, 23.92017
1043.207, 44.13867
1043.689, 43.90186
1044.171, 39.22229
1044.653, 47.18665
1045.135, 62.81091
1045.617, 64.49927
1046.099, 44.73389
1046.581, 36.55090
1047.063, 45.62891
1047.546, 51.90332
1048.028, 49.29724
1048.510, 42.47571
1048.992, 33.65222
1049.474, 24.76050
1049.956, 23.50464
1050.438, 31.40540
1050.920, 34.69092
1051.403, 32.30054
1051.885, 31.51208
1052.367, 33.83533
1052.849, 35.23975
1053.331, 32.55042
1053.813, 27.82727
1054.295, 24.40283
1054.777, 22.32690
1055.260, 26.20068
1055.742, 36.74707
1056.224, 34.99377
1056.706, 16.31262
1057.188, 5.945068
1057.670, 18.30652
1058.152, 38.43323
1058.634, 45.45593
1059.116, 41.65222
1059.599, 36.19788
1060.081, 29.07703
1060.563, 22.73328
1061.045, 17.59021
1061.527, 15.47888
1062.009, 17.17603
1062.491, 21.01208
1062.973, 25.99512
1063.455, 30.66528
1063.938, 32.57825
1064.420, 31.26990
1064.902, 22.42236
1065.384, 8.518555
1065.866, 1.297852
1066.348, 4.083740
1066.830, 9.941650
1067.312, 13.90051
1067.795, 16.94116
1068.277, 20.22083
1068.759, 23.56433
1069.241, 27.17773
1069.723, 30.26160
1070.205, 30.78540
1070.687, 28.73401
1071.169, 26.47620
1071.651, 24.73804
1072.134, 23.93420
1072.616, 26.38599
1073.098, 28.53052
1073.580, 27.60425
1074.062, 23.35242
1074.544, 11.37842
1075.026, 4.033936
1075.508, 6.936157
1075.990, 10.10364
1076.473, 24.02551
1076.955, 17.56812
1077.437, 10.94519
1077.919, 18.53064
1078.401, 28.92041
1078.883, 28.90918
1079.365, 23.61230
1079.847, 26.30212
1080.329, 40.00879
1080.812, 46.85107
1081.294, 35.04846
1081.776, 25.81848
1082.258, 29.98486
1082.740, 33.18140
1083.222, 23.71411
1083.704, 9.212158
1084.186, 0.9232180
1084.669, 0.8243410
1085.151, 1.651733
1085.633, 3.189575
1086.115, 1.268799
1086.597, 8.932617
1087.079, 15.02905
1087.561, 7.006836
1088.043, 0.4604490
1088.526, 14.57996
1089.008, 41.01013
1089.490, 44.38733
1089.972, 15.64343
1090.454, 2.030884
1090.936, 8.614136
1091.418, 10.93445
1091.900, 0.8028560
1092.382, 6.997437
1092.865, 0.9779050
1093.347, 11.08618
1093.829, 13.37036
1094.311, 7.015015
1094.793, 10.89417
1095.275, 24.70801
1095.757, 26.40991
1096.239, 12.90002
1096.721, 0.8155520
1097.204, 1.131348
1097.686, 1.864746
1098.168, 4.737793
1098.650, 6.687988
1099.132, 3.423096
1099.614, 1.814087
1100.096, 4.728149
1100.578, 20.22168
1101.061, 26.28906
1101.543, 18.70105
1102.025, 10.08020
1102.507, 9.308350
1102.989, 10.58728
1103.471, 6.643677
1103.953, 2.402466
1104.435, 7.674072
1104.917, 15.77747
1105.400, 11.41638
1105.882, 3.163330
1106.364, 10.19128
1106.846, 1.751099
1107.328, 6.804565
1107.810, 7.907227
1108.292, 5.279785
1108.774, 5.092773
1109.256, 12.51770
1109.739, 1.447876
1110.221, 18.53455
1110.703, 25.19910
1111.185, 14.91138
1111.667, 9.169800
1112.149, 17.79468
1112.631, 23.01794
1113.113, 21.00806
1113.596, 15.58997
1114.078, 2.674072
1114.560, 7.984253
1115.042, 2.048096
1115.524, 16.14429
1116.006, 20.24133
1116.488, 1.997314
1116.970, 5.652588
1117.453, 0.7851560
1117.935, 7.773071
1118.417, 11.63330
1118.899, 15.74194
1119.381, 23.12659
1119.863, 30.99768
1120.345, 34.43567
1120.827, 33.34692
1121.309, 23.16724
1121.792, 4.760742
1122.274, 1.646973
1122.756, 16.33167
1123.238, 25.90222
1123.720, 20.37439
1124.202, 11.69910
1124.684, 12.70679
1125.166, 16.89539
1125.648, 9.364868
1126.131, 2.825562
1126.613, 1.075806
1127.095, 9.726074
1127.577, 11.66040
1128.059, 2.611572
1128.541, 5.027710
1129.023, 4.913696
1129.505, 0.2968750
1129.988, 9.608398
1130.470, 19.34778
1130.952, 24.92639
1131.434, 27.21155
1131.916, 25.20569
1132.398, 21.53857
1132.880, 24.30530
1133.362, 35.32263
1133.844, 36.21545
1134.327, 9.919312
1134.809, 10.29004
1135.291, 16.95190
1135.773, 14.22729
1136.255, 5.309937
1136.737, 25.99280
1137.219, 27.05542
1137.701, 12.65186
1138.183, 5.303467
1138.666, 7.351807
1139.148, 9.417847
1139.630, 11.19812
1140.112, 14.15308
1140.594, 19.06152
1141.076, 24.33923
1141.558, 29.80847
1142.040, 31.93567
1142.523, 22.62988
1143.005, 5.465698
1143.487, 3.445190
1143.969, 12.83777
1144.451, 12.27527
1144.933, 1.256958
1145.415, 2.406250
1145.897, 7.090332
1146.380, 17.74280
1146.862, 20.21545
1147.344, 18.02332
1147.826, 11.82983
1148.308, 6.842529
1148.790, 15.18640
1149.272, 28.50635
1149.754, 30.23926
1150.236, 20.95874
1150.719, 12.03076
1151.201, 5.288330
1151.683, 2.508423
1152.165, 8.567871
1152.647, 12.92993
1153.129, 4.283569
1153.611, 1.533691
1154.093, 14.02075
1154.575, 36.41064
1155.058, 42.15735
1155.540, 31.14941
1156.022, 22.08191
1156.504, 17.13440
1156.986, 10.40503
1157.468, 1.388062
1157.950, 7.568970
1158.432, 3.110718
1158.915, 2.309692
1159.397, 1.106812
1159.879, 2.078247
1160.361, 2.452637
1160.843, 13.12256
1161.325, 13.42761
1161.807, 4.326538
1162.289, 2.560303
1162.771, 9.678101
1163.254, 22.07104
1163.736, 37.66223
1164.218, 45.51038
1164.700, 35.28284
1165.182, 20.77991
1165.664, 23.54688
1166.146, 31.85791
1166.628, 25.75244
1167.110, 12.94922
1167.593, 9.321167
1168.075, 14.31116
1168.557, 19.71619
1169.039, 22.99634
1169.521, 26.10706
1170.003, 33.75696
1170.485, 36.09570
1170.967, 21.84546
1171.450, 9.036133
1171.932, 11.13196
1172.414, 19.84668
1172.896, 26.09424
1173.378, 29.63501
1173.860, 31.83289
1174.342, 33.24890
1174.824, 29.67017
1175.306, 17.66406
1175.789, 14.53198
1176.271, 27.11987
1176.753, 34.72839
1177.235, 24.38684
1177.717, 9.423828
1178.199, 8.079590
1178.681, 15.90796
1179.163, 17.79724
1179.646, 16.02905
1180.128, 23.30658
1180.610, 36.43164
1181.092, 36.77856
1181.574, 22.27344
1182.056, 9.638000
1182.538, 7.949219
1183.020, 10.97321
1183.502, 15.21008
1183.984, 19.61115
1184.467, 26.52399
1184.949, 30.75317
1185.431, 23.24408
1185.913, 10.33160
1186.395, 4.316650
1186.877, 6.586548
1187.359, 9.046753
1187.841, 8.588867
1188.324, 10.96637
1188.806, 23.08582
1189.288, 27.28357
1189.770, 12.74011
1190.252, 0.4064330
1190.734, 7.231873
1191.216, 21.84473
1191.698, 22.43475
1192.181, 11.57245
1192.663, 12.76959
1193.145, 25.38287
1193.627, 33.63757
1194.109, 36.45697
1194.591, 32.18799
1195.073, 21.40082
1195.555, 13.17657
1196.037, 13.74731
1196.520, 19.18719
1197.002, 29.73511
1197.484, 38.07123
1197.966, 30.74445
1198.448, 18.72974
1198.930, 20.93408
1199.412, 30.40753
1199.894, 23.82385
1200.376, 1.029724
1200.859, 10.94171
1201.341, 19.82281
1201.823, 37.24225
1202.305, 18.23267
1202.787, 1.985962
1203.269, 4.590149
1203.751, 10.49628
1204.233, 8.701233
1204.716, 3.793457
1205.198, 4.224548
1205.680, 9.732605
1206.162, 19.19885
1206.644, 32.77374
1207.126, 26.38898
1207.608, 0.4042360
1208.090, 10.73151
1208.573, 5.493042
1209.055, 23.25531
1209.537, 25.21234
1210.019, 22.44867
1210.501, 29.69995
1210.983, 37.47949
1211.465, 30.16266
1211.947, 17.56421
1212.429, 10.22467
1212.911, 9.571533
1213.394, 22.79346
1213.876, 46.70123
1214.358, 54.41583
1214.840, 25.46191
1215.322, 6.661865
1215.804, 13.19446
1216.286, 20.49097
1216.768, 23.57874
1217.251, 22.93115
1217.733, 17.44421
1218.215, 10.61194
1218.697, 8.062927
1219.179, 8.972107
1219.661, 8.043030
1220.143, 5.500854
1220.625, 5.557922
1221.108, 8.091248
1221.590, 9.584045
1222.072, 9.472595
1222.554, 11.35358
1223.036, 17.38019
1223.518, 21.46320
1224.000, 13.44720
1224.482, 5.786682
1224.964, 12.24030
1225.447, 23.22119
1225.929, 30.21973
1226.411, 33.91571
1226.893, 36.97247
1227.375, 39.24292
1227.857, 37.88080
1228.339, 30.76544
1228.821, 25.39301
1229.303, 24.26331
1229.786, 20.73193
1230.268, 12.20215
1230.750, 5.043945
1231.232, 1.393799
1231.714, 4.705444
1232.196, 20.93311
1232.678, 40.71149
1233.160, 36.88318
1233.643, 18.02350
1234.125, 14.02441
1234.607, 24.15332
1235.089, 34.05261
1235.571, 40.80048
1236.053, 42.11560
1236.535, 37.70044
1237.017, 32.58301
1237.500, 28.49261
1237.982, 24.53015
1238.464, 23.82489
1238.946, 24.40863
1239.428, 27.26917
1239.910, 30.24738
1240.392, 33.32983
1240.874, 33.91150
1241.356, 24.95361
1241.839, 7.127747
1242.321, 3.466125
1242.803, 16.61450
1243.285, 23.40723
1243.767, 22.18512
1244.249, 19.86841
1244.731, 18.37451
1245.213, 14.23157
1245.695, 4.998047
1246.178, 0.4643550
1246.660, 12.18610
1247.142, 29.66437
1247.624, 37.80951
1248.106, 38.24677
1248.588, 28.43475
1249.070, 14.86078
1249.552, 6.845703
1250.035, 5.551086
1250.517, 6.665894
1250.999, 10.07196
1251.481, 13.54285
1251.963, 18.23389
1252.445, 20.10571
1252.927, 16.91174
1253.409, 15.52686
1253.891, 19.11438
1254.374, 24.34320
1254.856, 28.33649
1255.338, 31.23669
1255.820, 32.28784
1256.302, 31.78510
1256.784, 29.15588
1257.266, 26.87579
1257.748, 26.47876
1258.230, 27.19946
1258.713, 26.59033
1259.195, 24.09900
1259.677, 17.73547
1260.159, 3.513062
1260.641, 4.505859
1261.123, 5.359314
1261.605, 14.14246
1262.087, 12.66461
1262.570, 10.24225
1263.052, 11.11298
1263.534, 15.70514
1264.016, 15.63422
1264.498, 25.58069
1264.980, 25.05920
1265.462, 13.32312
1265.944, 8.267822
1266.427, 7.152039
1266.909, 0.0000000E+00
##END=



