##NAMES=Tantalite-(Mn)
##RRUFFID=R060415
##IDEAL CHEMISTRY=Mn^2+^Ta_2_O_6_
##LOCALITY=Nuristan, Laghman Province, Afghanistan
##OWNER=RRUFF
##SOURCE=Herb Obodda
##DESCRIPTION=Dark brown fragment
##STATUS=The identification of this mineral has been confirmed by X-ray diffraction.
##URL=rruff.info/R060415
151.8342, 0.0000000E+00
152.3164, 1.803558
152.7985, 0.2816470
153.2806, 0.7889100
153.7627, 0.1858220
154.2448, 1.941132
154.7269, 4.825287
155.2091, 8.593475
155.6912, 12.73026
156.1733, 16.98599
156.6554, 21.32690
157.1375, 25.74057
157.6196, 30.28635
158.1018, 35.08276
158.5839, 39.49921
159.0660, 43.84937
159.5481, 47.63309
160.0302, 50.37601
160.5123, 52.03583
160.9945, 53.01169
161.4766, 53.93857
161.9587, 54.71585
162.4408, 55.53665
162.9229, 56.45438
163.4050, 57.36969
163.8871, 58.09906
164.3693, 58.58084
164.8514, 59.02850
165.3335, 60.00073
165.8156, 62.40979
166.2977, 64.05542
166.7798, 64.14368
167.2620, 63.42783
167.7441, 63.05829
168.2262, 63.68448
168.7083, 65.11386
169.1904, 66.49930
169.6725, 67.64185
170.1547, 68.70706
170.6368, 69.49362
171.1189, 70.19766
171.6010, 71.57996
172.0831, 74.32468
172.5652, 77.70908
173.0474, 80.25644
173.5295, 81.73355
174.0116, 82.82874
174.4937, 84.24741
174.9758, 85.99249
175.4579, 87.03937
175.9401, 87.22168
176.4222, 86.21973
176.9043, 83.56522
177.3864, 78.93674
177.8685, 73.15921
178.3506, 67.04462
178.8328, 60.42944
179.3149, 54.03012
179.7970, 47.58301
180.2791, 41.65204
180.7612, 36.69257
181.2433, 32.75851
181.7255, 30.15683
182.2076, 29.47455
182.6897, 30.67313
183.1718, 34.25198
183.6539, 40.54065
184.1360, 50.76187
184.6181, 64.16599
185.1003, 79.66312
185.5824, 96.25226
186.0645, 112.5016
186.5466, 129.3388
187.0287, 143.3337
187.5108, 155.2195
187.9930, 165.6277
188.4751, 174.6210
188.9572, 182.1614
189.4393, 188.4085
189.9214, 194.1058
190.4035, 198.7660
190.8857, 203.4069
191.3678, 208.3152
191.8499, 213.3020
192.3320, 218.0650
192.8141, 222.4304
193.2962, 226.4088
193.7784, 230.0942
194.2605, 233.0529
194.7426, 236.2419
195.2247, 240.1396
195.7068, 244.5650
196.1889, 249.0083
196.6711, 253.1599
197.1532, 257.0720
197.6353, 261.0677
198.1174, 265.4600
198.5995, 269.6583
199.0816, 273.3381
199.5638, 276.5406
200.0459, 279.4420
200.5280, 281.8769
201.0101, 284.2097
201.4922, 287.3189
201.9743, 291.6286
202.4565, 296.3468
202.9386, 301.1645
203.4207, 306.1218
203.9028, 310.3240
204.3849, 314.5354
204.8670, 317.0671
205.3492, 315.3160
205.8313, 308.1308
206.3134, 297.3618
206.7955, 285.2912
207.2776, 272.1181
207.7597, 256.6781
208.2419, 237.3155
208.7240, 215.7714
209.2061, 193.2162
209.6882, 169.4965
210.1703, 145.8842
210.6524, 124.6945
211.1346, 106.8189
211.6167, 89.54614
212.0988, 70.97476
212.5809, 52.97839
213.0630, 37.22281
213.5451, 24.45853
214.0273, 14.29843
214.5094, 6.146912
214.9915, 0.8563690
215.4736, 3.784210
215.9557, 8.634964
216.4378, 13.04713
216.9200, 16.41936
217.4021, 18.46054
217.8842, 19.34891
218.3663, 19.52124
218.8484, 18.74258
219.3305, 17.47002
219.8127, 15.88937
220.2948, 13.84885
220.7769, 11.19211
221.2590, 7.847656
221.7411, 3.847748
222.2232, 0.7286680
222.7054, 6.774200
223.1875, 12.34583
223.6696, 16.86821
224.1517, 21.02983
224.6338, 25.57741
225.1159, 30.85786
225.5980, 36.70872
226.0802, 42.68002
226.5623, 49.17020
227.0444, 55.27670
227.5265, 60.56476
228.0086, 65.53635
228.4907, 70.83813
228.9729, 76.76163
229.4550, 82.98151
229.9371, 88.57358
230.4192, 93.39806
230.9013, 97.88185
231.3834, 101.6802
231.8656, 105.2498
232.3477, 109.3152
232.8298, 114.1900
233.3119, 119.5229
233.7940, 124.6499
234.2761, 129.6802
234.7583, 134.3208
235.2404, 137.9282
235.7225, 141.1726
236.2046, 145.4752
236.6867, 151.5953
237.1688, 158.2537
237.6510, 162.9512
238.1331, 165.3080
238.6152, 168.3461
239.0973, 173.6052
239.5794, 180.2343
240.0615, 186.3987
240.5437, 191.6134
241.0258, 196.2775
241.5079, 200.9528
241.9900, 205.6618
242.4721, 210.0706
242.9542, 213.9018
243.4364, 217.3181
243.9185, 220.9584
244.4006, 225.4679
244.8827, 229.2045
245.3648, 230.3581
245.8469, 229.2271
246.3290, 227.4708
246.8112, 226.0731
247.2933, 224.6992
247.7754, 221.9526
248.2575, 216.6168
248.7396, 211.7001
249.2217, 209.3710
249.7039, 209.2453
250.1860, 210.2735
250.6681, 211.9096
251.1502, 214.2491
251.6323, 217.7693
252.1144, 222.8453
252.5966, 228.5816
253.0787, 234.1516
253.5608, 239.8374
254.0429, 246.4125
254.5250, 254.7679
255.0071, 264.3434
255.4893, 273.0250
255.9714, 280.4392
256.4535, 287.4366
256.9356, 294.3860
257.4177, 301.2519
257.8998, 308.0336
258.3820, 314.7269
258.8641, 321.3019
259.3462, 327.5900
259.8283, 333.2473
260.3104, 339.1966
260.7925, 345.8140
261.2747, 352.8685
261.7568, 360.1699
262.2389, 367.8134
262.7210, 375.3771
263.2031, 381.8065
263.6852, 387.3194
264.1674, 391.0850
264.6495, 392.2830
265.1316, 392.2331
265.6137, 392.2796
266.0958, 393.0227
266.5779, 394.1613
267.0601, 394.9109
267.5422, 394.8304
268.0243, 395.2570
268.5064, 396.6915
268.9885, 398.4797
269.4706, 400.1922
269.9528, 401.6414
270.4349, 402.6302
270.9170, 402.8720
271.3991, 402.8022
271.8812, 400.9743
272.3633, 397.2332
272.8455, 392.1230
273.3276, 386.0060
273.8097, 378.8556
274.2918, 370.1720
274.7739, 359.0779
275.2560, 344.5070
275.7382, 329.7797
276.2202, 314.4490
276.7024, 299.3711
277.1845, 285.0901
277.6666, 271.6504
278.1487, 258.7338
278.6308, 245.8771
279.1129, 232.6425
279.5951, 220.7398
280.0772, 210.6876
280.5593, 201.2995
281.0414, 192.1535
281.5235, 183.1817
282.0056, 174.4186
282.4878, 165.8514
282.9699, 157.3272
283.4520, 149.8896
283.9341, 144.7804
284.4162, 139.3812
284.8983, 132.3982
285.3805, 124.1786
285.8626, 115.8120
286.3447, 108.0764
286.8268, 100.9992
287.3089, 94.42819
287.7910, 88.77277
288.2732, 83.15591
288.7553, 77.14355
289.2374, 71.02434
289.7195, 65.33023
290.2016, 60.33897
290.6837, 56.10938
291.1659, 52.93297
291.6480, 51.59904
292.1301, 50.40523
292.6122, 49.05037
293.0943, 47.67990
293.5764, 46.46680
294.0586, 45.47684
294.5407, 44.78226
295.0228, 44.57903
295.5049, 45.00153
295.9870, 45.80325
296.4691, 46.88484
296.9513, 48.38315
297.4334, 50.52919
297.9155, 53.37495
298.3976, 56.67931
298.8797, 60.07529
299.3618, 63.92316
299.8440, 67.10875
300.3261, 70.49393
300.8082, 72.69049
301.2903, 72.15329
301.7724, 68.76497
302.2545, 64.18358
302.7367, 60.38950
303.2188, 57.92133
303.7009, 53.97301
304.1830, 46.13983
304.6651, 38.87961
305.1472, 35.50218
305.6294, 35.71156
306.1115, 36.62277
306.5936, 35.71628
307.0757, 32.83546
307.5578, 31.21284
308.0399, 31.49921
308.5221, 32.14182
309.0042, 32.55351
309.4863, 32.77409
309.9684, 32.99931
310.4505, 33.31900
310.9326, 33.77562
311.4148, 34.68608
311.8969, 36.30249
312.3790, 38.00725
312.8611, 39.83762
313.3432, 41.62762
313.8253, 43.00316
314.3075, 43.74271
314.7896, 44.27499
315.2717, 45.76047
315.7538, 49.86507
316.2359, 52.51189
316.7180, 52.66251
317.2001, 51.51433
317.6823, 50.31471
318.1644, 49.42833
318.6465, 48.54283
319.1286, 47.23132
319.6107, 45.59624
320.0928, 43.09273
320.5750, 39.06053
321.0571, 34.63116
321.5392, 30.70628
322.0213, 27.36775
322.5034, 24.01010
322.9855, 20.01747
323.4677, 15.21347
323.9498, 10.85535
324.4319, 6.757980
324.9140, 3.177444
325.3961, 0.2633820
325.8782, 2.024261
326.3604, 3.852264
326.8425, 5.323242
327.3246, 6.435730
327.8067, 7.170929
328.2888, 7.169067
328.7709, 7.254761
329.2531, 7.729950
329.7352, 8.411377
330.2173, 9.005173
330.6994, 9.373886
331.1815, 9.556290
331.6636, 9.657135
332.1458, 10.05414
332.6279, 9.859192
333.1100, 8.600601
333.5921, 6.959991
334.0742, 5.548691
334.5563, 4.561966
335.0385, 3.893692
335.5206, 3.522400
336.0027, 4.130234
336.4848, 3.083191
336.9669, 1.137375
337.4490, 5.646210
337.9312, 8.485596
338.4133, 9.658905
338.8954, 10.37582
339.3775, 11.71393
339.8596, 13.70424
340.3417, 16.00290
340.8239, 18.55740
341.3060, 21.41237
341.7881, 24.70097
342.2702, 28.30595
342.7523, 32.03604
343.2344, 35.78485
343.7166, 39.48689
344.1987, 42.78209
344.6808, 45.21707
345.1629, 47.74124
345.6450, 50.57893
346.1271, 53.46973
346.6093, 56.08359
347.0914, 58.28903
347.5735, 60.30032
348.0556, 62.47488
348.5377, 64.97932
349.0198, 67.37344
349.5020, 69.20201
349.9841, 71.26672
350.4662, 74.29129
350.9483, 78.21912
351.4304, 82.33594
351.9125, 85.91733
352.3947, 88.97699
352.8768, 91.35483
353.3589, 92.13600
353.8410, 93.14268
354.3231, 94.99559
354.8052, 97.57285
355.2874, 100.5958
355.7695, 103.9578
356.2516, 107.5044
356.7337, 110.4405
357.2158, 112.5220
357.6979, 114.2473
358.1800, 115.0729
358.6621, 115.8859
359.1443, 117.7182
359.6264, 120.9736
360.1085, 125.0387
360.5906, 128.8784
361.0727, 132.4277
361.5548, 135.9240
362.0370, 139.3697
362.5191, 142.7834
363.0012, 146.1186
363.4833, 149.4254
363.9654, 152.7865
364.4475, 156.0860
364.9297, 159.2557
365.4118, 163.5402
365.8939, 169.7321
366.3760, 176.2518
366.8581, 181.8921
367.3402, 187.3658
367.8224, 194.1385
368.3045, 203.0415
368.7866, 213.7729
369.2687, 225.6087
369.7508, 238.7581
370.2329, 252.5628
370.7151, 266.2365
371.1972, 280.6729
371.6793, 297.1897
372.1614, 316.1345
372.6435, 336.4574
373.1256, 356.1976
373.6078, 375.0657
374.0899, 396.9328
374.5720, 423.6037
375.0541, 452.9907
375.5362, 483.3712
376.0183, 514.8668
376.5005, 548.0550
376.9826, 583.8264
377.4647, 621.7669
377.9468, 660.6539
378.4289, 700.4951
378.9110, 741.1171
379.3932, 782.7528
379.8753, 825.0292
380.3574, 867.3831
380.8395, 910.1410
381.3216, 952.4799
381.8037, 993.5207
382.2859, 1033.346
382.7680, 1070.957
383.2501, 1105.925
383.7322, 1138.102
384.2143, 1168.039
384.6964, 1195.334
385.1786, 1221.357
385.6607, 1247.069
386.1428, 1271.919
386.6249, 1294.574
387.1070, 1314.675
387.5891, 1332.255
388.0713, 1346.865
388.5534, 1358.769
389.0355, 1369.276
389.5176, 1378.715
389.9997, 1386.811
390.4818, 1392.958
390.9640, 1397.321
391.4461, 1401.459
391.9282, 1407.006
392.4103, 1413.011
392.8924, 1415.129
393.3745, 1412.382
393.8567, 1407.130
394.3388, 1400.984
394.8209, 1393.216
395.3030, 1381.973
395.7851, 1366.368
396.2672, 1347.105
396.7494, 1325.228
397.2315, 1300.908
397.7136, 1273.236
398.1957, 1242.055
398.6778, 1207.312
399.1599, 1168.527
399.6420, 1125.856
400.1241, 1080.194
400.6063, 1032.257
401.0884, 981.8207
401.5705, 930.4533
402.0526, 876.2222
402.5347, 823.2877
403.0168, 772.9635
403.4990, 724.7078
403.9811, 677.7012
404.4632, 631.7115
404.9453, 587.1674
405.4274, 545.2298
405.9095, 506.3810
406.3917, 470.1240
406.8738, 435.9839
407.3559, 404.5448
407.8380, 376.4504
408.3201, 351.5647
408.8022, 328.7156
409.2844, 306.4937
409.7665, 284.9354
410.2486, 264.8819
410.7307, 246.9915
411.2128, 230.0790
411.6949, 213.8910
412.1771, 198.4289
412.6592, 183.5481
413.1413, 169.0664
413.6234, 155.5052
414.1055, 144.1958
414.5876, 135.6599
415.0698, 127.6554
415.5519, 120.0249
416.0340, 112.5329
416.5161, 104.9740
416.9982, 97.30716
417.4803, 89.89517
417.9625, 82.54700
418.4446, 75.50061
418.9267, 70.54257
419.4088, 69.07404
419.8909, 67.42902
420.3730, 62.65729
420.8552, 56.06580
421.3373, 50.33612
421.8194, 46.72046
422.3015, 43.98267
422.7836, 40.55072
423.2657, 36.44553
423.7479, 32.89151
424.2300, 30.66248
424.7121, 29.00632
425.1942, 26.61768
425.6763, 23.31958
426.1584, 20.24976
426.6406, 17.86496
427.1227, 16.03052
427.6048, 14.64969
428.0869, 13.72858
428.5690, 12.88080
429.0511, 11.80075
429.5333, 10.46249
430.0154, 8.944550
430.4975, 7.038330
430.9796, 5.146271
431.4617, 3.206573
431.9438, 1.452240
432.4260, 0.5420840
432.9081, 0.8618160
433.3902, 1.919037
433.8723, 2.572784
434.3544, 2.759644
434.8365, 2.594543
435.3187, 1.649872
435.8008, 0.6379390
436.2829, 0.1806640
436.7650, 0.3174440
437.2471, 0.6905520
437.7292, 1.002472
438.2114, 1.259705
438.6935, 1.271454
439.1756, 1.173798
439.6577, 0.6714480
440.1398, 0.5107120
440.6219, 2.071930
441.1040, 3.741150
441.5862, 5.394867
442.0683, 6.782806
442.5504, 7.271088
443.0325, 6.360809
443.5146, 6.083588
443.9967, 7.347565
444.4789, 8.668701
444.9610, 9.418945
445.4431, 9.543182
445.9252, 9.154602
446.4073, 8.166229
446.8894, 6.751099
447.3716, 5.613464
447.8537, 4.898865
448.3358, 4.100800
448.8179, 2.888580
449.3000, 1.519073
449.7821, 0.1770940
450.2643, 1.163818
450.7464, 2.160767
451.2285, 1.879883
451.7106, 0.7801210
452.1927, 1.386536
452.6748, 4.690460
453.1570, 8.768127
453.6391, 11.67752
454.1212, 13.66608
454.6033, 15.77789
455.0854, 18.30090
455.5675, 20.99768
456.0497, 23.66699
456.5318, 26.31226
457.0139, 29.00748
457.4960, 31.71005
457.9781, 34.59097
458.4602, 38.26700
458.9424, 43.37357
459.4245, 47.82733
459.9066, 50.61911
460.3887, 52.93259
460.8708, 55.84564
461.3529, 59.57001
461.8351, 63.97519
462.3172, 69.09500
462.7993, 74.94321
463.2814, 80.12570
463.7635, 83.91934
464.2456, 87.92267
464.7278, 92.83398
465.2099, 98.13507
465.6920, 102.9680
466.1741, 107.0420
466.6562, 110.9240
467.1383, 115.6161
467.6205, 121.4540
468.1026, 127.1861
468.5847, 132.7252
469.0668, 138.2003
469.5489, 143.9583
470.0310, 149.7159
470.5132, 154.6200
470.9953, 157.8539
471.4774, 160.1798
471.9595, 163.5857
472.4416, 168.2809
472.9237, 173.2804
473.4059, 178.9518
473.8880, 184.3056
474.3701, 188.2373
474.8522, 190.5642
475.3343, 192.6397
475.8164, 195.4164
476.2986, 198.5617
476.7807, 201.2617
477.2628, 203.3733
477.7449, 205.2589
478.2270, 207.1480
478.7091, 209.0225
479.1913, 210.8121
479.6734, 212.8945
480.1555, 214.4622
480.6376, 214.8428
481.1197, 214.4290
481.6018, 213.9542
482.0839, 213.6356
482.5660, 213.5901
483.0482, 214.1408
483.5303, 215.7974
484.0124, 215.9831
484.4945, 213.8144
484.9766, 211.1063
485.4587, 208.6794
485.9409, 206.5032
486.4230, 204.2448
486.9051, 201.6911
487.3872, 199.0198
487.8693, 196.8406
488.3514, 195.7707
488.8336, 193.9713
489.3157, 190.9734
489.7978, 187.5997
490.2799, 184.2092
490.7620, 180.9405
491.2441, 177.9944
491.7263, 175.6203
492.2084, 173.7103
492.6905, 171.8127
493.1726, 170.1161
493.6547, 167.9937
494.1368, 164.0034
494.6190, 160.0539
495.1011, 158.4738
495.5832, 159.9197
496.0653, 161.6885
496.5474, 161.4077
497.0295, 159.8172
497.5117, 159.1669
497.9938, 159.8270
498.4759, 161.1314
498.9580, 162.7936
499.4401, 164.7121
499.9222, 166.3526
500.4044, 166.5815
500.8865, 167.7907
501.3686, 171.3778
501.8507, 176.7123
502.3328, 182.8909
502.8149, 189.6644
503.2971, 196.5853
503.7792, 202.8871
504.2613, 208.2089
504.7434, 214.7534
505.2255, 221.3902
505.7076, 230.1399
506.1898, 242.9963
506.6719, 258.5406
507.1540, 273.7156
507.6361, 286.9400
508.1182, 299.5081
508.6003, 314.2540
509.0825, 331.7521
509.5646, 349.5913
510.0467, 367.0654
510.5288, 385.1738
511.0109, 404.6452
511.4930, 425.4131
511.9752, 446.9486
512.4573, 468.9109
512.9394, 491.3524
513.4215, 514.7924
513.9036, 539.5738
514.3857, 563.9130
514.8679, 587.1375
515.3500, 609.5370
515.8321, 631.8179
516.3142, 654.1453
516.7963, 675.1993
517.2784, 693.9126
517.7606, 711.3394
518.2427, 729.1383
518.7248, 747.4166
519.2069, 765.1732
519.6890, 781.8518
520.1711, 797.4781
520.6533, 811.5358
521.1354, 824.2437
521.6175, 835.4940
522.0996, 844.9484
522.5817, 853.0812
523.0638, 860.4583
523.5460, 867.0494
524.0281, 872.1830
524.5102, 875.0025
524.9923, 875.5734
525.4744, 876.5016
525.9565, 879.9326
526.4387, 880.7401
526.9208, 877.6537
527.4029, 871.7241
527.8850, 863.9129
528.3671, 854.5026
528.8492, 843.6024
529.3314, 831.5951
529.8135, 818.3912
530.2956, 802.5829
530.7777, 783.7466
531.2598, 763.1163
531.7419, 741.0162
532.2241, 717.7805
532.7062, 693.4567
533.1883, 668.1859
533.6704, 641.6791
534.1525, 612.9930
534.6346, 582.9305
535.1168, 552.7206
535.5989, 522.5435
536.0810, 493.3562
536.5631, 466.4519
537.0452, 441.8673
537.5273, 417.2969
538.0095, 392.4405
538.4916, 367.8488
538.9737, 342.8979
539.4558, 318.5032
539.9379, 296.0711
540.4200, 276.0425
540.9022, 257.3224
541.3843, 238.3586
541.8664, 218.6970
542.3485, 201.3507
542.8306, 187.7550
543.3127, 175.1913
543.7948, 163.4118
544.2769, 151.9915
544.7590, 140.2453
545.2411, 127.7771
545.7233, 115.7498
546.2054, 105.9168
546.6875, 98.12708
547.1696, 90.72775
547.6517, 83.39731
548.1339, 76.56982
548.6160, 70.97842
549.0981, 66.23926
549.5802, 61.20921
550.0623, 55.27419
550.5444, 49.45940
551.0266, 44.14896
551.5087, 39.46002
551.9908, 35.87848
552.4729, 33.59409
552.9550, 31.58539
553.4371, 28.51486
553.9193, 24.06999
554.4014, 20.40102
554.8835, 17.79178
555.3656, 15.52547
555.8477, 13.57016
556.3298, 11.69783
556.8120, 9.531952
557.2941, 6.944794
557.7762, 4.439163
558.2583, 2.766937
558.7404, 2.036102
559.2225, 1.335403
559.7047, 0.7235410
560.1868, 4.3715999E-02
560.6689, 0.6692350
561.1510, 1.517090
561.6331, 2.776062
562.1152, 4.711349
562.5974, 6.546555
563.0795, 7.760742
563.5616, 8.306488
564.0437, 7.685760
564.5258, 5.509918
565.0079, 3.543167
565.4901, 3.673920
565.9722, 5.776871
566.4543, 6.751419
566.9364, 5.805939
567.4185, 4.648849
567.9006, 3.614441
568.3828, 2.880371
568.8649, 2.906143
569.3470, 3.709457
569.8291, 4.466354
570.3112, 4.151917
570.7933, 2.690140
571.2755, 1.546097
571.7576, 1.407639
572.2397, 0.6979520
572.7218, 1.879700
573.2039, 4.749908
573.6860, 5.838272
574.1682, 4.680130
574.6503, 3.304031
575.1324, 3.797653
575.6145, 5.736755
576.0966, 7.232025
576.5787, 8.100937
577.0609, 8.782196
577.5430, 9.466782
578.0251, 10.16275
578.5072, 10.83540
578.9893, 11.28929
579.4714, 12.15996
579.9536, 14.05609
580.4357, 16.31104
580.9178, 17.99179
581.3999, 19.06575
581.8820, 20.33154
582.3641, 22.46788
582.8463, 25.25331
583.3284, 27.38808
583.8105, 28.10789
584.2926, 29.28932
584.7747, 31.41583
585.2568, 33.77597
585.7390, 35.66628
586.2211, 37.19296
586.7032, 39.12938
587.1853, 42.15363
587.6674, 45.89049
588.1495, 49.40964
588.6317, 52.76543
589.1138, 55.52969
589.5959, 57.11879
590.0780, 58.48798
590.5601, 60.75642
591.0422, 63.90831
591.5244, 67.19876
592.0065, 70.54688
592.4886, 73.81540
592.9707, 76.77258
593.4528, 79.49734
593.9349, 82.41156
594.4171, 85.74161
594.8992, 88.94644
595.3813, 91.00917
595.8634, 91.34512
596.3455, 92.26453
596.8276, 94.15593
597.3098, 96.13309
597.7919, 97.85400
598.2740, 99.40085
598.7561, 100.9687
599.2382, 102.6404
599.7203, 104.3218
600.2025, 106.0876
600.6846, 107.9228
601.1667, 108.8567
601.6488, 108.4145
602.1309, 107.8049
602.6130, 107.9683
603.0952, 108.5489
603.5773, 108.8389
604.0594, 108.6477
604.5415, 108.3508
605.0236, 108.2634
605.5057, 108.1591
605.9879, 107.6778
606.4700, 106.7753
606.9521, 105.5295
607.4342, 103.9454
607.9163, 102.1045
608.3984, 100.7061
608.8806, 100.0822
609.3627, 99.47705
609.8448, 99.04509
610.3269, 98.43861
610.8090, 97.26840
611.2911, 95.61856
611.7733, 93.98459
612.2554, 92.76923
612.7375, 91.75623
613.2196, 90.26468
613.7017, 88.17877
614.1838, 86.63014
614.6660, 86.16556
615.1481, 86.13840
615.6302, 85.66737
616.1123, 84.81691
616.5944, 84.57416
617.0765, 85.63040
617.5587, 86.81464
618.0408, 87.14941
618.5229, 87.04056
619.0050, 87.44275
619.4871, 88.61075
619.9692, 89.91264
620.4514, 90.64725
620.9335, 90.77380
621.4156, 91.36084
621.8977, 93.01489
622.3798, 94.55484
622.8619, 95.64395
623.3441, 96.39328
623.8262, 96.95306
624.3083, 97.43912
624.7904, 97.76251
625.2725, 97.29456
625.7546, 96.60393
626.2367, 97.45280
626.7188, 99.98120
627.2009, 102.7354
627.6830, 105.4706
628.1652, 107.7815
628.6473, 108.1105
629.1294, 105.2190
629.6115, 103.9913
630.0936, 107.0430
630.5757, 110.6128
631.0579, 111.7103
631.5400, 110.7923
632.0221, 109.8124
632.5042, 109.7733
632.9863, 110.0912
633.4684, 109.4667
633.9506, 107.5262
634.4327, 106.4853
634.9148, 107.3272
635.3969, 108.0192
635.8790, 107.6895
636.3611, 106.4940
636.8433, 104.5964
637.3254, 101.8206
637.8075, 99.11230
638.2896, 97.48941
638.7717, 96.34491
639.2538, 94.29272
639.7360, 91.17670
640.2181, 88.16924
640.7002, 86.20294
641.1823, 84.92741
641.6644, 82.85713
642.1465, 79.64566
642.6287, 76.06848
643.1108, 71.42738
643.5929, 67.03574
644.0750, 64.08194
644.5571, 62.15323
645.0392, 59.82199
645.5214, 56.19443
646.0035, 52.17189
646.4856, 49.58084
646.9677, 48.41170
647.4498, 46.20299
647.9319, 42.04039
648.4141, 37.78702
648.8962, 35.01627
649.3783, 33.43585
649.8604, 32.06825
650.3425, 30.95224
650.8246, 29.88338
651.3068, 28.89262
651.7889, 27.85036
652.2710, 26.67918
652.7531, 25.32234
653.2352, 23.56355
653.7173, 21.15039
654.1995, 18.34375
654.6816, 16.17932
655.1637, 14.63651
655.6458, 13.81227
656.1279, 14.96910
656.6100, 15.78540
657.0922, 14.41345
657.5743, 11.47638
658.0564, 9.246506
658.5385, 8.768478
659.0206, 9.080078
659.5027, 9.709198
659.9849, 10.38918
660.4670, 10.20459
660.9491, 8.939987
661.4312, 7.525940
661.9133, 6.837662
662.3954, 5.496109
662.8776, 4.107727
663.3597, 3.504974
663.8418, 2.469360
664.3239, 2.003525
664.8060, 1.317856
665.2881, 1.433624
665.7703, 1.493881
666.2524, 1.496201
666.7345, 1.409103
667.2166, 1.336487
667.6987, 1.491150
668.1808, 1.846298
668.6630, 2.060333
669.1451, 2.069519
669.6272, 1.887177
670.1093, 1.380142
670.5914, 0.6141660
671.0735, 0.3471530
671.5557, 1.058578
672.0378, 1.692917
672.5199, 2.145416
673.0020, 2.163727
673.4841, 1.104034
673.9662, 0.8010250
674.4484, 2.237228
674.9305, 2.109634
675.4126, 0.9359280
675.8947, 0.5199740
676.3768, 1.125839
676.8589, 1.255295
677.3411, 5.9264999E-02
677.8232, 1.079819
678.3053, 0.7474370
678.7874, 0.6028440
679.2695, 1.300552
679.7516, 0.4682920
680.2338, 0.4825130
680.7159, 0.6457820
681.1980, 0.4184420
681.6801, 0.4513850
682.1622, 0.8378600
682.6443, 1.187897
683.1265, 1.120789
683.6086, 0.7953640
684.0907, 1.136841
684.5728, 2.906952
685.0549, 3.668350
685.5370, 1.309464
686.0192, 0.5382080
686.5013, 1.113480
686.9834, 5.054321
687.4655, 7.507202
687.9476, 6.342056
688.4297, 4.534378
688.9119, 4.776588
689.3940, 6.358269
689.8761, 7.699669
690.3582, 8.535782
690.8403, 9.332436
691.3224, 10.55228
691.8046, 11.97495
692.2867, 12.43272
692.7688, 10.74135
693.2509, 10.04841
693.7330, 11.16849
694.2151, 12.54510
694.6973, 13.40224
695.1794, 13.73642
695.6615, 13.60118
696.1436, 12.82835
696.6257, 12.41224
697.1078, 13.87091
697.5900, 16.62447
698.0721, 18.71060
698.5542, 19.84044
699.0363, 20.09659
699.5184, 19.27948
700.0005, 17.82205
700.4827, 17.22041
700.9648, 17.89684
701.4469, 18.73817
701.9290, 20.16219
702.4111, 21.32925
702.8932, 21.56950
703.3754, 21.19279
703.8575, 20.91473
704.3396, 21.09875
704.8217, 21.32246
705.3038, 20.93296
705.7859, 20.08208
706.2681, 19.49670
706.7502, 19.25582
707.2323, 19.32558
707.7144, 19.74138
708.1965, 20.34398
708.6786, 20.86678
709.1607, 21.33112
709.6428, 21.59619
710.1249, 21.77029
710.6071, 21.65648
711.0892, 21.08722
711.5713, 20.17838
712.0534, 18.90630
712.5355, 17.32026
713.0176, 16.18919
713.4998, 16.68548
713.9819, 18.44730
714.4640, 19.52599
714.9461, 19.81360
715.4282, 19.72015
715.9103, 19.48463
716.3925, 19.06507
716.8746, 18.28629
717.3567, 17.06945
717.8388, 15.53059
718.3209, 12.58802
718.8030, 10.61385
719.2852, 11.37437
719.7673, 13.48003
720.2494, 15.14449
720.7315, 15.90997
721.2136, 16.19279
721.6957, 16.25132
722.1779, 16.14388
722.6600, 16.18289
723.1421, 16.45666
723.6242, 15.97331
724.1063, 13.90008
724.5884, 11.91808
725.0706, 12.21034
725.5527, 14.51714
726.0348, 15.74477
726.5169, 15.18269
726.9990, 14.26038
727.4811, 13.28870
727.9633, 12.27883
728.4454, 10.94041
728.9275, 9.511971
729.4096, 9.013115
729.8917, 10.36446
730.3738, 12.45988
730.8560, 12.68850
731.3381, 10.96996
731.8202, 9.879478
732.3023, 9.949295
732.7844, 10.33032
733.2665, 10.53484
733.7487, 10.55362
734.2308, 10.45532
734.7129, 10.18355
735.1950, 10.05782
735.6771, 10.30415
736.1592, 10.46271
736.6414, 9.941208
737.1235, 9.033875
737.6056, 8.706985
738.0877, 9.357071
738.5698, 10.10042
739.0519, 9.582153
739.5341, 7.974915
740.0162, 6.753677
740.4983, 5.981491
740.9804, 5.659210
741.4625, 6.011963
741.9446, 6.633774
742.4268, 6.757721
742.9089, 6.292603
743.3910, 5.696793
743.8731, 4.996140
744.3552, 4.268387
744.8373, 3.192245
745.3195, 2.171829
745.8016, 1.911880
746.2837, 2.487549
746.7658, 3.139297
747.2479, 3.104416
747.7300, 2.681183
748.2122, 2.876999
748.6943, 3.711121
749.1764, 3.792099
749.6585, 2.507782
750.1406, 0.9192660
750.6227, 6.4896002E-02
751.1049, 5.9783999E-02
751.5870, 9.8846003E-02
752.0691, 0.1522830
752.5512, 1.9990001E-03
753.0333, 0.8083950
753.5154, 1.519241
753.9976, 1.378128
754.4797, 0.5565640
754.9618, 0.2149350
755.4439, 0.5810090
755.9260, 0.7019500
756.4081, 0.6773830
756.8903, 0.5763240
757.3724, 0.7634580
757.8545, 1.308014
758.3366, 1.739319
758.8187, 1.721909
759.3008, 1.448288
759.7830, 1.436646
760.2651, 2.059021
760.7472, 2.044510
761.2293, 0.6227570
761.7114, 0.5321040
762.1935, 0.5892180
762.6757, 4.4723999E-02
763.1578, 0.3433690
763.6399, 0.4186250
764.1220, 0.7505040
764.6041, 2.170959
765.0862, 3.851196
765.5684, 4.483917
766.0505, 4.197754
766.5326, 3.637680
767.0147, 2.990173
767.4968, 2.443359
767.9789, 2.233765
768.4611, 2.340775
768.9432, 2.366623
769.4253, 2.192551
769.9074, 2.146225
770.3895, 2.426361
770.8716, 2.716522
771.3538, 2.939438
771.8359, 2.991257
772.3180, 2.518250
772.8001, 0.9010310
773.2822, 0.2135930
773.7643, 1.079880
774.2465, 3.183929
774.7286, 3.473587
775.2107, 2.046570
775.6928, 0.9380950
776.1749, 1.315689
776.6570, 2.428833
777.1392, 2.745712
777.6213, 2.096756
778.1034, 1.788773
778.5855, 2.027222
779.0676, 2.257477
779.5497, 2.336426
780.0319, 2.213608
780.5140, 1.670059
780.9961, 0.6381680
781.4782, 0.1198430
781.9603, 1.067352
782.4424, 1.864273
782.9246, 0.9180760
783.4067, 0.5351410
783.8888, 0.2964780
784.3709, 1.796341
784.8530, 3.819733
785.3351, 4.244522
785.8173, 3.545868
786.2994, 2.730026
786.7815, 1.806595
787.2636, 1.156891
787.7457, 0.8033140
788.2278, 0.8008120
788.7100, 1.483490
789.1921, 2.538910
789.6742, 2.613007
790.1563, 1.001846
790.6384, 0.3087460
791.1205, 1.271072
791.6026, 1.843857
792.0847, 1.690643
792.5668, 1.246704
793.0490, 1.233170
793.5311, 1.857452
794.0132, 2.665817
794.4953, 3.137024
794.9774, 3.618668
795.4595, 4.927765
795.9417, 6.916199
796.4238, 8.628983
796.9059, 9.773941
797.3880, 10.30386
797.8701, 9.988464
798.3522, 8.941650
798.8344, 9.022461
799.3165, 10.82875
799.7986, 12.65562
800.2807, 14.26411
800.7628, 15.75482
801.2449, 16.88576
801.7271, 17.94264
802.2092, 19.71960
802.6913, 22.66978
803.1734, 25.60883
803.6555, 27.99013
804.1376, 30.07561
804.6198, 32.05281
805.1019, 33.92786
805.5840, 35.59486
806.0661, 37.03937
806.5482, 38.81317
807.0303, 41.68323
807.5125, 45.50508
807.9946, 49.34000
808.4767, 53.33643
808.9588, 56.76294
809.4409, 59.10130
809.9230, 61.16849
810.4052, 63.76968
810.8873, 66.95717
811.3694, 70.79785
811.8515, 75.56102
812.3336, 80.44818
812.8157, 85.59592
813.2979, 90.56845
813.7800, 94.92043
814.2621, 98.75861
814.7442, 102.3430
815.2263, 105.6450
815.7084, 109.2443
816.1906, 113.8423
816.6727, 119.1028
817.1548, 124.5172
817.6369, 129.9368
818.1190, 134.7242
818.6011, 138.6094
819.0833, 142.2065
819.5654, 146.2063
820.0475, 150.5554
820.5296, 155.5131
821.0117, 161.9702
821.4938, 167.2929
821.9760, 169.5517
822.4581, 171.4053
822.9402, 175.6018
823.4223, 181.5227
823.9044, 185.9318
824.3865, 187.6342
824.8687, 188.6316
825.3508, 188.8681
825.8329, 189.3665
826.3150, 191.7640
826.7971, 195.2875
827.2792, 197.5907
827.7614, 197.6248
828.2435, 196.7372
828.7256, 196.3287
829.2077, 196.3984
829.6898, 197.1959
830.1719, 198.7384
830.6541, 199.6688
831.1362, 199.2279
831.6183, 198.6290
832.1004, 199.4246
832.5825, 201.6593
833.0646, 203.6842
833.5468, 204.2151
834.0289, 206.4516
834.5110, 212.0726
834.9931, 218.1393
835.4752, 222.6129
835.9573, 226.1187
836.4395, 230.5151
836.9216, 236.4050
837.4037, 242.7849
837.8858, 248.9625
838.3679, 255.5521
838.8500, 263.0299
839.3322, 271.4820
839.8143, 281.3256
840.2964, 292.5716
840.7785, 303.9187
841.2606, 313.2337
841.7427, 321.5380
842.2249, 333.1187
842.7070, 347.9900
843.1891, 363.4735
843.6712, 378.6790
844.1533, 394.9479
844.6354, 413.5116
845.1176, 431.8552
845.5997, 451.4162
846.0818, 472.9857
846.5639, 495.0054
847.0460, 517.8516
847.5281, 543.2358
848.0103, 569.2548
848.4924, 596.4367
848.9745, 625.4421
849.4566, 656.4065
849.9387, 690.0035
850.4208, 727.0359
850.9030, 766.6581
851.3851, 807.4988
851.8672, 850.8164
852.3493, 899.3335
852.8314, 953.0820
853.3135, 1010.274
853.7957, 1068.690
854.2778, 1130.368
854.7599, 1198.813
855.2420, 1274.140
855.7241, 1356.483
856.2062, 1445.394
856.6884, 1541.986
857.1705, 1646.156
857.6526, 1758.328
858.1347, 1879.591
858.6168, 2008.669
859.0989, 2151.790
859.5811, 2309.532
860.0632, 2479.959
860.5453, 2666.831
861.0274, 2863.883
861.5095, 3066.764
861.9916, 3275.354
862.4738, 3489.716
862.9559, 3716.103
863.4380, 3940.322
863.9201, 4154.776
864.4022, 4360.486
864.8843, 4559.604
865.3665, 4750.643
865.8486, 4924.000
866.3307, 5075.776
866.8128, 5212.018
867.2949, 5339.427
867.7770, 5456.584
868.2592, 5557.606
868.7413, 5642.218
869.2234, 5715.709
869.7055, 5779.345
870.1876, 5834.114
870.6697, 5880.738
871.1519, 5918.895
871.6340, 5946.535
872.1161, 5966.525
872.5981, 5970.204
873.0803, 5952.677
873.5624, 5923.074
874.0445, 5889.599
874.5266, 5844.219
875.0087, 5774.554
875.4908, 5679.073
875.9730, 5565.021
876.4551, 5440.421
876.9372, 5292.780
877.4193, 5112.357
877.9014, 4905.147
878.3835, 4675.531
878.8657, 4427.208
879.3478, 4165.093
879.8299, 3890.300
880.3120, 3609.733
880.7941, 3327.114
881.2762, 3045.979
881.7584, 2778.034
882.2405, 2524.595
882.7226, 2289.299
883.2047, 2074.515
883.6868, 1879.349
884.1689, 1704.269
884.6511, 1548.725
885.1332, 1407.964
885.6153, 1282.188
886.0974, 1170.520
886.5795, 1075.001
887.0616, 990.1806
887.5438, 912.0059
888.0259, 840.7698
888.5080, 776.7159
888.9901, 720.9524
889.4722, 669.8332
889.9543, 622.5559
890.4365, 579.8749
890.9186, 543.0883
891.4007, 510.7100
891.8828, 481.6635
892.3649, 455.2693
892.8470, 430.2987
893.3292, 406.0353
893.8113, 382.7461
894.2934, 360.7470
894.7755, 340.0356
895.2576, 320.7759
895.7397, 303.0847
896.2219, 287.1671
896.7040, 273.2339
897.1861, 260.1176
897.6682, 246.1152
898.1503, 231.5604
898.6324, 217.8936
899.1146, 205.1594
899.5967, 193.6273
900.0788, 183.4076
900.5609, 173.7859
901.0430, 164.1733
901.5251, 154.6564
902.0073, 145.4074
902.4894, 136.5384
902.9715, 127.5517
903.4536, 117.0766
903.9357, 108.0962
904.4178, 103.0895
904.9000, 99.77754
905.3821, 94.90199
905.8642, 88.10075
906.3463, 82.09294
906.8284, 78.36154
907.3105, 74.62314
907.7927, 69.59747
908.2748, 64.26756
908.7569, 59.44238
909.2390, 55.31291
909.7211, 52.06560
910.2032, 49.98415
910.6854, 47.68658
911.1675, 43.30313
911.6496, 38.19627
912.1317, 34.49828
912.6138, 32.13509
913.0959, 30.67047
913.5781, 29.86371
914.0602, 28.59961
914.5423, 25.61124
915.0244, 21.73621
915.5065, 19.55821
915.9886, 19.08319
916.4708, 18.61330
916.9529, 17.98152
917.4350, 16.93971
917.9171, 15.16989
918.3992, 13.27563
918.8813, 12.42499
919.3635, 12.86490
919.8456, 12.24014
920.3277, 9.630768
920.8098, 7.465225
921.2919, 6.691818
921.7740, 6.159103
922.2562, 5.035202
922.7383, 3.505432
923.2204, 2.094490
923.7025, 0.5730060
924.1846, 6.5803997E-02
924.6667, 1.631104
925.1489, 3.019325
925.6310, 2.013580
926.1131, 4.4991001E-02
926.5952, 1.190140
927.0773, 1.196686
927.5594, 1.257454
928.0416, 2.207504
928.5237, 3.199440
929.0058, 3.537323
929.4879, 3.339226
929.9700, 2.491386
930.4521, 1.309967
930.9343, 0.8119430
931.4164, 1.397614
931.8985, 2.276047
932.3806, 2.388397
932.8627, 2.092377
933.3448, 2.748383
933.8270, 4.286552
934.3091, 5.815033
934.7912, 7.163277
935.2733, 7.533096
935.7554, 6.169907
936.2375, 3.990936
936.7197, 3.280121
937.2018, 4.386742
937.6839, 4.885544
938.1660, 4.491821
938.6481, 4.259346
939.1302, 4.871323
939.6124, 5.354546
940.0945, 4.345528
940.5766, 2.108635
941.0587, 1.223656
941.5408, 3.091972
942.0229, 4.146080
942.5051, 3.639862
942.9872, 2.913239
943.4693, 2.562996
943.9514, 2.422852
944.4335, 2.232018
944.9156, 1.956612
945.3978, 1.687592
945.8799, 1.396515
946.3620, 1.199089
946.8441, 1.047112
947.3262, 1.083771
947.8083, 1.905830
948.2905, 2.995049
948.7726, 2.806717
949.2547, 0.7431720
949.7368, 1.126122
950.2189, 0.5369260
950.7010, 0.8897630
951.1832, 0.8074720
951.6653, 0.1993710
952.1474, 0.5693050
952.6295, 8.8737004E-02
953.1116, 0.5535050
953.5938, 1.000252
954.0759, 0.9609150
954.5580, 0.6055070
955.0400, 3.199791
955.5222, 3.872314
956.0043, 2.559654
956.4864, 1.099312
956.9685, 2.1289999E-03
957.4506, 0.1606830
957.9327, 1.411461
958.4149, 4.140991
958.8970, 5.459213
959.3791, 5.043266
959.8612, 4.886002
960.3433, 5.301636
960.8254, 5.493103
961.3076, 4.997604
961.7897, 4.211487
962.2718, 3.584641
962.7539, 3.114021
963.2360, 3.131378
963.7181, 3.975075
964.2003, 4.770172
964.6824, 5.373734
965.1645, 5.978119
965.6466, 6.766960
966.1287, 7.598701
966.6108, 8.236511
967.0930, 8.655350
967.5751, 8.920250
968.0572, 9.022774
968.5393, 8.998055
969.0214, 8.715004
969.5035, 8.428696
969.9857, 8.384888
970.4678, 8.541130
970.9499, 8.757561
971.4320, 9.012276
971.9141, 9.148895
972.3962, 8.910164
972.8784, 8.678482
973.3605, 8.688408
973.8426, 8.988182
974.3247, 9.874588
974.8068, 11.15671
975.2889, 11.94999
975.7711, 11.68993
976.2532, 11.20397
976.7353, 11.36083
977.2174, 11.96197
977.6995, 12.92025
978.1816, 13.98523
978.6638, 14.22014
979.1459, 13.45894
979.6280, 12.67747
980.1101, 12.67128
980.5922, 13.12930
981.0743, 13.53789
981.5565, 13.86205
982.0386, 13.74642
982.5207, 13.19551
983.0028, 13.00198
983.4849, 13.50951
983.9670, 14.10301
984.4492, 14.02567
984.9313, 13.53519
985.4134, 13.99886
985.8955, 15.66477
986.3776, 15.97150
986.8597, 14.25127
987.3419, 12.88684
987.8240, 13.17832
988.3061, 14.20388
988.7882, 14.68200
989.2703, 14.58275
989.7524, 14.06995
990.2346, 12.48487
990.7167, 12.13333
991.1988, 14.37670
991.6809, 16.20525
992.1630, 15.44265
992.6451, 13.46576
993.1273, 12.87946
993.6094, 14.04498
994.0915, 14.83595
994.5736, 14.83816
995.0557, 14.70151
995.5378, 14.63089
996.0200, 14.51519
996.5021, 14.31426
996.9842, 13.90442
997.4663, 13.00640
997.9484, 11.53019
998.4305, 10.80568
998.9127, 11.66595
999.3948, 12.35387
999.8769, 12.05743
1000.359, 11.56082
1000.841, 11.60002
1001.323, 11.99249
1001.805, 12.11319
1002.287, 11.74534
1002.770, 11.46193
1003.252, 11.89701
1003.734, 12.15668
1004.216, 11.17510
1004.698, 9.860809
1005.180, 9.696613
1005.662, 10.36814
1006.144, 10.09934
1006.627, 8.020901
1007.109, 6.517941
1007.591, 8.313339
1008.073, 10.81453
1008.555, 11.16431
1009.037, 10.00508
1009.519, 8.136574
1010.001, 6.074226
1010.483, 5.236744
1010.966, 6.622879
1011.448, 8.368385
1011.930, 8.077023
1012.412, 6.793995
1012.894, 6.260315
1013.376, 6.356506
1013.858, 6.817116
1014.340, 7.486717
1014.823, 7.844852
1015.305, 7.543999
1015.787, 7.089695
1016.269, 7.199547
1016.751, 7.672672
1017.233, 8.021893
1017.715, 8.228008
1018.197, 8.323624
1018.679, 8.302181
1019.162, 7.861862
1019.644, 6.662392
1020.126, 5.226864
1020.608, 4.771427
1021.090, 5.255306
1021.572, 6.057686
1022.054, 7.169697
1022.536, 7.634068
1023.018, 7.091549
1023.501, 6.286289
1023.983, 5.847473
1024.465, 5.706703
1024.947, 5.627964
1025.429, 5.577885
1025.911, 6.089928
1026.393, 7.373760
1026.875, 8.124542
1027.358, 7.773537
1027.840, 7.130035
1028.322, 6.943081
1028.804, 7.142105
1029.286, 7.493408
1029.768, 8.115993
1030.250, 8.358902
1030.732, 8.096874
1031.214, 7.770657
1031.697, 7.563824
1032.179, 7.291302
1032.661, 6.571278
1033.143, 5.644787
1033.625, 5.868526
1034.107, 8.104694
1034.589, 9.304764
1035.071, 9.115849
1035.553, 8.464752
1036.036, 7.138443
1036.518, 6.100571
1037.000, 6.682491
1037.482, 8.475853
1037.964, 9.054569
1038.446, 7.218086
1038.928, 6.550274
1039.410, 8.048180
1039.893, 9.361362
1040.375, 9.820538
1040.857, 9.657867
1041.339, 8.766033
1041.821, 7.366596
1042.303, 6.709709
1042.785, 7.351898
1043.267, 7.684334
1043.750, 7.349113
1044.232, 7.069832
1044.714, 7.046410
1045.196, 7.214462
1045.678, 7.737957
1046.160, 8.452595
1046.642, 8.554462
1047.124, 7.376694
1047.606, 6.910526
1048.089, 8.412605
1048.571, 9.432869
1049.053, 8.604687
1049.535, 7.172447
1050.017, 6.043854
1050.499, 5.394032
1050.981, 5.646969
1051.463, 7.376732
1051.945, 8.672741
1052.428, 9.082764
1052.910, 9.030785
1053.392, 8.465374
1053.874, 7.722466
1054.356, 6.770267
1054.838, 5.926777
1055.320, 6.307426
1055.802, 8.706947
1056.285, 10.30470
1056.767, 9.910576
1057.249, 9.029388
1057.731, 7.698841
1058.213, 6.768509
1058.695, 7.443466
1059.177, 9.196655
1059.659, 10.32346
1060.141, 10.36280
1060.624, 10.07244
1061.106, 9.320950
1061.588, 8.787300
1062.070, 9.287243
1062.552, 9.782356
1063.034, 8.947231
1063.516, 7.275932
1063.998, 6.257751
1064.480, 6.274960
1064.963, 6.476349
1065.445, 6.745068
1065.927, 6.920620
1066.409, 6.622334
1066.891, 6.412880
1067.373, 7.156914
1067.855, 8.361492
1068.337, 8.701218
1068.820, 7.826195
1069.302, 7.270134
1069.784, 7.918827
1070.266, 8.724552
1070.748, 9.459549
1071.230, 9.835758
1071.712, 9.454723
1072.194, 8.563423
1072.677, 7.552296
1073.159, 6.526035
1073.641, 5.971691
1074.123, 6.333702
1074.605, 6.928272
1075.087, 7.803776
1075.569, 8.391548
1076.051, 7.976421
1076.533, 7.001423
1077.016, 6.252018
1077.498, 5.891132
1077.980, 5.794132
1078.462, 6.119598
1078.944, 6.426849
1079.426, 6.702698
1079.908, 6.676521
1080.390, 5.864174
1080.872, 4.762722
1081.354, 4.014828
1081.837, 3.720989
1082.319, 3.882557
1082.801, 4.766880
1083.283, 5.697636
1083.765, 6.803017
1084.247, 7.374413
1084.729, 6.273430
1085.211, 4.686459
1085.694, 4.480034
1086.176, 5.480896
1086.658, 5.751003
1087.140, 4.265724
1087.622, 3.165104
1088.104, 3.876774
1088.586, 4.662422
1089.068, 4.229813
1089.551, 3.405910
1090.033, 3.260117
1090.515, 3.706444
1090.997, 4.077839
1091.479, 4.207912
1091.961, 4.239079
1092.443, 3.975163
1092.925, 3.916229
1093.407, 5.024632
1093.890, 5.931011
1094.372, 4.532490
1094.854, 2.004719
1095.336, 1.646885
1095.818, 4.339790
1096.300, 6.277916
1096.782, 5.789536
1097.264, 5.007748
1097.746, 4.484051
1098.229, 4.265751
1098.711, 4.640144
1099.193, 5.229832
1099.675, 5.396503
1100.157, 5.045544
1100.639, 4.417896
1101.121, 3.097687
1101.603, 2.188705
1102.086, 2.460201
1102.568, 2.720970
1103.050, 1.913338
1103.532, 0.8686030
1104.014, 0.7375980
1104.496, 1.388672
1104.978, 2.241673
1105.460, 3.827599
1105.943, 4.562450
1106.425, 3.152260
1106.907, 2.112118
1107.389, 3.431641
1107.871, 5.045418
1108.353, 4.226295
1108.835, 1.602364
1109.317, 0.5421940
1109.799, 2.289814
1110.281, 3.123749
1110.764, 2.058090
1111.246, 1.009575
1111.728, 0.3922730
1112.210, 0.1087380
1112.692, 0.1812290
1113.174, 0.5083500
1113.656, 0.8445550
1114.138, 1.192463
1114.621, 1.544010
1115.103, 2.255421
1115.585, 2.358551
1116.067, 1.114140
1116.549, 4.6230000E-03
1117.031, 5.3219002E-02
1117.513, 0.5019420
1117.995, 1.038010
1118.478, 1.555481
1118.960, 1.869541
1119.442, 2.085140
1119.924, 1.788456
1120.406, 0.5637630
1120.888, 0.4117010
1121.370, 0.7014660
1121.852, 0.3667070
1122.334, 0.7742310
1122.817, 2.420868
1123.299, 2.751945
1123.781, 1.208023
1124.263, 0.7008710
1124.745, 1.639431
1125.227, 2.387257
1125.709, 2.431458
1126.191, 2.168026
1126.673, 1.855881
1127.156, 1.582054
1127.638, 1.596012
1128.120, 1.914707
1128.602, 2.094025
1129.084, 2.144318
1129.566, 1.837822
1130.048, 1.082104
1130.530, 0.4059070
1131.013, 0.1191370
1131.495, 5.8463998E-02
1131.977, 4.4303998E-02
1132.459, 0.1139490
1132.941, 0.4200170
1133.423, 0.1535340
1133.905, 1.490192
1134.387, 0.3768500
1134.870, 0.1287190
1135.352, 0.6607780
1135.834, 1.627510
1136.316, 1.729225
1136.798, 1.214901
1137.280, 0.4507560
1137.762, 0.4570770
1138.244, 1.269264
1138.726, 1.877686
1139.208, 1.740952
1139.691, 0.8261720
1140.173, 0.1198230
1140.655, 0.6508560
1141.137, 0.8655970
1141.619, 0.8631100
1142.101, 0.6755370
1142.583, 1.6438000E-02
1143.065, 0.7321890
1143.548, 0.5120580
1144.030, 0.4719240
1144.512, 0.9023020
1144.994, 0.2976570
1145.476, 0.3476680
1145.958, 0.1600190
1146.440, 0.4167180
1146.922, 0.1852040
1147.405, 5.9147000E-02
1147.887, 0.7174030
1148.369, 1.649475
1148.851, 1.506084
1149.333, 0.2644310
1149.815, 0.4172170
1150.297, 0.5185620
1150.779, 1.393372
1151.261, 1.223259
1151.744, 0.6310580
1152.226, 0.4256670
1152.708, 1.161797
1153.190, 0.5716740
1153.672, 0.9757500
1154.154, 1.621479
1154.636, 0.7335130
1155.118, 0.5193980
1155.600, 2.839634
1156.083, 4.277798
1156.565, 2.543358
1157.047, 0.6627430
1157.529, 1.087822
1158.011, 2.616402
1158.493, 3.224594
1158.975, 2.818535
1159.457, 2.342873
1159.940, 2.039688
1160.422, 1.329605
1160.904, 0.8172450
1161.386, 1.861351
1161.868, 0.1308940
1162.350, 2.101521
1162.832, 2.880684
1163.314, 2.494980
1163.796, 1.741348
1164.279, 0.4604870
1164.761, 0.3007280
1165.243, 0.5378270
1165.725, 0.1587140
1166.207, 1.119816
1166.689, 2.098652
1167.171, 2.029762
1167.653, 1.457626
1168.135, 1.098145
1168.618, 0.9647450
1169.100, 1.262478
1169.582, 1.978428
1170.064, 2.177620
1170.546, 1.793530
1171.028, 1.405220
1171.510, 1.203552
1171.992, 1.158241
1172.474, 1.257027
1172.957, 1.433270
1173.439, 1.569847
1173.921, 1.733032
1174.403, 2.097412
1174.885, 2.480732
1175.367, 2.403053
1175.849, 1.939537
1176.331, 1.670444
1176.814, 1.838055
1177.296, 2.019543
1177.778, 1.744629
1178.260, 1.423191
1178.742, 1.778507
1179.224, 2.168320
1179.706, 1.604973
1180.188, 0.5780140
1180.671, 0.1387980
1181.153, 0.4527470
1181.635, 1.156628
1182.117, 2.330017
1182.599, 3.020184
1183.081, 2.169083
1183.563, 1.319668
1184.045, 1.702003
1184.527, 2.327335
1185.010, 1.983665
1185.492, 1.127609
1185.974, 1.088638
1186.456, 2.111477
1186.938, 2.687912
1187.420, 2.260521
1187.902, 1.848465
1188.384, 1.280277
1188.866, 1.185020
1189.349, 2.485798
1189.831, 3.730064
1190.313, 3.110725
1190.795, 1.245159
1191.277, 0.5893520
1191.759, 1.413837
1192.241, 2.354313
1192.723, 3.590954
1193.206, 4.259193
1193.688, 4.105488
1194.170, 3.569607
1194.652, 2.808922
1195.134, 2.146648
1195.616, 2.000595
1196.098, 2.337547
1196.580, 3.492981
1197.063, 5.303482
1197.545, 5.554192
1198.027, 4.199745
1198.509, 2.475906
1198.991, 0.8357850
1199.473, 1.8669000E-02
1199.955, 0.4331090
1200.437, 1.557941
1200.919, 2.961292
1201.401, 4.186905
1201.884, 4.162819
1202.366, 3.432903
1202.848, 3.019222
1203.330, 2.964176
1203.812, 3.030430
1204.294, 3.096584
1204.776, 2.993065
1205.258, 2.452206
1205.741, 1.986568
1206.223, 1.687439
1206.705, 1.837860
1207.187, 3.252987
1207.669, 4.789787
1208.151, 5.248573
1208.633, 4.596085
1209.115, 2.890903
1209.598, 0.3592190
1210.080, 1.738041
1210.562, 1.060150
1211.044, 3.119228
1211.526, 2.869957
1212.008, 2.366871
1212.490, 2.442482
1212.972, 2.954868
1213.454, 3.797237
1213.937, 4.806965
1214.419, 4.478409
1214.901, 2.330986
1215.383, 1.173550
1215.865, 1.156380
1216.347, 1.144424
1216.829, 0.8336030
1217.311, 1.028782
1217.793, 2.265446
1218.276, 3.735302
1218.758, 4.320980
1219.240, 4.225544
1219.722, 4.218109
1220.204, 4.163258
1220.686, 3.862846
1221.168, 3.324402
1221.650, 2.419731
1222.133, 1.286072
1222.615, 0.9112780
1223.097, 1.944366
1223.579, 3.167721
1224.061, 3.586842
1224.543, 3.491711
1225.025, 2.782314
1225.507, 2.044716
1225.990, 2.067924
1226.472, 2.563038
1226.954, 2.913269
1227.436, 2.995350
1227.918, 2.892170
1228.400, 2.402504
1228.882, 2.131332
1229.364, 2.684772
1229.846, 2.871773
1230.328, 1.913467
1230.811, 0.7244220
1231.293, 0.3081670
1231.775, 0.8958360
1232.257, 0.3380430
1232.739, 1.349392
1233.221, 2.464531
1233.703, 2.950222
1234.185, 3.350082
1234.668, 3.809998
1235.150, 3.284580
1235.632, 1.223698
1236.114, 9.6625999E-02
1236.596, 1.222149
1237.078, 3.604801
1237.560, 4.383331
1238.042, 3.970741
1238.525, 3.478207
1239.007, 3.072090
1239.489, 3.474377
1239.971, 4.444950
1240.453, 4.767616
1240.935, 4.173668
1241.417, 3.665142
1241.899, 3.887833
1242.381, 4.240429
1242.864, 4.685028
1243.346, 4.733910
1243.828, 3.405155
1244.310, 1.934532
1244.792, 2.049839
1245.274, 3.046295
1245.756, 2.880016
1246.238, 1.275642
1246.720, 0.8511390
1247.203, 3.511841
1247.685, 4.625374
1248.167, 3.306778
1248.649, 2.474159
1249.131, 3.589745
1249.613, 4.623188
1250.095, 3.832623
1250.577, 2.225883
1251.059, 1.801422
1251.542, 2.478592
1252.024, 3.374008
1252.506, 4.479431
1252.988, 4.624924
1253.470, 3.747879
1253.952, 2.549534
1254.434, 1.344425
1254.916, 0.9716030
1255.399, 2.142849
1255.881, 3.427170
1256.363, 2.610863
1256.845, 1.168266
1257.327, 1.380882
1257.809, 2.326042
1258.291, 2.440002
1258.773, 1.870708
1259.255, 1.901245
1259.738, 2.404381
1260.220, 3.049393
1260.702, 3.840572
1261.184, 4.268864
1261.666, 3.606316
1262.148, 3.055847
1262.630, 3.404079
1263.112, 3.698711
1263.594, 3.049538
1264.077, 2.092144
1264.559, 1.808857
1265.041, 2.096233
1265.523, 1.995430
1266.005, 1.291630
1266.487, 1.457035
1266.969, 2.608772
1267.451, 3.716614
1267.934, 4.549236
1268.416, 5.026089
1268.898, 5.118595
1269.380, 4.443523
1269.862, 1.980373
1270.344, 0.5925670
1270.826, 0.7384110
1271.308, 0.4496230
1271.791, 0.3210680
1272.273, 0.9234890
1272.755, 0.6498950
1273.237, 2.429241
1273.719, 3.570225
1274.201, 3.111572
1274.683, 2.902622
1275.165, 4.356972
1275.647, 5.376213
1276.130, 5.038269
1276.612, 4.224655
1277.094, 2.826893
1277.576, 1.763214
1278.058, 1.804367
1278.540, 2.401794
1279.022, 2.465092
1279.504, 1.201572
1279.986, 0.9583400
1280.469, 1.930080
1280.951, 2.519531
1281.433, 2.520496
1281.915, 2.155796
1282.397, 1.435707
1282.879, 0.8851740
1283.361, 1.054985
1283.843, 1.320621
1284.326, 0.9390450
1284.808, 0.0000000E+00
##END=



