##NAMES=Tantalite-(Mn)
##RRUFFID=R060415
##IDEAL CHEMISTRY=Mn^2+^Ta_2_O_6_
##LOCALITY=Nuristan, Laghman Province, Afghanistan
##OWNER=RRUFF
##SOURCE=Herb Obodda
##DESCRIPTION=Dark brown fragment
##STATUS=The identification of this mineral has been confirmed by X-ray diffraction.
##URL=rruff.info/R060415
131.0509, 0.0000000E+00
131.5330, 0.2745880
132.0151, 1.900861
132.4972, 2.939882
132.9794, 3.427372
133.4615, 3.609854
133.9436, 3.263700
134.4257, 2.593739
134.9078, 3.513267
135.3899, 3.817451
135.8721, 3.749172
136.3542, 3.339102
136.8363, 2.453097
137.3184, 1.464993
137.8005, 0.5481790
138.2826, 0.3441880
138.7648, 0.8122040
139.2469, 0.6558280
139.7290, 1.8940000E-02
140.2111, 0.3281750
140.6932, 0.1052070
141.1753, 0.1633380
141.6575, 3.7622001E-02
142.1396, 0.5314200
142.6217, 1.403605
143.1038, 2.704062
143.5859, 4.494654
144.0681, 5.698393
144.5502, 6.184212
145.0323, 6.213411
145.5144, 6.074970
145.9965, 5.686264
146.4786, 5.253189
146.9608, 4.838570
147.4429, 4.472218
147.9250, 3.960495
148.4071, 2.877649
148.8892, 1.805897
149.3713, 1.642466
149.8535, 3.757648
150.3356, 5.429321
150.8177, 5.701130
151.2998, 3.270210
151.7819, 2.261084
152.2640, 3.715107
152.7462, 6.489199
153.2283, 8.510248
153.7104, 9.206800
154.1925, 9.501820
154.6746, 9.625864
155.1567, 9.171881
155.6389, 9.291809
156.1210, 10.63437
156.6031, 12.68787
157.0852, 14.20771
157.5673, 14.38408
158.0495, 14.35723
158.5316, 14.70874
159.0137, 15.82353
159.4958, 16.91041
159.9779, 17.79879
160.4600, 18.50870
160.9422, 19.11112
161.4243, 19.32924
161.9064, 19.62009
162.3885, 20.31950
162.8706, 22.10157
163.3527, 23.62520
163.8349, 23.94289
164.3170, 23.36214
164.7991, 23.35357
165.2812, 25.17650
165.7633, 27.63798
166.2454, 29.65228
166.7276, 30.40986
167.2097, 31.06401
167.6918, 32.52980
168.1739, 34.66648
168.6560, 36.43174
169.1381, 36.68853
169.6203, 36.34848
170.1024, 36.05537
170.5845, 36.50614
171.0666, 37.62222
171.5487, 39.61602
172.0309, 42.38420
172.5130, 44.51867
172.9951, 44.47059
173.4772, 43.25261
173.9593, 42.43779
174.4414, 42.72977
174.9236, 43.65895
175.4057, 44.96078
175.8878, 46.65108
176.3699, 48.04749
176.8520, 48.50709
177.3341, 48.26840
177.8163, 47.84124
178.2984, 47.87692
178.7805, 47.71709
179.2626, 46.20584
179.7447, 43.29350
180.2268, 39.80419
180.7090, 36.39885
181.1911, 33.07933
181.6732, 29.89117
182.1553, 26.58207
182.6374, 23.45548
183.1195, 21.41141
183.6017, 20.55991
184.0838, 20.10123
184.5659, 19.02346
185.0480, 17.46292
185.5301, 16.06583
186.0123, 15.12410
186.4944, 14.58437
186.9765, 14.44700
187.4586, 14.81532
187.9407, 15.18266
188.4228, 14.58992
188.9050, 13.08813
189.3871, 11.91225
189.8692, 11.82401
190.3513, 12.62576
190.8334, 13.37143
191.3155, 14.01595
191.7977, 14.58717
192.2798, 15.20920
192.7619, 15.87807
193.2440, 16.27961
193.7261, 15.89011
194.2082, 14.84668
194.6904, 14.95874
195.1725, 16.63297
195.6546, 18.87222
196.1367, 19.50037
196.6188, 18.40689
197.1009, 17.53828
197.5831, 18.16554
198.0652, 20.24470
198.5473, 21.82941
199.0294, 22.71537
199.5115, 23.19774
199.9937, 23.79944
200.4758, 24.49549
200.9579, 25.38300
201.4400, 26.38669
201.9221, 27.46298
202.4042, 29.34813
202.8864, 32.37202
203.3685, 35.93279
203.8506, 38.68316
204.3327, 40.55913
204.8148, 41.79758
205.2969, 42.33389
205.7791, 42.03522
206.2612, 42.07176
206.7433, 42.70815
207.2254, 43.56881
207.7075, 43.71232
208.1896, 43.08468
208.6718, 41.90395
209.1539, 40.16884
209.6360, 37.77901
210.1181, 35.46148
210.6002, 33.35399
211.0823, 31.29146
211.5645, 28.73543
212.0466, 25.47849
212.5287, 22.19695
213.0108, 19.16374
213.4929, 16.25636
213.9750, 14.02827
214.4572, 12.65232
214.9393, 11.91740
215.4214, 11.18660
215.9035, 10.44751
216.3856, 9.730797
216.8678, 9.087090
217.3499, 8.564762
217.8320, 7.928543
218.3141, 7.149921
218.7962, 6.257866
219.2783, 5.307178
219.7605, 4.178898
220.2426, 3.217762
220.7247, 2.596851
221.2068, 2.310066
221.6889, 2.440342
222.1710, 3.294167
222.6532, 4.496304
223.1353, 4.714535
223.6174, 3.293949
224.0995, 1.990993
224.5816, 1.807373
225.0637, 3.410004
225.5459, 4.385906
226.0280, 4.335606
226.5101, 3.685501
226.9922, 3.751358
227.4743, 4.792995
227.9564, 6.137753
228.4386, 7.551708
228.9207, 9.203243
229.4028, 10.42726
229.8849, 11.04206
230.3670, 11.26879
230.8492, 11.77034
231.3313, 12.72889
231.8134, 13.67717
232.2955, 14.33543
232.7776, 14.27673
233.2597, 14.94484
233.7419, 16.70679
234.2240, 19.10569
234.7061, 20.88020
235.1882, 21.74641
235.6703, 22.42323
236.1524, 23.22274
236.6346, 24.23180
237.1167, 25.10869
237.5988, 25.53096
238.0809, 25.93158
238.5630, 27.44035
239.0451, 30.73037
239.5273, 34.17975
240.0094, 37.05531
240.4915, 39.04149
240.9736, 41.15485
241.4557, 43.58620
241.9378, 46.21275
242.4200, 48.61081
242.9021, 50.57178
243.3842, 52.38636
243.8663, 54.29351
244.3484, 56.50193
244.8306, 58.42418
245.3127, 59.96350
245.7948, 61.06332
246.2769, 61.72533
246.7590, 61.95433
247.2411, 61.81316
247.7233, 61.18839
248.2054, 59.98692
248.6875, 58.55670
249.1696, 57.05092
249.6517, 55.23500
250.1338, 52.61543
250.6160, 48.59097
251.0981, 44.83800
251.5802, 42.00852
252.0623, 40.32207
252.5444, 38.25020
253.0265, 35.33599
253.5087, 32.42592
253.9908, 30.89437
254.4729, 31.42719
254.9550, 31.91857
255.4371, 31.72403
255.9192, 30.73154
256.4014, 29.96799
256.8835, 29.40896
257.3656, 29.10368
257.8477, 29.13651
258.3298, 29.64481
258.8120, 30.18345
259.2941, 30.63429
259.7762, 30.98845
260.2583, 31.41592
260.7404, 31.86584
261.2225, 32.45448
261.7047, 33.36212
262.1868, 34.72856
262.6689, 36.04241
263.1510, 37.14823
263.6331, 38.04799
264.1152, 39.32627
264.5974, 41.31803
265.0795, 43.15568
265.5616, 43.90795
266.0437, 43.33039
266.5258, 42.48044
267.0079, 41.35863
267.4901, 40.05614
267.9722, 39.59097
268.4543, 40.30042
268.9364, 41.16758
269.4185, 41.31884
269.9006, 40.58355
270.3828, 39.87228
270.8649, 39.28056
271.3470, 38.81627
271.8291, 38.53394
272.3112, 38.48198
272.7933, 38.47038
273.2755, 38.54459
273.7576, 38.84465
274.2397, 38.21249
274.7218, 36.28160
275.2039, 33.55409
275.6860, 31.34855
276.1682, 29.64046
276.6503, 28.25128
277.1324, 27.14598
277.6145, 26.37431
278.0966, 25.55260
278.5787, 24.69138
279.0609, 23.78077
279.5430, 22.75028
280.0251, 21.54754
280.5072, 20.46257
280.9893, 19.73157
281.4715, 19.37365
281.9536, 18.79126
282.4357, 17.79650
282.9178, 16.84225
283.3999, 16.92807
283.8820, 18.12215
284.3642, 19.17224
284.8463, 19.42282
285.3284, 18.94082
285.8105, 18.42862
286.2926, 17.82954
286.7747, 17.38081
287.2569, 17.77213
287.7390, 18.94533
288.2211, 19.35897
288.7032, 17.89874
289.1853, 15.09068
289.6674, 13.29258
290.1496, 12.56966
290.6317, 12.35033
291.1138, 12.25644
291.5959, 12.21912
292.0780, 11.76021
292.5602, 10.59826
293.0423, 8.955200
293.5244, 7.310059
294.0065, 5.666283
294.4886, 4.139091
294.9707, 2.856468
295.4529, 1.769039
295.9350, 0.6933860
296.4171, 0.5756650
296.8992, 1.727402
297.3813, 1.944298
297.8634, 1.313782
298.3456, 0.8372080
298.8277, 1.758911
299.3098, 3.376801
299.7919, 4.003242
300.2740, 2.908367
300.7561, 1.361504
301.2383, 1.296986
301.7204, 2.381107
302.2025, 3.096886
302.6846, 1.795708
303.1667, 0.2785190
303.6488, 1.067032
304.1310, 9.9391997E-02
304.6131, 1.479198
305.0952, 1.105644
305.5773, 0.4839020
306.0594, 1.832371
306.5415, 1.810249
307.0237, 1.341961
307.5058, 1.482113
307.9879, 2.405563
308.4700, 3.398819
308.9521, 3.905151
309.4343, 4.111324
309.9164, 4.359638
310.3985, 4.552944
310.8806, 5.013931
311.3627, 6.215481
311.8448, 8.197014
312.3270, 9.925076
312.8091, 10.49327
313.2912, 10.55432
313.7733, 10.87941
314.2554, 11.44707
314.7375, 12.60111
315.2197, 15.01363
315.7018, 18.49610
316.1839, 21.31485
316.6660, 22.02663
317.1481, 22.09674
317.6302, 22.73506
318.1124, 24.88709
318.5945, 26.83652
319.0766, 28.22517
319.5587, 29.00481
320.0408, 29.04517
320.5229, 27.64631
321.0051, 25.95921
321.4872, 24.71267
321.9693, 24.68312
322.4514, 23.86855
322.9335, 21.32375
323.4156, 17.76621
323.8978, 14.57869
324.3799, 11.97587
324.8620, 9.800777
325.3441, 8.004139
325.8262, 6.619331
326.3083, 5.557640
326.7905, 4.953106
327.2726, 4.620979
327.7547, 4.341049
328.2368, 4.178600
328.7189, 3.986938
329.2010, 3.720234
329.6832, 3.370319
330.1653, 3.078930
330.6474, 3.095425
331.1295, 2.991524
331.6116, 2.363022
332.0938, 0.5454440
332.5759, 0.7333150
333.0580, 1.101894
333.5401, 0.6870460
334.0222, 0.3838620
334.5043, 0.1379390
334.9865, 7.4092999E-02
335.4686, 0.3842090
335.9507, 1.468521
336.4328, 1.761620
336.9149, 0.8184090
337.3970, 0.7934840
337.8792, 1.480495
338.3613, 0.9975510
338.8434, 0.3153880
339.3255, 0.2511750
339.8076, 0.7535320
340.2898, 0.6717720
340.7719, 0.1542360
341.2540, 1.289959
341.7361, 2.093853
342.2182, 2.515579
342.7003, 2.978977
343.1825, 3.757797
343.6646, 4.741516
344.1467, 4.979946
344.6288, 4.335209
345.1109, 3.650814
345.5930, 3.931118
346.0752, 5.068249
346.5573, 5.991901
347.0394, 6.409264
347.5215, 6.491756
348.0036, 6.597088
348.4857, 6.724026
348.9679, 6.850143
349.4500, 6.734287
349.9321, 6.591995
350.4142, 7.133480
350.8963, 8.630116
351.3784, 10.41780
351.8606, 11.71285
352.3427, 12.56469
352.8248, 13.17734
353.3069, 13.58585
353.7890, 13.84287
354.2711, 13.93914
354.7533, 13.81116
355.2354, 13.78034
355.7175, 14.25808
356.1996, 15.01748
356.6817, 15.61237
357.1638, 15.90294
357.6460, 15.92800
358.1281, 15.65223
358.6102, 15.13382
359.0923, 14.72620
359.5744, 14.52831
360.0565, 14.55679
360.5387, 14.95672
361.0208, 16.15003
361.5029, 17.14769
361.9850, 17.38411
362.4671, 17.00707
362.9492, 16.74058
363.4314, 17.23914
363.9135, 17.60109
364.3956, 17.30272
364.8777, 15.98728
365.3598, 14.69065
365.8419, 13.64119
366.3241, 12.73976
366.8062, 11.84538
367.2883, 10.77448
367.7704, 9.866261
368.2526, 9.213448
368.7347, 8.851974
369.2168, 8.733307
369.6989, 9.145409
370.1810, 9.452938
370.6631, 9.161045
371.1453, 7.341980
371.6274, 6.411076
372.1095, 7.096176
372.5916, 9.056965
373.0737, 9.939644
373.5558, 9.163879
374.0380, 8.192131
374.5201, 7.847294
375.0022, 8.359200
375.4843, 8.836468
375.9664, 9.203270
376.4485, 9.414028
376.9307, 9.406933
377.4128, 9.078617
377.8949, 9.001907
378.3770, 9.543636
378.8591, 10.69555
379.3412, 11.47309
379.8234, 11.72556
380.3055, 11.79539
380.7876, 11.94414
381.2697, 12.20558
381.7518, 13.13322
382.2339, 15.19818
382.7161, 17.76373
383.1982, 19.24538
383.6803, 19.71624
384.1624, 20.14990
384.6445, 21.27785
385.1266, 22.86121
385.6088, 24.31144
386.0909, 25.41830
386.5730, 26.61108
387.0551, 28.48006
387.5372, 30.84273
388.0193, 33.06893
388.5015, 34.48960
388.9836, 35.62095
389.4657, 37.00928
389.9478, 38.67006
390.4299, 40.52551
390.9120, 42.94798
391.3942, 45.54519
391.8763, 47.72853
392.3584, 48.93753
392.8405, 50.01596
393.3226, 51.28909
393.8047, 52.70579
394.2869, 54.29145
394.7690, 56.38104
395.2511, 58.63987
395.7332, 60.64537
396.2154, 62.26066
396.6975, 63.61191
397.1796, 64.52940
397.6617, 65.23434
398.1438, 66.12730
398.6259, 68.18645
399.1081, 69.62902
399.5902, 69.85453
400.0723, 68.72550
400.5544, 67.21267
401.0365, 65.13569
401.5186, 62.79672
402.0008, 60.47650
402.4829, 58.28556
402.9650, 55.86882
403.4471, 53.13594
403.9292, 50.13618
404.4113, 47.13411
404.8935, 44.09523
405.3756, 41.09412
405.8577, 38.08885
406.3398, 35.05082
406.8219, 32.47124
407.3040, 30.44640
407.7862, 28.70141
408.2683, 26.81283
408.7504, 24.77646
409.2325, 22.76148
409.7146, 20.74771
410.1967, 18.82980
410.6789, 17.22523
411.1610, 15.93993
411.6431, 14.81182
412.1252, 13.73912
412.6073, 12.72213
413.0894, 11.79731
413.5716, 11.04582
414.0537, 10.26684
414.5358, 9.011925
415.0179, 7.484653
415.5000, 6.307961
415.9821, 6.237503
416.4643, 6.476780
416.9464, 6.137882
417.4285, 5.121281
417.9106, 4.067802
418.3927, 3.210403
418.8748, 2.607521
419.3570, 2.343208
419.8391, 2.878777
420.3212, 3.334518
420.8033, 3.231998
421.2854, 2.693180
421.7675, 2.295860
422.2497, 2.370785
422.7318, 2.519310
423.2139, 2.525833
423.6960, 2.295284
424.1781, 2.080826
424.6602, 2.112717
425.1424, 2.121452
425.6245, 1.685925
426.1066, 8.8653997E-02
426.5887, 1.026566
427.0709, 1.135845
427.5530, 0.2404590
428.0351, 0.2769510
428.5172, 0.2610020
428.9993, 8.6571001E-02
429.4814, 1.7391000E-02
429.9636, 8.5697003E-02
430.4457, 0.1124500
430.9278, 0.7750850
431.4099, 1.536835
431.8920, 1.407383
432.3741, 0.2366600
432.8563, 0.6616360
433.3384, 0.5116620
433.8205, 0.5026280
434.3026, 1.179173
434.7847, 1.526505
435.2668, 1.514095
435.7490, 0.7628590
436.2311, 0.4488260
436.7132, 1.064445
437.1953, 0.6263960
437.6774, 0.2768860
438.1595, 1.069729
438.6417, 1.704216
439.1238, 1.980827
439.6059, 1.625080
440.0880, 0.9299390
440.5701, 9.8205999E-02
441.0522, 0.9038510
441.5344, 1.653847
442.0165, 1.886391
442.4986, 1.719028
442.9807, 1.291584
443.4628, 9.5830001E-03
443.9449, 0.9173130
444.4271, 0.5783000
444.9092, 0.7470400
445.3913, 1.561375
445.8734, 1.021786
446.3555, 0.2299580
446.8376, 0.2592810
447.3198, 0.1764450
447.8019, 0.2481840
448.2840, 0.5822300
448.7661, 1.038502
449.2482, 1.431160
449.7303, 1.774651
450.2125, 2.039207
450.6946, 2.328312
451.1767, 2.600620
451.6588, 2.048008
452.1409, 0.1695590
452.6230, 1.382835
453.1052, 1.144695
453.5873, 1.064320
454.0694, 2.643490
454.5515, 3.270924
455.0337, 3.441795
455.5158, 4.117710
455.9979, 5.239281
456.4800, 5.820011
456.9621, 4.928272
457.4442, 3.357964
457.9264, 3.068115
458.4085, 4.022388
458.8906, 5.309265
459.3727, 6.621483
459.8548, 7.669266
460.3369, 7.800591
460.8191, 6.472000
461.3012, 5.177288
461.7833, 5.262825
462.2654, 6.264618
462.7475, 7.214458
463.2296, 7.701878
463.7118, 8.024658
464.1939, 8.340534
464.6760, 8.663101
465.1581, 8.914600
465.6402, 8.883633
466.1223, 8.882000
466.6045, 9.129845
467.0866, 9.937958
467.5687, 10.64346
468.0508, 11.11430
468.5329, 11.47084
469.0150, 12.00611
469.4972, 12.90394
469.9793, 13.69156
470.4614, 14.20724
470.9435, 14.44084
471.4256, 14.63288
471.9077, 14.83465
472.3899, 14.89509
472.8720, 14.38859
473.3541, 13.17559
473.8362, 13.25057
474.3183, 15.30779
474.8004, 18.11788
475.2826, 19.07127
475.7647, 18.29272
476.2468, 17.55376
476.7289, 17.93398
477.2110, 18.95785
477.6931, 19.47124
478.1753, 19.46888
478.6574, 19.58942
479.1395, 20.73709
479.6216, 22.23841
480.1037, 23.03429
480.5858, 22.53185
481.0680, 21.87305
481.5501, 21.77498
482.0322, 22.09740
482.5143, 22.55215
482.9964, 23.30894
483.4786, 23.93005
483.9607, 24.18700
484.4428, 24.00295
484.9249, 23.62334
485.4070, 23.07811
485.8892, 22.42775
486.3713, 21.68800
486.8534, 20.36910
487.3355, 19.70205
487.8176, 20.04019
488.2997, 20.95644
488.7819, 21.54699
489.2640, 21.78249
489.7461, 21.70395
490.2282, 21.19581
490.7103, 20.25531
491.1924, 19.75055
491.6746, 19.81713
492.1567, 19.88638
492.6388, 19.34575
493.1209, 18.29090
493.6030, 17.68999
494.0851, 17.72655
494.5673, 17.92795
495.0494, 17.52602
495.5315, 16.74548
496.0136, 16.29849
496.4957, 16.96772
496.9778, 17.88579
497.4600, 17.95396
497.9421, 17.25725
498.4242, 16.67988
498.9063, 16.77227
499.3884, 17.13731
499.8705, 17.48609
500.3527, 17.82741
500.8348, 18.06644
501.3169, 18.04015
501.7990, 17.90874
502.2811, 17.99268
502.7632, 18.24790
503.2454, 18.73064
503.7275, 19.78253
504.2096, 21.32265
504.6917, 22.30215
505.1738, 22.36344
505.6559, 22.29828
506.1381, 22.43755
506.6202, 22.69715
507.1023, 23.63398
507.5844, 25.58006
508.0665, 27.70840
508.5486, 28.53106
509.0308, 27.98577
509.5129, 28.16841
509.9950, 29.96954
510.4771, 32.38156
510.9592, 33.16484
511.4413, 32.58029
511.9235, 32.52859
512.4056, 34.72857
512.8877, 38.01260
513.3698, 40.68809
513.8519, 42.60604
514.3340, 44.45259
514.8162, 46.60846
515.2983, 49.01445
515.7804, 51.58263
516.2625, 54.19058
516.7446, 57.09241
517.2267, 60.73512
517.7089, 64.74701
518.1910, 68.18011
518.6731, 70.19072
519.1552, 72.33765
519.6373, 75.09423
520.1194, 78.46980
520.6016, 81.83305
521.0837, 85.05746
521.5658, 88.39632
522.0479, 92.10360
522.5300, 96.30962
523.0121, 100.2814
523.4943, 103.8848
523.9764, 107.3244
524.4585, 111.1052
524.9406, 115.1975
525.4227, 118.8955
525.9048, 121.5898
526.3870, 123.8768
526.8691, 127.7312
527.3513, 133.0419
527.8334, 137.7215
528.3155, 140.1084
528.7976, 141.0374
529.2797, 141.5777
529.7618, 141.7913
530.2440, 142.1079
530.7261, 143.5632
531.2082, 145.0688
531.6903, 145.2075
532.1724, 142.5656
532.6545, 139.5033
533.1367, 136.5886
533.6188, 133.8224
534.1009, 131.0794
534.5830, 129.3486
535.0651, 126.6685
535.5472, 122.2280
536.0294, 115.7006
536.5115, 109.4232
536.9936, 103.2540
537.4757, 97.53290
537.9578, 92.68302
538.4399, 88.81195
538.9221, 84.92140
539.4042, 80.94965
539.8863, 76.76714
540.3684, 71.77698
540.8505, 66.09328
541.3326, 61.11186
541.8148, 57.79721
542.2969, 55.31020
542.7790, 52.00448
543.2611, 48.00682
543.7432, 44.22198
544.2253, 41.43499
544.7075, 39.08003
545.1896, 36.56962
545.6717, 33.79024
546.1538, 31.04597
546.6359, 28.04682
547.1180, 25.33661
547.6002, 23.53536
548.0823, 24.00027
548.5644, 23.98470
549.0465, 22.57737
549.5286, 20.31125
550.0107, 18.78087
550.4929, 18.62847
550.9750, 18.23267
551.4571, 16.92858
551.9392, 14.70333
552.4213, 13.08308
552.9034, 12.11275
553.3856, 11.56821
553.8677, 11.56613
554.3498, 12.01138
554.8319, 11.61892
555.3140, 10.11382
555.7961, 8.297203
556.2783, 7.081051
556.7604, 6.396820
557.2425, 6.107315
557.7246, 6.533222
558.2067, 6.943096
558.6888, 6.528660
559.1710, 5.475300
559.6531, 4.408699
560.1352, 3.394814
560.6173, 2.657120
561.0994, 2.421036
561.5815, 2.756435
562.0637, 3.080727
562.5458, 3.645618
563.0279, 3.913818
563.5100, 3.478851
563.9921, 1.726395
564.4742, 0.3004570
564.9564, 0.9305230
565.4385, 1.691673
565.9206, 1.185616
566.4027, 0.9839250
566.8848, 2.366066
567.3669, 2.030396
567.8491, 0.5228080
568.3312, 0.5583040
568.8133, 1.211906
569.2954, 1.458038
569.7775, 1.007763
570.2596, 0.2370760
570.7418, 6.6298999E-02
571.2239, 0.1574670
571.7060, 0.2909550
572.1881, 0.4217950
572.6702, 1.353428
573.1523, 1.788425
573.6345, 1.312355
574.1166, 0.7421460
574.5987, 0.4852830
575.0808, 0.3142700
575.5629, 0.1587140
576.0450, 1.949196
576.5272, 2.931515
577.0093, 2.300186
577.4914, 0.3798600
577.9735, 0.6750450
578.4556, 0.5878870
578.9377, 0.1886900
579.4199, 0.1960790
579.9020, 0.5629390
580.3841, 0.8169710
580.8662, 0.9766880
581.3483, 0.9251060
581.8304, 0.2862510
582.3126, 0.7000310
582.7947, 1.065838
583.2768, 0.4169730
583.7589, 0.2346230
584.2410, 0.4303320
584.7231, 1.864391
585.2053, 2.983902
585.6874, 3.298107
586.1696, 3.204781
586.6517, 2.500736
587.1338, 1.438774
587.6159, 1.116295
588.0980, 2.618690
588.5801, 4.205986
589.0623, 5.126389
589.5444, 5.287094
590.0265, 5.361797
590.5086, 5.288139
590.9907, 5.208878
591.4728, 5.210625
591.9550, 5.279694
592.4371, 5.528538
592.9192, 5.973019
593.4013, 6.577419
593.8834, 7.331905
594.3655, 8.218235
594.8477, 9.127602
595.3298, 10.04887
595.8119, 10.93338
596.2940, 11.98397
596.7761, 12.99265
597.2582, 13.29365
597.7404, 11.55710
598.2225, 9.736523
598.7046, 9.304695
599.1867, 10.33672
599.6688, 11.46503
600.1509, 12.46751
600.6331, 13.30932
601.1152, 13.92438
601.5973, 14.15166
602.0794, 14.57912
602.5615, 15.43718
603.0436, 16.27108
603.5258, 16.46552
604.0079, 15.85751
604.4900, 15.47744
604.9721, 15.50201
605.4542, 15.82629
605.9363, 16.35835
606.4185, 17.06128
606.9006, 17.64808
607.3827, 18.16201
607.8648, 18.37835
608.3469, 17.76900
608.8290, 16.45425
609.3112, 15.16143
609.7933, 14.20760
610.2754, 13.52400
610.7575, 13.01649
611.2396, 12.65685
611.7217, 12.55682
612.2039, 13.05914
612.6860, 13.69714
613.1681, 14.07128
613.6502, 14.06181
614.1323, 13.86560
614.6144, 13.54044
615.0966, 13.02183
615.5787, 11.99767
616.0608, 10.28873
616.5429, 9.332798
617.0250, 9.711430
617.5071, 10.75146
617.9893, 10.73540
618.4714, 9.821922
618.9535, 9.245220
619.4356, 10.10226
619.9177, 11.42857
620.3998, 11.93408
620.8820, 11.60901
621.3641, 11.17290
621.8462, 11.18345
622.3283, 11.14344
622.8104, 10.50890
623.2925, 8.940022
623.7747, 7.929253
624.2568, 8.274914
624.7389, 8.948315
625.2210, 9.086555
625.7031, 8.119598
626.1852, 7.899040
626.6674, 8.855503
627.1495, 10.22232
627.6316, 10.58698
628.1137, 9.869728
628.5958, 9.449562
629.0779, 9.790939
629.5601, 10.60065
630.0422, 11.57051
630.5243, 12.50864
631.0064, 12.81472
631.4885, 11.15012
631.9706, 9.532139
632.4528, 10.01114
632.9349, 12.24313
633.4170, 13.85455
633.8991, 13.11877
634.3812, 11.94493
634.8633, 11.67181
635.3455, 13.00798
635.8276, 13.47992
636.3097, 12.32540
636.7918, 10.91762
637.2739, 10.47575
637.7560, 11.30878
638.2382, 11.84381
638.7203, 11.92686
639.2024, 11.74399
639.6845, 11.47178
640.1666, 11.12787
640.6487, 11.03759
641.1309, 11.48624
641.6130, 11.96072
642.0951, 11.60296
642.5772, 10.68382
643.0594, 10.00165
643.5415, 10.25194
644.0236, 10.59368
644.5057, 10.54227
644.9879, 10.10875
645.4700, 9.575066
645.9521, 8.749340
646.4342, 8.078766
646.9163, 7.904793
647.3984, 8.421677
647.8806, 7.975769
648.3627, 6.035755
648.8448, 4.124157
649.3269, 3.647907
649.8090, 4.608200
650.2911, 5.149143
650.7733, 5.123535
651.2554, 4.732059
651.7375, 3.922565
652.2196, 2.941360
652.7017, 2.414040
653.1838, 2.657196
653.6660, 3.119591
654.1481, 3.460365
654.6302, 3.709446
655.1123, 3.924061
655.5944, 4.288620
656.0765, 4.439407
656.5587, 4.211639
657.0408, 3.657166
657.5229, 2.978600
658.0050, 1.844612
658.4871, 1.203835
658.9692, 1.650356
659.4514, 3.015690
659.9335, 3.226227
660.4156, 2.137989
660.8977, 1.081894
661.3798, 1.137497
661.8619, 1.954388
662.3441, 2.757332
662.8262, 3.513580
663.3083, 3.798000
663.7904, 2.854336
664.2725, 1.459038
664.7546, 0.4813310
665.2368, 0.2884370
665.7189, 0.3125080
666.2010, 0.3072550
666.6831, 0.3243330
667.1652, 0.2548410
667.6473, 4.2975999E-02
668.1295, 0.1855930
668.6116, 5.3378999E-02
669.0937, 0.1786080
669.5758, 5.8513999E-02
670.0579, 0.4898070
670.5400, 0.6206400
671.0222, 0.1036150
671.5043, 1.190964
671.9864, 1.583725
672.4685, 1.393311
672.9506, 1.173447
673.4327, 1.099430
673.9149, 1.229332
674.3970, 1.811680
674.8791, 2.750290
675.3612, 3.354797
675.8433, 3.369225
676.3254, 2.981785
676.8076, 2.059235
677.2897, 0.4138410
677.7718, 0.3363380
678.2539, 0.2767910
678.7360, 1.142673
679.2181, 1.493328
679.7003, 1.258533
680.1824, 1.291588
680.6645, 1.689571
681.1466, 2.045799
681.6287, 1.612232
682.1108, 0.7773780
682.5930, 0.8182750
683.0751, 2.296604
683.5572, 3.605122
684.0393, 2.947853
684.5214, 1.391674
685.0035, 0.4620400
685.4857, 1.494957
685.9678, 2.224201
686.4499, 1.588242
686.9320, 0.3317530
687.4141, 0.2181630
687.8962, 2.492496
688.3784, 3.425213
688.8605, 1.516060
689.3426, 2.031677
689.8247, 2.723152
690.3068, 0.4537120
690.7889, 1.722084
691.2711, 2.097439
691.7532, 1.485081
692.2353, 1.449097
692.7174, 1.918938
693.1995, 2.448166
693.6816, 2.667934
694.1638, 2.915119
694.6459, 3.648518
695.1280, 4.937893
695.6101, 5.582264
696.0922, 4.539677
696.5743, 3.397163
697.0565, 3.085732
697.5386, 3.925892
698.0207, 4.194920
698.5028, 3.713314
698.9849, 3.042717
699.4670, 2.473984
699.9492, 2.072647
700.4313, 2.815170
700.9135, 5.024532
701.3956, 7.164948
701.8777, 7.459843
702.3598, 6.560005
702.8419, 5.512676
703.3240, 4.418446
703.8062, 3.605713
704.2883, 3.149719
704.7704, 3.117550
705.2525, 3.636753
705.7346, 5.638863
706.2167, 6.873825
706.6989, 6.782829
707.1810, 6.006916
707.6631, 6.182026
708.1452, 7.587734
708.6273, 8.191803
709.1094, 7.043571
709.5916, 5.049252
710.0737, 4.300949
710.5558, 4.634747
711.0379, 5.151047
711.5200, 5.432911
712.0021, 5.668930
712.4843, 6.036934
712.9664, 6.445694
713.4485, 6.703560
713.9306, 6.738331
714.4127, 6.742989
714.8948, 6.875965
715.3770, 7.099243
715.8591, 6.875687
716.3412, 5.874279
716.8233, 5.064621
717.3054, 5.215126
717.7875, 6.279190
718.2697, 6.734917
718.7518, 6.553616
719.2339, 6.223869
719.7160, 6.181301
720.1981, 6.158867
720.6802, 5.982670
721.1624, 5.672054
721.6445, 4.883167
722.1266, 1.998154
722.6087, 0.8930210
723.0908, 1.535263
723.5729, 2.003353
724.0551, 4.558109
724.5372, 5.620594
725.0193, 5.882240
725.5014, 5.971180
725.9835, 5.860634
726.4656, 6.041985
726.9478, 6.697445
727.4299, 7.263790
727.9120, 6.389584
728.3941, 4.679569
728.8762, 4.323200
729.3583, 6.541676
729.8405, 8.934620
730.3226, 9.567394
730.8047, 8.960510
731.2868, 8.027950
731.7689, 6.832291
732.2510, 5.597279
732.7332, 3.817036
733.2153, 2.158150
733.6974, 2.242744
734.1795, 4.914158
734.6616, 6.863934
735.1437, 7.117992
735.6259, 6.284138
736.1080, 5.855026
736.5901, 5.796684
737.0722, 6.031784
737.5543, 6.776897
738.0364, 7.576347
738.5186, 7.944237
739.0007, 7.934612
739.4828, 7.740677
739.9649, 7.270950
740.4470, 6.801479
740.9291, 6.437611
741.4113, 6.176559
741.8934, 6.051319
742.3755, 6.180859
742.8576, 6.180965
743.3397, 5.863785
743.8218, 5.288078
744.3040, 5.042992
744.7861, 5.115906
745.2682, 5.303841
745.7503, 5.607056
746.2324, 5.887127
746.7145, 5.964516
747.1967, 5.678768
747.6788, 5.216846
748.1609, 4.778996
748.6430, 4.306816
749.1251, 3.652584
749.6072, 2.698006
750.0894, 2.138435
750.5715, 2.105850
751.0536, 2.327679
751.5357, 2.647144
752.0178, 3.065746
752.4999, 3.706329
752.9821, 4.643448
753.4642, 5.341343
753.9463, 5.156292
754.4284, 4.392483
754.9105, 3.570576
755.3926, 2.721390
755.8748, 2.118088
756.3569, 1.975853
756.8390, 2.127621
757.3211, 2.490021
757.8032, 3.382652
758.2853, 3.678352
758.7675, 2.926228
759.2496, 1.962105
759.7318, 1.578571
760.2139, 1.873669
760.6960, 2.042511
761.1781, 2.035332
761.6602, 1.841503
762.1423, 1.098652
762.6245, 0.1873020
763.1066, 0.1913220
763.5887, 1.645916
764.0708, 3.009800
764.5529, 3.017380
765.0350, 2.393723
765.5172, 1.998371
765.9993, 2.441330
766.4814, 2.536446
766.9635, 2.048615
767.4456, 1.320156
767.9277, 0.8078040
768.4099, 0.5479930
768.8920, 0.1771810
769.3741, 0.4603350
769.8562, 0.9856640
770.3383, 0.5359420
770.8204, 0.4793320
771.3026, 0.8878440
771.7847, 2.0992000E-02
772.2668, 0.9746970
772.7489, 1.120781
773.2310, 0.7429080
773.7131, 0.2881850
774.1953, 0.3273850
774.6774, 0.7919460
775.1595, 1.143463
775.6416, 1.290497
776.1237, 0.8939480
776.6058, 0.1860240
777.0880, 0.6270940
777.5701, 0.1551060
778.0522, 1.230743
778.5343, 0.5795210
779.0164, 1.119179
779.4985, 1.845207
779.9807, 0.2513080
780.4628, 2.162746
780.9449, 1.886036
781.4270, 0.4660990
781.9091, 0.4967190
782.3912, 0.1515770
782.8734, 7.9650003E-03
783.3555, 0.2960010
783.8376, 0.8749080
784.3197, 1.314095
784.8018, 1.626865
785.2839, 1.635990
785.7661, 1.163513
786.2482, 0.5399550
786.7303, 0.4449040
787.2124, 0.6739390
787.6945, 0.6406820
788.1766, 0.5547750
788.6588, 1.449089
789.1409, 1.019691
789.6230, 0.2881320
790.1051, 1.213303
790.5872, 1.635902
791.0693, 1.635029
791.5515, 0.9771420
792.0336, 4.2150002E-03
792.5157, 0.1753730
792.9978, 0.4675140
793.4799, 1.053780
793.9620, 1.318668
794.4442, 1.291069
794.9263, 0.8789900
795.4084, 0.2012520
795.8905, 0.4147530
796.3726, 0.9188000
796.8547, 1.227531
797.3369, 1.272789
797.8190, 1.085285
798.3011, 0.7749290
798.7832, 0.1562770
799.2653, 0.2318150
799.7474, 0.3241960
800.2296, 5.5504002E-02
800.7117, 1.065720
801.1938, 2.924641
801.6759, 4.266624
802.1580, 4.435013
802.6401, 3.967560
803.1223, 3.173119
803.6044, 2.221565
804.0865, 1.566463
804.5686, 1.396614
805.0507, 1.518654
805.5328, 1.928745
806.0150, 2.584282
806.4971, 3.462162
806.9792, 4.697136
807.4613, 5.731422
807.9434, 6.429337
808.4255, 6.814056
808.9077, 6.829823
809.3898, 6.556126
809.8719, 6.349773
810.3540, 6.333244
810.8361, 6.480545
811.3182, 6.861671
811.8004, 7.385662
812.2825, 7.847569
812.7646, 7.981712
813.2467, 8.325726
813.7288, 9.109512
814.2109, 10.11405
814.6931, 10.83566
815.1752, 11.29884
815.6573, 11.20432
816.1394, 10.13691
816.6215, 9.008636
817.1037, 9.534073
817.5858, 11.24788
818.0679, 12.93845
818.5500, 14.09734
819.0322, 15.10939
819.5143, 16.27657
819.9964, 17.39101
820.4785, 17.92785
820.9606, 17.45623
821.4427, 17.31328
821.9249, 17.67820
822.4070, 18.41504
822.8891, 19.43583
823.3712, 20.67847
823.8533, 21.37197
824.3354, 21.04614
824.8176, 20.63955
825.2997, 21.16666
825.7818, 22.36686
826.2639, 23.78319
826.7460, 26.01489
827.2281, 27.51188
827.7103, 27.22141
828.1924, 26.42216
828.6745, 26.87745
829.1566, 28.97094
829.6387, 30.49162
830.1208, 31.06494
830.6030, 31.03927
831.0851, 30.40077
831.5672, 29.55757
832.0493, 29.80824
832.5314, 31.91431
833.0135, 33.95312
833.4957, 34.27018
833.9778, 33.90644
834.4599, 34.05951
834.9420, 35.67531
835.4241, 36.87616
835.9063, 37.52457
836.3884, 37.82985
836.8705, 37.86763
837.3526, 37.68451
837.8347, 37.73618
838.3168, 37.91844
838.7990, 38.36547
839.2811, 39.40919
839.7632, 40.69956
840.2453, 41.83768
840.7274, 42.69081
841.2095, 43.50684
841.6917, 43.90683
842.1738, 44.63929
842.6559, 46.43122
843.1380, 49.91411
843.6201, 52.16851
844.1022, 52.92557
844.5844, 53.37746
845.0665, 54.41169
845.5486, 56.07152
846.0307, 58.66959
846.5128, 62.23323
846.9949, 65.65919
847.4771, 68.11214
847.9592, 70.15562
848.4413, 72.18514
848.9234, 74.21626
849.4055, 76.57632
849.8876, 79.01727
850.3698, 82.12329
850.8519, 86.46799
851.3340, 91.91914
851.8161, 96.61724
852.2982, 100.5814
852.7803, 104.6679
853.2625, 109.1978
853.7446, 114.3342
854.2267, 120.7987
854.7088, 128.4459
855.1909, 135.5344
855.6730, 140.4062
856.1552, 145.6709
856.6373, 152.3706
857.1194, 160.3364
857.6015, 168.2558
858.0836, 176.0885
858.5657, 184.7205
859.0479, 194.7004
859.5300, 205.8010
860.0121, 217.5230
860.4942, 229.8865
860.9763, 242.9086
861.4584, 256.0215
861.9406, 270.0714
862.4227, 285.0354
862.9048, 301.2572
863.3869, 319.1505
863.8690, 339.4600
864.3511, 359.7980
864.8333, 379.4629
865.3154, 399.3219
865.7975, 422.7132
866.2796, 448.8581
866.7617, 474.6227
867.2438, 498.7960
867.7260, 522.8387
868.2081, 547.5536
868.6902, 573.1773
869.1723, 600.5052
869.6544, 631.6315
870.1365, 662.1550
870.6187, 691.2175
871.1008, 720.2620
871.5829, 750.7767
872.0650, 782.7297
872.5471, 815.7994
873.0292, 850.2543
873.5114, 884.1733
873.9935, 916.7622
874.4756, 947.1427
874.9577, 974.1360
875.4399, 997.9070
875.9220, 1017.887
876.4041, 1035.852
876.8862, 1047.952
877.3683, 1051.711
877.8505, 1047.170
878.3326, 1034.108
878.8147, 1012.514
879.2968, 982.8570
879.7789, 944.1595
880.2610, 898.5671
880.7432, 847.8951
881.2253, 792.4933
881.7074, 735.6310
882.1895, 675.6474
882.6716, 617.5836
883.1537, 563.8973
883.6359, 514.6694
884.1180, 468.2126
884.6001, 424.0150
885.0822, 383.7334
885.5643, 348.6119
886.0464, 317.7770
886.5286, 289.2721
887.0107, 263.1160
887.4928, 239.3908
887.9749, 218.9661
888.4570, 200.8148
888.9391, 184.9209
889.4213, 171.0018
889.9034, 157.8381
890.3855, 145.3590
890.8676, 134.1461
891.3497, 124.2222
891.8318, 115.6172
892.3140, 108.3434
892.7961, 102.2131
893.2782, 96.35889
893.7603, 90.43490
894.2424, 85.02616
894.7245, 81.18938
895.2067, 77.93552
895.6888, 73.98057
896.1709, 68.18202
896.6530, 63.32611
897.1351, 59.65257
897.6172, 56.62212
898.0994, 53.80008
898.5815, 51.17226
899.0636, 48.69646
899.5457, 46.38551
900.0278, 44.39189
900.5099, 43.27496
900.9921, 42.23759
901.4742, 40.36794
901.9563, 37.48908
902.4384, 34.76345
902.9205, 32.06759
903.4026, 29.98086
903.8848, 29.06834
904.3669, 29.09763
904.8490, 27.81061
905.3311, 25.27112
905.8132, 22.89279
906.2953, 21.62641
906.7775, 20.87756
907.2596, 20.04018
907.7417, 19.15160
908.2238, 18.36346
908.7059, 17.84554
909.1880, 17.20834
909.6702, 16.52108
910.1523, 15.68715
910.6344, 14.22051
911.1165, 12.14715
911.5986, 10.77314
912.0807, 10.62057
912.5629, 10.91041
913.0450, 10.99769
913.5271, 10.85835
914.0092, 10.43726
914.4913, 9.525990
914.9734, 8.653488
915.4556, 7.870491
915.9377, 7.196396
916.4198, 6.656384
916.9019, 6.258064
917.3840, 5.966030
917.8661, 5.808319
918.3483, 5.428688
918.8304, 3.999756
919.3125, 2.447777
919.7946, 2.098713
920.2767, 3.099663
920.7589, 3.888729
921.2410, 4.152569
921.7231, 3.893734
922.2052, 2.832542
922.6873, 1.157806
923.1694, 0.6949200
923.6516, 1.481167
924.1337, 2.341679
924.6158, 2.806934
925.0979, 2.909927
925.5800, 2.354725
926.0621, 1.490219
926.5443, 1.169579
927.0264, 2.591381
927.5085, 3.418457
927.9906, 2.813606
928.4727, 1.644466
928.9548, 1.513508
929.4370, 2.478687
929.9191, 2.787136
930.4012, 2.058414
930.8833, 0.9523050
931.3654, 0.2689320
931.8475, 1.199734
932.3297, 1.086658
932.8118, 0.6735500
933.2939, 1.786652
933.7761, 1.413277
934.2582, 0.5319860
934.7403, 0.4322050
935.2224, 1.506935
935.7045, 2.153030
936.1866, 2.366680
936.6688, 2.210457
937.1509, 1.475449
937.6330, 0.5725210
938.1151, 0.1528850
938.5972, 0.6622620
939.0793, 0.8216360
939.5615, 5.0301000E-02
940.0436, 0.4572940
940.5257, 0.3185120
941.0078, 1.669659
941.4899, 1.865505
941.9720, 0.9509200
942.4542, 0.1478270
942.9363, 1.445740
943.4184, 2.300026
943.9005, 1.400486
944.3826, 0.1948240
944.8647, 0.9805490
945.3469, 0.1032180
945.8290, 0.6489300
946.3111, 7.5436004E-02
946.7932, 0.5842400
947.2753, 0.2425040
947.7574, 1.024529
948.2396, 1.363857
948.7217, 0.7097090
949.2038, 1.5514000E-02
949.6859, 8.7073997E-02
950.1680, 0.4049610
950.6501, 0.5269510
951.1323, 0.4358600
951.6144, 0.3458820
952.0965, 0.3495250
952.5786, 0.2183230
953.0607, 0.2013890
953.5428, 0.7227520
954.0250, 0.8013530
954.5071, 0.4981920
954.9892, 0.1451420
955.4713, 0.1757740
955.9534, 0.4311100
956.4355, 0.7103690
956.9177, 0.8595890
957.3998, 0.6193280
957.8819, 0.6105000
958.3640, 1.039326
958.8461, 0.3133850
959.3282, 0.5164150
959.8104, 0.2185290
960.2925, 0.7404020
960.7746, 1.262249
961.2567, 1.251099
961.7388, 0.9280970
962.2209, 0.1604840
962.7031, 0.9875720
963.1852, 0.5737270
963.6673, 0.9315300
964.1494, 1.654415
964.6315, 1.422531
965.1136, 0.9492760
965.5958, 0.2347450
966.0779, 0.2643240
966.5600, 0.9382970
967.0421, 3.157684
967.5242, 4.483490
968.0063, 3.610310
968.4885, 2.503777
968.9706, 1.669987
969.4527, 1.125576
969.9348, 0.9402690
970.4169, 1.254311
970.8990, 1.141788
971.3812, 0.4571000
971.8633, 0.1273500
972.3454, 0.2549400
972.8275, 1.079082
973.3096, 1.616280
973.7917, 1.752048
974.2739, 1.740471
974.7560, 1.416019
975.2381, 1.251610
975.7202, 1.477226
976.2023, 2.005108
976.6844, 2.427322
977.1666, 2.746490
977.6487, 2.933426
978.1308, 2.943531
978.6129, 2.869106
979.0950, 2.789104
979.5771, 2.695675
980.0593, 2.574917
980.5414, 2.435265
981.0235, 2.226742
981.5056, 1.822189
981.9877, 1.525349
982.4698, 1.748383
982.9520, 2.385746
983.4341, 2.791523
983.9162, 2.923908
984.3983, 2.874752
984.8804, 2.498501
985.3625, 2.140270
985.8447, 2.051918
986.3268, 2.247932
986.8089, 2.591625
987.2910, 3.266663
987.7731, 3.508400
988.2552, 2.844635
988.7374, 1.910172
989.2195, 2.193268
989.7016, 3.231518
990.1837, 3.949604
990.6658, 3.971020
991.1479, 3.679283
991.6301, 2.781479
992.1122, 1.966640
992.5944, 1.994991
993.0765, 3.099499
993.5586, 3.376816
994.0407, 2.723072
994.5228, 2.171749
995.0049, 3.158001
995.4871, 4.431793
995.9692, 3.878952
996.4513, 1.754875
996.9334, 0.4760320
997.4155, 1.801720
997.8976, 2.815739
998.3798, 2.797283
998.8619, 2.097023
999.3440, 1.320248
999.8261, 0.5506360
1000.308, 0.7736130
1000.790, 2.536484
1001.272, 4.096611
1001.755, 3.774338
1002.237, 2.786259
1002.719, 2.333927
1003.201, 2.754349
1003.683, 3.126633
1004.165, 3.551460
1004.647, 3.892899
1005.129, 4.128716
1005.612, 4.159336
1006.094, 3.868454
1006.576, 3.367828
1007.058, 2.877808
1007.540, 2.296764
1008.022, 1.884403
1008.504, 1.996277
1008.986, 2.282028
1009.468, 1.978336
1009.951, 0.9305270
1010.433, 0.6467510
1010.915, 1.510509
1011.397, 2.511391
1011.879, 2.322910
1012.361, 1.709831
1012.843, 1.725910
1013.325, 2.642307
1013.807, 3.040791
1014.290, 2.323952
1014.772, 1.611019
1015.254, 1.522186
1015.736, 1.860390
1016.218, 1.133415
1016.700, 0.3695260
1017.182, 0.8814720
1017.664, 1.549988
1018.147, 3.910393
1018.629, 4.115665
1019.111, 3.001236
1019.593, 1.762379
1020.075, 1.0975000E-02
1020.557, 0.5007270
1021.039, 0.6695520
1021.521, 2.044937
1022.003, 1.862095
1022.486, 0.9083140
1022.968, 0.5821650
1023.450, 0.9018590
1023.932, 1.265087
1024.414, 1.748001
1024.896, 1.987579
1025.378, 1.695133
1025.860, 1.179451
1026.343, 1.488892
1026.825, 2.540794
1027.307, 3.220215
1027.789, 3.159138
1028.271, 2.879055
1028.753, 2.954388
1029.235, 2.957150
1029.717, 2.283867
1030.199, 0.4629630
1030.682, 0.2587800
1031.164, 0.3363110
1031.646, 1.322063
1032.128, 2.431698
1032.610, 3.404282
1033.092, 3.360123
1033.574, 2.551083
1034.056, 1.876015
1034.539, 1.755157
1035.021, 1.806850
1035.503, 1.970398
1035.985, 2.205261
1036.467, 2.556396
1036.949, 3.034351
1037.431, 2.979954
1037.913, 2.258232
1038.396, 1.649357
1038.878, 2.059887
1039.360, 2.755833
1039.842, 3.117886
1040.324, 3.084576
1040.806, 2.703869
1041.288, 1.639275
1041.770, 1.075001
1042.252, 1.581009
1042.734, 2.530991
1043.217, 2.434322
1043.699, 1.738228
1044.181, 1.694733
1044.663, 3.086277
1045.145, 4.209080
1045.627, 4.390987
1046.109, 4.034359
1046.591, 3.221016
1047.074, 1.910561
1047.556, 1.774910
1048.038, 2.812473
1048.520, 3.611984
1049.002, 2.752831
1049.484, 1.670540
1049.966, 1.727531
1050.448, 2.576164
1050.931, 3.156225
1051.413, 3.273037
1051.895, 3.316017
1052.377, 3.294792
1052.859, 3.288164
1053.341, 3.571482
1053.823, 3.888538
1054.305, 3.482676
1054.787, 2.240704
1055.270, 1.371462
1055.752, 1.368013
1056.234, 1.875595
1056.716, 3.036642
1057.198, 4.467815
1057.680, 4.409882
1058.162, 3.010075
1058.644, 2.208572
1059.126, 2.883759
1059.609, 3.589355
1060.091, 2.868662
1060.573, 1.564600
1061.055, 0.5367830
1061.537, 0.2854670
1062.019, 6.6807002E-02
1062.501, 1.494778
1062.983, 2.991196
1063.466, 3.474281
1063.948, 3.274681
1064.430, 2.811665
1064.912, 2.183998
1065.394, 1.684801
1065.876, 1.289467
1066.358, 1.274342
1066.840, 1.937860
1067.323, 2.671705
1067.805, 2.655094
1068.287, 2.002802
1068.769, 1.389086
1069.251, 0.8631100
1069.733, 0.8245620
1070.215, 2.207718
1070.697, 3.582087
1071.179, 3.789936
1071.661, 3.124928
1072.144, 2.884125
1072.626, 3.117409
1073.108, 3.522585
1073.590, 4.174709
1074.072, 4.499577
1074.554, 3.245865
1075.036, 1.434307
1075.518, 0.5814380
1076.001, 1.105120
1076.483, 1.324783
1076.965, 0.9085100
1077.447, 0.5902180
1077.929, 0.8153380
1078.411, 1.332205
1078.893, 1.550932
1079.375, 1.480520
1079.858, 1.267361
1080.340, 0.5884700
1080.822, 0.3153900
1081.304, 1.261105
1081.786, 2.376015
1082.268, 2.638168
1082.750, 2.024448
1083.232, 1.732119
1083.714, 1.781420
1084.197, 1.759390
1084.679, 1.156633
1085.161, 0.5607660
1085.643, 0.3250560
1086.125, 0.4826150
1086.607, 1.122877
1087.089, 2.585220
1087.571, 3.189003
1088.054, 2.506130
1088.536, 1.573545
1089.018, 1.756968
1089.500, 2.469103
1089.982, 2.926571
1090.464, 3.040339
1090.946, 2.968407
1091.428, 2.790819
1091.911, 2.309845
1092.393, 1.232151
1092.875, 5.5502001E-02
1093.357, 0.2284450
1093.839, 1.324066
1094.321, 1.991295
1094.803, 1.589684
1095.285, 1.245838
1095.767, 1.814348
1096.250, 2.295511
1096.732, 1.843622
1097.214, 0.5498010
1097.696, 0.4378640
1098.178, 1.439499
1098.660, 2.131878
1099.142, 1.358610
1099.624, 0.5028110
1100.106, 0.8541980
1100.589, 1.717579
1101.071, 1.936617
1101.553, 1.146015
1102.035, 0.8244900
1102.517, 1.058453
1102.999, 1.431993
1103.481, 1.704901
1103.963, 1.839024
1104.446, 1.622751
1104.928, 1.187819
1105.410, 1.097071
1105.892, 2.096169
1106.374, 2.287550
1106.856, 1.095449
1107.338, 0.3588560
1107.820, 0.5161500
1108.302, 0.2373240
1108.785, 1.156860
1109.267, 2.163340
1109.749, 2.769442
1110.231, 2.187340
1110.713, 1.886965
1111.195, 2.576818
1111.677, 3.766041
1112.159, 4.153919
1112.641, 3.794180
1113.124, 2.853443
1113.606, 1.148485
1114.088, 0.1789470
1114.570, 1.3203000E-02
1115.052, 0.5915850
1115.534, 0.5832100
1116.016, 1.8553000E-02
1116.498, 2.3451000E-02
1116.981, 0.6139830
1117.463, 1.316732
1117.945, 2.125319
1118.427, 2.672529
1118.909, 2.222193
1119.391, 1.374271
1119.873, 1.013945
1120.355, 1.512188
1120.838, 1.512985
1121.320, 0.8361760
1121.802, 0.4421670
1122.284, 1.624550
1122.766, 3.096750
1123.248, 2.635050
1123.730, 0.9427490
1124.212, 0.1339870
1124.694, 0.5682950
1125.177, 0.9931640
1125.659, 0.8947810
1126.141, 0.6943490
1126.623, 0.8683590
1127.105, 1.282875
1127.587, 1.701569
1128.069, 2.064342
1128.551, 2.055000
1129.033, 0.9675240
1129.516, 0.2232970
1129.998, 0.3378300
1130.480, 0.8505060
1130.962, 0.9703060
1131.444, 0.7807460
1131.926, 0.7793750
1132.408, 1.050137
1132.890, 1.160889
1133.373, 0.5077740
1133.855, 4.6402000E-02
1134.337, 2.0605000E-02
1134.819, 0.5591410
1135.301, 1.235367
1135.783, 2.022631
1136.265, 2.135578
1136.747, 1.160612
1137.229, 0.3270630
1137.712, 1.032984
1138.194, 2.113455
1138.676, 2.398277
1139.158, 1.874359
1139.640, 1.695366
1140.122, 1.903831
1140.604, 2.005028
1141.086, 1.668261
1141.569, 1.373417
1142.051, 1.874977
1142.533, 2.649857
1143.015, 2.986401
1143.497, 2.684589
1143.979, 2.189991
1144.461, 1.411547
1144.943, 0.8174550
1145.426, 0.8055250
1145.908, 1.070219
1146.390, 1.218723
1146.872, 1.253075
1147.354, 1.178482
1147.836, 0.7034240
1148.318, 0.6233140
1148.800, 1.090195
1149.282, 1.635262
1149.765, 2.024946
1150.247, 2.142410
1150.729, 1.400642
1151.211, 7.2959997E-02
1151.693, 0.7092170
1152.175, 6.0140002E-03
1152.657, 0.5865250
1153.139, 0.7459140
1153.621, 0.7940140
1154.104, 1.275743
1154.586, 1.952015
1155.068, 1.806150
1155.550, 0.8755780
1156.032, 0.2987230
1156.514, 1.183243
1156.996, 1.808784
1157.478, 1.502766
1157.961, 0.7774280
1158.443, 0.5496960
1158.925, 0.7376900
1159.407, 0.8658030
1159.889, 0.8649540
1160.371, 0.9240610
1160.853, 1.143234
1161.335, 1.481823
1161.818, 2.062124
1162.300, 2.686092
1162.782, 2.639372
1163.264, 1.994572
1163.746, 1.732237
1164.228, 2.162350
1164.710, 2.394539
1165.192, 1.600685
1165.674, 0.4923440
1166.156, 0.6458000
1166.639, 1.674845
1167.121, 1.257017
1167.603, 0.5943600
1168.085, 1.733839
1168.567, 1.099386
1169.049, 0.4010680
1169.531, 1.601219
1170.013, 3.249069
1170.496, 3.783707
1170.978, 3.157419
1171.460, 2.900587
1171.942, 3.030067
1172.424, 3.124008
1172.906, 2.984579
1173.388, 2.734089
1173.870, 2.601439
1174.353, 2.379023
1174.835, 1.608782
1175.317, 2.7693000E-02
1175.799, 0.3434850
1176.281, 0.8071080
1176.763, 2.113073
1177.245, 3.168623
1177.727, 3.649303
1178.209, 2.761829
1178.692, 1.194078
1179.174, 8.1061997E-02
1179.656, 0.5607430
1180.138, 0.2648940
1180.620, 1.183197
1181.102, 2.479328
1181.584, 2.464060
1182.066, 1.926016
1182.548, 1.742746
1183.031, 1.857389
1183.513, 2.158693
1183.995, 2.877499
1184.477, 3.161161
1184.959, 2.906654
1185.441, 2.488281
1185.923, 2.201054
1186.405, 1.976446
1186.888, 1.621902
1187.370, 1.237156
1187.852, 1.206495
1188.334, 1.741720
1188.816, 2.403563
1189.298, 3.284670
1189.780, 3.835243
1190.262, 3.107519
1190.745, 1.899296
1191.227, 1.471163
1191.709, 1.739195
1192.191, 1.871578
1192.673, 1.494205
1193.155, 1.451860
1193.637, 2.023148
1194.119, 2.501232
1194.601, 1.709112
1195.084, 0.4943730
1195.566, 4.2518999E-02
1196.048, 0.3380030
1196.530, 0.9495980
1197.012, 2.194321
1197.494, 2.836573
1197.976, 2.467703
1198.458, 1.832428
1198.941, 2.163355
1199.423, 2.872179
1199.905, 2.793783
1200.387, 1.836817
1200.869, 1.382875
1201.351, 2.026167
1201.833, 2.489201
1202.315, 2.391602
1202.797, 2.121429
1203.280, 2.376947
1203.762, 2.870880
1204.244, 3.136766
1204.726, 3.103264
1205.208, 2.807102
1205.690, 2.043905
1206.172, 1.429533
1206.654, 1.032267
1207.136, 1.073147
1207.619, 2.603655
1208.101, 4.590485
1208.583, 5.012016
1209.065, 3.256470
1209.547, 1.978945
1210.029, 1.727470
1210.511, 1.800747
1210.993, 1.959570
1211.476, 2.311859
1211.958, 3.543627
1212.440, 4.950409
1212.922, 5.087408
1213.404, 3.370726
1213.886, 1.995825
1214.368, 1.187334
1214.850, 0.7845710
1215.333, 0.7833730
1215.815, 1.056442
1216.297, 1.493977
1216.779, 1.997601
1217.261, 2.391991
1217.743, 2.627548
1218.225, 2.791149
1218.707, 2.874561
1219.189, 2.952061
1219.672, 3.120718
1220.154, 3.225456
1220.636, 2.845331
1221.118, 2.237686
1221.600, 1.831093
1222.082, 1.693426
1222.564, 2.024134
1223.046, 3.110229
1223.528, 3.806610
1224.011, 3.376665
1224.493, 2.262251
1224.975, 0.7176860
1225.457, 0.5833420
1225.939, 0.5197260
1226.421, 2.134769
1226.903, 3.449284
1227.385, 3.102629
1227.868, 2.445398
1228.350, 2.048359
1228.832, 1.978142
1229.314, 2.820595
1229.796, 3.898781
1230.278, 3.954958
1230.760, 2.198786
1231.242, 1.130627
1231.724, 0.8725220
1232.207, 0.9793210
1232.689, 1.271082
1233.171, 1.682472
1233.653, 2.293249
1234.135, 2.948273
1234.617, 3.219269
1235.099, 2.849648
1235.581, 2.946184
1236.063, 3.626032
1236.546, 3.949028
1237.028, 2.917276
1237.510, 1.626022
1237.992, 1.273516
1238.474, 1.560919
1238.956, 2.044930
1239.438, 2.850077
1239.920, 3.084284
1240.403, 2.715353
1240.885, 2.171690
1241.367, 1.406647
1241.849, 0.9179840
1242.331, 1.473316
1242.813, 2.435532
1243.295, 2.814405
1243.777, 2.453432
1244.260, 2.273672
1244.742, 2.272621
1245.224, 2.392164
1245.706, 2.906588
1246.188, 3.198856
1246.670, 2.671642
1247.152, 1.764444
1247.634, 1.015076
1248.116, 0.3831750
1248.599, 0.4975780
1249.081, 1.308031
1249.563, 2.078381
1250.045, 2.451937
1250.527, 2.638056
1251.009, 3.012976
1251.491, 3.042835
1251.973, 1.737396
1252.455, 0.7720600
1252.938, 0.8586830
1253.420, 1.209524
1253.902, 3.035547
1254.384, 3.208708
1254.866, 3.016693
1255.348, 2.672853
1255.830, 2.431505
1256.313, 2.660631
1256.795, 3.230421
1257.277, 3.222351
1257.759, 2.747185
1258.241, 2.406033
1258.723, 2.581755
1259.205, 2.790997
1259.687, 3.077110
1260.169, 3.163963
1260.651, 2.614458
1261.134, 1.710529
1261.616, 1.458635
1262.098, 1.677719
1262.580, 1.697844
1263.062, 0.6755660
1263.544, 0.4516240
1264.026, 1.455904
1264.508, 2.456261
1264.991, 2.689474
1265.473, 2.505472
1265.955, 3.173485
1266.437, 2.593706
1266.919, 4.260834
1267.401, 1.895735
1267.883, 0.6275120
1268.365, 0.6615960
1268.848, 1.176973
1269.330, 1.816496
1269.812, 2.359888
1270.294, 2.525536
1270.776, 2.380266
1271.258, 2.007469
1271.740, 1.188248
1272.222, 1.046900
1272.704, 1.689863
1273.187, 2.160187
1273.669, 1.506176
1274.151, 0.6766510
1274.633, 0.5192850
1275.115, 0.7384400
1275.597, 0.7853200
1276.079, 0.5617620
1276.561, 0.8974080
1277.043, 1.773594
1277.526, 2.634117
1278.008, 3.098429
1278.490, 3.434437
1278.972, 2.676971
1279.454, 1.743813
1279.936, 1.720097
1280.418, 2.553459
1280.900, 2.524212
1281.383, 1.751577
1281.865, 1.007496
1282.347, 0.5166000
1282.829, 0.3378090
1283.311, 0.6089650
1283.793, 1.058420
1284.275, 1.585844
1284.757, 2.098213
1285.240, 2.060474
1285.722, 1.662352
1286.204, 1.553333
1286.686, 2.660379
1287.168, 2.670132
1287.650, 0.7468200
1288.132, 0.8294240
1288.614, 3.3135999E-02
1289.096, 1.934103
1289.578, 1.759665
1290.061, 0.4644410
1290.543, 5.7053000E-02
1291.025, 1.733135
1291.507, 2.507933
1291.989, 2.181808
1292.471, 1.905899
1292.953, 2.604319
1293.435, 3.353270
1293.918, 2.859394
1294.400, 1.775702
1294.882, 0.9864430
1295.364, 0.5067370
1295.846, 0.2115570
1296.328, 1.132879
1296.810, 1.668186
1297.292, 1.078493
1297.775, 0.5224300
1298.257, 1.217203
1298.739, 2.131647
1299.221, 2.296158
1299.703, 1.853188
1300.185, 1.267466
1300.667, 0.5907460
1301.149, 0.2017440
1301.631, 0.4645630
1302.114, 0.4749600
1302.596, 0.0000000E+00
##END=



