##NAMES=Tapiaite
##RRUFFID=R150032
##IDEAL CHEMISTRY=Ca_5_Al_2_(As^5+^O_4_)_4_(OH)_4_&#183;12H_2_O
##LOCALITY=Jote mine, Pampa Larga district, Tierra Amarilla, CopiapoÂ´ Province, Atacama Region, Chile
##OWNER=RRUFF
##SOURCE=Bob Jenkins
##DESCRIPTION=Pale yellow or pale blue to clear bladed crystals.
##STATUS=The identification of this mineral has been confirmed only by single crystal X-ray diffraction.
##URL=rruff.info/R150032
93.97052, 0.0000000E+00
94.45264, 4.145935
94.93475, 8.995178
95.41687, 13.09833
95.89898, 17.39600
96.38110, 21.12360
96.86321, 23.37103
97.34533, 23.16357
97.82745, 19.73340
98.30956, 18.28094
98.79168, 20.44946
99.27380, 22.66595
99.75591, 23.76215
100.2380, 23.84833
100.7201, 23.35437
101.2023, 22.26849
101.6844, 20.57416
102.1665, 18.74176
102.6486, 16.40143
103.1307, 14.20850
103.6128, 13.11993
104.0950, 14.12488
104.5771, 15.87244
105.0592, 16.58636
105.5413, 17.06232
106.0234, 18.62079
106.5055, 20.18597
106.9877, 21.58832
107.4698, 22.81647
107.9519, 24.62738
108.4340, 25.37347
108.9161, 23.78473
109.3982, 20.36444
109.8804, 16.47375
110.3625, 12.97754
110.8446, 9.820496
111.3267, 7.359253
111.8088, 6.354492
112.2909, 5.505432
112.7731, 4.007019
113.2552, 1.843445
113.7373, 0.3789060
114.2194, 1.718872
114.7015, 1.789124
115.1836, 1.548889
115.6658, 0.5226440
116.1479, 0.5946040
116.6300, 0.9844360
117.1121, 0.2667850
117.5942, 1.035095
118.0763, 1.706360
118.5584, 1.574341
119.0406, 1.326050
119.5227, 1.206848
120.0048, 1.153625
120.4869, 0.8797610
120.9690, 6.5734997E-02
121.4511, 1.102905
121.9333, 2.152771
122.4154, 2.912598
122.8975, 3.463196
123.3796, 4.977112
123.8617, 7.405884
124.3438, 9.198669
124.8260, 9.385376
125.3081, 9.097290
125.7902, 9.369202
126.2723, 10.69427
126.7544, 12.57611
127.2365, 14.23322
127.7187, 16.00555
128.2008, 16.95758
128.6829, 16.42291
129.1650, 15.13312
129.6471, 14.00616
130.1292, 13.39185
130.6114, 13.32178
131.0935, 13.38074
131.5756, 13.63538
132.0577, 13.85791
132.5398, 14.16211
133.0219, 14.42487
133.5041, 14.43268
133.9862, 14.09424
134.4683, 13.39929
134.9504, 13.04199
135.4325, 12.93335
135.9146, 12.84668
136.3968, 13.03284
136.8789, 13.39758
137.3610, 13.54047
137.8431, 12.87714
138.3252, 11.47571
138.8073, 10.62128
139.2895, 10.86212
139.7716, 11.56287
140.2537, 11.91241
140.7358, 11.79456
141.2179, 11.47052
141.7000, 11.36188
142.1821, 11.48853
142.6643, 11.30084
143.1464, 10.47107
143.6285, 9.124146
144.1106, 7.624512
144.5927, 5.713745
145.0748, 4.114929
145.5570, 3.477722
146.0391, 3.803772
146.5212, 4.376953
147.0033, 4.717041
147.4854, 4.816040
147.9675, 4.526978
148.4497, 3.395142
148.9318, 2.087097
149.4139, 0.8438110
149.8960, 0.2255250
150.3781, 1.014954
150.8602, 1.270447
151.3424, 0.5258180
151.8245, 0.2435910
152.3066, 0.1983030
152.7887, 0.7987060
153.2708, 0.6375730
153.7529, 0.6215210
154.2351, 2.500305
154.7172, 3.812500
155.1993, 4.007690
155.6814, 4.228760
156.1635, 4.609070
156.6456, 5.022827
157.1278, 5.242432
157.6099, 5.129578
158.0920, 4.858826
158.5741, 5.223022
159.0562, 7.190002
159.5383, 8.619019
160.0205, 8.737244
160.5026, 7.907654
160.9847, 6.901733
161.4668, 6.061890
161.9489, 5.465759
162.4310, 5.380005
162.9131, 6.725159
163.3953, 7.697815
163.8774, 6.809998
164.3595, 4.259888
164.8416, 2.063843
165.3237, 1.724182
165.8058, 2.593689
166.2880, 3.060791
166.7701, 2.736023
167.2522, 2.111694
167.7343, 1.710938
168.2164, 1.544922
168.6985, 1.505981
169.1807, 1.696777
169.6628, 1.958618
170.1449, 2.053467
170.6270, 1.766327
171.1091, 1.314087
171.5912, 1.253845
172.0734, 1.944672
172.5555, 2.376312
173.0376, 2.055939
173.5197, 1.337219
174.0018, 0.6014400
174.4839, 1.2848000E-02
174.9661, 0.5091860
175.4482, 0.8234560
175.9303, 0.7353520
176.4124, 0.5606080
176.8945, 0.2304380
177.3766, 0.1062320
177.8588, 0.1922610
178.3409, 0.2069090
178.8230, 1.066406
179.3051, 1.416168
179.7872, 0.7830510
180.2693, 0.1664730
180.7515, 1.480072
181.2336, 0.6762390
181.7157, 1.979034
182.1978, 2.468384
182.6799, 0.2583010
183.1620, 1.151093
183.6441, 0.8954470
184.1263, 0.5691830
184.6084, 2.554016
185.0905, 0.2784730
185.5726, 3.287506
186.0547, 3.895416
186.5368, 3.305237
187.0190, 2.887512
187.5011, 2.593170
187.9832, 2.017426
188.4653, 3.052032
188.9474, 3.735260
189.4296, 4.089600
189.9117, 3.166565
190.3938, 3.889618
190.8759, 3.944244
191.3580, 3.967102
191.8401, 4.898346
192.3223, 4.124817
192.8044, 5.022675
193.2865, 5.237579
193.7686, 5.750214
194.2507, 5.590942
194.7328, 5.632538
195.2150, 6.329620
195.6971, 6.646179
196.1792, 6.373260
196.6613, 6.929047
197.1434, 7.809204
197.6255, 8.352692
198.1077, 8.579193
198.5898, 8.500671
199.0719, 7.835358
199.5540, 6.789001
200.0361, 6.329437
200.5182, 6.924164
201.0004, 7.458618
201.4825, 7.159637
201.9646, 6.309875
202.4467, 5.633606
202.9288, 5.691223
203.4109, 6.447174
203.8930, 7.219177
204.3752, 8.452850
204.8573, 9.194489
205.3394, 8.778625
205.8215, 7.553009
206.3036, 6.343781
206.7857, 5.866608
207.2679, 6.157532
207.7500, 6.251129
208.2321, 5.949585
208.7142, 5.660828
209.1963, 5.700836
209.6784, 5.940765
210.1606, 5.937836
210.6427, 5.265289
211.1248, 3.830780
211.6069, 3.144318
212.0890, 3.559998
212.5711, 4.230469
213.0533, 5.069885
213.5354, 5.916870
214.0175, 6.447418
214.4996, 6.304291
214.9817, 5.329224
215.4638, 4.781830
215.9460, 5.000488
216.4281, 5.245758
216.9102, 5.148621
217.3923, 4.716919
217.8744, 4.169922
218.3565, 3.686218
218.8387, 3.265320
219.3208, 3.026245
219.8029, 2.996552
220.2850, 3.100586
220.7671, 3.357239
221.2492, 3.734467
221.7314, 4.133026
222.2135, 4.529449
222.6956, 4.897919
223.1777, 4.766693
223.6598, 3.485077
224.1419, 2.207062
224.6240, 1.988190
225.1062, 2.828247
225.5883, 3.664093
226.0704, 3.556122
226.5525, 2.624847
227.0346, 2.007782
227.5167, 1.938080
227.9989, 2.107300
228.4810, 2.185730
228.9631, 2.144989
229.4452, 2.331482
229.9273, 3.257965
230.4094, 4.614471
230.8916, 5.549988
231.3737, 5.961456
231.8558, 5.846161
232.3379, 4.902679
232.8200, 2.965332
233.3021, 1.376892
233.7843, 1.398407
234.2664, 2.291107
234.7485, 2.986176
235.2306, 3.207031
235.7127, 3.104614
236.1948, 2.867859
236.6770, 2.476349
237.1591, 1.911469
237.6412, 0.8506160
238.1233, 0.2272030
238.6054, 0.8440250
239.0875, 0.4483950
239.5697, 0.3458860
240.0518, 0.6741640
240.5339, 0.2930300
241.0160, 5.9082001E-02
241.4981, 0.3171690
241.9802, 0.7539980
242.4624, 1.127167
242.9445, 1.308472
243.4266, 1.414856
243.9087, 1.331116
244.3908, 0.8237920
244.8729, 0.6974490
245.3550, 6.3904002E-02
245.8372, 1.987518
246.3193, 3.210236
246.8014, 3.616272
247.2835, 0.8027950
247.7656, 2.125702
248.2477, 1.789673
248.7299, 1.383575
249.2120, 3.287109
249.6941, 0.9330750
250.1762, 2.796600
250.6583, 2.976166
251.1404, 3.926361
251.6226, 3.206268
252.1047, 2.999695
252.5868, 4.462677
253.0689, 5.001648
253.5510, 4.086151
254.0331, 5.079834
254.5153, 2.658234
254.9974, 3.236481
255.4795, 5.108826
255.9616, 4.277710
256.4437, 5.303223
256.9258, 5.616821
257.4080, 2.707855
257.8901, 5.389679
258.3722, 5.653351
258.8543, 3.433929
259.3364, 5.923523
259.8185, 4.039154
260.3007, 3.710358
260.7828, 4.554535
261.2649, 4.177460
261.7470, 5.731720
262.2291, 5.431915
262.7112, 4.968079
263.1934, 5.226135
263.6755, 3.424896
264.1576, 5.426880
264.6397, 4.824158
265.1218, 5.515503
265.6039, 6.500427
266.0861, 5.239746
266.5682, 5.963776
267.0503, 6.592072
267.5324, 7.155914
268.0145, 7.483490
268.4966, 7.496765
268.9788, 7.391968
269.4609, 7.201447
269.9430, 6.972351
270.4251, 6.775574
270.9072, 6.642548
271.3893, 6.567657
271.8715, 6.864410
272.3536, 8.277008
272.8357, 9.250305
273.3178, 8.708771
273.7999, 7.119995
274.2820, 5.813019
274.7642, 5.718994
275.2463, 6.723389
275.7284, 7.453857
276.2105, 7.943848
276.6926, 8.205200
277.1747, 8.084381
277.6568, 7.735046
278.1389, 7.528412
278.6211, 7.708832
279.1032, 8.124359
279.5853, 8.088013
280.0674, 6.969330
280.5495, 6.226990
281.0316, 6.593628
281.5138, 7.532715
281.9959, 8.079681
282.4780, 7.801849
282.9601, 6.991516
283.4422, 6.387054
283.9243, 6.146881
284.4065, 5.768829
284.8886, 4.859741
285.3707, 3.832672
285.8528, 3.383301
286.3349, 3.784149
286.8170, 4.541779
287.2992, 4.805237
287.7813, 4.429443
288.2634, 4.123779
288.7455, 4.048737
289.2276, 4.075867
289.7097, 4.073547
290.1919, 4.010956
290.6740, 3.878235
291.1561, 3.693329
291.6382, 3.485596
292.1203, 3.016815
292.6024, 1.927582
293.0846, 0.7498170
293.5667, 6.4788997E-02
294.0488, 0.4568480
294.5309, 0.4092100
295.0130, 0.3118900
295.4951, 1.689178
295.9773, 2.348938
296.4594, 1.597443
296.9415, 0.5892940
297.4236, 0.2123110
297.9057, 0.4607240
298.3878, 0.8294980
298.8700, 1.065277
299.3521, 1.108093
299.8342, 0.8096310
300.3163, 0.4744260
300.7984, 1.510101
301.2805, 1.261780
301.7627, 1.6052000E-02
302.2448, 0.8491520
302.7269, 0.4755550
303.2090, 0.6717530
303.6911, 1.127319
304.1732, 0.5659480
304.6554, 5.9753001E-02
305.1375, 0.3164670
305.6196, 0.3220210
306.1017, 0.3040770
306.5838, 0.3241880
307.0659, 0.4254760
307.5481, 0.6996770
308.0302, 1.231476
308.5123, 1.662628
308.9944, 1.812469
309.4765, 1.799774
309.9586, 1.769928
310.4408, 1.720123
310.9229, 1.865570
311.4050, 2.664154
311.8871, 4.152832
312.3692, 5.338135
312.8513, 5.595001
313.3335, 5.666748
313.8156, 6.534851
314.2977, 8.364227
314.7798, 10.37915
315.2619, 11.80066
315.7440, 12.70120
316.2262, 13.97656
316.7083, 16.21701
317.1904, 18.49130
317.6725, 19.88571
318.1546, 20.43939
318.6367, 21.01981
319.1188, 22.23944
319.6010, 23.95724
320.0831, 25.42844
320.5652, 26.74268
321.0473, 27.75967
321.5294, 28.55670
322.0115, 29.02704
322.4937, 28.74216
322.9758, 27.38641
323.4579, 25.30032
323.9400, 23.33038
324.4221, 21.33542
324.9042, 19.62604
325.3864, 18.52045
325.8685, 17.77411
326.3506, 16.94620
326.8327, 15.92297
327.3148, 14.68561
327.7969, 13.06586
328.2791, 10.93851
328.7612, 9.198486
329.2433, 8.370453
329.7254, 7.856415
330.2075, 6.844574
330.6896, 5.194641
331.1718, 3.597137
331.6539, 2.757294
332.1360, 2.754150
332.6181, 2.779205
333.1002, 2.897797
333.5823, 2.970795
334.0645, 2.754639
334.5466, 2.316162
335.0287, 2.146820
335.5108, 2.699463
335.9929, 3.820221
336.4750, 4.366699
336.9572, 4.022461
337.4393, 3.512909
337.9214, 2.912109
338.4035, 2.366852
338.8856, 2.291626
339.3677, 2.944580
339.8499, 4.022888
340.3320, 4.696167
340.8141, 4.763916
341.2962, 4.858551
341.7783, 5.133972
342.2604, 5.488190
342.7426, 5.827362
343.2247, 6.124878
343.7068, 6.314880
344.1889, 6.292755
344.6710, 5.972534
345.1531, 5.661987
345.6353, 5.413605
346.1174, 5.146729
346.5995, 4.747528
347.0816, 4.239197
347.5637, 3.772766
348.0458, 3.473541
348.5280, 3.344116
349.0101, 3.466400
349.4922, 3.953644
349.9743, 4.532074
350.4564, 5.314972
350.9385, 6.104126
351.4207, 6.364685
351.9028, 5.691589
352.3849, 4.448792
352.8670, 4.188141
353.3491, 6.078491
353.8312, 7.483490
354.3134, 7.626007
354.7955, 7.301270
355.2776, 7.553101
355.7597, 8.725922
356.2418, 10.19675
356.7239, 10.90250
357.2061, 10.40149
357.6882, 9.970490
358.1703, 9.421326
358.6524, 9.031891
359.1345, 9.293488
359.6166, 10.10532
360.0987, 10.71024
360.5808, 10.30923
361.0630, 8.715942
361.5451, 7.780945
362.0272, 8.166718
362.5093, 8.529388
362.9914, 8.321991
363.4735, 7.757629
363.9557, 7.342926
364.4378, 7.408173
364.9199, 7.786987
365.4020, 7.754700
365.8841, 6.874481
366.3662, 6.171783
366.8484, 5.853699
367.3305, 5.720184
367.8126, 5.598236
368.2947, 5.427765
368.7768, 5.214081
369.2589, 4.979248
369.7411, 4.777557
370.2232, 4.398285
370.7053, 3.563110
371.1874, 2.783722
371.6695, 2.386139
372.1516, 2.328094
372.6338, 2.297760
373.1159, 2.027649
373.5980, 1.525024
374.0801, 0.9933170
374.5622, 0.2871400
375.0443, 0.2591860
375.5265, 0.5182800
376.0086, 0.5638430
376.4907, 0.4808350
376.9728, 0.2841190
377.4549, 5.3284001E-02
377.9370, 1.8524000E-02
378.4192, 0.1264040
378.9013, 0.2585750
379.3834, 0.2489010
379.8655, 0.2090150
380.3476, 0.3127440
380.8297, 0.6001890
381.3119, 0.7972410
381.7940, 0.5915830
382.2761, 2.2887999E-02
382.7582, 0.6528630
383.2403, 1.310425
383.7224, 1.885681
384.2046, 2.322968
384.6867, 2.674438
385.1688, 3.118774
385.6509, 3.827667
386.1330, 4.641693
386.6151, 5.110992
387.0973, 5.126343
387.5794, 5.153351
388.0615, 5.570648
388.5436, 6.105133
389.0257, 6.262970
389.5078, 5.631287
389.9900, 5.190094
390.4721, 6.147034
390.9542, 8.283966
391.4363, 9.795502
391.9184, 9.816254
392.4005, 9.292297
392.8827, 9.578369
393.3648, 10.71939
393.8469, 11.84186
394.3290, 12.62396
394.8111, 13.16788
395.2932, 13.58798
395.7754, 13.89438
396.2575, 14.19604
396.7396, 14.57678
397.2217, 15.04608
397.7038, 15.60529
398.1859, 16.34448
398.6681, 17.10336
399.1501, 17.81073
399.6323, 18.45786
400.1144, 19.06540
400.5965, 19.68378
401.0786, 20.19821
401.5607, 20.23373
402.0428, 19.55374
402.5250, 18.89062
403.0071, 18.18719
403.4892, 17.64340
403.9713, 17.56927
404.4534, 18.01636
404.9355, 18.70563
405.4177, 19.38641
405.8998, 20.17429
406.3819, 20.24759
406.8640, 18.92264
407.3461, 17.63208
407.8282, 17.06427
408.3104, 17.11719
408.7925, 17.39313
409.2746, 17.65436
409.7567, 17.93106
410.2388, 18.33438
410.7209, 18.98386
411.2031, 19.48553
411.6852, 19.78989
412.1673, 20.02890
412.6494, 20.35526
413.1315, 20.79443
413.6136, 21.19250
414.0958, 21.35342
414.5779, 21.23538
415.0600, 21.05228
415.5421, 20.83478
416.0242, 20.53601
416.5063, 20.00754
416.9885, 19.37646
417.4706, 18.99347
417.9527, 19.19485
418.4348, 19.71759
418.9169, 19.54691
419.3990, 18.29758
419.8812, 17.13004
420.3633, 16.41919
420.8454, 15.95932
421.3275, 15.69565
421.8096, 15.63168
422.2917, 15.36249
422.7739, 14.23984
423.2560, 12.32693
423.7381, 10.93991
424.2202, 10.49484
424.7023, 10.33356
425.1844, 9.942902
425.6666, 9.383240
426.1487, 8.871552
426.6308, 8.611816
427.1129, 8.394501
427.5950, 7.806580
428.0771, 6.811249
428.5593, 6.064850
429.0414, 6.099060
429.5235, 6.518372
430.0056, 6.430878
430.4877, 5.654877
430.9698, 4.788635
431.4520, 4.084961
431.9341, 3.514923
432.4162, 2.995605
432.8983, 2.491272
433.3804, 2.068054
433.8625, 1.862305
434.3447, 1.922424
434.8268, 1.840332
435.3089, 1.557037
435.7910, 1.159760
436.2731, 0.5951230
436.7552, 5.5847000E-02
437.2374, 0.5601200
437.7195, 0.7841190
438.2016, 0.7687380
438.6837, 0.6385500
439.1658, 0.1232600
439.6479, 0.1731570
440.1301, 2.4017001E-02
440.6122, 0.5397640
441.0943, 8.2700001E-03
441.5764, 0.3674620
442.0585, 0.5502010
442.5406, 2.1179000E-02
443.0227, 0.4075320
443.5049, 0.4249270
443.9870, 0.4266970
444.4691, 0.9404300
444.9512, 0.5090030
445.4333, 1.013458
445.9154, 1.143585
446.3976, 1.444244
446.8797, 1.373962
447.3618, 1.417480
447.8439, 1.831177
448.3260, 2.039154
448.8081, 1.924103
449.2903, 2.232452
449.7724, 1.782745
450.2545, 1.997345
450.7366, 2.498260
451.2187, 2.051727
451.7008, 2.397461
452.1830, 2.554199
452.6651, 2.532532
453.1472, 1.798737
453.6293, 1.983185
454.1114, 1.798859
454.5935, 1.598816
455.0757, 1.910858
455.5578, 1.277710
456.0399, 1.580536
456.5220, 1.508820
457.0041, 1.607697
457.4862, 1.335449
457.9684, 1.176880
458.4505, 1.388519
458.9326, 1.345825
459.4147, 1.507538
459.8968, 1.307861
460.3789, 1.128326
460.8611, 1.430481
461.3432, 2.130554
461.8253, 2.681915
462.3074, 2.742828
462.7895, 2.407379
463.2716, 2.048676
463.7538, 1.550415
464.2359, 1.182739
464.7180, 1.082397
465.2001, 1.063110
465.6822, 0.9331050
466.1643, 0.6551820
466.6465, 0.3055110
467.1286, 7.6018997E-02
467.6107, 0.5412900
468.0928, 0.5864870
468.5749, 0.4497070
469.0570, 1.196350
469.5392, 1.035583
470.0213, 0.4170530
470.5034, 1.0590000E-02
470.9855, 3.3661000E-02
471.4676, 0.4321590
471.9497, 1.109894
472.4319, 2.235321
472.9140, 2.900574
473.3961, 2.754791
473.8782, 2.274261
474.3603, 1.567871
474.8424, 0.7306820
475.3246, 1.1017000E-02
475.8067, 0.4789430
476.2888, 0.7319340
476.7709, 0.6819760
477.2530, 0.2832950
477.7351, 0.1417850
478.2173, 0.4611510
478.6994, 0.7117310
479.1815, 0.9342960
479.6636, 1.097687
480.1457, 1.348541
480.6278, 1.915741
481.1100, 2.578308
481.5920, 2.892700
482.0742, 2.771210
482.5563, 2.517059
483.0384, 2.335297
483.5205, 2.244568
484.0026, 2.433838
484.4847, 3.313385
484.9669, 4.016571
485.4490, 3.936157
485.9311, 3.478607
486.4132, 3.415924
486.8953, 4.031403
487.3774, 4.889252
487.8596, 5.272736
488.3417, 5.053558
488.8238, 4.656555
489.3059, 3.574921
489.7880, 2.827667
490.2701, 3.214508
490.7523, 4.348572
491.2344, 5.260315
491.7165, 5.374542
492.1986, 4.990173
492.6807, 4.860321
493.1628, 5.064301
493.6450, 5.310547
494.1271, 5.833557
494.6092, 6.136383
495.0913, 5.658813
495.5734, 4.504333
496.0555, 3.592102
496.5377, 3.834045
497.0198, 4.808472
497.5019, 5.307770
497.9840, 5.227112
498.4661, 4.859741
498.9482, 4.159973
499.4304, 3.435730
499.9125, 3.324738
500.3946, 4.053467
500.8767, 4.867737
501.3588, 5.288269
501.8409, 5.538635
502.3231, 6.114807
502.8052, 7.100830
503.2873, 8.071625
503.7694, 8.569855
504.2515, 8.576904
504.7336, 8.730225
505.2158, 9.181885
505.6979, 9.592529
506.1800, 9.649597
506.6621, 9.642822
507.1442, 10.06668
507.6263, 11.08224
508.1085, 12.37708
508.5906, 13.48523
509.0727, 14.38910
509.5548, 15.14194
510.0369, 15.52859
510.5190, 15.97641
511.0012, 16.81808
511.4833, 17.81668
511.9654, 18.44684
512.4475, 18.35809
512.9296, 18.07318
513.4117, 18.60739
513.8939, 20.06961
514.3760, 21.51373
514.8581, 22.72397
515.3402, 23.87674
515.8223, 25.14212
516.3044, 26.49777
516.7866, 27.75174
517.2687, 28.88858
517.7508, 29.84912
518.2329, 30.55713
518.7150, 31.01895
519.1971, 31.27020
519.6793, 31.29044
520.1614, 31.14975
520.6435, 31.04349
521.1256, 31.10889
521.6077, 30.81891
522.0898, 29.78455
522.5720, 28.57083
523.0541, 27.73059
523.5362, 27.23938
524.0183, 26.74811
524.5004, 26.06683
524.9825, 25.09613
525.4647, 23.24939
525.9468, 19.31863
526.4289, 16.40295
526.9110, 15.34427
527.3931, 14.84857
527.8752, 13.84583
528.3574, 12.24240
528.8395, 10.69110
529.3216, 9.825043
529.8037, 9.519958
530.2858, 8.942871
530.7679, 7.891968
531.2501, 7.025238
531.7322, 6.872437
532.2143, 6.930786
532.6964, 6.653503
533.1785, 5.914795
533.6606, 5.058655
534.1428, 4.274933
534.6249, 3.576996
535.1070, 2.960510
535.5891, 2.420807
536.0712, 1.967926
536.5533, 1.593811
537.0355, 1.320923
537.5176, 1.259949
537.9997, 1.574615
538.4818, 1.880432
538.9639, 2.178070
539.4460, 2.355225
539.9282, 2.227386
540.4103, 1.779724
540.8924, 1.186218
541.3745, 0.5862430
541.8566, 2.9846000E-02
542.3387, 0.2645570
542.8209, 0.3993840
543.3029, 0.8312680
543.7850, 0.6545410
544.2672, 0.2036440
544.7493, 0.1758730
545.2314, 0.3860170
545.7135, 0.4643550
546.1956, 0.3660280
546.6777, 0.1194460
547.1599, 0.1177370
547.6420, 0.5509640
548.1241, 0.8632510
548.6062, 0.4900210
549.0883, 0.1858830
549.5704, 4.3212999E-02
550.0526, 0.8307190
550.5347, 1.279053
551.0168, 1.408020
551.4989, 0.2545170
551.9810, 0.7542420
552.4631, 0.5911870
552.9453, 0.4014280
553.4274, 1.133514
553.9095, 0.1626590
554.3916, 0.8786930
554.8737, 0.9230350
555.3558, 1.275055
555.8380, 0.9617920
556.3201, 0.8563230
556.8022, 1.417847
557.2843, 1.604431
557.7664, 1.208893
558.2485, 1.579315
558.7307, 0.8707280
559.2128, 0.9801330
559.6949, 1.173370
560.1770, 1.286774
560.6591, 1.235596
561.1412, 1.099213
561.6234, 0.9286800
562.1055, 0.7218020
562.5876, 0.6378170
563.0697, 0.9626160
563.5518, 1.537994
564.0339, 1.787079
564.5161, 1.595093
564.9982, 1.292084
565.4803, 1.086578
565.9624, 0.9667970
566.4445, 1.264923
566.9266, 1.925323
567.4088, 2.302673
567.8909, 2.413940
568.3730, 1.459717
568.8551, 1.884583
569.3372, 1.756744
569.8193, 1.605286
570.3015, 2.221588
570.7836, 1.419556
571.2657, 2.020691
571.7478, 2.058899
572.2299, 2.352661
572.7120, 1.468231
573.1942, 2.193207
573.6763, 2.610168
574.1584, 2.630463
574.6405, 2.521576
575.1226, 2.441437
575.6047, 2.413147
576.0869, 2.576599
576.5690, 2.984589
577.0511, 3.359650
577.5332, 3.557251
578.0153, 3.646759
578.4974, 3.754974
578.9796, 3.898071
579.4617, 3.992889
579.9438, 3.834534
580.4259, 3.712250
580.9080, 4.100922
581.3901, 4.933044
581.8723, 5.567657
582.3544, 5.548279
582.8365, 5.136841
583.3186, 5.228119
583.8007, 6.334412
584.2828, 7.182343
584.7650, 7.766632
585.2471, 8.079559
585.7292, 7.925095
586.2113, 7.487335
586.6934, 7.230728
587.1755, 7.479324
587.6577, 8.075073
588.1398, 8.645798
588.6219, 9.268631
589.1040, 9.780151
589.5861, 10.17854
590.0682, 10.49030
590.5504, 10.66483
591.0325, 10.73354
591.5146, 10.90497
591.9967, 11.43353
592.4788, 11.92131
592.9609, 12.00656
593.4431, 11.76631
593.9252, 11.44756
594.4073, 11.14409
594.8894, 10.74884
595.3715, 10.05972
595.8536, 8.921814
596.3358, 8.257996
596.8179, 8.504227
597.3000, 8.668106
597.7821, 8.362564
598.2642, 7.765366
598.7463, 7.114990
599.2285, 6.499832
599.7106, 5.963806
600.1927, 5.575043
600.6748, 5.343323
601.1569, 5.114807
601.6390, 4.867859
602.1212, 4.650375
602.6033, 4.476776
603.0854, 4.346573
603.5675, 4.327194
604.0496, 4.546661
604.5317, 4.550812
605.0139, 3.795425
605.4960, 2.789963
605.9781, 2.440048
606.4602, 2.838272
606.9423, 3.184036
607.4244, 2.874680
607.9066, 2.103790
608.3887, 1.704697
608.8708, 2.043701
609.3529, 2.236313
609.8350, 2.057846
610.3171, 1.893997
610.7993, 2.152298
611.2814, 2.706467
611.7635, 3.033386
612.2456, 2.765167
612.7277, 2.157776
613.2098, 1.661926
613.6920, 1.245209
614.1741, 1.219986
614.6562, 1.917740
615.1383, 2.712341
615.6204, 2.987564
616.1025, 2.811066
616.5847, 2.486343
617.0668, 1.976517
617.5489, 1.444550
618.0310, 0.8365170
618.5131, 0.2996980
618.9952, 0.2397160
619.4774, 0.7631070
619.9595, 1.361252
620.4416, 1.396439
620.9237, 0.7314000
621.4058, 0.5854950
621.8879, 1.781723
622.3701, 2.577530
622.8522, 2.320587
623.3343, 1.666473
623.8164, 1.309174
624.2985, 1.371628
624.7806, 1.450790
625.2628, 1.135742
625.7448, 0.6032100
626.2269, 0.3383940
626.7090, 0.3699490
627.1912, 0.5179750
627.6733, 0.7294010
628.1554, 0.9911040
628.6375, 1.308731
629.1196, 1.750778
629.6017, 1.963043
630.0839, 1.795853
630.5660, 1.470230
631.0481, 0.9914860
631.5302, 0.4959110
632.0123, 0.2501680
632.4944, 0.3776250
632.9766, 0.7915650
633.4587, 1.463486
633.9408, 2.556305
634.4229, 3.073914
634.9050, 2.703827
635.3871, 2.125763
635.8693, 1.459763
636.3514, 0.8606260
636.8335, 0.5701900
637.3156, 0.6481630
637.7977, 0.9439090
638.2798, 1.644867
638.7620, 2.433853
639.2441, 2.551178
639.7262, 1.901169
640.2083, 1.344086
640.6904, 1.500656
641.1725, 2.177643
641.6547, 0.5180050
642.1368, 1.139923
642.6189, 1.434586
643.1010, 1.411880
643.5831, 8.8988997E-02
644.0652, 0.4177090
644.5474, 8.4183000E-02
645.0295, 0.2729340
645.5116, 0.2944950
645.9937, 0.8409270
646.4758, 0.2927400
646.9579, 0.6419070
647.4401, 0.1977080
647.9222, 3.2393999E-02
648.4043, 0.1259160
648.8864, 0.1287080
649.3685, 1.4740000E-02
649.8506, 0.2481540
650.3328, 0.8159030
650.8149, 1.243546
651.2970, 1.358109
651.7791, 1.228348
652.2612, 0.7972720
652.7433, 0.1104280
653.2255, 0.3370670
653.7076, 0.1723020
654.1897, 0.4386750
654.6718, 0.8867340
655.1539, 1.085297
655.6360, 1.282700
656.1182, 1.691101
656.6003, 1.950531
657.0824, 1.630585
657.5645, 0.9718020
658.0466, 0.7425080
658.5287, 1.463821
659.0109, 2.365845
659.4930, 2.730942
659.9751, 2.670334
660.4572, 2.472855
660.9393, 2.190887
661.4214, 2.076782
661.9036, 2.471039
662.3857, 3.262695
662.8678, 3.247162
663.3499, 1.198593
663.8320, 2.6885999E-02
664.3141, 0.4801030
664.7963, 1.388046
665.2784, 1.601791
665.7605, 1.181885
666.2426, 0.8903200
666.7247, 1.273697
667.2068, 1.932571
667.6890, 2.145645
668.1711, 1.923187
668.6532, 1.588974
669.1353, 1.159088
669.6174, 0.7520750
670.0995, 0.4239200
670.5817, 0.2186580
671.0638, 0.3335880
671.5459, 1.053116
672.0280, 1.722107
672.5101, 2.329453
672.9922, 2.720596
673.4744, 2.489471
673.9565, 1.673233
674.4386, 0.8611150
674.9207, 0.4556730
675.4028, 0.3910830
675.8849, 0.5563200
676.3671, 1.096832
676.8492, 1.181641
677.3313, 0.1780240
677.8134, 0.7903750
678.2955, 0.7352140
678.7776, 9.5490001E-02
679.2598, 0.8447270
679.7419, 1.405548
680.2240, 1.737854
680.7061, 1.573959
681.1882, 1.256683
681.6703, 1.480301
682.1525, 2.286438
682.6346, 2.945282
683.1167, 2.781113
683.5988, 1.984909
684.0809, 1.564545
684.5630, 1.748642
685.0452, 1.815887
685.5273, 1.513641
686.0094, 1.213760
686.4915, 1.196304
686.9736, 1.363693
687.4557, 1.383240
687.9379, 1.030685
688.4200, 0.6621550
688.9021, 0.5578310
689.3842, 0.6824490
689.8663, 1.025055
690.3484, 1.600922
690.8306, 2.159164
691.3127, 2.513779
691.7948, 2.687912
692.2769, 2.680710
692.7590, 2.517197
693.2411, 2.170441
693.7233, 1.268967
694.2054, 0.5117190
694.6875, 0.5039520
695.1696, 0.9988560
695.6517, 1.146988
696.1339, 0.4623260
696.6160, 0.3286290
697.0981, 0.3527680
697.5802, 0.1968990
698.0623, 0.6813510
698.5444, 1.032379
699.0266, 1.156937
699.5087, 0.9022060
699.9908, 0.4348450
700.4729, 0.3323970
700.9550, 1.119461
701.4371, 1.524719
701.9193, 1.241669
702.4014, 0.8873900
702.8835, 0.8033750
703.3656, 0.9415440
703.8477, 1.002548
704.3298, 0.9846950
704.8120, 0.9543910
705.2941, 1.016312
705.7762, 1.124161
706.2583, 0.9328920
706.7404, 0.3260650
707.2225, 0.2248380
707.7046, 1.521622
708.1867, 3.420334
708.6688, 3.728134
709.1509, 1.425674
709.6331, 0.2293700
710.1152, 1.514694
710.5973, 2.852066
711.0794, 2.596939
711.5615, 1.467316
712.0436, 0.7434080
712.5258, 0.8828430
713.0079, 1.405655
713.4900, 1.970749
713.9721, 2.497177
714.4542, 2.436722
714.9363, 1.675217
715.4185, 0.9239350
715.9006, 0.4430850
716.3827, 0.2295990
716.8648, 0.3449100
717.3469, 0.8541720
717.8290, 1.240936
718.3112, 1.405273
718.7933, 1.497269
719.2754, 1.593094
719.7575, 1.667191
720.2396, 1.706848
720.7217, 1.710144
721.2039, 1.625427
721.6860, 1.337708
722.1681, 0.9540560
722.6502, 0.8315730
723.1323, 1.002762
723.6144, 1.104568
724.0966, 1.002213
724.5787, 0.8224950
725.0608, 0.6951450
725.5429, 0.6179960
726.0250, 0.5860750
726.5071, 0.7254030
726.9893, 0.7602690
727.4714, 0.4242250
727.9535, 2.9221000E-02
728.4356, 4.2755000E-02
728.9177, 0.4319000
729.3998, 0.6438900
729.8820, 0.1618040
730.3641, 0.5829770
730.8462, 0.5245970
731.3283, 0.3650210
731.8104, 1.286301
732.2925, 2.249039
732.7747, 2.810516
733.2568, 2.356689
733.7389, 1.152115
734.2210, 0.6155400
734.7031, 1.221481
735.1852, 1.724579
735.6674, 1.840439
736.1495, 1.770569
736.6316, 1.595627
737.1137, 1.354889
737.5958, 1.212814
738.0779, 1.268768
738.5601, 1.310593
739.0422, 0.9264680
739.5243, 0.1862490
740.0064, 0.2488860
740.4885, 0.2973940
740.9706, 0.1884000
741.4528, 4.0817000E-02
741.9349, 0.1785430
742.4170, 0.6223600
742.8991, 1.491562
743.3812, 1.888962
743.8633, 1.309509
744.3455, 0.6958160
744.8276, 0.5689700
745.3097, 0.7271120
745.7918, 0.8653720
746.2739, 0.8771510
746.7560, 0.7380070
747.2382, 0.2712710
747.7203, 0.3340150
748.2024, 0.3859410
748.6845, 0.1334380
749.1666, 0.4222720
749.6487, 0.1649020
750.1309, 0.3129730
750.6130, 0.7175290
751.0951, 1.061218
751.5772, 0.9713440
752.0593, 5.1102001E-02
752.5414, 0.8085480
753.0236, 0.9582980
753.5057, 0.7939610
753.9878, 0.3948210
754.4699, 0.1162110
754.9520, 0.2828060
755.4341, 0.3328400
755.9163, 1.060333
756.3984, 0.7223970
756.8805, 0.3677060
757.3626, 0.6647490
757.8447, 0.1263120
758.3268, 0.8452000
758.8090, 0.6554260
759.2911, 0.1865390
759.7732, 0.7797240
760.2553, 1.105652
760.7374, 1.202271
761.2195, 0.8484950
761.7017, 0.4983520
762.1838, 0.4168850
762.6659, 0.4609680
763.1480, 0.3509670
763.6301, 2.2900000E-04
764.1122, 0.2830200
764.5944, 0.1455540
765.0765, 0.1440890
765.5586, 0.1789700
766.0407, 1.5976001E-02
766.5228, 0.4726560
767.0049, 1.238861
767.4871, 1.763199
767.9692, 1.304184
768.4513, 0.2379610
768.9334, 1.085175
769.4155, 0.9234010
769.8976, 0.5864260
770.3798, 4.4280998E-02
770.8619, 0.4509740
771.3440, 0.6051030
771.8261, 0.4912870
772.3082, 0.5350490
772.7903, 1.117966
773.2725, 1.586411
773.7546, 1.302811
774.2367, 0.6794280
774.7188, 0.4253390
775.2009, 0.5827480
775.6830, 0.6032560
776.1652, 9.1766000E-02
776.6473, 0.5806580
777.1294, 0.4328610
777.6115, 0.7096560
778.0936, 1.521881
778.5757, 1.905121
779.0579, 1.976227
779.5400, 1.515961
780.0221, 0.9001310
780.5042, 0.8329010
780.9863, 1.488815
781.4684, 1.912476
781.9506, 1.603622
782.4327, 1.261932
782.9148, 1.320877
783.3969, 1.662155
783.8790, 2.105789
784.3611, 2.578690
784.8433, 2.987793
785.3254, 3.265259
785.8075, 3.382553
786.2896, 3.226501
786.7717, 2.807617
787.2538, 2.534790
787.7360, 2.471146
788.2181, 2.606964
788.7002, 3.092209
789.1823, 3.913559
789.6644, 4.510345
790.1465, 4.730621
790.6286, 4.945358
791.1107, 5.099609
791.5928, 5.333435
792.0750, 5.834366
792.5571, 6.467560
793.0392, 6.931198
793.5213, 7.098907
794.0034, 7.234116
794.4855, 7.426804
794.9677, 7.801468
795.4498, 8.841034
795.9319, 10.40977
796.4140, 11.33054
796.8961, 11.05852
797.3782, 10.59241
797.8604, 11.37285
798.3425, 13.49541
798.8246, 15.10945
799.3067, 15.90819
799.7888, 16.76677
800.2709, 18.02426
800.7531, 19.29942
801.2352, 20.18430
801.7173, 20.79285
802.1994, 21.69075
802.6815, 23.08881
803.1636, 24.71098
803.6458, 26.53583
804.1279, 28.41896
804.6100, 30.18384
805.0921, 31.83214
805.5742, 33.47348
806.0563, 35.19234
806.5385, 36.92416
807.0206, 38.53946
807.5027, 40.02992
807.9848, 41.09326
808.4669, 41.58014
808.9490, 42.45299
809.4312, 44.44772
809.9133, 46.71155
810.3954, 47.71463
810.8775, 47.15555
811.3596, 47.29984
811.8417, 48.79109
812.3239, 50.14732
812.8060, 51.09912
813.2881, 51.66316
813.7702, 51.63527
814.2523, 51.17355
814.7344, 50.87653
815.2166, 51.21758
815.6987, 51.53188
816.1808, 50.84193
816.6629, 49.59250
817.1450, 48.85477
817.6271, 48.66771
818.1093, 48.27332
818.5914, 47.21756
819.0735, 45.88976
819.5556, 44.99336
820.0377, 44.56035
820.5198, 44.26045
821.0020, 44.18704
821.4841, 44.08672
821.9662, 44.02846
822.4483, 43.75455
822.9304, 42.84581
823.4125, 41.33209
823.8947, 40.07152
824.3768, 39.49544
824.8589, 38.89201
825.3410, 37.66994
825.8231, 36.44142
826.3052, 36.12622
826.7874, 36.50368
827.2695, 36.50453
827.7516, 35.44118
828.2337, 34.08725
828.7158, 33.52687
829.1979, 33.60532
829.6801, 33.71375
830.1622, 33.79803
830.6443, 33.87909
831.1264, 33.96211
831.6085, 34.05753
832.0906, 34.17854
832.5728, 34.31683
833.0549, 34.51906
833.5370, 34.69215
834.0191, 35.06470
834.5012, 35.74706
834.9833, 36.57730
835.4655, 37.48721
835.9476, 38.42628
836.4297, 39.24487
836.9118, 39.70160
837.3939, 40.34442
837.8760, 41.58826
838.3582, 43.10794
838.8403, 44.55649
839.3224, 45.92151
839.8045, 47.25116
840.2866, 48.56296
840.7687, 50.12553
841.2509, 52.43921
841.7330, 55.35338
842.2151, 57.94456
842.6972, 60.16307
843.1793, 62.41318
843.6614, 64.80176
844.1436, 67.30811
844.6257, 69.83539
845.1078, 72.39658
845.5899, 75.48193
846.0720, 79.86700
846.5541, 83.60559
847.0363, 86.15091
847.5184, 88.38248
848.0005, 90.79724
848.4826, 93.34607
848.9647, 95.91693
849.4468, 98.57999
849.9290, 100.8159
850.4111, 102.3900
850.8932, 103.3766
851.3753, 103.7577
851.8574, 103.6479
852.3395, 103.2837
852.8217, 102.7401
853.3038, 101.8996
853.7859, 100.5607
854.2680, 98.87134
854.7501, 97.42778
855.2322, 96.22839
855.7144, 94.27432
856.1965, 91.19464
856.6786, 88.14156
857.1607, 86.04907
857.6428, 84.59973
858.1249, 82.73949
858.6071, 80.13882
859.0892, 77.84782
859.5713, 76.18454
860.0534, 74.46942
860.5355, 72.13339
861.0176, 69.75317
861.4998, 68.18723
861.9819, 67.47229
862.4640, 66.56171
862.9461, 64.95584
863.4282, 63.08446
863.9103, 61.11583
864.3925, 59.14935
864.8746, 57.48114
865.3567, 55.97562
865.8388, 54.02524
866.3209, 51.25696
866.8030, 48.17679
867.2852, 45.56688
867.7673, 43.33754
868.2494, 40.96881
868.7315, 38.44366
869.2136, 36.21680
869.6957, 34.51547
870.1779, 32.97318
870.6600, 31.09018
871.1421, 28.86029
871.6242, 26.88139
872.1063, 25.11656
872.5884, 23.66539
873.0705, 22.72346
873.5526, 21.92827
874.0347, 21.16472
874.5168, 20.35547
874.9990, 19.21989
875.4811, 17.43820
875.9632, 16.20642
876.4453, 16.52202
876.9274, 17.04805
877.4095, 16.82874
877.8917, 16.06471
878.3738, 15.01178
878.8559, 13.84346
879.3380, 13.08751
879.8201, 13.29227
880.3022, 13.94093
880.7844, 14.24011
881.2665, 14.19739
881.7486, 13.78154
882.2307, 13.01157
882.7128, 12.22929
883.1949, 11.63176
883.6771, 11.25064
884.1592, 11.24420
884.6413, 11.71933
885.1234, 11.72823
885.6055, 11.11507
886.0876, 10.41930
886.5698, 9.804077
887.0519, 9.217880
887.5340, 8.522171
888.0161, 7.743759
888.4982, 7.266617
888.9803, 7.443558
889.4625, 7.439590
889.9446, 6.961288
890.4267, 6.398956
890.9088, 6.052475
891.3909, 5.820267
891.8730, 5.374329
892.3552, 4.599579
892.8373, 4.144257
893.3194, 4.825760
893.8015, 5.697510
894.2836, 5.719330
894.7657, 5.151230
895.2479, 4.541763
895.7300, 4.034103
896.2121, 3.564621
896.6942, 3.093750
897.1763, 2.620483
897.6584, 2.024429
898.1406, 1.365753
898.6227, 1.344589
899.1048, 2.083847
899.5869, 2.693497
900.0690, 2.711472
900.5511, 2.499374
901.0333, 2.669907
901.5154, 2.383743
901.9975, 1.964401
902.4796, 2.023865
902.9617, 1.677948
903.4438, 1.115295
903.9260, 1.306091
904.4081, 1.287003
904.8902, 1.192780
905.3723, 1.445221
905.8544, 2.330139
906.3365, 2.895035
906.8187, 2.883636
907.3008, 2.565750
907.7829, 1.866852
908.2650, 1.079987
908.7471, 0.6147920
909.2292, 0.4995880
909.7114, 0.3720090
910.1935, 9.0103000E-02
910.6756, 0.4768070
911.1577, 0.2127230
911.6398, 0.3594970
912.1219, 0.5438080
912.6041, 0.3661960
913.0862, 0.3962550
913.5683, 0.9044800
914.0504, 1.411270
914.5325, 1.179962
915.0146, 0.3750760
915.4968, 3.4988001E-02
915.9789, 3.1219000E-02
916.4610, 9.9822998E-02
916.9431, 0.4132540
917.4252, 0.6143340
917.9073, 0.3533330
918.3895, 0.2181850
918.8716, 0.5266720
919.3537, 0.4593200
919.8358, 0.4064940
920.3179, 0.4456020
920.8000, 0.3989110
921.2822, 0.1143040
921.7643, 0.2446590
922.2464, 0.4913020
922.7285, 0.6364140
923.2106, 0.8332210
923.6927, 1.321167
924.1749, 1.553482
924.6570, 1.096939
925.1391, 0.5845640
925.6212, 0.5395510
926.1033, 0.8083650
926.5854, 1.034790
927.0676, 1.106033
927.5497, 1.006088
928.0318, 0.5785680
928.5139, 0.2069700
928.9960, 0.4267120
929.4781, 0.8533630
929.9603, 0.6765140
930.4424, 0.1490170
930.9245, 1.048676
931.4066, 1.693085
931.8887, 2.012009
932.3708, 1.787750
932.8530, 1.134537
933.3351, 0.4615780
933.8172, 0.1993560
934.2993, 0.7368010
934.7814, 1.123199
935.2635, 1.149399
935.7457, 0.4763640
936.2278, 0.6916810
936.7099, 1.058060
937.1920, 0.3664090
937.6741, 6.6530001E-03
938.1563, 0.1454320
938.6384, 0.5312810
939.1205, 1.153061
939.6026, 1.781174
940.0847, 1.965744
940.5668, 1.606232
941.0490, 1.399734
941.5311, 1.587662
942.0132, 1.594315
942.4953, 0.9699860
942.9774, 0.4386600
943.4595, 0.6307980
943.9417, 1.331619
944.4238, 1.957748
944.9059, 2.418884
945.3880, 2.722641
945.8701, 2.931274
946.3522, 2.924225
946.8344, 2.419891
947.3165, 1.763321
947.7986, 1.438568
948.2807, 1.469208
948.7628, 1.526154
949.2449, 1.444382
949.7271, 1.301086
950.2092, 1.145203
950.6913, 0.9884800
951.1734, 0.8074490
951.6555, 0.6412510
952.1376, 0.6099850
952.6198, 0.7507020
953.1019, 1.003342
953.5840, 1.374115
954.0661, 1.729813
954.5482, 1.683060
955.0303, 1.300980
955.5124, 1.003586
955.9945, 0.8482210
956.4766, 0.7276760
956.9587, 0.5657040
957.4409, 0.5021060
957.9230, 0.7862400
958.4051, 1.412582
958.8872, 2.034958
959.3693, 2.725296
959.8514, 3.082031
960.3336, 2.923080
960.8157, 2.643723
961.2978, 2.607513
961.7799, 2.625351
962.2620, 2.096451
962.7441, 0.6166990
963.2263, 0.1521150
963.7084, 0.2998810
964.1905, 0.7805940
964.6726, 0.9826810
965.1547, 1.076935
965.6368, 1.180008
966.1190, 1.300507
966.6011, 1.459106
967.0832, 1.705521
967.5653, 1.894775
968.0474, 2.061554
968.5295, 2.077469
969.0117, 1.784637
969.4938, 1.381439
969.9759, 1.113495
970.4580, 1.013031
970.9401, 0.9956670
971.4222, 1.079849
971.9044, 1.149826
972.3865, 1.164795
972.8686, 1.103973
973.3507, 0.8534850
973.8328, 0.5297240
974.3149, 0.3961490
974.7971, 0.5087430
975.2792, 0.6697690
975.7613, 0.7271580
976.2434, 0.7904970
976.7255, 1.104584
977.2076, 1.480469
977.6898, 1.422256
978.1719, 0.9686740
978.6540, 0.5766600
979.1361, 0.4618380
979.6182, 0.6000060
980.1003, 1.180542
980.5825, 1.937225
981.0646, 1.765747
981.5467, 0.7867890
982.0288, 0.1867520
982.5109, 0.2412110
982.9930, 0.4355320
983.4752, 0.4187470
983.9573, 0.2256930
984.4394, 0.1174320
984.9215, 0.6049650
985.4036, 0.5997310
985.8857, 8.7890001E-03
986.3679, 0.6119540
986.8500, 1.030502
987.3321, 1.317352
987.8142, 1.582489
988.2963, 1.620132
988.7784, 1.789200
989.2606, 1.415253
989.7427, 1.077316
990.2248, 0.6967160
990.7069, 0.5088200
991.1890, 0.6720890
991.6711, 0.9330140
992.1533, 1.098572
992.6354, 1.182373
993.1175, 1.221466
993.5996, 1.038940
994.0817, 1.260590
994.5638, 2.533661
995.0460, 3.339462
995.5281, 2.528793
996.0102, 1.353470
996.4923, 1.297104
996.9744, 2.223404
997.4565, 2.693634
997.9387, 2.075546
998.4208, 1.589813
998.9029, 1.581924
999.3850, 1.756134
999.8671, 2.057297
1000.349, 2.356232
1000.831, 2.433533
1001.313, 2.307205
1001.796, 2.302002
1002.278, 2.789551
1002.760, 3.063171
1003.242, 2.439545
1003.724, 1.687790
1004.206, 1.518600
1004.688, 1.788757
1005.170, 2.218506
1005.653, 2.677231
1006.135, 2.785324
1006.617, 1.986465
1007.099, 1.163635
1007.581, 1.283676
1008.063, 1.814255
1008.545, 2.118576
1009.027, 2.117828
1009.509, 1.773972
1009.992, 1.114014
1010.474, 0.5217290
1010.956, 0.2626190
1011.438, 0.3438570
1011.920, 1.111023
1012.402, 2.131866
1012.884, 2.138657
1013.366, 1.276108
1013.849, 1.007080
1014.331, 1.955841
1014.813, 3.125015
1015.295, 3.416412
1015.777, 3.100800
1016.259, 2.773895
1016.741, 2.421814
1017.223, 1.923828
1017.705, 1.301743
1018.188, 0.9821930
1018.670, 1.194061
1019.152, 1.645508
1019.634, 1.982056
1020.116, 2.196396
1020.598, 2.243530
1021.080, 2.100235
1021.562, 1.779114
1022.044, 1.242020
1022.527, 0.8608700
1023.009, 0.8548580
1023.491, 1.127045
1023.973, 1.594391
1024.455, 2.224960
1024.937, 2.448959
1025.419, 2.234711
1025.901, 1.815369
1026.384, 1.140640
1026.866, 0.6898960
1027.348, 0.7985990
1027.830, 1.233505
1028.312, 1.590363
1028.794, 1.874969
1029.276, 2.009689
1029.758, 1.933228
1030.240, 1.926208
1030.723, 2.054993
1031.205, 2.241211
1031.687, 2.510483
1032.169, 2.716141
1032.651, 2.533447
1033.133, 1.905914
1033.615, 1.343353
1034.097, 0.7287290
1034.579, 0.4504390
1035.062, 0.7537690
1035.544, 1.137741
1036.026, 1.280487
1036.508, 1.263214
1036.990, 1.229858
1037.472, 1.131973
1037.954, 1.349747
1038.436, 2.247864
1038.919, 2.853134
1039.401, 2.971939
1039.883, 2.761322
1040.365, 2.029755
1040.847, 1.156113
1041.329, 1.004715
1041.811, 1.752075
1042.293, 2.249756
1042.776, 2.533112
1043.258, 2.491089
1043.740, 1.838806
1044.222, 1.159988
1044.704, 0.8060610
1045.186, 0.7071690
1045.668, 0.7825010
1046.150, 1.087296
1046.632, 1.125214
1047.115, 0.5321960
1047.597, 9.5046997E-02
1048.079, 8.9065999E-02
1048.561, 0.2195890
1049.043, 0.3480380
1049.525, 0.4433900
1050.007, 0.4211880
1050.489, 0.2449040
1050.971, 0.2841030
1051.454, 0.8968050
1051.936, 1.340866
1052.418, 1.202072
1052.900, 1.005569
1053.382, 1.196503
1053.864, 1.581177
1054.346, 1.766815
1054.828, 1.694733
1055.311, 1.596268
1055.793, 1.628082
1056.275, 1.521057
1056.757, 0.8526000
1057.239, 0.3136140
1057.721, 0.6340030
1058.203, 1.418228
1058.685, 1.684601
1059.167, 1.336914
1059.650, 1.268677
1060.132, 2.202026
1060.614, 2.872620
1061.096, 2.485260
1061.578, 1.965118
1062.060, 2.064224
1062.542, 2.504288
1063.024, 2.788589
1063.506, 2.853958
1063.989, 2.789185
1064.471, 2.430771
1064.953, 2.174942
1065.435, 2.238419
1065.917, 2.431778
1066.399, 2.715820
1066.881, 2.977341
1067.363, 3.076004
1067.846, 2.993530
1068.328, 2.794205
1068.810, 2.334656
1069.292, 2.001602
1069.774, 2.037170
1070.256, 2.164398
1070.738, 2.337357
1071.220, 2.413910
1071.703, 2.019897
1072.185, 1.263718
1072.667, 0.9959560
1073.149, 1.793045
1073.631, 2.506744
1074.113, 2.394119
1074.595, 2.223862
1075.077, 2.846893
1075.559, 3.570679
1076.042, 3.306900
1076.524, 2.157043
1077.006, 1.181747
1077.488, 0.7208560
1077.970, 0.5616300
1078.452, 0.7856750
1078.934, 1.078293
1079.416, 1.255234
1079.898, 1.360184
1080.380, 1.385345
1080.863, 1.403915
1081.345, 1.661713
1081.827, 2.312485
1082.309, 2.803467
1082.791, 2.876129
1083.273, 2.728485
1083.755, 2.193817
1084.237, 1.721436
1084.720, 1.901825
1085.202, 2.540146
1085.684, 3.021149
1086.166, 3.146240
1086.648, 3.198929
1087.130, 3.393326
1087.612, 3.426025
1088.094, 2.969559
1088.577, 2.424896
1089.059, 2.159576
1089.541, 2.110443
1090.023, 2.013000
1090.505, 1.811111
1090.987, 1.971085
1091.469, 3.396423
1091.951, 4.252487
1092.433, 3.144073
1092.916, 1.759644
1093.398, 1.439255
1093.880, 1.789383
1094.362, 2.035767
1094.844, 2.063446
1095.326, 2.106476
1095.808, 2.416122
1096.290, 2.488678
1096.772, 1.928421
1097.255, 1.328812
1097.737, 0.9740450
1098.219, 0.8629760
1098.701, 1.029892
1099.183, 1.426285
1099.665, 1.789322
1100.147, 2.090881
1100.629, 2.285004
1101.112, 2.303024
1101.594, 2.274261
1102.076, 2.311737
1102.558, 2.295959
1103.040, 2.045380
1103.522, 1.621811
1104.004, 1.282333
1104.486, 1.073593
1104.969, 0.9210820
1105.451, 0.7761840
1105.933, 0.7324370
1106.415, 0.7431030
1106.897, 0.9415740
1107.379, 1.691879
1107.861, 2.645599
1108.343, 2.980469
1108.825, 2.522385
1109.307, 2.127579
1109.790, 1.813461
1110.272, 1.644394
1110.754, 1.728439
1111.236, 1.863800
1111.718, 2.119705
1112.200, 2.261948
1112.682, 1.729294
1113.164, 0.4561920
1113.647, 0.1181490
1114.129, 0.8060150
1114.611, 1.087250
1115.093, 0.1847530
1115.575, 1.056458
1116.057, 0.3547520
1116.539, 0.8389130
1117.021, 1.297272
1117.504, 1.111877
1117.986, 0.9541630
1118.468, 0.8144230
1118.950, 0.7402500
1119.432, 0.8565220
1119.914, 0.7588500
1120.396, 0.1331630
1120.878, 0.4529720
1121.360, 0.5583950
1121.843, 0.2164460
1122.325, 0.5803680
1122.807, 2.046341
1123.289, 2.609573
1123.771, 2.039474
1124.253, 1.329193
1124.735, 0.6238710
1125.217, 8.2399999E-04
1125.699, 0.5188900
1126.182, 0.8647310
1126.664, 0.8978730
1127.146, 0.6298220
1127.628, 0.2440640
1128.110, 0.2798000
1128.592, 0.7381290
1129.074, 1.113907
1129.556, 1.305893
1130.039, 1.238602
1130.521, 1.107468
1131.003, 1.149796
1131.485, 1.280518
1131.967, 1.189575
1132.449, 0.8877110
1132.931, 0.4791260
1133.413, 1.7821999E-02
1133.896, 6.2180001E-02
1134.378, 0.5099950
1134.860, 1.124207
1135.342, 1.325775
1135.824, 1.352905
1136.306, 1.742523
1136.788, 2.315994
1137.270, 2.321945
1137.752, 1.851746
1138.234, 1.273804
1138.717, 0.7233280
1139.199, 0.6124110
1139.681, 1.153534
1140.163, 1.784729
1140.645, 1.922882
1141.127, 1.691391
1141.609, 1.154160
1142.091, 0.4924320
1142.574, 2.1759000E-02
1143.056, 0.1772920
1143.538, 0.1172640
1144.020, 0.8943330
1144.502, 1.499283
1144.984, 1.392883
1145.466, 1.112534
1145.948, 1.189651
1146.431, 1.443237
1146.913, 1.720963
1147.395, 1.964874
1147.877, 2.134293
1148.359, 2.198990
1148.841, 2.032410
1149.323, 1.511703
1149.805, 1.188843
1150.287, 1.708740
1150.770, 2.212982
1151.252, 1.944672
1151.734, 1.443314
1152.216, 1.203094
1152.698, 1.265030
1153.180, 1.691391
1153.662, 2.489639
1154.144, 2.893494
1154.626, 2.410904
1155.109, 1.833145
1155.591, 1.208511
1156.073, 0.8002620
1156.555, 0.9552610
1157.037, 1.301300
1157.519, 1.352753
1158.001, 1.119751
1158.483, 0.9053340
1158.966, 0.7355040
1159.448, 0.5855260
1159.930, 0.3305510
1160.412, 0.2626950
1160.894, 0.4387660
1161.376, 0.8617400
1161.858, 1.809235
1162.340, 2.850006
1162.822, 2.992554
1163.305, 2.166031
1163.787, 1.371811
1164.269, 0.4360960
1164.751, 3.5309002E-02
1165.233, 0.2244870
1165.715, 0.4982450
1166.197, 0.3877260
1166.679, 0.3115840
1167.161, 0.8133390
1167.644, 1.714859
1168.126, 2.303787
1168.608, 2.578903
1169.090, 2.676224
1169.572, 2.601791
1170.054, 2.529953
1170.536, 2.508179
1171.018, 2.487747
1171.500, 2.437332
1171.983, 2.325668
1172.465, 1.924042
1172.947, 1.444153
1173.429, 1.870422
1173.911, 2.932724
1174.393, 3.151505
1174.875, 1.467957
1175.357, 2.198135
1175.840, 2.589264
1176.322, 2.659836
1176.804, 1.449585
1177.286, 1.893295
1177.768, 1.674026
1178.250, 1.425171
1178.732, 2.073959
1179.214, 1.018509
1179.697, 1.668640
1180.179, 1.656647
1180.661, 1.953247
1181.143, 1.582840
1181.625, 1.427902
1182.107, 1.957855
1182.589, 2.090683
1183.071, 1.639725
1183.553, 1.922104
1184.036, 0.8185880
1184.518, 0.9097140
1185.000, 1.533813
1185.482, 1.102905
1185.964, 1.429001
1186.446, 1.474258
1186.928, 0.2355960
1187.410, 1.473450
1187.892, 1.758865
1188.375, 1.416138
1188.857, 1.059158
1189.339, 1.391693
1189.821, 2.123459
1190.303, 2.409790
1190.785, 2.196152
1191.267, 1.809402
1191.749, 1.053772
1192.232, 0.7191620
1192.714, 1.022293
1193.196, 1.486176
1193.678, 1.926498
1194.160, 2.267944
1194.642, 2.436356
1195.124, 2.398773
1195.606, 1.845413
1196.089, 2.069382
1196.571, 0.8304750
1197.053, 1.867737
1197.535, 2.331360
1198.017, 1.847794
1198.499, 1.314575
1198.981, 1.288040
1199.463, 1.544464
1199.945, 1.765610
1200.427, 1.907852
1200.910, 1.879745
1201.392, 1.985275
1201.874, 1.828903
1202.356, 1.957001
1202.838, 1.943604
1203.320, 1.748154
1203.802, 1.566055
1204.284, 1.502869
1204.767, 1.510437
1205.249, 1.618286
1205.731, 1.710190
1206.213, 1.664749
1206.695, 1.565598
1207.177, 1.470474
1207.659, 1.423798
1208.141, 1.548767
1208.624, 1.888214
1209.106, 2.056671
1209.588, 1.789078
1210.070, 1.601334
1210.552, 1.785019
1211.034, 1.851242
1211.516, 1.375076
1211.998, 0.8154450
1212.480, 0.5746920
1212.963, 0.6445010
1213.445, 1.074020
1213.927, 1.009384
1214.409, 1.035278
1214.891, 1.442505
1215.373, 1.048096
1215.855, 1.490372
1216.337, 1.955246
1216.819, 2.008270
1217.302, 1.810776
1217.784, 1.481216
1218.266, 1.148758
1218.748, 1.412903
1219.230, 1.042984
1219.712, 0.6520540
1220.194, 0.6880950
1220.676, 0.1425170
1221.159, 0.4721530
1221.641, 0.3680270
1222.123, 0.1448670
1222.605, 0.6980590
1223.087, 0.9943390
1223.569, 1.103760
1224.051, 1.106125
1224.533, 0.9772640
1225.016, 0.5296940
1225.498, 8.4530003E-03
1225.980, 0.2097930
1226.462, 2.2079000E-02
1226.944, 0.3582310
1227.426, 0.9862370
1227.908, 1.431808
1228.390, 1.508331
1228.872, 1.402802
1229.354, 0.7508850
1229.837, 0.3826450
1230.319, 1.482544
1230.801, 3.031769
1231.283, 3.062897
1231.765, 1.637512
1232.247, 0.8728790
1232.729, 0.9806370
1233.211, 1.108459
1233.694, 1.200287
1234.176, 1.457153
1234.658, 2.048065
1235.140, 2.284988
1235.622, 1.595383
1236.104, 0.5590360
1236.586, 0.1293490
1237.068, 0.2349240
1237.551, 0.8811950
1238.033, 1.797531
1238.515, 1.411652
1238.997, 6.5000001E-03
1239.479, 0.2882690
1239.961, 1.029831
1240.443, 2.267883
1240.925, 2.355438
1241.407, 2.054886
1241.890, 2.048141
1242.372, 2.064484
1242.854, 1.821564
1243.336, 1.455887
1243.818, 1.037033
1244.300, 0.6793520
1244.782, 0.6369480
1245.264, 0.9159390
1245.746, 1.055054
1246.229, 0.8223110
1246.711, 0.6518860
1247.193, 0.5189970
1247.675, 0.5975340
1248.157, 1.182907
1248.639, 1.708542
1249.121, 1.758621
1249.603, 1.507141
1250.085, 1.233551
1250.568, 0.9421690
1251.050, 0.6929320
1251.532, 0.4741210
1252.014, 0.4503940
1252.496, 0.6401370
1252.978, 0.7880250
1253.460, 0.7609410
1253.942, 0.7650760
1254.425, 0.6736600
1254.907, 0.5807340
1255.389, 0.7238310
1255.871, 0.8326570
1256.353, 0.2794650
1256.835, 0.4617920
1257.317, 0.2496640
1257.799, 0.6064450
1258.281, 1.205505
1258.764, 1.336426
1259.246, 1.186890
1259.728, 0.7431340
1260.210, 0.3890230
1260.692, 0.2304530
1261.174, 0.2854610
1261.656, 0.6857450
1262.138, 1.198868
1262.620, 1.980896
1263.103, 2.674835
1263.585, 2.225189
1264.067, 2.434998
1264.549, 2.340729
1265.031, 1.582809
1265.513, 1.875732
1265.995, 1.079468
1266.477, 0.5976410
1266.960, 0.7894440
1267.442, 1.063736
1267.924, 1.099197
1268.406, 1.003326
1268.888, 0.8748020
1269.370, 0.8013150
1269.852, 1.052246
1270.334, 1.447403
1270.817, 1.541641
1271.299, 1.125946
1271.781, 0.8466340
1272.263, 0.5187840
1272.745, 0.1949010
1273.227, 0.1123350
1273.709, 0.1748050
1274.191, 0.3162230
1274.673, 0.7748570
1275.156, 0.9293210
1275.638, 0.9332580
1276.120, 0.8057100
1276.602, 0.6494140
1277.084, 0.5541530
1277.566, 0.5238040
1278.048, 0.5704650
1278.530, 0.7318270
1279.012, 0.7840420
1279.495, 0.3988950
1279.977, 0.4527740
1280.459, 0.8152470
1280.941, 1.185104
1281.423, 1.470932
1281.905, 1.539993
1282.387, 1.287445
1282.869, 0.8935390
1283.352, 0.5977780
1283.834, 0.3779910
1284.316, 0.1537630
1284.798, 0.0000000E+00
##END=



