##NAMES=Tavorite
##RRUFFID=R140258
##IDEAL CHEMISTRY=LiFe^3+^PO_4_(OH)
##LOCALITY=Sandamap, Namibia
##OWNER=RRUFF
##SOURCE=Michael Scott
##DESCRIPTION=Druse of pale yellowish-green crystals, associated with giniite (R060765), triphylite, heterosite, and hureaulite.
##STATUS=The identification of this mineral has been confirmed by single-crystal X-ray diffraction.
##URL=rruff.info/R140258
95.89898, 0.0000000E+00
96.38110, 0.8721160
96.86321, 1.693497
97.34533, 2.096085
97.82745, 1.197327
98.30956, 1.329254
98.79168, 1.772232
99.27380, 1.223297
99.75591, 0.6078490
100.2380, 1.4053000E-02
100.7201, 0.3730320
101.2023, 0.5706020
101.6844, 0.4006810
102.1665, 0.4571230
102.6486, 2.310455
103.1307, 4.601501
103.6128, 6.790619
104.0950, 8.823502
104.5771, 11.02411
105.0592, 13.47305
105.5413, 16.16838
106.0234, 19.18756
106.5055, 22.46964
106.9877, 26.07852
107.4698, 30.36331
107.9519, 35.67023
108.4340, 41.30110
108.9161, 46.71449
109.3982, 52.13515
109.8804, 58.06085
110.3625, 64.95735
110.8446, 72.86557
111.3267, 81.41525
111.8088, 90.65651
112.2909, 100.4241
112.7731, 110.7607
113.2552, 121.5886
113.7373, 132.8204
114.2194, 144.1940
114.7015, 155.6405
115.1836, 167.6542
115.6658, 180.3091
116.1479, 193.4928
116.6300, 206.9693
117.1121, 220.6616
117.5942, 234.9269
118.0763, 250.7650
118.5584, 268.6842
119.0406, 286.7526
119.5227, 305.1409
120.0048, 323.3345
120.4869, 340.3754
120.9690, 356.6668
121.4511, 370.2529
121.9333, 379.3876
122.4154, 384.6926
122.8975, 384.5698
123.3796, 376.9611
123.8617, 361.4654
124.3438, 341.8050
124.8260, 316.9868
125.3081, 289.8478
125.7902, 262.1476
126.2723, 234.1274
126.7544, 206.6779
127.2365, 182.1520
127.7187, 160.9760
128.2008, 142.3639
128.6829, 125.8780
129.1650, 111.2278
129.6471, 98.12347
130.1292, 86.36082
130.6114, 75.95309
131.0935, 67.16893
131.5756, 61.23344
132.0577, 55.80235
132.5398, 50.25366
133.0219, 44.73842
133.5041, 39.84293
133.9862, 36.11684
134.4683, 33.76820
134.9504, 31.23734
135.4325, 28.03421
135.9146, 25.05664
136.3968, 22.96304
136.8789, 21.75957
137.3610, 20.85519
137.8431, 19.62433
138.3252, 17.97957
138.8073, 16.37546
139.2895, 14.58980
139.7716, 12.96808
140.2537, 12.09569
140.7358, 12.30724
141.2179, 12.98058
141.7000, 13.20653
142.1821, 12.93276
142.6643, 12.70721
143.1464, 12.82253
143.6285, 13.20944
144.1106, 13.57120
144.5927, 13.87950
145.0748, 14.08055
145.5570, 14.00130
146.0391, 13.55942
146.5212, 13.16127
147.0033, 13.23553
147.4854, 13.87057
147.9675, 14.37474
148.4497, 14.32051
148.9318, 14.23242
149.4139, 14.47498
149.8960, 15.11438
150.3781, 15.85417
150.8602, 16.18503
151.3424, 15.75296
151.8245, 15.72075
152.3066, 16.30222
152.7887, 17.16254
153.2708, 18.08882
153.7529, 19.07947
154.2351, 20.03506
154.7172, 20.93312
155.1993, 21.43796
155.6814, 22.31712
156.1635, 23.82256
156.6456, 25.65199
157.1278, 27.45355
157.6099, 29.05034
158.0920, 30.47276
158.5741, 31.88243
159.0562, 33.13786
159.5383, 34.57755
160.0205, 36.39333
160.5026, 38.44049
160.9847, 40.43752
161.4668, 42.23210
161.9489, 43.82790
162.4310, 45.28171
162.9131, 46.42761
163.3953, 47.59450
163.8774, 49.02798
164.3595, 50.69916
164.8416, 52.30389
165.3237, 53.62784
165.8058, 54.75409
166.2880, 55.90950
166.7701, 57.27690
167.2522, 58.56128
167.7343, 59.45656
168.2164, 59.95879
168.6985, 60.08377
169.1807, 59.61462
169.6628, 58.82793
170.1449, 58.04935
170.6270, 57.53195
171.1091, 57.02373
171.5912, 55.91457
172.0734, 53.99768
172.5555, 51.80560
173.0376, 49.45969
173.5197, 47.02940
174.0018, 44.58351
174.4839, 42.14565
174.9661, 39.73688
175.4482, 37.54610
175.9303, 36.08811
176.4124, 34.24358
176.8945, 31.47810
177.3766, 28.13901
177.8588, 24.86032
178.3409, 22.08447
178.8230, 19.80933
179.3051, 17.62889
179.7872, 15.62161
180.2693, 13.62668
180.7515, 11.50243
181.2336, 9.335075
181.7157, 7.372040
182.1978, 5.843178
182.6799, 4.804626
183.1620, 3.673042
183.6441, 2.274437
184.1263, 0.9534230
184.6084, 9.5734000E-02
185.0905, 0.8849260
185.5726, 1.564774
186.0547, 2.274033
186.5368, 3.023659
187.0190, 3.611389
187.5011, 4.072716
187.9832, 4.353394
188.4653, 4.364685
188.9474, 4.104446
189.4296, 3.727730
189.9117, 3.344231
190.3938, 2.957939
190.8759, 2.638733
191.3580, 2.442238
191.8401, 2.294472
192.3223, 2.106316
192.8044, 1.859802
193.2865, 1.613251
193.7686, 1.483688
194.2507, 1.420593
194.7328, 1.231712
195.2150, 0.8041000
195.6971, 0.2201310
196.1792, 0.3778530
196.6613, 1.006104
197.1434, 1.583511
197.6255, 2.121811
198.1077, 2.585213
198.5898, 2.842728
199.0719, 2.637970
199.5540, 2.121910
200.0361, 1.975159
200.5182, 2.421501
201.0004, 2.972610
201.4825, 3.414284
201.9646, 3.746895
202.4467, 3.975204
202.9288, 4.073860
203.4109, 4.051666
203.8930, 4.047424
204.3752, 4.017776
204.8573, 4.064087
205.3394, 4.353813
205.8215, 4.765488
206.3036, 5.009903
206.7857, 4.776367
207.2679, 4.024933
207.7500, 3.581841
208.2321, 3.775795
208.7142, 3.996033
209.1963, 4.020721
209.6784, 3.899666
210.1606, 3.828056
210.6427, 4.010239
211.1248, 4.503456
211.6069, 4.725929
212.0890, 4.461327
212.5711, 4.156403
213.0533, 3.920685
213.5354, 3.791161
214.0175, 3.797920
214.4996, 3.986389
214.9817, 4.395508
215.4638, 4.717705
215.9460, 4.912476
216.4281, 5.079269
216.9102, 5.255951
217.3923, 5.448418
217.8744, 5.654526
218.3565, 5.872917
218.8387, 6.105362
219.3208, 6.339218
219.8029, 6.514565
220.2850, 6.737991
220.7671, 7.058792
221.2492, 7.484482
221.7314, 8.025085
222.2135, 8.718971
222.6956, 9.576988
223.1777, 10.33840
223.6598, 10.76121
224.1419, 11.26334
224.6240, 12.26647
225.1062, 13.76642
225.5883, 15.23958
226.0704, 16.17246
226.5525, 16.65756
227.0346, 17.49258
227.5167, 18.90014
227.9989, 20.56790
228.4810, 22.19951
228.9631, 23.77493
229.4452, 25.43960
229.9273, 27.29991
230.4094, 29.33025
230.8916, 31.46648
231.3737, 33.48641
231.8558, 35.72042
232.3379, 38.66370
232.8200, 42.40532
233.3021, 46.22162
233.7843, 49.52827
234.2664, 52.65152
234.7485, 56.09804
235.2306, 59.97903
235.7127, 64.25123
236.1948, 68.97841
236.6770, 74.29771
237.1591, 79.61752
237.6412, 84.59825
238.1233, 89.44327
238.6054, 94.40146
239.0875, 99.54066
239.5697, 104.8288
240.0518, 110.2131
240.5339, 115.7525
241.0160, 121.2822
241.4981, 126.8311
241.9802, 132.2943
242.4624, 137.6167
242.9445, 142.8247
243.4266, 147.6784
243.9087, 151.7755
244.3908, 155.0936
244.8729, 157.6406
245.3550, 159.1271
245.8372, 160.0802
246.3193, 160.7785
246.8014, 161.2998
247.2835, 161.9657
247.7656, 163.3606
248.2477, 165.6560
248.7299, 168.3114
249.2120, 170.5943
249.6941, 173.4716
250.1762, 177.8517
250.6583, 184.0023
251.1404, 191.2325
251.6226, 198.3983
252.1047, 205.0319
252.5868, 212.6525
253.0689, 221.7694
253.5510, 231.5279
254.0331, 241.3851
254.5153, 251.1606
254.9974, 261.0786
255.4795, 271.6481
255.9616, 283.3673
256.4437, 294.5753
256.9258, 305.4189
257.4080, 315.7194
257.8901, 325.4987
258.3722, 334.7005
258.8543, 343.2201
259.3364, 351.0881
259.8185, 359.1074
260.3007, 364.1112
260.7828, 365.8445
261.2649, 365.5244
261.7470, 363.9457
262.2291, 361.1559
262.7112, 356.6263
263.1934, 349.6065
263.6755, 339.4919
264.1576, 328.8344
264.6397, 317.5466
265.1218, 305.9471
265.6039, 293.9927
266.0861, 281.8662
266.5682, 269.9757
267.0503, 258.6934
267.5324, 248.0040
268.0145, 238.3457
268.4966, 229.8876
268.9788, 222.0383
269.4609, 214.3893
269.9430, 207.0913
270.4251, 200.6862
270.9072, 195.6367
271.3893, 192.0149
271.8715, 188.9124
272.3536, 186.3649
272.8357, 184.2113
273.3178, 182.2462
273.7999, 180.6144
274.2820, 179.7814
274.7642, 180.1675
275.2463, 181.6410
275.7284, 182.4809
276.2105, 182.5178
276.6926, 182.2634
277.1747, 181.8972
277.6568, 181.3664
278.1389, 180.6924
278.6211, 180.0149
279.1032, 179.0210
279.5853, 176.1942
280.0674, 170.8296
280.5495, 164.8901
281.0316, 158.7115
281.5138, 152.3015
281.9959, 145.5214
282.4780, 138.2293
282.9601, 130.8123
283.4422, 124.4544
283.9243, 119.1529
284.4065, 114.6094
284.8886, 110.9096
285.3707, 107.8987
285.8528, 105.3684
286.3349, 103.2520
286.8170, 101.5739
287.2992, 100.4351
287.7813, 99.92612
288.2634, 99.58722
288.7455, 99.46227
289.2276, 99.43147
289.7097, 99.47866
290.1919, 99.61784
290.6740, 99.47287
291.1561, 98.42177
291.6382, 96.31116
292.1203, 94.52174
292.6024, 93.65192
293.0846, 92.89981
293.5667, 91.46999
294.0488, 89.25658
294.5309, 86.68732
295.0130, 84.16693
295.4951, 81.66746
295.9773, 78.74435
296.4594, 74.98275
296.9415, 71.07898
297.4236, 67.58364
297.9057, 64.50960
298.3878, 61.48857
298.8700, 58.20225
299.3521, 54.76181
299.8342, 51.75284
300.3163, 49.63147
300.7984, 47.54220
301.2805, 44.83040
301.7627, 41.64897
302.2448, 38.68221
302.7269, 36.31422
303.2090, 34.38039
303.6911, 32.32165
304.1732, 30.00758
304.6554, 27.77651
305.1375, 25.70788
305.6196, 23.83080
306.1017, 22.28522
306.5838, 21.21933
307.0659, 20.33784
307.5481, 19.01121
308.0302, 17.10129
308.5123, 15.38171
308.9944, 14.15853
309.4765, 13.27731
309.9586, 12.49702
310.4408, 11.75981
310.9229, 11.11808
311.4050, 10.79359
311.8871, 10.82614
312.3692, 10.40888
312.8513, 8.841751
313.3335, 6.991241
313.8156, 5.980316
314.2977, 5.996071
314.7798, 6.234123
315.2619, 5.999580
315.7440, 5.300476
316.2262, 4.513756
316.7083, 3.458916
317.1904, 2.475044
317.6725, 1.899803
318.1546, 1.717018
318.6367, 1.602066
319.1188, 1.342247
319.6010, 0.9762800
320.0831, 0.6968310
320.5652, 0.5733340
321.0473, 0.4626620
321.5294, 0.2625050
322.0115, 4.2719999E-03
322.4937, 0.1748890
322.9758, 0.1522450
323.4579, 8.2474001E-02
323.9400, 0.3997420
324.4221, 1.351379
324.9042, 2.095337
325.3864, 2.152679
325.8685, 1.827141
326.3506, 1.743767
326.8327, 2.145119
327.3148, 2.664932
327.7969, 2.685272
328.2791, 2.135437
328.7612, 1.632576
329.2433, 1.193016
329.7254, 0.9029310
330.2075, 0.9606930
330.6896, 1.400742
331.1718, 1.848701
331.6539, 1.904228
332.1360, 1.528229
332.6181, 1.264137
333.1002, 1.306511
333.5823, 1.332184
334.0645, 1.024178
334.5466, 0.4226530
335.0287, 0.1025620
335.5108, 0.2561720
335.9929, 0.1078190
336.4750, 0.1883540
336.9572, 0.5440900
337.4393, 1.046402
337.9214, 1.745361
338.4035, 2.554184
338.8856, 3.245476
339.3677, 3.694031
339.8499, 4.006638
340.3320, 4.478722
340.8141, 5.201576
341.2962, 5.889191
341.7783, 6.406471
342.2604, 6.888626
342.7426, 7.480858
343.2247, 8.222046
343.7068, 9.140221
344.1889, 10.30637
344.6710, 11.86998
345.1531, 13.24368
345.6353, 14.17054
346.1174, 15.07298
346.5995, 16.27260
347.0816, 17.78430
347.5637, 19.45098
348.0458, 21.09634
348.5280, 22.71688
349.0101, 24.68410
349.4922, 27.13810
349.9743, 29.73028
350.4564, 32.25763
350.9385, 34.78580
351.4207, 37.48682
351.9028, 40.44064
352.3849, 43.65025
352.8670, 47.18326
353.3491, 51.28513
353.8312, 55.39429
354.3134, 59.12505
354.7955, 62.94739
355.2776, 67.56369
355.7597, 73.19049
356.2418, 79.29897
356.7239, 85.02558
357.2061, 89.95612
357.6882, 95.42548
358.1703, 101.5122
358.6524, 107.9217
359.1345, 114.5177
359.6166, 121.2768
360.0987, 128.0882
360.5808, 134.8582
361.0630, 141.5518
361.5451, 148.5466
362.0272, 156.5471
362.5093, 164.0564
362.9914, 170.5160
363.4735, 176.1501
363.9557, 181.3571
364.4378, 186.4218
364.9199, 191.2209
365.4020, 195.2856
365.8841, 199.4254
366.3662, 201.4772
366.8484, 200.9819
367.3305, 198.5339
367.8126, 194.6455
368.2947, 189.5147
368.7768, 183.0996
369.2589, 175.1889
369.7411, 165.4342
370.2232, 155.0858
370.7053, 143.7772
371.1874, 132.2483
371.6695, 120.4081
372.1516, 108.5567
372.6338, 97.22549
373.1159, 86.85407
373.5980, 77.46275
374.0801, 69.23606
374.5622, 62.90635
375.0443, 56.92149
375.5265, 50.57293
376.0086, 44.23201
376.4907, 38.55971
376.9728, 33.87151
377.4549, 29.94884
377.9370, 26.25220
378.4192, 22.65018
378.9013, 19.67149
379.3834, 17.83153
379.8655, 16.43194
380.3476, 15.01350
380.8297, 13.48763
381.3119, 11.89967
381.7940, 10.20821
382.2761, 8.380905
382.7582, 6.749237
383.2403, 5.381874
383.7224, 4.334618
384.2046, 3.654922
384.6867, 3.245415
385.1688, 2.837151
385.6509, 2.210144
386.1330, 1.578514
386.6151, 1.408195
387.0973, 1.808716
387.5794, 2.242317
388.0615, 2.267853
388.5436, 2.133080
389.0257, 2.250671
389.5078, 2.840569
389.9900, 3.528046
390.4721, 3.837181
390.9542, 3.829079
391.4363, 4.136909
391.9184, 5.059982
392.4005, 6.340225
392.8827, 7.620430
393.3648, 8.886185
393.8469, 10.08718
394.3290, 11.03543
394.8111, 11.97061
395.2932, 13.31196
395.7754, 15.15525
396.2575, 17.14392
396.7396, 19.00048
397.2217, 20.73399
397.7038, 22.49777
398.1859, 24.09852
398.6681, 25.92574
399.1501, 28.41163
399.6323, 31.38760
400.1144, 34.31372
400.5965, 36.99472
401.0786, 39.33118
401.5607, 40.93973
402.0428, 41.72713
402.5250, 42.10051
403.0071, 42.37875
403.4892, 42.16397
403.9713, 40.89847
404.4534, 38.48941
404.9355, 35.38404
405.4177, 32.05233
405.8998, 28.47240
406.3819, 24.85483
406.8640, 20.95084
407.3461, 17.26272
407.8282, 13.88565
408.3104, 10.91267
408.7925, 8.546043
409.2746, 6.930794
409.7567, 5.907112
410.2388, 4.696503
410.7209, 2.858368
411.2031, 1.423988
411.6852, 0.6381610
412.1673, 0.1949310
412.6494, 0.1201630
413.1315, 0.3959810
413.6136, 0.7268980
414.0958, 1.322601
414.5779, 2.374756
415.0600, 2.928070
415.5421, 2.522606
416.0242, 2.029160
416.5063, 1.736046
416.9885, 1.624573
417.4706, 1.590675
417.9527, 1.599075
418.4348, 1.606483
418.9169, 1.444595
419.3990, 1.027367
419.8812, 0.6301730
420.3633, 0.3660960
420.8454, 0.1452640
421.3275, 0.1180420
421.8096, 0.4451220
422.2917, 0.7760010
422.7739, 1.008415
423.2560, 1.152443
423.7381, 1.430420
424.2202, 1.900856
424.7023, 2.483650
425.1844, 3.095695
425.6666, 3.751381
426.1487, 4.515488
426.6308, 5.555954
427.1129, 6.658165
427.5950, 7.449493
428.0771, 7.914398
428.5593, 8.382690
429.0414, 8.970268
429.5235, 9.711380
430.0056, 10.62977
430.4877, 11.76286
430.9698, 12.99270
431.4520, 14.39150
431.9341, 15.82189
432.4162, 16.96086
432.8983, 17.69411
433.3804, 18.32391
433.8625, 19.09673
434.3447, 19.98914
434.8268, 21.52118
435.3089, 24.31150
435.7910, 27.23479
436.2731, 29.51971
436.7552, 31.26648
437.2374, 32.92612
437.7195, 34.72260
438.2016, 36.69940
438.6837, 39.00143
439.1658, 41.86134
439.6479, 44.76423
440.1301, 47.46508
440.6122, 50.30621
441.0943, 53.70401
441.5764, 57.67247
442.0585, 61.79327
442.5406, 65.51157
443.0227, 68.71645
443.5049, 72.40401
443.9870, 76.65047
444.4691, 81.30554
444.9512, 86.47942
445.4333, 91.97810
445.9154, 97.62143
446.3976, 103.2980
446.8797, 108.9336
447.3618, 114.3252
447.8439, 119.3574
448.3260, 124.4772
448.8081, 129.8730
449.2903, 135.3358
449.7724, 140.9644
450.2545, 146.6566
450.7366, 151.8483
451.2187, 155.9371
451.7008, 159.1342
452.1830, 162.2922
452.6651, 165.5810
453.1472, 168.4026
453.6293, 170.5505
454.1114, 171.9615
454.5935, 172.3874
455.0757, 171.6781
455.5578, 170.1555
456.0399, 167.9429
456.5220, 165.1072
457.0041, 161.8894
457.4862, 158.3378
457.9684, 154.4526
458.4505, 150.0938
458.9326, 145.2763
459.4147, 140.5258
459.8968, 136.1028
460.3789, 131.6845
460.8611, 126.8361
461.3432, 121.6560
461.8253, 116.7840
462.3074, 112.6438
462.7895, 109.0438
463.2716, 105.0761
463.7538, 100.2401
464.2359, 95.71658
464.7180, 91.60994
465.2001, 87.85080
465.6822, 84.48401
466.1643, 81.45033
466.6465, 78.49719
467.1286, 75.32235
467.6107, 71.84200
468.0928, 68.69841
468.5749, 66.15742
469.0570, 63.67174
469.5392, 61.04058
470.0213, 58.39423
470.5034, 55.94661
470.9855, 53.79739
471.4676, 51.85297
471.9497, 49.96361
472.4319, 48.12276
472.9140, 46.25713
473.3961, 44.46775
473.8782, 42.67748
474.3603, 40.71481
474.8424, 38.68829
475.3246, 36.89146
475.8067, 35.58765
476.2888, 34.60042
476.7709, 33.48448
477.2530, 32.26599
477.7351, 31.15392
478.2173, 30.21941
478.6994, 29.40305
479.1815, 28.64505
479.6636, 27.96303
480.1457, 27.29066
480.6278, 26.57194
481.1100, 25.87611
481.5920, 25.24448
482.0742, 24.67077
482.5563, 24.33952
483.0384, 24.52823
483.5205, 25.21614
484.0026, 25.44563
484.4847, 24.74283
484.9669, 24.11786
485.4490, 23.98669
485.9311, 24.19420
486.4132, 24.46520
486.8953, 24.70775
487.3774, 24.95830
487.8596, 25.27296
488.3417, 25.65932
488.8238, 26.05099
489.3059, 26.31546
489.7880, 26.64288
490.2701, 27.10046
490.7523, 27.72090
491.2344, 28.56552
491.7165, 29.68927
492.1986, 30.98754
492.6807, 32.20815
493.1628, 33.38082
493.6450, 34.36913
494.1271, 34.68658
494.6092, 35.14255
495.0913, 36.39610
495.5734, 38.41857
496.0555, 40.55900
496.5377, 42.37728
497.0198, 43.97966
497.5019, 45.65401
497.9840, 47.44063
498.4661, 49.14461
498.9482, 50.66419
499.4304, 52.03608
499.9125, 53.36118
500.3946, 54.71172
500.8767, 55.87027
501.3588, 56.69234
501.8409, 57.26701
502.3231, 57.77766
502.8052, 58.26132
503.2873, 58.61417
503.7694, 58.77530
504.2515, 58.73721
504.7336, 58.24883
505.2158, 57.24759
505.6979, 55.92633
506.1800, 54.21776
506.6621, 52.27183
507.1442, 50.36168
507.6263, 48.57416
508.1085, 46.68002
508.5906, 44.28181
509.0727, 41.15296
509.5548, 38.33056
510.0369, 35.93430
510.5190, 33.73440
511.0012, 31.69272
511.4833, 29.77110
511.9654, 27.91040
512.4475, 26.07024
512.9296, 24.30292
513.4117, 22.74414
513.8939, 21.42590
514.3760, 20.00835
514.8581, 18.24473
515.3402, 16.53040
515.8223, 15.17261
516.3044, 14.15253
516.7866, 13.31915
517.2687, 12.78082
517.7508, 12.29197
518.2329, 11.45784
518.7150, 10.30671
519.1971, 9.274452
519.6793, 8.577286
520.1614, 8.107452
520.6435, 7.655579
521.1256, 7.223732
521.6077, 6.792267
522.0898, 6.409500
522.5720, 5.992004
523.0541, 5.391182
523.5362, 4.659103
524.0183, 4.048988
524.5004, 3.761261
524.9825, 3.729858
525.4647, 3.605873
525.9468, 3.355743
526.4289, 3.054802
526.9110, 2.635155
527.3931, 2.220291
527.8752, 1.889893
528.3574, 1.665512
528.8395, 1.561508
529.3216, 1.673721
529.8037, 1.931587
530.2858, 1.872513
530.7679, 1.388329
531.2501, 0.8379750
531.7322, 0.1722260
532.2143, 0.3820340
532.6964, 0.4778980
533.1785, 1.5663000E-02
533.6606, 0.4088970
534.1428, 4.3396000E-02
534.6249, 0.7043150
535.1070, 0.9839020
535.5891, 0.6631010
536.0712, 0.1925810
536.5533, 0.1638410
537.0355, 0.3810350
537.5176, 0.3572080
537.9997, 0.1413350
538.4818, 0.5727390
538.9639, 0.7502140
539.4460, 0.7941820
539.9282, 0.8439250
540.4103, 0.9325640
540.8924, 1.034805
541.3745, 1.135750
541.8566, 1.238953
542.3387, 1.218712
542.8209, 1.005852
543.3029, 0.7422100
543.7850, 0.2431640
544.2672, 0.1896820
544.7493, 9.3399003E-02
545.2314, 0.6220320
545.7135, 1.357376
546.1956, 1.352234
546.6777, 0.6830830
547.1599, 0.2573930
547.6420, 0.1696550
548.1241, 0.2258150
548.6062, 0.4209370
549.0883, 0.6569290
549.5704, 0.7674940
550.0526, 0.6951290
550.5347, 0.5569610
551.0168, 0.3849560
551.4989, 0.2070080
551.9810, 0.1147690
552.4631, 0.1308440
552.9453, 9.3689002E-02
553.4274, 0.1767120
553.9095, 0.6823270
554.3916, 1.020470
554.8737, 1.139496
555.3558, 1.180428
555.8380, 0.9806370
556.3201, 0.8151470
556.8022, 1.124619
557.2843, 1.970566
557.7664, 2.877113
558.2485, 3.260117
558.7307, 3.093315
559.2128, 3.110321
559.6949, 3.400726
560.1770, 3.757080
560.6591, 4.109741
561.1412, 4.479729
561.6234, 4.895264
562.1055, 5.363251
562.5876, 5.870735
563.0697, 6.475609
563.5518, 7.115486
564.0339, 7.515808
564.5161, 7.584236
564.9982, 7.739449
565.4803, 8.334404
565.9624, 9.270187
566.4445, 10.05569
566.9266, 10.53035
567.4088, 11.08320
567.8909, 11.82729
568.3730, 12.73124
568.8551, 13.81382
569.3372, 15.04587
569.8193, 16.29097
570.3015, 17.39735
570.7836, 18.38105
571.2657, 19.48273
571.7478, 20.92506
572.2299, 22.18587
572.7120, 23.06858
573.1942, 23.81978
573.6763, 24.72185
574.1584, 25.79369
574.6405, 26.74905
575.1226, 27.28275
575.6047, 27.48647
576.0869, 27.77861
576.5690, 28.22243
577.0511, 28.49003
577.5332, 28.42865
578.0153, 28.08035
578.4974, 27.49317
578.9796, 26.59283
579.4617, 25.79575
579.9438, 25.44122
580.4259, 25.16455
580.9080, 24.49015
581.3901, 23.43620
581.8723, 22.34438
582.3544, 21.41041
582.8365, 20.63631
583.3186, 20.02336
583.8007, 19.60095
584.2828, 19.30907
584.7650, 19.21866
585.2471, 19.18819
585.7292, 19.13146
586.2113, 19.04980
586.6934, 18.96961
587.1755, 18.88309
587.6577, 18.85366
588.1398, 19.07532
588.6219, 19.59612
589.1040, 20.02031
589.5861, 20.13054
590.0682, 20.22405
590.5504, 20.60854
591.0325, 21.29350
591.5146, 22.09241
591.9967, 23.05863
592.4788, 23.96494
592.9609, 24.59000
593.4431, 25.07558
593.9252, 25.75247
594.4073, 26.72586
594.8894, 27.87395
595.3715, 29.04174
595.8536, 30.17415
596.3358, 31.48750
596.8179, 33.22678
597.3000, 34.88474
597.7821, 36.27010
598.2642, 37.46723
598.7463, 38.62727
599.2285, 39.80230
599.7106, 40.89896
600.1927, 41.73277
600.6748, 42.33641
601.1569, 43.25014
601.6390, 44.65417
602.1212, 46.06435
602.6033, 47.22570
603.0854, 48.13192
603.5675, 48.75441
604.0496, 49.04936
604.5317, 49.41980
605.0139, 50.07196
605.4960, 50.86191
605.9781, 51.54131
606.4602, 52.10028
606.9423, 52.79391
607.4244, 53.79237
607.9066, 55.10867
608.3887, 56.77448
608.8708, 58.87820
609.3529, 61.23740
609.8350, 63.77031
610.3171, 66.58926
610.7993, 69.78167
611.2814, 73.35611
611.7635, 77.25102
612.2456, 81.44410
612.7277, 85.92138
613.2098, 90.77276
613.6920, 96.06301
614.1741, 101.2466
614.6562, 106.1327
615.1383, 110.9886
615.6204, 116.2576
616.1025, 121.8454
616.5847, 127.0728
617.0668, 131.7424
617.5489, 136.0653
618.0310, 140.3505
618.5131, 144.3497
618.9952, 147.7450
619.4774, 150.4159
619.9595, 151.9703
620.4416, 151.9338
620.9237, 150.2614
621.4058, 147.6786
621.8879, 144.1484
622.3701, 139.6566
622.8522, 133.8529
623.3343, 127.3217
623.8164, 120.5518
624.2985, 113.6970
624.7806, 106.8885
625.2628, 100.2706
625.7448, 93.80930
626.2269, 87.37729
626.7090, 80.93432
627.1912, 74.89488
627.6733, 69.41897
628.1554, 64.37625
628.6375, 59.54920
629.1196, 54.88585
629.6017, 50.70612
630.0839, 47.25616
630.5660, 44.12486
631.0481, 40.97194
631.5302, 37.86823
632.0123, 35.08102
632.4944, 32.76053
632.9766, 30.76784
633.4587, 28.88183
633.9408, 27.10132
634.4229, 25.44204
634.9050, 23.86894
635.3871, 22.46162
635.8693, 21.35006
636.3514, 20.37994
636.8335, 19.29231
637.3156, 17.98859
637.7977, 16.70341
638.2798, 15.57620
638.7620, 14.61702
639.2441, 13.89811
639.7262, 13.38316
640.2083, 12.76848
640.6904, 11.85019
641.1725, 10.78072
641.6547, 10.05217
642.1368, 10.03453
642.6189, 9.822975
643.1010, 9.245968
643.5831, 8.645947
644.0652, 8.229591
644.5474, 7.930191
645.0295, 7.605915
645.5116, 7.184090
645.9937, 6.722515
646.4758, 6.294502
646.9579, 5.900135
647.4401, 5.618828
647.9222, 5.548157
648.4043, 5.409069
648.8864, 4.853664
649.3685, 4.059326
649.8506, 3.609951
650.3328, 3.749580
650.8149, 3.911430
651.2970, 3.934811
651.7791, 3.839344
652.2612, 3.586578
652.7433, 3.214855
653.2255, 2.907856
653.7076, 2.816879
654.1897, 2.861443
654.6718, 2.723438
655.1539, 2.299095
655.6360, 1.942410
656.1182, 1.670116
656.6003, 1.531952
657.0824, 1.592625
657.5645, 1.777256
658.0466, 1.946377
658.5287, 2.100300
659.0109, 2.161278
659.4930, 1.997208
659.9751, 1.674747
660.4572, 1.329113
660.9393, 0.9851950
661.4214, 0.8053250
661.9036, 0.9734950
662.3857, 1.445618
662.8678, 1.736977
663.3499, 1.830498
663.8320, 1.762119
664.3141, 1.400574
664.7963, 0.9767190
665.2784, 0.6342580
665.7605, 0.4017940
666.2426, 0.2910460
666.7247, 0.3522490
667.2068, 0.4652370
667.6890, 0.3391460
668.1711, 1.3760000E-02
668.6532, 0.1137350
669.1353, 0.2255900
669.6174, 0.6523210
670.0995, 0.8781320
670.5817, 0.8992040
671.0638, 0.7766720
671.5459, 0.2455410
672.0280, 0.1039470
672.5101, 9.0801001E-02
672.9922, 0.4602810
673.4744, 0.5938220
673.9565, 0.4579730
674.4386, 0.2800830
674.9207, 0.2354470
675.4028, 0.2722700
675.8849, 0.1936990
676.3671, 5.4722000E-02
676.8492, 0.1680950
677.3313, 3.3040000E-03
677.8134, 0.2188150
678.2955, 0.3371350
678.7776, 0.3664050
679.2598, 0.3546370
679.7419, 0.3018880
680.2240, 0.2248150
680.7061, 4.5196999E-02
681.1882, 0.1184810
681.6703, 3.0940000E-03
682.1525, 0.3942600
682.6346, 0.7436410
683.1167, 0.7752080
683.5988, 0.5334820
684.0809, 0.2000890
684.5630, 0.4110260
685.0452, 0.7046280
685.5273, 0.2981110
686.0094, 0.1836280
686.4915, 0.4586030
686.9736, 0.5116620
687.4557, 0.3369710
687.9379, 0.2261350
688.4200, 0.7365720
688.9021, 0.7167470
689.3842, 0.3587460
689.8663, 7.6476999E-02
690.3484, 5.2623998E-02
690.8306, 4.5910001E-02
691.3127, 0.1078220
691.7948, 0.3665280
692.2769, 0.5210110
692.7590, 0.5216830
693.2411, 0.4917140
693.7233, 0.4630850
694.2054, 0.3835450
694.6875, 0.1094510
695.1696, 0.2369540
695.6517, 0.3181190
696.1339, 9.9166997E-02
696.6160, 0.5606650
697.0981, 0.4780770
697.5802, 1.1753000E-02
698.0623, 0.2599260
698.5444, 0.2410430
699.0266, 0.1568110
699.5087, 0.1687620
699.9908, 0.2336650
700.4729, 0.1848340
700.9550, 0.1964950
701.4371, 0.3528940
701.9193, 6.0982000E-02
702.4014, 0.2566990
702.8835, 0.3275790
703.3656, 0.2218590
703.8477, 0.1253660
704.3298, 0.1150890
704.8120, 0.1655690
705.2941, 0.3059840
705.7762, 0.4945110
706.2583, 0.4828610
706.7404, 0.2146300
707.2225, 2.0339999E-02
707.7046, 6.4765997E-02
708.1867, 4.4895001E-02
708.6688, 0.2421650
709.1509, 0.6312030
709.6331, 0.8377990
710.1152, 0.7049370
710.5973, 0.5120510
711.0794, 0.3745650
711.5615, 0.3091130
712.0436, 0.3716350
712.5258, 0.5749170
713.0079, 0.7052920
713.4900, 0.3946080
713.9721, 0.2381480
714.4542, 0.5108830
714.9363, 0.3629760
715.4185, 0.1016580
715.9006, 0.1853830
716.3827, 0.4575500
716.8648, 0.6422230
717.3469, 0.7325860
717.8290, 0.7904700
718.3112, 0.7866400
718.7933, 0.7877690
719.2754, 0.8921550
719.7575, 0.9954150
720.2396, 0.8802800
720.7217, 0.5268710
721.2039, 0.2378010
721.6860, 0.3517270
722.1681, 0.7600440
722.6502, 1.062290
723.1323, 1.266312
723.6144, 1.297115
724.0966, 1.062202
724.5787, 0.7467420
725.0608, 0.5552790
725.5429, 0.4840740
726.0250, 0.4590230
726.5071, 0.5582470
726.9893, 0.6100650
727.4714, 0.4198650
727.9535, 0.2206080
728.4356, 0.3151590
728.9177, 0.7041660
729.3998, 1.155266
729.8820, 1.530704
730.3641, 1.799610
730.8462, 1.842445
731.3283, 1.650215
731.8104, 1.434227
732.2925, 1.224155
732.7747, 1.015682
733.2568, 0.7443660
733.7389, 0.4659690
734.2210, 0.4461250
734.7031, 0.9119030
735.1852, 1.286884
735.6674, 1.412338
736.1495, 1.425835
736.6316, 1.414185
737.1137, 1.394207
737.5958, 1.361134
738.0779, 1.309616
738.5601, 1.268303
739.0422, 1.248764
739.5243, 1.270359
740.0064, 1.477318
740.4885, 1.943027
740.9706, 2.295547
741.4528, 2.291702
741.9349, 2.067410
742.4170, 1.898434
742.8991, 1.819485
743.3812, 1.738255
743.8633, 1.615349
744.3455, 1.485897
744.8276, 1.309395
745.3097, 1.168339
745.7918, 1.213306
746.2739, 1.453571
746.7560, 1.703903
747.2382, 1.771080
747.7203, 1.700256
748.2024, 1.597454
748.6845, 1.454323
749.1666, 1.406185
749.6487, 1.515820
750.1309, 1.675472
750.6130, 1.756027
751.0951, 1.751202
751.5772, 1.818665
752.0593, 2.097000
752.5414, 2.280209
753.0236, 2.214764
753.5057, 2.062069
753.9878, 1.943802
754.4699, 1.859608
754.9520, 1.821281
755.4341, 1.846024
755.9163, 1.896175
756.3984, 1.932030
756.8805, 1.969437
757.3626, 2.123158
757.8447, 2.425602
758.3268, 2.630199
758.8090, 2.521378
759.2911, 2.197258
759.7732, 1.985683
760.2553, 1.834145
760.7374, 1.864216
761.2195, 2.302139
761.7017, 2.670723
762.1838, 2.711609
762.6659, 2.547958
763.1480, 2.364250
763.6301, 2.208115
764.1122, 2.122768
764.5944, 2.145615
765.0765, 2.242466
765.5586, 2.398975
766.0407, 2.608742
766.5228, 2.794048
767.0049, 2.926071
767.4871, 3.025517
767.9692, 3.102337
768.4513, 3.151138
768.9334, 3.339699
769.4155, 3.835644
769.8976, 4.197556
770.3798, 4.256985
770.8619, 4.208733
771.3440, 4.161549
771.8261, 4.116276
772.3082, 4.111427
772.7903, 4.249863
773.2725, 4.371346
773.7546, 4.281651
774.2367, 4.115753
774.7188, 4.111103
775.2009, 4.284538
775.6830, 4.500935
776.1652, 4.672043
776.6473, 4.835030
777.1294, 5.101597
777.6115, 5.507813
778.0936, 5.771732
778.5757, 5.808475
779.0579, 5.825272
779.5400, 5.960499
780.0221, 6.136997
780.5042, 6.204445
780.9863, 6.125900
781.4684, 6.103508
781.9506, 6.305500
782.4327, 6.463863
782.9148, 6.374626
783.3969, 6.122238
783.8790, 5.812172
784.3611, 5.503487
784.8433, 5.335255
785.3254, 5.505615
785.8075, 5.878540
786.2896, 5.993519
786.7717, 5.858227
787.2538, 5.681122
787.7360, 5.499310
788.2181, 5.327862
788.7002, 5.165749
789.1823, 5.022160
789.6644, 4.983818
790.1465, 5.197731
790.6286, 5.301250
791.1107, 5.257240
791.5928, 5.103886
792.0750, 4.806107
792.5571, 4.434395
793.0392, 4.107983
793.5213, 3.871265
794.0034, 3.687870
794.4855, 3.556885
794.9677, 3.445351
795.4498, 3.274281
795.9319, 3.053768
796.4140, 2.891838
796.8961, 2.841728
797.3782, 2.807980
797.8604, 2.670101
798.3425, 2.427429
798.8246, 2.209942
799.3067, 2.033653
799.7888, 1.851082
800.2709, 1.532673
800.7531, 1.297932
801.2352, 1.432404
801.7173, 1.836555
802.1994, 2.004574
802.6815, 1.607861
803.1636, 1.237839
803.6458, 1.246445
804.1279, 1.422844
804.6100, 1.566544
805.0921, 1.635853
805.5742, 1.594944
806.0563, 1.416645
806.5385, 1.226727
807.0206, 1.275501
807.5027, 1.535572
807.9848, 1.610554
808.4669, 1.448971
808.9490, 1.299973
809.4312, 1.303993
809.9133, 1.332233
810.3954, 1.173954
810.8775, 0.7848280
811.3596, 0.5256920
811.8417, 0.3959120
812.3239, 0.3962750
812.8060, 0.6921880
813.2881, 0.9990230
813.7702, 1.023434
814.2523, 0.7900890
814.7344, 0.5285870
815.2166, 0.3131220
815.6987, 0.2001650
816.1808, 0.3741420
816.6629, 0.6917340
817.1450, 0.7988170
817.6271, 0.6767230
818.1093, 0.5772550
818.5914, 0.6515920
819.0735, 0.7863850
819.5556, 0.7546270
820.0377, 0.5251620
820.5198, 0.2997860
821.0020, 2.2297001E-02
821.4841, 0.1484150
821.9662, 9.9586003E-02
822.4483, 5.3020000E-02
822.9304, 0.2139240
823.4125, 0.3761980
823.8947, 0.4511150
824.3768, 0.2849880
824.8589, 0.1936450
825.3410, 0.4360010
825.8231, 0.7470820
826.3052, 0.7925680
826.7874, 0.6010400
827.2695, 0.4599230
827.7516, 0.5488820
828.2337, 0.6659580
828.7158, 0.4087790
829.1979, 7.7187002E-02
829.6801, 0.1126440
830.1622, 0.3599470
830.6443, 0.7876970
831.1264, 0.9019580
831.6085, 0.8234900
832.0906, 0.7454570
832.5728, 0.6792410
833.0549, 0.5545690
833.5370, 0.1843410
834.0191, 1.7740000E-03
834.5012, 0.2827950
834.9833, 0.6360470
835.4655, 0.7268030
835.9476, 0.5787200
836.4297, 0.4067840
836.9118, 0.2203030
837.3939, 0.1077310
837.8760, 0.2102970
838.3582, 0.3514020
838.8403, 0.2859690
839.3224, 6.0454998E-02
839.8045, 0.1153220
840.2866, 0.1429290
840.7687, 5.6240000E-02
841.2509, 0.1929050
841.7330, 0.5366480
842.2151, 0.4881630
842.6972, 2.6130001E-03
843.1793, 0.1937180
843.6614, 0.2515560
844.1436, 0.8404310
844.6257, 0.9646450
845.1078, 0.6213800
845.5899, 0.3904760
846.0720, 0.3064580
846.5541, 0.2964130
847.0363, 0.4305530
847.5184, 0.5611230
848.0005, 0.5939640
848.4826, 0.5534670
848.9647, 0.4933360
849.4468, 0.4077220
849.9290, 0.3638950
850.4111, 0.4229970
850.8932, 0.5199700
851.3753, 0.6392900
851.8574, 0.7321890
852.3395, 0.6862300
852.8217, 0.4810180
853.3038, 0.2302670
853.7859, 1.8082000E-02
854.2680, 0.1241530
854.7501, 5.0400000E-02
855.2322, 0.2350500
855.7144, 0.3872800
856.1965, 0.3110770
856.6786, 0.2166210
857.1607, 0.2505460
857.6428, 0.3935010
858.1249, 0.6006390
858.6071, 1.039543
859.0892, 1.175194
859.5713, 0.6660080
860.0534, 0.2509230
860.5355, 0.2541730
861.0176, 0.4576190
861.4998, 0.6213380
861.9819, 0.7339210
862.4640, 0.8062630
862.9461, 0.8004650
863.4282, 0.7429080
863.9103, 0.6198120
864.3925, 0.4993970
864.8746, 0.5062640
865.3567, 0.6140590
865.8388, 0.6341900
866.3209, 0.4309580
866.8030, 0.2014810
867.2852, 0.2891650
867.7673, 0.6426660
868.2494, 0.9235120
868.7315, 1.100006
869.2136, 1.169533
869.6957, 1.091328
870.1779, 1.003002
870.6600, 1.151852
871.1421, 1.549381
871.6242, 1.521931
872.1063, 0.6401210
872.5884, 8.4968999E-02
873.0705, 0.2669260
873.5526, 0.6413840
874.0347, 1.017570
874.5168, 1.323978
874.9990, 1.386574
875.4811, 1.080276
875.9632, 0.8065300
876.4453, 0.6893310
876.9274, 0.6649440
877.4095, 0.7267570
877.8917, 0.8498500
878.3738, 1.015965
878.8559, 1.203426
879.3380, 1.322010
879.8201, 1.256870
880.3022, 1.137444
880.7844, 1.185352
881.2665, 1.363037
881.7486, 1.533070
882.2307, 1.670540
882.7128, 1.801342
883.1949, 1.955368
883.6771, 2.098862
884.1592, 2.171291
884.6413, 2.198578
885.1234, 2.116039
885.6055, 1.882088
886.0876, 1.638699
886.5698, 1.360603
887.0519, 1.162289
887.5340, 1.232109
888.0161, 1.553555
888.4982, 1.778873
888.9803, 2.003242
889.4625, 1.980949
889.9446, 1.349022
890.4267, 0.7594870
890.9088, 0.7194860
891.3909, 1.045635
891.8730, 1.354809
892.3552, 1.550774
892.8373, 1.641216
893.3194, 1.538460
893.8015, 1.408669
894.2836, 1.454147
894.7657, 1.604748
895.2479, 1.734325
895.7300, 1.800579
896.2121, 1.748928
896.6942, 1.517803
897.1763, 1.211334
897.6584, 1.021618
898.1406, 0.9494170
898.6227, 1.012196
899.1048, 1.225445
899.5869, 1.385201
900.0690, 1.400330
900.5511, 1.283047
901.0333, 1.005543
901.5154, 0.5693240
901.9975, 0.4696080
902.4796, 0.9588740
902.9617, 1.307705
903.4438, 1.283875
903.9260, 1.174675
904.4081, 1.194088
904.8902, 1.278542
905.3723, 1.233643
905.8544, 0.9366650
906.3365, 0.8029440
906.8187, 1.162472
907.3008, 1.470612
907.7829, 1.314053
908.2650, 0.9480440
908.7471, 0.7379680
909.2292, 0.7354350
909.7114, 0.7574690
910.1935, 0.7070240
910.6756, 0.6171340
911.1577, 0.4771500
911.6398, 0.3377190
912.1219, 0.3111720
912.6041, 0.3980640
913.0862, 0.4967990
913.5683, 0.5527950
914.0504, 0.5688210
914.5325, 0.5465970
915.0146, 0.4912870
915.4968, 0.4072230
915.9789, 0.2916640
916.4610, 0.2461550
916.9431, 0.3050350
917.4252, 0.4008180
917.9073, 0.5064890
918.3895, 0.5822330
918.8716, 0.4452400
919.3537, 0.1017300
919.8358, 0.3553310
920.3179, 9.9349998E-02
920.8000, 0.1397130
921.2822, 0.1255950
921.7643, 8.7590003E-03
922.2464, 7.8544997E-02
922.7285, 0.1298480
923.2106, 9.8384999E-02
923.6927, 0.2234500
924.1749, 0.3523140
924.6570, 1.7918000E-02
925.1391, 0.4768180
925.6212, 0.7929000
926.1033, 0.9206160
926.5854, 0.7693330
927.0676, 0.3030130
927.5497, 0.1002500
928.0318, 0.1342540
928.5139, 3.6860999E-02
928.9960, 4.1172002E-02
929.4781, 9.8213002E-02
929.9603, 0.1079250
930.4424, 4.0957998E-02
930.9245, 7.5709999E-02
931.4066, 0.2446980
931.8887, 0.4245150
932.3708, 0.5728840
932.8530, 0.6747550
933.3351, 0.6119580
933.8172, 0.3959470
934.2993, 0.2978900
934.7814, 0.4240000
935.2635, 0.6461030
935.7457, 0.8474310
936.2278, 1.009789
936.7099, 0.9974820
937.1920, 0.7503660
937.6741, 0.6090320
938.1563, 0.6652150
938.6384, 0.7058030
939.1205, 0.5628240
939.6026, 0.3746490
940.0847, 0.4362490
940.5668, 0.8441700
941.0490, 0.9312820
941.5311, 0.3531150
942.0132, 6.2756002E-02
942.4953, 4.9660001E-02
942.9774, 7.5668000E-02
943.4595, 0.1130410
943.9417, 7.0010997E-02
944.4238, 8.0570001E-03
944.9059, 0.1341780
945.3880, 0.2173310
945.8701, 0.1225660
946.3522, 8.4328003E-02
946.8344, 0.4058840
947.3165, 0.7969670
947.7986, 0.7189030
948.2807, 0.2299690
948.7628, 6.7653999E-02
949.2449, 0.7751540
949.7271, 1.568138
950.2092, 1.636158
950.6913, 1.340691
951.1734, 1.134388
951.6555, 1.093754
952.1376, 1.340218
952.6198, 1.890621
953.1019, 2.486465
953.5840, 2.917812
954.0661, 3.176018
954.5482, 3.105545
955.0303, 2.796127
955.5124, 2.933098
955.9945, 3.613960
956.4766, 4.245605
956.9587, 4.500511
957.4409, 4.602451
957.9230, 4.915764
958.4051, 5.438068
958.8872, 5.865166
959.3693, 6.149548
959.8514, 6.532757
960.3336, 7.126793
960.8157, 7.726784
961.2978, 8.161373
961.7799, 8.497295
962.2620, 8.913204
962.7441, 9.385155
963.2263, 10.00973
963.7084, 10.85663
964.1905, 11.75723
964.6726, 12.57078
965.1547, 13.49943
965.6368, 14.83061
966.1190, 16.45895
966.6011, 17.87970
967.0832, 18.89288
967.5653, 19.99690
968.0474, 21.26215
968.5295, 22.68257
969.0117, 24.11366
969.4938, 25.77050
969.9759, 28.04315
970.4580, 30.89826
970.9401, 33.70808
971.4222, 36.01897
971.9044, 38.48539
972.3865, 41.45768
972.8686, 44.84230
973.3507, 48.60155
973.8328, 52.65477
974.3149, 56.86576
974.7971, 61.19161
975.2792, 65.71004
975.7613, 70.37481
976.2434, 75.34738
976.7255, 81.12854
977.2076, 87.25816
977.6898, 92.81138
978.1719, 97.81900
978.6540, 102.7943
979.1361, 107.9980
979.6182, 113.1449
980.1003, 118.1202
980.5825, 122.7058
981.0646, 126.2530
981.5467, 128.6932
982.0288, 129.2663
982.5109, 127.8069
982.9930, 124.9151
983.4752, 120.9577
983.9573, 116.0256
984.4394, 110.1045
984.9215, 103.2150
985.4036, 96.67126
985.8857, 90.48040
986.3679, 84.44514
986.8500, 78.45782
987.3321, 72.74136
987.8142, 67.43025
988.2963, 62.55894
988.7784, 58.23623
989.2606, 54.48616
989.7427, 51.25256
990.2248, 48.61029
990.7069, 46.35081
991.1890, 44.47316
991.6711, 42.89197
992.1533, 41.40499
992.6354, 40.08426
993.1175, 39.45898
993.5996, 39.87702
994.0817, 40.36734
994.5638, 40.89477
995.0460, 41.55927
995.5281, 42.18928
996.0102, 43.08910
996.4923, 44.64834
996.9744, 46.84047
997.4565, 49.23228
997.9387, 51.58400
998.4208, 54.32921
998.9029, 57.63964
999.3850, 61.37360
999.8671, 65.26236
1000.349, 69.51876
1000.831, 74.33664
1001.313, 79.79724
1001.796, 86.13187
1002.278, 93.60258
1002.760, 101.6834
1003.242, 109.9540
1003.724, 118.7890
1004.206, 128.6730
1004.688, 139.4293
1005.170, 150.8769
1005.653, 162.9271
1006.135, 175.3494
1006.617, 188.2618
1007.099, 201.2546
1007.581, 214.3507
1008.063, 226.9827
1008.545, 238.5928
1009.027, 248.9297
1009.509, 257.5237
1009.992, 264.2218
1010.474, 269.6779
1010.956, 274.0744
1011.438, 277.9245
1011.920, 281.6270
1012.402, 285.4871
1012.884, 289.7380
1013.366, 294.7885
1013.849, 301.9890
1014.331, 311.9651
1014.813, 324.2995
1015.295, 338.6645
1015.777, 354.9498
1016.259, 373.9851
1016.741, 394.8904
1017.223, 414.0984
1017.705, 430.7072
1018.188, 442.9895
1018.670, 450.1542
1019.152, 450.5489
1019.634, 441.7054
1020.116, 424.1825
1020.598, 399.2447
1021.080, 367.2015
1021.562, 333.2477
1022.044, 298.0593
1022.527, 264.1008
1023.009, 232.5834
1023.491, 203.9310
1023.973, 178.7525
1024.455, 156.9631
1024.937, 137.9011
1025.419, 121.7412
1025.901, 107.4577
1026.384, 94.83817
1026.866, 83.95159
1027.348, 74.95243
1027.830, 67.44597
1028.312, 60.81258
1028.794, 55.02706
1029.276, 49.98787
1029.758, 45.84279
1030.240, 41.75418
1030.723, 37.35968
1031.205, 33.48241
1031.687, 30.80585
1032.169, 28.80381
1032.651, 26.36437
1033.133, 23.38020
1033.615, 21.12599
1034.097, 19.87702
1034.579, 18.66540
1035.062, 17.30762
1035.544, 15.95601
1036.026, 14.71163
1036.508, 13.55862
1036.990, 12.47829
1037.472, 11.49025
1037.954, 10.47871
1038.436, 9.374382
1038.919, 8.366360
1039.401, 7.446358
1039.883, 6.680153
1040.365, 6.195793
1040.847, 5.870197
1041.329, 5.415184
1041.811, 4.759853
1042.293, 4.345356
1042.776, 4.522087
1043.258, 4.457100
1043.740, 3.736588
1044.222, 2.989765
1044.704, 2.587032
1045.186, 2.458809
1045.668, 2.487587
1046.150, 2.691074
1046.632, 2.870743
1047.115, 2.971302
1047.597, 3.092854
1048.079, 3.347179
1048.561, 3.543892
1049.043, 3.437759
1049.525, 3.222374
1050.007, 3.295486
1050.489, 3.729671
1050.971, 4.096668
1051.454, 4.186199
1051.936, 4.370884
1052.418, 4.679745
1052.900, 5.201256
1053.382, 6.197422
1053.864, 7.372559
1054.346, 8.114304
1054.828, 8.323906
1055.311, 8.813057
1055.793, 9.859592
1056.275, 11.13286
1056.757, 12.80682
1057.239, 14.38904
1057.721, 15.30202
1058.203, 15.94358
1058.685, 17.08183
1059.167, 18.82473
1059.650, 20.51091
1060.132, 21.94120
1060.614, 23.25792
1061.096, 24.53708
1061.578, 25.70861
1062.060, 26.68032
1062.542, 27.53219
1063.024, 28.45242
1063.506, 29.44341
1063.989, 30.15666
1064.471, 30.38778
1064.953, 30.43278
1065.435, 30.51018
1065.917, 30.35183
1066.399, 29.73849
1066.881, 28.75737
1067.363, 27.45150
1067.846, 25.89696
1068.328, 24.49668
1068.810, 23.64756
1069.292, 22.54848
1069.774, 20.46627
1070.256, 18.38160
1070.738, 17.15341
1071.220, 16.32104
1071.703, 15.17755
1072.185, 13.65517
1072.667, 12.06092
1073.149, 10.40244
1073.631, 8.935474
1074.113, 7.637947
1074.595, 6.732349
1075.077, 6.665550
1075.559, 6.905949
1076.042, 6.886044
1076.524, 6.483257
1077.006, 5.584213
1077.488, 3.907158
1077.970, 2.506306
1078.452, 1.981968
1078.934, 1.781261
1079.416, 1.689842
1079.898, 1.581352
1080.380, 1.343109
1080.863, 0.9875790
1081.345, 0.5587920
1081.827, 3.7308000E-02
1082.309, 0.3981250
1082.791, 0.7085110
1083.273, 0.8634190
1083.755, 0.7362860
1084.237, 0.5214960
1084.720, 0.3674160
1085.202, 0.3278620
1085.684, 0.4912030
1086.166, 0.8992540
1086.648, 1.207584
1087.130, 1.237225
1087.612, 1.196091
1088.094, 1.199745
1088.577, 1.157440
1089.059, 0.8582270
1089.541, 0.4935530
1090.023, 0.5287780
1090.505, 1.057667
1090.987, 1.413288
1091.469, 1.250561
1091.951, 0.9983940
1092.433, 0.7754630
1092.916, 0.5785870
1093.398, 0.4173890
1093.880, 0.3008610
1094.362, 0.2799150
1094.844, 0.3263440
1095.326, 0.1697920
1095.808, 0.5321240
1096.290, 1.028362
1096.772, 0.8336680
1097.255, 0.6123770
1097.737, 0.9009820
1098.219, 1.380550
1098.701, 1.514473
1099.183, 1.329227
1099.665, 1.419170
1100.147, 2.100773
1100.629, 2.699547
1101.112, 2.947483
1101.594, 3.184631
1102.076, 3.519970
1102.558, 3.970470
1103.040, 4.709793
1103.522, 5.578663
1104.004, 5.944065
1104.486, 5.426182
1104.969, 5.336697
1105.451, 6.145607
1105.933, 7.108204
1106.415, 8.034893
1106.897, 8.955509
1107.379, 9.946938
1107.861, 10.94089
1108.343, 11.76084
1108.825, 12.35505
1109.307, 13.03049
1109.790, 14.06918
1110.272, 14.82604
1110.754, 14.96002
1111.236, 14.98927
1111.718, 15.29122
1112.200, 15.66648
1112.682, 15.74131
1113.164, 15.49189
1113.647, 15.35562
1114.129, 15.56477
1114.611, 15.50204
1115.093, 15.03161
1115.575, 14.41319
1116.057, 13.74841
1116.539, 12.99579
1117.021, 12.05808
1117.504, 10.97542
1117.986, 10.04921
1118.468, 9.372646
1118.950, 8.628555
1119.432, 7.690208
1119.914, 6.947174
1120.396, 6.620975
1120.878, 6.363827
1121.360, 5.876381
1121.843, 5.224724
1122.325, 4.610470
1122.807, 4.051598
1123.289, 3.393532
1123.771, 2.519630
1124.253, 1.940399
1124.735, 1.806892
1125.217, 1.892262
1125.699, 2.123417
1126.182, 2.322193
1126.664, 2.138290
1127.146, 1.605331
1127.628, 1.346104
1128.110, 1.399925
1128.592, 1.382580
1129.074, 1.251648
1129.556, 0.9619330
1130.039, 0.4509580
1130.521, 4.6169002E-02
1131.003, 0.1668170
1131.485, 0.6223790
1131.967, 0.7057190
1132.449, 0.4448660
1132.931, 0.3528590
1133.413, 0.4542200
1133.896, 0.5336570
1134.378, 0.5259210
1134.860, 0.5276340
1135.342, 0.6228560
1135.824, 0.7241360
1136.306, 0.6047630
1136.788, 0.3633190
1137.270, 0.4558110
1137.752, 0.7958560
1138.234, 0.9091420
1138.717, 0.7411310
1139.199, 0.5998990
1139.681, 0.6424790
1140.163, 0.7393150
1140.645, 0.7811130
1141.127, 0.7669490
1141.609, 0.6355020
1142.091, 0.4805830
1142.574, 0.5904580
1143.056, 0.8642690
1143.538, 0.8279190
1144.020, 0.3711780
1144.502, 7.8579998E-03
1144.984, 9.6354999E-02
1145.466, 0.3327370
1145.948, 0.3348460
1146.431, 0.2486040
1146.913, 0.2785870
1147.395, 0.3675160
1147.877, 0.3555640
1148.359, 0.2198180
1148.841, 9.0305001E-02
1149.323, 5.4660998E-02
1149.805, 2.5060000E-03
1150.287, 0.2310330
1150.770, 0.4277730
1151.252, 0.3892860
1151.734, 0.2913210
1152.216, 0.3748780
1152.698, 0.5527340
1153.180, 0.5715030
1153.662, 0.3757290
1154.144, 0.1262320
1154.626, 0.2718430
1155.109, 0.5098040
1155.591, 0.3072240
1156.073, 0.1106300
1156.555, 0.2528110
1157.037, 0.5281520
1157.519, 0.6708760
1158.001, 0.6763040
1158.483, 0.6450270
1158.966, 0.5358050
1159.448, 0.4983180
1159.930, 0.5703350
1160.412, 0.6767920
1160.894, 0.8380130
1161.376, 0.9824260
1161.858, 1.063107
1162.340, 1.086384
1162.822, 1.065884
1163.305, 1.001751
1163.787, 0.8735160
1164.269, 0.5977130
1164.751, 0.5304340
1165.233, 0.8143040
1165.715, 1.024349
1166.197, 0.9428100
1166.679, 0.7407530
1167.161, 0.5934330
1167.644, 0.5225070
1168.126, 0.6697010
1168.608, 1.049057
1169.090, 1.172279
1169.572, 1.010525
1170.054, 0.8988570
1170.536, 0.9289550
1171.018, 0.9989010
1171.500, 1.037621
1171.983, 1.086189
1172.465, 1.230694
1172.947, 1.431362
1173.429, 1.588379
1173.911, 1.682022
1174.393, 1.601990
1174.875, 1.370922
1175.357, 1.143951
1175.840, 0.9844700
1176.322, 0.9126240
1176.804, 0.9664800
1177.286, 1.063610
1177.768, 1.086048
1178.250, 1.097759
1178.732, 1.252331
1179.214, 1.444233
1179.697, 1.411549
1180.179, 1.179298
1180.661, 1.047180
1181.143, 1.153942
1181.625, 1.246094
1182.107, 1.060688
1182.589, 0.9413680
1183.071, 1.268673
1183.553, 1.629822
1184.036, 1.539398
1184.518, 1.218487
1185.000, 1.167362
1185.482, 1.437492
1185.964, 1.568550
1186.446, 1.370110
1186.928, 1.166668
1187.410, 0.9403840
1187.892, 0.7990420
1188.375, 0.8355450
1188.857, 0.9499360
1189.339, 1.045399
1189.821, 1.118465
1190.303, 1.190567
1190.785, 1.259506
1191.267, 1.393757
1191.749, 1.665943
1192.232, 1.770264
1192.714, 1.590950
1193.196, 1.453079
1193.678, 1.540852
1194.160, 1.665424
1194.642, 1.587452
1195.124, 1.381557
1195.606, 1.299446
1196.089, 1.328228
1196.571, 1.359959
1197.053, 1.389771
1197.535, 1.436737
1198.017, 1.503120
1198.499, 1.540543
1198.981, 1.517967
1199.463, 1.452568
1199.945, 1.344833
1200.427, 1.240726
1200.910, 1.217651
1201.392, 1.251282
1201.874, 1.338577
1202.356, 1.423729
1202.838, 1.344616
1203.320, 1.096645
1203.802, 0.9957500
1204.284, 1.309055
1204.767, 1.579594
1205.249, 1.385014
1205.731, 1.080822
1206.213, 0.8835110
1206.695, 0.8072320
1207.177, 0.9159160
1207.659, 1.129295
1208.141, 1.261436
1208.624, 1.280972
1209.106, 1.210556
1209.588, 0.9622270
1210.070, 0.7566990
1210.552, 0.6690790
1211.034, 0.5985260
1211.516, 0.4667090
1211.998, 0.3724100
1212.480, 0.4099540
1212.963, 0.5551990
1213.445, 0.7691500
1213.927, 1.084126
1214.409, 1.313560
1214.891, 1.477932
1215.373, 1.458973
1215.855, 1.188614
1216.337, 0.9343410
1216.819, 0.8403020
1217.302, 0.8043400
1217.784, 0.6991460
1218.266, 0.5606960
1218.748, 0.4930420
1219.230, 0.4924470
1219.712, 0.5671230
1220.194, 0.6957700
1220.676, 0.7932930
1221.159, 0.8264960
1221.641, 0.7276310
1222.123, 0.4482080
1222.605, 0.2700390
1223.087, 0.6445050
1223.569, 1.104126
1224.051, 1.040691
1224.533, 0.7881050
1225.016, 0.6975820
1225.498, 0.8125650
1225.980, 1.266087
1226.462, 1.963924
1226.944, 2.326256
1227.426, 2.077259
1227.908, 1.684349
1228.390, 1.081074
1228.872, 0.6746520
1229.354, 0.8290210
1229.837, 1.056267
1230.319, 0.9485400
1230.801, 0.6593740
1231.283, 0.4606860
1231.765, 0.3543280
1232.247, 0.4148900
1232.729, 0.7000920
1233.211, 0.9823610
1233.694, 1.312244
1234.176, 1.416672
1234.658, 1.176357
1235.140, 0.8753930
1235.622, 0.7151570
1236.104, 0.6895980
1236.586, 0.8559460
1237.068, 1.127079
1237.551, 1.017490
1238.033, 0.6444820
1238.515, 0.5677380
1238.997, 0.7796130
1239.479, 0.9790270
1239.961, 1.063194
1240.443, 1.013531
1240.925, 0.7895660
1241.407, 0.5784570
1241.890, 0.6159630
1242.372, 0.6946370
1242.854, 0.5510790
1243.336, 0.3743060
1243.818, 0.4493370
1244.300, 0.6698150
1244.782, 0.7751690
1245.264, 0.7247350
1245.746, 0.6081580
1246.229, 0.2654720
1246.711, 0.2009850
1247.193, 0.8587950
1247.675, 1.316212
1248.157, 1.160610
1248.639, 0.8168140
1249.121, 0.4849700
1249.603, 0.2601810
1250.085, 0.3559610
1250.568, 0.7436180
1251.050, 0.9202800
1251.532, 0.8680230
1252.014, 0.7979770
1252.496, 0.7267150
1252.978, 0.5844000
1253.460, 0.3506200
1253.942, 0.1232190
1254.425, 3.7131999E-02
1254.907, 4.0768001E-02
1255.389, 0.4161610
1255.871, 0.9849210
1256.353, 0.9222790
1256.835, 0.5288730
1257.317, 0.2942660
1257.799, 0.2506290
1258.281, 0.3607640
1258.764, 0.5795400
1259.246, 0.7571950
1259.728, 0.8271600
1260.210, 0.8608780
1260.692, 0.8442150
1261.174, 0.8620110
1261.656, 1.089909
1262.138, 1.229507
1262.620, 0.8892630
1263.103, 0.4053840
1263.585, 0.3631250
1264.067, 0.7017170
1264.549, 0.9069710
1265.031, 1.000004
1265.513, 0.8355410
1265.995, 0.2979700
1266.477, 6.7772001E-02
1266.960, 0.3493770
1267.442, 0.5688320
1267.924, 0.3969420
1268.406, 0.1019020
1268.888, 8.9299995E-03
1269.370, 8.8499999E-03
1269.852, 3.7682001E-02
1270.334, 8.4572002E-02
1270.817, 0.2260210
1271.299, 0.3838730
1271.781, 0.2533530
1272.263, 8.6783998E-02
1272.745, 0.1052510
1273.227, 0.4020730
1273.709, 0.8116000
1274.191, 0.6473350
1274.673, 0.4393460
1275.156, 0.4585230
1275.638, 0.5160940
1276.120, 0.5260390
1276.602, 0.4733470
1277.084, 0.2911570
1277.566, 4.6688002E-02
1278.048, 5.1899001E-02
1278.530, 4.0320000E-03
1279.012, 0.1039660
1279.495, 0.3640100
1279.977, 0.5539250
1280.459, 0.6587600
1280.941, 0.6544460
1281.423, 0.5183410
1281.905, 0.3431320
1282.387, 0.3563500
1282.869, 0.4139750
1283.352, 0.3644100
1283.834, 0.2518880
1284.316, 0.1242560
1284.798, 0.0000000E+00
##END=



