##NAMES=Tavorite
##RRUFFID=R140258
##IDEAL CHEMISTRY=LiFe^3+^PO_4_(OH)
##LOCALITY=Sandamap, Namibia
##OWNER=RRUFF
##SOURCE=Michael Scott
##DESCRIPTION=Druse of pale yellowish-green crystals, associated with giniite (R060765), triphylite, heterosite, and hureaulite.
##STATUS=The identification of this mineral has been confirmed by single-crystal X-ray diffraction.
##URL=rruff.info/R140258
97.97919, 0.0000000E+00
98.46130, 6.317078
98.94342, 6.804718
99.42554, 1.333405
99.90765, 2.393280
100.3898, 2.934784
100.8719, 0.1366880
101.3540, 6.269226
101.8361, 15.70380
102.3182, 29.22302
102.8004, 47.07458
103.2825, 68.42242
103.7646, 94.84711
104.2467, 125.8492
104.7288, 161.3920
105.2109, 201.6234
105.6931, 247.4995
106.1752, 296.6423
106.6573, 348.9142
107.1394, 406.4172
107.6215, 462.6879
108.1036, 517.1732
108.5858, 570.1509
109.0679, 622.6853
109.5500, 674.0275
110.0321, 725.7867
110.5142, 778.4173
110.9963, 832.0878
111.4785, 886.5457
111.9606, 941.0051
112.4427, 995.5678
112.9248, 1052.337
113.4069, 1110.334
113.8890, 1170.996
114.3712, 1236.222
114.8533, 1305.269
115.3354, 1379.332
115.8175, 1457.112
116.2996, 1539.189
116.7817, 1630.337
117.2639, 1737.340
117.7460, 1853.857
118.2281, 1971.845
118.7102, 2095.747
119.1923, 2215.524
119.6744, 2333.099
120.1566, 2456.797
120.6387, 2542.213
121.1208, 2524.761
121.6029, 2447.463
122.0850, 2397.202
122.5671, 2430.122
123.0493, 2506.375
123.5314, 2595.192
124.0135, 2705.630
124.4956, 2793.003
124.9777, 2785.012
125.4598, 2705.852
125.9420, 2647.254
126.4241, 2741.012
126.9062, 2887.879
127.3883, 2897.426
127.8704, 2697.704
128.3525, 2386.769
128.8347, 2085.717
129.3168, 1794.327
129.7989, 1531.366
130.2810, 1309.656
130.7631, 1127.808
131.2452, 972.1281
131.7274, 842.7234
132.2095, 735.8751
132.6916, 643.3451
133.1737, 564.9675
133.6558, 498.3350
134.1379, 440.3340
134.6201, 390.9241
135.1022, 347.1929
135.5843, 309.3065
136.0664, 276.7960
136.5485, 247.8428
137.0306, 222.5065
137.5128, 200.2995
137.9949, 180.0565
138.4770, 161.7819
138.9591, 145.1357
139.4412, 129.9457
139.9233, 116.3931
140.4055, 103.6039
140.8876, 91.44379
141.3697, 80.11749
141.8518, 70.29926
142.3339, 63.82471
142.8160, 59.93860
143.2982, 58.02325
143.7803, 57.26971
144.2624, 57.11218
144.7445, 57.53848
145.2266, 58.25153
145.7087, 58.63004
146.1909, 58.33139
146.6730, 57.52472
147.1551, 56.16220
147.6372, 54.66833
148.1193, 52.39594
148.6014, 49.40005
149.0836, 46.35034
149.5657, 43.93848
150.0478, 42.73334
150.5299, 41.91345
151.0120, 41.11493
151.4941, 40.05917
151.9763, 39.35175
152.4584, 39.00397
152.9405, 39.00760
153.4226, 39.30579
153.9047, 39.66357
154.3868, 40.45856
154.8690, 41.89670
155.3511, 44.29401
155.8332, 46.56885
156.3153, 49.05649
156.7974, 51.79443
157.2795, 54.95377
157.7617, 58.63211
158.2438, 62.77148
158.7259, 67.30023
159.2080, 71.84360
159.6901, 77.02661
160.1722, 83.30609
160.6544, 90.62735
161.1365, 97.89130
161.6186, 104.3148
162.1007, 110.6166
162.5828, 117.6063
163.0649, 126.0201
163.5471, 134.6931
164.0292, 143.0310
164.5113, 151.0057
164.9934, 159.1538
165.4755, 168.1283
165.9576, 177.3515
166.4398, 186.0001
166.9219, 193.1386
167.4040, 200.1375
167.8861, 208.0477
168.3682, 217.0161
168.8503, 225.6752
169.3325, 233.0736
169.8146, 239.6196
170.2967, 245.8794
170.7788, 252.7542
171.2609, 259.1831
171.7430, 264.1771
172.2252, 267.6848
172.7073, 269.9844
173.1894, 271.4076
173.6715, 271.7895
174.1536, 270.7899
174.6357, 268.2794
175.1179, 264.2852
175.6000, 258.7824
176.0821, 251.8083
176.5642, 243.4490
177.0463, 233.8401
177.5284, 222.8883
178.0106, 210.5107
178.4927, 195.9714
178.9748, 180.0664
179.4569, 164.4697
179.9390, 149.2175
180.4211, 134.1621
180.9033, 118.6265
181.3854, 102.7317
181.8675, 87.50198
182.3496, 73.17822
182.8317, 59.95422
183.3138, 47.48080
183.7960, 35.83774
184.2781, 24.98737
184.7602, 15.09448
185.2423, 6.070892
185.7244, 1.957306
186.2065, 8.877869
186.6887, 14.79004
187.1708, 20.27966
187.6529, 25.51941
188.1350, 30.11844
188.6171, 33.21866
189.0992, 34.86829
189.5814, 35.60773
190.0635, 35.52246
190.5456, 34.71707
191.0277, 33.89999
191.5098, 33.21503
191.9919, 32.45361
192.4741, 31.18906
192.9562, 29.41730
193.4383, 27.31946
193.9204, 25.03500
194.4025, 22.55692
194.8846, 19.71106
195.3668, 16.36230
195.8489, 12.76294
196.3310, 9.613525
196.8131, 6.987640
197.2952, 4.264252
197.7773, 0.8107600
198.2595, 3.392151
198.7416, 7.113708
199.2237, 10.04593
199.7058, 12.50696
200.1879, 15.42795
200.6700, 18.96387
201.1522, 22.33881
201.6343, 24.99216
202.1164, 26.87097
202.5985, 28.57037
203.0806, 30.05707
203.5627, 31.45694
204.0449, 33.25290
204.5270, 35.59827
205.0091, 37.84616
205.4912, 39.50623
205.9733, 40.49200
206.4554, 41.43930
206.9376, 42.47028
207.4197, 43.49899
207.9018, 44.22934
208.3839, 44.64835
208.8660, 44.81097
209.3481, 44.64041
209.8303, 43.98639
210.3124, 43.75659
210.7945, 44.30502
211.2766, 45.31937
211.7587, 45.34045
212.2408, 43.87372
212.7230, 42.45935
213.2051, 42.27686
213.6872, 43.84244
214.1693, 44.82611
214.6514, 44.81689
215.1335, 44.02182
215.6157, 43.41461
216.0978, 42.97864
216.5799, 42.72250
217.0620, 42.70358
217.5441, 43.06631
218.0262, 43.19421
218.5084, 42.89886
218.9905, 42.30811
219.4726, 42.04541
219.9547, 42.02286
220.4368, 42.46909
220.9189, 43.60126
221.4011, 45.69696
221.8832, 47.78986
222.3653, 49.79568
222.8474, 51.74792
223.3295, 53.83020
223.8116, 55.85968
224.2938, 58.24225
224.7759, 61.19775
225.2580, 64.67606
225.7401, 68.77686
226.2222, 73.46286
226.7043, 78.76355
227.1865, 85.10666
227.6686, 92.60434
228.1507, 100.7818
228.6328, 109.2772
229.1149, 117.9292
229.5970, 127.2299
230.0792, 137.2165
230.5613, 147.8764
231.0434, 158.7964
231.5255, 169.6518
232.0076, 181.0543
232.4897, 193.1909
232.9719, 206.0358
233.4540, 219.6742
233.9361, 234.4439
234.4182, 250.0696
234.9003, 265.6866
235.3824, 280.7130
235.8646, 296.5733
236.3467, 313.8494
236.8288, 332.2059
237.3109, 352.7446
237.7930, 375.6028
238.2751, 400.7111
238.7573, 427.0002
239.2394, 453.5674
239.7215, 482.6531
240.2036, 515.3928
240.6857, 551.7499
241.1678, 591.9174
241.6500, 636.6319
242.1321, 684.7132
242.6142, 734.1955
243.0963, 784.9147
243.5784, 836.6626
244.0605, 889.1922
244.5427, 944.3430
245.0248, 996.8642
245.5069, 1048.091
245.9890, 1096.417
246.4711, 1137.826
246.9532, 1173.508
247.4354, 1201.341
247.9175, 1219.568
248.3996, 1226.196
248.8817, 1230.105
249.3638, 1229.639
249.8459, 1227.427
250.3281, 1227.914
250.8102, 1230.073
251.2923, 1236.883
251.7744, 1249.254
252.2565, 1266.835
252.7386, 1290.837
253.2208, 1321.243
253.7029, 1358.146
254.1850, 1402.456
254.6671, 1455.104
255.1492, 1513.498
255.6313, 1576.485
256.1135, 1643.564
256.5956, 1716.985
257.0777, 1796.630
257.5598, 1881.545
258.0419, 1971.002
258.5240, 2065.573
259.0062, 2161.234
259.4883, 2259.033
259.9704, 2357.856
260.4525, 2450.653
260.9346, 2538.260
261.4167, 2617.478
261.8989, 2685.766
262.3810, 2745.347
262.8631, 2786.773
263.3452, 2808.120
263.8273, 2809.515
264.3094, 2789.254
264.7916, 2745.524
265.2737, 2683.197
265.7558, 2603.854
266.2379, 2504.301
266.7200, 2399.417
267.2021, 2289.227
267.6843, 2174.917
268.1664, 2062.802
268.6485, 1951.758
269.1306, 1845.651
269.6127, 1748.448
270.0948, 1660.280
270.5770, 1581.459
271.0591, 1513.084
271.5412, 1454.776
272.0233, 1403.077
272.5054, 1358.658
272.9875, 1321.261
273.4697, 1291.040
273.9518, 1267.719
274.4339, 1251.568
274.9160, 1242.713
275.3981, 1240.748
275.8802, 1245.129
276.3624, 1256.497
276.8445, 1271.709
277.3266, 1289.591
277.8087, 1310.321
278.2908, 1331.926
278.7729, 1355.269
279.2551, 1378.138
279.7372, 1396.373
280.2193, 1410.556
280.7014, 1416.263
281.1835, 1412.245
281.6656, 1398.452
282.1478, 1371.311
282.6299, 1329.703
283.1120, 1276.773
283.5941, 1214.873
284.0762, 1143.270
284.5583, 1072.140
285.0405, 1003.440
285.5226, 937.7295
286.0047, 880.0432
286.4868, 830.4147
286.9689, 788.7982
287.4510, 755.7808
287.9332, 731.2493
288.4153, 712.8088
288.8974, 700.9471
289.3795, 694.6667
289.8616, 691.2833
290.3438, 690.9568
290.8259, 692.4064
291.3080, 694.8411
291.7901, 698.0628
292.2722, 701.1746
292.7543, 704.7415
293.2365, 707.5867
293.7186, 707.0867
294.2007, 703.2440
294.6828, 696.2495
295.1649, 686.2041
295.6470, 673.1780
296.1292, 656.9210
296.6113, 637.1224
297.0934, 614.5939
297.5755, 589.9925
298.0576, 563.2786
298.5397, 535.4324
299.0219, 505.9962
299.5040, 475.6682
299.9861, 446.2357
300.4682, 417.8912
300.9503, 390.9358
301.4324, 365.5616
301.9146, 341.8444
302.3967, 318.9831
302.8788, 296.3463
303.3609, 274.4869
303.8430, 254.6451
304.3251, 237.0948
304.8073, 221.1694
305.2894, 206.3520
305.7715, 192.6404
306.2536, 179.6143
306.7357, 167.2396
307.2178, 155.4586
307.7000, 144.3620
308.1821, 133.9426
308.6642, 124.2241
309.1463, 115.4266
309.6284, 107.3383
310.1105, 99.50641
310.5927, 91.46048
311.0748, 83.92636
311.5569, 77.52420
312.0390, 72.26318
312.5211, 67.23325
313.0032, 61.72076
313.4854, 56.18097
313.9675, 51.17200
314.4496, 47.25528
314.9317, 43.59433
315.4138, 39.77420
315.8959, 35.84705
316.3781, 31.99246
316.8602, 28.24326
317.3423, 24.67151
317.8244, 21.33780
318.3065, 18.23184
318.7886, 15.40546
319.2708, 12.95105
319.7529, 10.81546
320.2350, 8.843384
320.7171, 7.216858
321.1992, 5.587189
321.6813, 3.724030
322.1635, 1.344910
322.6456, 0.7057190
323.1277, 2.216797
323.6098, 3.316437
324.0919, 4.219666
324.5740, 4.644470
325.0562, 5.160248
325.5383, 6.055603
326.0204, 7.546661
326.5025, 8.575623
326.9846, 8.668915
327.4667, 8.425659
327.9489, 8.484558
328.4310, 9.208405
328.9131, 9.817535
329.3952, 10.00626
329.8773, 9.745544
330.3594, 10.19781
330.8416, 12.41037
331.3237, 14.44412
331.8058, 14.86682
332.2879, 12.69836
332.7700, 10.53250
333.2521, 8.300049
333.7343, 6.181366
334.2164, 5.151947
334.6985, 5.789612
335.1806, 6.643280
335.6627, 7.008087
336.1448, 6.881256
336.6270, 6.243469
337.1091, 4.960663
337.5912, 3.277924
338.0733, 1.693970
338.5554, 0.3111570
339.0375, 1.257263
339.5197, 3.194611
340.0018, 5.498108
340.4839, 7.902039
340.9660, 10.29700
341.4481, 12.92358
341.9302, 16.03183
342.4124, 19.66232
342.8945, 23.58551
343.3766, 27.78595
343.8587, 32.22604
344.3408, 36.84485
344.8229, 41.56744
345.3051, 46.83075
345.7872, 53.06607
346.2693, 60.18643
346.7514, 67.86908
347.2335, 75.91699
347.7156, 84.56396
348.1978, 93.91925
348.6799, 104.0191
349.1620, 115.2825
349.6441, 128.2728
350.1262, 142.6261
350.6083, 157.3271
351.0905, 172.2857
351.5726, 188.0448
352.0547, 205.2121
352.5368, 223.7413
353.0189, 243.4885
353.5010, 264.2298
353.9832, 286.2197
354.4653, 310.2280
354.9474, 336.5704
355.4295, 362.8513
355.9116, 386.1451
356.3937, 408.6480
356.8759, 433.2419
357.3580, 461.6535
357.8401, 492.0179
358.3222, 522.9218
358.8043, 554.7268
359.2864, 588.0198
359.7686, 622.4775
360.2507, 659.0887
360.7328, 698.2659
361.2149, 740.4670
361.6970, 785.1331
362.1791, 832.6301
362.6613, 882.3499
363.1434, 933.0450
363.6255, 984.8134
364.1076, 1037.095
364.5897, 1090.803
365.0718, 1146.381
365.5540, 1198.298
366.0361, 1247.280
366.5182, 1291.512
367.0003, 1328.794
367.4824, 1366.502
367.9645, 1389.437
368.4467, 1393.963
368.9288, 1379.719
369.4109, 1352.085
369.8930, 1309.553
370.3751, 1254.874
370.8572, 1189.026
371.3394, 1107.710
371.8215, 1023.424
372.3036, 934.3203
372.7857, 842.9017
373.2678, 756.8357
373.7499, 675.3630
374.2321, 599.1516
374.7142, 529.0323
375.1963, 464.3351
375.6784, 406.7904
376.1605, 357.4183
376.6426, 314.3658
377.1248, 276.8572
377.6069, 244.8183
378.0890, 216.2183
378.5711, 190.9158
379.0532, 168.6022
379.5353, 148.8581
380.0175, 131.5683
380.4996, 116.3376
380.9817, 103.0248
381.4638, 91.62338
381.9459, 81.43927
382.4280, 72.51358
382.9102, 64.69644
383.3923, 57.93277
383.8744, 52.12137
384.3565, 47.18842
384.8386, 43.19351
385.3207, 40.09680
385.8029, 37.87088
386.2850, 36.46484
386.7671, 35.86435
387.2492, 36.17239
387.7313, 37.32669
388.2134, 39.05792
388.6956, 41.09186
389.1777, 43.55396
389.6598, 46.98254
390.1419, 51.46417
390.6240, 55.93906
391.1061, 59.72122
391.5883, 63.24307
392.0704, 66.85211
392.5525, 70.01663
393.0346, 73.92340
393.5167, 79.41895
393.9988, 86.23358
394.4810, 93.60645
394.9631, 100.9986
395.4452, 109.1868
395.9273, 118.3751
396.4094, 128.2858
396.8915, 140.1337
397.3737, 154.0176
397.8558, 169.9385
398.3379, 187.9037
398.8200, 209.2706
399.3021, 231.1885
399.7842, 253.0821
400.2664, 274.9333
400.7485, 297.7549
401.2306, 322.8972
401.7127, 347.3863
402.1948, 369.6304
402.6769, 390.9427
403.1591, 407.3860
403.6412, 419.9994
404.1233, 426.9954
404.6054, 424.1582
405.0875, 411.1387
405.5696, 389.3855
406.0518, 357.5784
406.5339, 315.4223
407.0160, 273.4877
407.4981, 231.5475
407.9802, 191.6570
408.4623, 156.0200
408.9445, 124.5234
409.4266, 97.62057
409.9087, 75.94974
410.3908, 58.50436
410.8729, 43.38818
411.3550, 30.55508
411.8372, 20.11722
412.3193, 12.91113
412.8014, 7.993042
413.2835, 2.983063
413.7656, 2.619537
414.2477, 7.743622
414.7299, 11.10974
415.2120, 13.08081
415.6941, 14.43210
416.1762, 15.38971
416.6583, 16.01917
417.1404, 16.36435
417.6226, 16.43823
418.1047, 16.29526
418.5868, 16.19324
419.0689, 15.79480
419.5510, 14.73523
420.0331, 12.46030
420.5153, 10.13470
420.9974, 8.338074
421.4795, 6.840607
421.9616, 5.143280
422.4437, 3.132996
422.9258, 0.8418580
423.4080, 1.687012
423.8901, 4.431122
424.3722, 7.618713
424.8543, 11.30521
425.3364, 15.44791
425.8185, 20.00092
426.3007, 25.31046
426.7828, 30.59726
427.2649, 35.55225
427.7470, 40.30518
428.2291, 45.95786
428.7112, 52.76532
429.1934, 59.95016
429.6755, 67.24182
430.1576, 74.58612
430.6397, 81.96677
431.1218, 89.10242
431.6039, 96.67780
432.0861, 105.9969
432.5682, 117.1332
433.0503, 129.0038
433.5324, 141.3616
434.0145, 154.2285
434.4966, 167.5164
434.9788, 181.2120
435.4609, 195.8337
435.9430, 211.9724
436.4251, 229.5685
436.9072, 248.2532
437.3893, 268.0421
437.8715, 289.0367
438.3536, 311.1118
438.8357, 334.4537
439.3178, 359.5753
439.7999, 387.1755
440.2820, 416.5157
440.7642, 446.8162
441.2463, 478.2852
441.7284, 510.0681
442.2105, 541.0057
442.6926, 572.6401
443.1747, 606.4573
443.6569, 643.3510
444.1390, 682.0046
444.6211, 721.7474
445.1032, 762.9131
445.5853, 805.2071
446.0674, 848.1770
446.5496, 892.9981
447.0317, 940.1144
447.5138, 989.9740
447.9959, 1041.603
448.4780, 1096.561
448.9601, 1152.569
449.4423, 1208.287
449.9244, 1262.768
450.4065, 1318.017
450.8886, 1375.409
451.3707, 1433.509
451.8528, 1488.868
452.3350, 1542.440
452.8171, 1591.121
453.2992, 1634.881
453.7813, 1673.862
454.2634, 1704.730
454.7455, 1727.664
455.2277, 1742.313
455.7098, 1748.698
456.1919, 1746.698
456.6740, 1735.710
457.1561, 1714.763
457.6382, 1685.565
458.1204, 1650.797
458.6025, 1610.365
459.0846, 1565.948
459.5667, 1516.521
460.0488, 1464.124
460.5309, 1410.774
461.0131, 1356.723
461.4952, 1302.826
461.9773, 1249.548
462.4594, 1197.600
462.9415, 1147.268
463.4236, 1099.340
463.9058, 1053.213
464.3879, 1007.948
464.8700, 964.1409
465.3521, 922.0502
465.8342, 881.4817
466.3163, 842.3869
466.7985, 804.6389
467.2806, 768.3597
467.7627, 733.3564
468.2448, 699.5866
468.7269, 667.4139
469.2090, 636.9220
469.6912, 607.7917
470.1733, 580.3922
470.6554, 555.0721
471.1375, 531.6620
471.6196, 508.2450
472.1017, 484.2623
472.5839, 461.4554
473.0660, 440.8292
473.5481, 422.5253
474.0302, 404.2756
474.5123, 385.6538
474.9944, 367.8296
475.4766, 353.0327
475.9587, 340.8854
476.4408, 328.7834
476.9229, 315.3220
477.4050, 301.7058
477.8871, 290.1289
478.3693, 280.4662
478.8514, 271.6007
479.3335, 262.5712
479.8156, 254.0194
480.2977, 246.7965
480.7798, 241.1149
481.2620, 236.4104
481.7441, 232.5328
482.2262, 229.4124
482.7083, 226.9362
483.1904, 224.9621
483.6725, 223.7120
484.1547, 223.1530
484.6368, 223.3223
485.1189, 224.5956
485.6010, 227.4247
486.0831, 230.9144
486.5652, 234.5208
487.0474, 237.5908
487.5295, 242.5836
488.0116, 249.8870
488.4937, 258.5461
488.9758, 267.4486
489.4579, 276.5947
489.9401, 286.3850
490.4222, 296.7053
490.9043, 307.6886
491.3864, 320.9094
491.8685, 336.6520
492.3506, 353.3054
492.8328, 369.5245
493.3149, 385.5270
493.7970, 403.0981
494.2791, 422.6288
494.7612, 442.9769
495.2433, 463.0951
495.7255, 483.0994
496.2076, 503.5881
496.6897, 524.5593
497.1718, 546.4529
497.6539, 569.1808
498.1360, 592.7995
498.6182, 618.0383
499.1003, 645.9426
499.5824, 675.0181
500.0645, 703.5100
500.5466, 731.4372
501.0287, 759.8685
501.5109, 790.1521
501.9930, 820.7117
502.4751, 849.5994
502.9572, 876.9230
503.4393, 902.1187
503.9214, 926.2002
504.4036, 947.9876
504.8857, 964.1997
505.3678, 975.3239
505.8499, 980.2713
506.3320, 978.6427
506.8141, 970.4227
507.2963, 955.9142
507.7784, 934.7072
508.2605, 907.6796
508.7426, 874.4316
509.2247, 835.1960
509.7068, 793.2947
510.1890, 749.0349
510.6711, 703.1081
511.1532, 656.5168
511.6353, 609.4716
512.1174, 564.2919
512.5995, 521.2345
513.0817, 480.6841
513.5638, 443.4316
514.0459, 409.4234
514.5280, 377.3018
515.0101, 345.4471
515.4922, 315.3575
515.9744, 288.9655
516.4565, 267.5170
516.9386, 247.6403
517.4207, 228.2047
517.9028, 209.6575
518.3849, 192.7294
518.8671, 178.1610
519.3492, 164.5818
519.8313, 151.2619
520.3134, 138.4076
520.7955, 127.4254
521.2776, 118.9601
521.7598, 111.3688
522.2419, 103.9038
522.7240, 96.52280
523.2061, 89.18726
523.6882, 81.73453
524.1703, 74.60553
524.6525, 68.27805
525.1346, 62.72391
525.6167, 58.07373
526.0988, 54.75131
526.5809, 51.98785
527.0630, 48.34146
527.5452, 43.96616
528.0273, 39.65115
528.5094, 35.65863
528.9915, 32.05853
529.4736, 28.98972
529.9557, 26.46466
530.4379, 23.96384
530.9200, 20.70886
531.4021, 17.49899
531.8842, 15.14789
532.3663, 14.62326
532.8484, 13.85455
533.3306, 12.05856
533.8127, 9.688263
534.2948, 7.771515
534.7769, 7.021942
535.2590, 5.952820
535.7411, 4.053009
536.2233, 1.373749
536.7054, 0.7727970
537.1875, 2.303406
537.6696, 3.407623
538.1517, 4.105347
538.6339, 4.338684
539.1160, 4.764343
539.5981, 5.429260
540.0802, 6.233978
540.5623, 7.153564
541.0444, 8.154602
541.5266, 9.114075
542.0087, 10.14954
542.4908, 10.94961
542.9729, 10.72598
543.4550, 9.749939
543.9371, 9.111359
544.4193, 10.09683
544.9014, 11.24051
545.3835, 11.09183
545.8656, 9.456390
546.3477, 8.137421
546.8298, 8.244629
547.3120, 8.772125
547.7941, 8.883606
548.2762, 8.028137
548.7583, 7.337433
549.2404, 7.133545
549.7225, 7.076599
550.2047, 6.539795
550.6868, 5.172333
551.1689, 4.024017
551.6510, 3.507416
552.1331, 3.456512
552.6152, 2.696594
553.0974, 1.095184
553.5795, 0.5837100
554.0616, 1.837067
554.5437, 2.734039
555.0258, 3.497406
555.5079, 4.072876
555.9901, 5.042023
556.4722, 7.279602
556.9543, 10.34476
557.4364, 13.29758
557.9185, 15.73303
558.4006, 18.19681
558.8828, 20.94040
559.3649, 24.04648
559.8470, 27.76144
560.3291, 32.63397
560.8112, 37.70911
561.2933, 42.61618
561.7755, 47.32700
562.2576, 52.05670
562.7397, 56.47208
563.2218, 61.14810
563.7039, 66.36368
564.1860, 72.11093
564.6682, 78.48172
565.1503, 85.58780
565.6324, 93.26758
566.1145, 101.2271
566.5966, 109.5296
567.0787, 118.1939
567.5609, 127.1531
568.0430, 136.5872
568.5251, 146.5714
569.0072, 157.2096
569.4893, 168.5691
569.9714, 181.1537
570.4536, 194.4076
570.9357, 207.4290
571.4178, 220.2042
571.8999, 233.7194
572.3820, 249.0398
572.8641, 265.0110
573.3463, 280.5048
573.8284, 295.6493
574.3105, 309.8399
574.7926, 323.1645
575.2747, 335.3457
575.7568, 345.9839
576.2390, 356.0072
576.7211, 363.4300
577.2032, 368.2869
577.6853, 370.3783
578.1674, 368.6811
578.6495, 362.6422
579.1317, 354.4260
579.6138, 344.7789
580.0959, 333.7027
580.5780, 320.7741
581.0601, 305.7208
581.5422, 290.6024
582.0244, 277.1190
582.5065, 264.8104
582.9886, 252.5693
583.4707, 239.8496
583.9528, 228.3051
584.4349, 219.4872
584.9171, 212.7382
585.3992, 207.0843
585.8813, 202.2846
586.3634, 198.3818
586.8455, 195.4274
587.3276, 193.3806
587.8098, 192.2870
588.2919, 192.1831
588.7740, 193.0280
589.2561, 194.8190
589.7382, 197.5580
590.2203, 201.0022
590.7025, 205.1086
591.1846, 209.9261
591.6667, 215.4344
592.1488, 221.6447
592.6309, 228.8728
593.1130, 237.2732
593.5952, 246.2957
594.0773, 254.9864
594.5594, 263.5919
595.0415, 273.3009
595.5236, 284.8059
596.0057, 297.0807
596.4879, 308.5974
596.9700, 319.8940
597.4521, 332.1373
597.9342, 346.5505
598.4163, 361.4961
598.8984, 376.1613
599.3806, 390.5968
599.8627, 404.9437
600.3448, 419.7824
600.8269, 434.1353
601.3090, 447.8230
601.7911, 461.0206
602.2733, 472.7330
602.7554, 482.5337
603.2375, 491.4871
603.7196, 500.6322
604.2017, 510.1824
604.6838, 517.9641
605.1660, 523.2927
605.6481, 527.9060
606.1302, 534.3327
606.6123, 542.4168
607.0944, 551.3280
607.5765, 560.1248
608.0587, 570.3515
608.5408, 583.7745
609.0229, 600.1854
609.5050, 619.3746
609.9871, 640.9779
610.4692, 665.3511
610.9514, 692.4865
611.4335, 722.5836
611.9156, 756.0089
612.3977, 792.7824
612.8798, 833.0366
613.3619, 876.1725
613.8441, 922.7569
614.3262, 972.2794
614.8083, 1024.782
615.2904, 1080.500
615.7725, 1139.106
616.2546, 1200.639
616.7368, 1264.574
617.2189, 1332.048
617.7010, 1401.325
618.1831, 1470.314
618.6652, 1538.280
619.1473, 1602.653
619.6295, 1665.505
620.1116, 1721.101
620.5937, 1765.620
621.0758, 1798.310
621.5579, 1816.369
622.0400, 1818.748
622.5222, 1805.105
623.0043, 1774.477
623.4864, 1726.029
623.9685, 1664.670
624.4506, 1586.199
624.9327, 1499.017
625.4149, 1406.925
625.8970, 1307.969
626.3791, 1212.355
626.8612, 1119.969
627.3433, 1031.853
627.8254, 949.2905
628.3076, 872.2061
628.7897, 800.4664
629.2718, 733.9824
629.7539, 672.8234
630.2360, 618.5479
630.7181, 570.2875
631.2003, 526.1710
631.6824, 485.7132
632.1645, 448.5240
632.6466, 414.9929
633.1287, 384.7836
633.6108, 357.5189
634.0930, 333.8121
634.5751, 311.7244
635.0572, 290.6158
635.5393, 270.1979
636.0214, 251.6756
636.5035, 235.3019
636.9857, 220.4402
637.4678, 206.7880
637.9499, 194.3981
638.4320, 182.8766
638.9141, 172.3838
639.3962, 162.5522
639.8784, 152.8714
640.3605, 143.5483
640.8426, 134.9327
641.3247, 127.2359
641.8068, 120.2867
642.2889, 113.8789
642.7711, 108.0052
643.2532, 102.5007
643.7353, 97.64038
644.2174, 92.87311
644.6995, 87.89774
645.1816, 82.84076
645.6638, 78.19983
646.1459, 74.07617
646.6280, 70.25891
647.1101, 66.78128
647.5922, 63.72360
648.0743, 60.28873
648.5565, 56.31335
649.0386, 52.40356
649.5207, 48.96213
650.0028, 46.00717
650.4849, 43.98367
650.9670, 43.06821
651.4492, 42.22311
651.9313, 40.11749
652.4134, 37.34872
652.8955, 35.11462
653.3776, 33.85654
653.8597, 32.72635
654.3419, 31.25677
654.8240, 29.57217
655.3061, 27.84659
655.7882, 25.83783
656.2703, 24.14221
656.7524, 23.14655
657.2346, 22.56537
657.7167, 21.48169
658.1988, 19.55963
658.6809, 17.92175
659.1630, 17.09320
659.6451, 16.87830
660.1273, 16.01797
660.6094, 14.45755
661.0915, 12.98276
661.5736, 12.19736
662.0557, 11.81873
662.5378, 11.33350
663.0200, 10.71057
663.5021, 9.981964
663.9842, 9.058960
664.4663, 8.095551
664.9484, 7.244324
665.4305, 6.527435
665.9127, 5.913361
666.3948, 5.428833
666.8769, 5.036438
667.3590, 4.681213
667.8411, 4.314484
668.3232, 4.118805
668.8054, 4.161804
669.2875, 4.329407
669.7696, 4.521698
670.2517, 4.744873
670.7338, 4.579132
671.2159, 3.777039
671.6981, 2.686646
672.1802, 1.760254
672.6623, 1.044250
673.1444, 0.6668400
673.6265, 0.9788510
674.1086, 1.435120
674.5908, 1.701263
675.0729, 1.771606
675.5550, 1.679840
676.0371, 1.326508
676.5192, 0.9177860
677.0013, 0.5236210
677.4835, 0.1434630
677.9656, 0.2057800
678.4477, 0.5756530
678.9298, 0.8286440
679.4119, 0.7984620
679.8940, 0.4854430
680.3762, 0.3718870
680.8583, 0.4998470
681.3404, 0.6847230
681.8225, 0.7048340
682.3046, 0.6501160
682.7867, 0.7054140
683.2689, 0.9051510
683.7510, 1.230347
684.2331, 1.911926
684.7152, 2.617554
685.1973, 2.902771
685.6794, 2.069305
686.1616, 1.504425
686.6437, 1.688660
687.1258, 2.230225
687.6079, 2.429230
688.0900, 2.170593
688.5721, 1.832428
689.0543, 1.394867
689.5364, 1.012878
690.0185, 1.426697
690.5006, 2.591766
690.9827, 3.227173
691.4648, 2.077484
691.9470, 0.3191530
692.4291, 0.1817630
692.9112, 0.4119870
693.3933, 1.191406
693.8754, 2.020935
694.3575, 2.584076
694.8397, 2.587555
695.3218, 1.966583
695.8039, 1.361938
696.2860, 0.6501160
696.7681, 0.1686100
697.2502, 0.1179500
697.7324, 0.5762330
698.2145, 1.120728
698.6966, 1.826965
699.1787, 2.401764
699.6608, 2.560333
700.1429, 2.334839
700.6251, 1.765045
701.1072, 0.7645260
701.5893, 3.7811000E-02
702.0714, 0.2932130
702.5535, 1.132813
703.0356, 1.537689
703.5178, 0.9459840
703.9999, 0.3967900
704.4820, 0.3598940
704.9641, 0.5913390
705.4462, 0.7169490
705.9283, 0.7818910
706.4105, 0.6108700
706.8926, 2.8076001E-02
707.3747, 0.7163090
707.8568, 0.9981080
708.3389, 0.7924800
708.8210, 0.4955750
709.3032, 0.1838380
709.7853, 7.8674003E-02
710.2674, 0.2453000
710.7495, 0.2708740
711.2316, 4.1687001E-02
711.7137, 1.307098
712.1959, 2.530640
712.6780, 2.862701
713.1601, 2.404816
713.6422, 2.029968
714.1243, 1.766510
714.6064, 1.858429
715.0886, 2.572632
715.5707, 3.947754
716.0528, 4.615265
716.5349, 4.372925
717.0170, 3.955109
717.4991, 3.848236
717.9813, 4.002808
718.4634, 3.966003
718.9455, 3.719513
719.4276, 3.503265
719.9097, 3.500092
720.3918, 3.661621
720.8740, 3.950317
721.3561, 4.380646
721.8382, 4.812775
722.3203, 5.069336
722.8024, 5.363129
723.2845, 5.891724
723.7667, 6.860291
724.2488, 7.753754
724.7309, 8.668091
725.2130, 9.410004
725.6951, 9.636749
726.1772, 9.294525
726.6594, 9.322113
727.1415, 9.972992
727.6236, 10.71570
728.1057, 10.75723
728.5878, 10.30594
729.0699, 9.890472
729.5521, 9.632874
730.0342, 9.544678
730.5163, 9.665924
730.9984, 9.963104
731.4805, 10.37466
731.9626, 11.18124
732.4448, 11.73657
732.9269, 11.79297
733.4090, 11.55865
733.8911, 11.62076
734.3732, 12.05435
734.8553, 12.48172
735.3375, 12.80649
735.8196, 13.02588
736.3017, 12.96478
736.7838, 12.71393
737.2659, 12.83524
737.7480, 13.98181
738.2302, 15.38647
738.7123, 16.52158
739.1944, 17.33112
739.6765, 17.64175
740.1586, 16.66693
740.6407, 15.85724
741.1229, 15.96597
741.6050, 16.93588
742.0871, 17.74542
742.5692, 18.49750
743.0513, 18.88214
743.5334, 18.60614
744.0156, 17.78098
744.4977, 17.39069
744.9798, 17.41049
745.4619, 17.81226
745.9440, 18.96466
746.4261, 20.30750
746.9083, 21.11209
747.3904, 21.30188
747.8725, 21.33093
748.3546, 21.25858
748.8367, 21.17859
749.3188, 21.18237
749.8010, 21.16214
750.2831, 21.76877
750.7652, 23.34103
751.2473, 24.84866
751.7294, 25.40247
752.2115, 25.02704
752.6937, 24.82571
753.1758, 24.90927
753.6579, 25.15646
754.1400, 25.64304
754.6221, 26.14664
755.1042, 26.20514
755.5864, 25.55444
756.0685, 25.05310
756.5506, 25.07535
757.0327, 25.52151
757.5148, 26.31458
757.9969, 28.05609
758.4791, 29.30521
758.9612, 30.03781
759.4433, 30.34818
759.9254, 30.00647
760.4075, 28.91327
760.8896, 28.73587
761.3718, 29.95221
761.8539, 31.66507
762.3360, 32.67282
762.8181, 33.24149
763.3002, 33.97986
763.7823, 35.18381
764.2645, 36.42850
764.7466, 37.55573
765.2287, 38.57349
765.7108, 39.49866
766.1929, 40.17545
766.6750, 40.96848
767.1572, 41.91052
767.6393, 42.96954
768.1214, 44.11523
768.6035, 45.35776
769.0856, 46.74438
769.5677, 48.36954
770.0499, 49.99057
770.5320, 50.96591
771.0141, 51.65366
771.4962, 52.99017
771.9783, 56.12762
772.4604, 59.23495
772.9426, 61.15192
773.4247, 62.33426
773.9068, 63.80548
774.3889, 65.61383
774.8710, 67.85309
775.3531, 70.73096
775.8353, 73.97488
776.3174, 76.76648
776.7995, 79.06180
777.2816, 81.36121
777.7637, 83.85434
778.2458, 86.45978
778.7280, 88.89395
779.2101, 91.31271
779.6922, 94.14944
780.1743, 98.33752
780.6564, 102.3226
781.1385, 105.2253
781.6207, 107.2535
782.1028, 109.2829
782.5849, 111.2854
783.0670, 113.4849
783.5491, 116.0018
784.0313, 118.7441
784.5134, 121.7000
784.9955, 124.9107
785.4776, 126.9180
785.9597, 126.4572
786.4418, 124.8265
786.9240, 124.1588
787.4061, 124.1619
787.8882, 123.7141
788.3703, 122.0696
788.8524, 120.0034
789.3345, 118.1159
789.8167, 116.2507
790.2988, 113.2897
790.7809, 108.6006
791.2630, 103.9456
791.7451, 99.89191
792.2272, 96.35364
792.7094, 92.61337
793.1915, 88.70975
793.6736, 84.78848
794.1557, 80.89835
794.6378, 77.11090
795.1199, 73.64035
795.6021, 70.45203
796.0842, 67.16504
796.5663, 63.56656
797.0484, 59.87927
797.5305, 56.06985
798.0126, 52.23532
798.4948, 48.98514
798.9769, 46.41824
799.4590, 44.26083
799.9411, 42.59644
800.4232, 41.23245
800.9053, 39.38522
801.3875, 37.10974
801.8696, 34.99924
802.3517, 33.71622
802.8338, 32.52350
803.3159, 30.53766
803.7980, 27.90073
804.2802, 25.57605
804.7623, 23.91028
805.2444, 22.59259
805.7265, 21.56314
806.2086, 20.79865
806.6907, 20.12134
807.1729, 19.54483
807.6550, 18.94763
808.1371, 18.23068
808.6192, 17.46161
809.1013, 16.88013
809.5834, 16.43741
810.0656, 15.84354
810.5477, 14.89511
811.0298, 13.77402
811.5119, 12.43112
811.9940, 10.94446
812.4761, 9.866302
812.9583, 9.501740
813.4404, 9.305420
813.9225, 9.164490
814.4046, 9.063660
814.8867, 8.928131
815.3688, 8.760559
815.8510, 8.542908
816.3331, 8.241974
816.8152, 7.883911
817.2973, 7.497192
817.7794, 7.094666
818.2615, 6.735107
818.7437, 6.315094
819.2258, 6.059601
819.7079, 6.265045
820.1900, 6.812195
820.6721, 6.798920
821.1542, 5.840515
821.6364, 5.180634
822.1185, 5.425476
822.6006, 6.181976
823.0827, 5.907471
823.5648, 4.747192
824.0469, 3.902283
824.5291, 4.648499
825.0112, 5.519379
825.4933, 4.758057
825.9754, 2.905151
826.4575, 1.669647
826.9396, 2.112488
827.4218, 2.672516
827.9039, 3.057495
828.3860, 3.236267
828.8681, 2.989502
829.3502, 2.211243
829.8323, 1.610260
830.3145, 1.464752
830.7966, 1.560120
831.2787, 1.614685
831.7608, 1.604828
832.2429, 1.439484
832.7250, 0.5827940
833.2072, 2.0020001E-02
833.6893, 0.6213680
834.1714, 1.914429
834.6535, 2.613281
835.1356, 2.359283
835.6177, 2.017731
836.0999, 1.720367
836.5820, 1.450562
837.0641, 1.076599
837.5462, 0.6242680
838.0283, 0.4573970
838.5104, 0.8374630
838.9926, 1.304810
839.4747, 1.346741
839.9568, 1.093201
840.4389, 0.7758480
840.9210, 0.1664430
841.4031, 0.1235960
841.8853, 0.3040770
842.3674, 1.001221
842.8495, 1.370483
843.3316, 1.398224
843.8137, 1.049957
844.2958, 0.1774290
844.7780, 0.7482910
845.2601, 0.9892580
845.7422, 0.6871030
846.2243, 0.1511230
846.7064, 0.6697390
847.1885, 1.311493
847.6707, 1.517395
848.1528, 1.415955
848.6349, 1.131531
849.1170, 0.5454710
849.5991, 9.9179996E-03
850.0812, 0.6351010
850.5634, 1.053314
851.0455, 0.7644960
851.5276, 0.1127010
852.0097, 0.5705260
852.4918, 0.4415280
852.9739, 0.2011110
853.4561, 0.3290100
853.9382, 0.4151610
854.4203, 1.062836
854.9024, 5.046875
855.3845, 8.053070
855.8666, 9.586914
856.3488, 9.791290
856.8309, 8.288788
857.3130, 4.639008
857.7951, 2.582214
858.2772, 2.286621
858.7593, 2.590973
859.2415, 2.693939
859.7236, 2.600006
860.2057, 2.200134
860.6878, 1.526398
861.1699, 1.272400
861.6520, 2.197754
862.1342, 3.195618
862.6163, 3.641693
863.0984, 3.573730
863.5805, 3.193848
864.0626, 2.263367
864.5447, 1.634766
865.0269, 2.011200
865.5090, 3.085236
865.9911, 3.731018
866.4732, 3.982208
866.9553, 4.119202
867.4374, 4.335114
867.9196, 4.440460
868.4017, 4.179016
868.8838, 3.666901
869.3659, 3.582825
869.8480, 4.313904
870.3301, 4.828583
870.8123, 4.721039
871.2944, 4.248108
871.7765, 4.298645
872.2586, 4.816467
872.7407, 5.350098
873.2228, 5.615570
873.7050, 5.915497
874.1871, 6.685577
874.6692, 7.690491
875.1513, 8.460999
875.6334, 8.547089
876.1155, 8.848907
876.5977, 9.693237
877.0798, 10.67969
877.5619, 11.02862
878.0440, 10.69919
878.5261, 10.69238
879.0082, 11.33548
879.4904, 11.97635
879.9725, 11.42673
880.4546, 10.36221
880.9367, 10.03870
881.4188, 11.19910
881.9009, 12.32889
882.3831, 12.80969
882.8652, 12.99884
883.3473, 13.27493
883.8294, 13.69125
884.3115, 14.06763
884.7936, 14.38715
885.2758, 14.52771
885.7579, 14.32092
886.2400, 13.92221
886.7221, 13.55560
887.2042, 13.22537
887.6863, 13.20505
888.1685, 14.15637
888.6506, 15.06000
889.1327, 15.01492
889.6148, 13.79462
890.0969, 13.21851
890.5790, 13.46329
891.0612, 13.86496
891.5433, 13.98065
892.0254, 13.93570
892.5075, 14.32407
892.9896, 15.06589
893.4717, 15.55734
893.9539, 15.20013
894.4360, 14.68088
894.9181, 14.57364
895.4002, 14.77884
895.8823, 14.50238
896.3644, 13.33154
896.8466, 12.42303
897.3287, 12.12366
897.8108, 12.26010
898.2929, 12.52621
898.7750, 12.86542
899.2571, 12.89551
899.7393, 12.30252
900.2214, 11.62656
900.7035, 11.14798
901.1856, 10.93347
901.6677, 11.09579
902.1498, 12.50186
902.6320, 13.01770
903.1141, 12.16068
903.5962, 10.83008
904.0783, 10.28513
904.5604, 10.45251
905.0425, 10.36868
905.5247, 9.849152
906.0068, 9.325562
906.4889, 9.187012
906.9710, 9.280945
907.4531, 9.482666
907.9352, 9.843384
908.4174, 10.02786
908.8995, 9.985138
909.3816, 9.838928
909.8637, 9.599762
910.3458, 9.267090
910.8279, 9.042816
911.3101, 8.919861
911.7922, 8.748138
912.2743, 8.502686
912.7564, 8.122986
913.2385, 7.391876
913.7206, 6.370239
914.2028, 5.570282
914.6849, 5.294708
915.1670, 5.081512
915.6491, 4.747925
916.1312, 4.392700
916.6133, 4.549072
917.0955, 5.236420
917.5776, 5.383240
918.0597, 4.282043
918.5418, 2.939270
919.0239, 2.806763
919.5060, 3.345642
919.9882, 3.476013
920.4703, 2.296448
920.9524, 1.391174
921.4345, 1.154388
921.9166, 1.172852
922.3987, 0.9295650
922.8809, 0.4093020
923.3630, 2.4750000E-02
923.8451, 0.1937560
924.3272, 0.2524110
924.8093, 5.2855998E-02
925.2914, 0.4146730
925.7736, 0.3579410
926.2557, 0.2528690
926.7378, 0.8291630
927.2199, 1.115601
927.7020, 1.378815
928.1841, 1.782440
928.6663, 2.332306
929.1484, 2.713074
929.6305, 2.906921
930.1126, 3.082031
930.5947, 3.400543
931.0768, 3.726288
931.5590, 3.800079
932.0411, 3.693451
932.5232, 3.768463
933.0053, 4.460632
933.4874, 4.963562
933.9695, 4.970367
934.4517, 4.701508
934.9338, 4.717834
935.4159, 5.035980
935.8980, 5.272491
936.3801, 5.317841
936.8622, 5.260376
937.3444, 5.092041
937.8265, 4.959778
938.3086, 5.098022
938.7907, 5.851440
939.2728, 6.270081
939.7549, 6.023102
940.2371, 5.600800
940.7192, 5.487183
941.2013, 5.714142
941.6834, 5.120117
942.1655, 3.634857
942.6476, 2.155670
943.1298, 1.694336
943.6119, 1.507690
944.0940, 0.7782900
944.5761, 0.5488280
945.0582, 1.990417
945.5403, 3.886902
946.0225, 5.301483
946.5046, 5.637421
946.9867, 5.311737
947.4688, 6.219299
947.9509, 8.284393
948.4330, 10.53528
948.9152, 12.72079
949.3973, 14.68884
949.8794, 16.00333
950.3615, 17.06711
950.8436, 18.59772
951.3257, 21.22498
951.8079, 23.59808
952.2900, 25.40555
952.7721, 27.25772
953.2542, 29.99612
953.7363, 33.50281
954.2184, 36.95682
954.7006, 40.29932
955.1827, 43.42014
955.6648, 45.94522
956.1469, 48.49149
956.6290, 51.58347
957.1111, 55.34726
957.5933, 59.19498
958.0754, 62.93201
958.5575, 67.08105
959.0396, 71.78247
959.5217, 77.07596
960.0038, 83.35568
960.4860, 90.49792
960.9681, 97.95880
961.4502, 105.1039
961.9323, 112.7442
962.4144, 121.1886
962.8965, 130.4756
963.3787, 140.3737
963.8608, 150.6532
964.3429, 162.2060
964.8250, 175.2164
965.3071, 189.5861
965.7892, 204.7258
966.2714, 220.9663
966.7535, 239.4987
967.2356, 260.4091
967.7177, 283.1928
968.1998, 307.0248
968.6819, 332.8694
969.1641, 360.8077
969.6462, 390.9918
970.1283, 424.6770
970.6104, 462.2962
971.0925, 503.2807
971.5746, 547.8995
972.0568, 595.8894
972.5389, 646.9068
973.0210, 701.3362
973.5031, 758.9250
973.9852, 819.6265
974.4673, 883.5371
974.9495, 949.1762
975.4316, 1018.892
975.9137, 1096.102
976.3958, 1180.640
976.8779, 1269.558
977.3600, 1362.098
977.8422, 1459.269
978.3243, 1564.568
978.8064, 1675.519
979.2885, 1788.617
979.7706, 1904.429
980.2527, 2017.173
980.7349, 2132.527
981.2170, 2236.979
981.6991, 2325.570
982.1812, 2396.560
982.6633, 2434.441
983.1454, 2439.111
983.6276, 2409.887
984.1097, 2341.252
984.5918, 2242.742
985.0739, 2113.398
985.5560, 1960.765
986.0381, 1804.285
986.5203, 1640.448
987.0024, 1483.941
987.4845, 1335.273
987.9666, 1197.265
988.4487, 1073.100
988.9308, 963.5460
989.4130, 868.1063
989.8951, 787.2386
990.3772, 716.2972
990.8593, 654.1916
991.3414, 599.9042
991.8235, 553.1158
992.3057, 513.2588
992.7878, 479.6441
993.2699, 452.1867
993.7520, 429.2304
994.2341, 410.5776
994.7162, 395.3079
995.1984, 381.4324
995.6805, 369.6982
996.1626, 362.5108
996.6447, 362.8100
997.1268, 365.0782
997.6089, 367.3352
998.0911, 371.4560
998.5732, 379.7948
999.0553, 392.3466
999.5374, 409.2411
1000.020, 430.3634
1000.502, 454.7051
1000.984, 480.6358
1001.466, 509.2242
1001.948, 541.3651
1002.430, 576.9023
1002.912, 617.0679
1003.394, 661.6788
1003.876, 710.2173
1004.359, 762.0230
1004.841, 817.9459
1005.323, 877.3864
1005.805, 941.8353
1006.287, 1014.834
1006.769, 1097.501
1007.251, 1191.490
1007.733, 1295.480
1008.216, 1412.505
1008.698, 1543.274
1009.180, 1690.888
1009.662, 1845.527
1010.144, 2006.976
1010.626, 2172.300
1011.108, 2342.026
1011.590, 2507.713
1012.072, 2657.995
1012.555, 2792.693
1013.037, 2905.176
1013.519, 2982.627
1014.001, 3047.477
1014.483, 3101.481
1014.965, 3151.410
1015.447, 3211.601
1015.929, 3284.502
1016.411, 3396.241
1016.894, 3558.438
1017.376, 3753.868
1017.858, 3973.424
1018.340, 4213.557
1018.822, 4468.909
1019.304, 4749.479
1019.786, 5028.757
1020.268, 5321.863
1020.751, 5573.776
1021.233, 5791.229
1021.715, 5924.229
1022.197, 5820.668
1022.679, 5497.204
1023.161, 5064.296
1023.643, 4487.362
1024.125, 3909.661
1024.607, 3367.760
1025.090, 2870.793
1025.572, 2441.914
1026.054, 2079.655
1026.536, 1773.284
1027.018, 1519.325
1027.500, 1306.085
1027.982, 1129.753
1028.464, 982.4486
1028.947, 856.4392
1029.429, 753.5137
1029.911, 663.2349
1030.393, 584.3272
1030.875, 515.6654
1031.357, 458.6897
1031.839, 411.3401
1032.321, 368.1385
1032.803, 329.3356
1033.286, 294.2942
1033.768, 264.2611
1034.250, 236.8269
1034.732, 210.6576
1035.214, 186.4167
1035.696, 165.2262
1036.178, 147.0706
1036.660, 131.2422
1037.143, 117.6995
1037.625, 105.2188
1038.107, 91.98627
1038.589, 79.11646
1039.071, 68.25494
1039.553, 59.35266
1040.035, 51.21252
1040.517, 43.71497
1041.000, 36.70432
1041.482, 30.35687
1041.964, 24.44919
1042.446, 18.42166
1042.928, 12.48074
1043.410, 7.697906
1043.892, 4.483948
1044.374, 2.195068
1044.856, 1.488708
1045.339, 0.8816530
1045.821, 1.360229
1046.303, 5.797607
1046.785, 7.314514
1047.267, 5.646301
1047.749, 3.393127
1048.231, 2.332458
1048.713, 1.648804
1049.195, 0.7554930
1049.677, 0.6166690
1050.160, 3.198853
1050.642, 7.679565
1051.124, 12.80890
1051.606, 18.47580
1052.088, 24.70834
1052.570, 31.28912
1053.052, 38.42337
1053.534, 46.52606
1054.017, 55.63605
1054.499, 66.08881
1054.981, 78.17648
1055.463, 91.66727
1055.945, 106.6906
1056.427, 122.9813
1056.909, 138.8429
1057.391, 154.1221
1057.874, 170.8161
1058.356, 189.7339
1058.838, 210.1067
1059.320, 231.5219
1059.802, 253.4905
1060.284, 275.9148
1060.766, 298.6492
1061.248, 322.2238
1061.730, 346.9247
1062.213, 371.8797
1062.695, 396.9472
1063.177, 421.7326
1063.659, 444.8085
1064.141, 466.5166
1064.623, 488.0735
1065.105, 511.9583
1065.587, 533.6435
1066.070, 552.1912
1066.552, 567.2424
1067.034, 577.8469
1067.516, 583.9788
1067.998, 586.1660
1068.480, 584.6024
1068.962, 577.5671
1069.444, 562.8528
1069.927, 542.4087
1070.409, 516.8568
1070.891, 486.6172
1071.373, 454.5245
1071.855, 419.8934
1072.337, 385.4589
1072.819, 351.3551
1073.301, 318.4781
1073.783, 287.4675
1074.266, 258.4708
1074.748, 231.4863
1075.230, 206.4203
1075.712, 183.7878
1076.194, 164.3577
1076.676, 146.4067
1077.158, 128.4203
1077.640, 110.7128
1078.122, 96.21457
1078.604, 84.71213
1079.087, 74.33417
1079.569, 64.14044
1080.051, 54.68207
1080.533, 46.32797
1081.015, 39.03848
1081.497, 32.53253
1081.979, 26.97736
1082.461, 21.93277
1082.944, 17.44382
1083.426, 13.35703
1083.908, 9.584229
1084.390, 6.070343
1084.872, 2.648346
1085.354, 0.5751340
1085.836, 2.867188
1086.318, 3.896881
1086.801, 4.818542
1087.283, 5.755768
1087.765, 6.806580
1088.247, 8.548004
1088.729, 10.56970
1089.211, 11.75668
1089.693, 11.86166
1090.175, 11.36313
1090.657, 9.952362
1091.140, 8.441772
1091.622, 7.299683
1092.104, 6.510315
1092.586, 5.869324
1093.068, 5.300720
1093.550, 4.283783
1094.032, 2.483032
1094.514, 0.4511410
1094.997, 1.187012
1095.479, 2.939819
1095.961, 5.596130
1096.443, 9.482117
1096.925, 13.29932
1097.407, 17.05804
1097.889, 20.65067
1098.371, 23.38959
1098.854, 26.29861
1099.336, 30.96771
1099.818, 37.04767
1100.300, 42.90488
1100.782, 47.38458
1101.264, 52.94055
1101.746, 59.86136
1102.228, 67.85141
1102.710, 76.81720
1103.193, 86.46277
1103.675, 96.11722
1104.157, 105.5993
1104.639, 115.7116
1105.121, 126.6398
1105.603, 138.8351
1106.085, 152.8326
1106.567, 168.0315
1107.049, 182.2485
1107.531, 195.7838
1108.014, 209.5112
1108.496, 223.7505
1108.978, 238.8344
1109.460, 255.4867
1109.942, 272.7547
1110.424, 289.7719
1110.906, 306.6596
1111.388, 322.4418
1111.871, 337.0431
1112.353, 351.8020
1112.835, 368.4293
1113.317, 384.1764
1113.799, 396.2548
1114.281, 405.0957
1114.763, 411.5183
1115.245, 416.9516
1115.728, 417.0226
1116.210, 411.4196
1116.692, 401.5685
1117.174, 388.2965
1117.656, 371.8453
1118.138, 351.7598
1118.620, 328.7043
1119.102, 305.2828
1119.584, 281.9388
1120.067, 258.8069
1120.549, 235.6162
1121.031, 213.0753
1121.513, 191.8801
1121.995, 172.0662
1122.477, 154.4530
1122.959, 138.8449
1123.441, 124.2691
1123.924, 109.8557
1124.406, 96.80582
1124.888, 85.42142
1125.370, 75.67587
1125.852, 67.99969
1126.334, 62.17560
1126.816, 55.85852
1127.298, 48.26843
1127.781, 41.42291
1128.263, 37.39874
1128.745, 34.33569
1129.227, 30.60260
1129.709, 26.19461
1130.191, 22.90149
1130.673, 20.76883
1131.155, 18.49136
1131.637, 15.26779
1132.120, 12.10132
1132.602, 10.14108
1133.084, 8.845337
1133.566, 7.482269
1134.048, 5.693207
1134.530, 4.716034
1135.012, 4.716064
1135.494, 4.838684
1135.976, 4.620361
1136.458, 4.099609
1136.941, 3.075287
1137.423, 1.832031
1137.905, 1.065826
1138.387, 1.350494
1138.869, 1.599457
1139.351, 1.852264
1139.833, 1.873108
1140.315, 1.217468
1140.798, 0.2232670
1141.280, 0.1988830
1141.762, 0.1307370
1142.244, 0.2496340
1142.726, 1.428436
1143.208, 2.003448
1143.690, 1.428192
1144.172, 0.4090880
1144.655, 5.3801998E-02
1145.137, 0.2327270
1145.619, 0.4762270
1146.101, 0.7423710
1146.583, 1.035156
1147.065, 1.179474
1147.547, 1.423096
1148.029, 1.958405
1148.511, 2.578583
1148.994, 2.711426
1149.476, 2.435486
1149.958, 2.425781
1150.440, 2.939819
1150.922, 3.253632
1151.404, 2.745026
1151.886, 1.848602
1152.368, 0.7955020
1152.851, 0.3252560
1153.333, 0.9201970
1153.815, 0.9819640
1154.297, 1.115570
1154.779, 1.572357
1155.261, 2.111145
1155.743, 2.711578
1156.225, 3.157532
1156.708, 3.072357
1157.190, 2.328491
1157.672, 2.071533
1158.154, 2.335175
1158.636, 2.826538
1159.118, 3.613892
1159.600, 4.300903
1160.082, 4.285858
1160.564, 3.912415
1161.047, 3.783691
1161.529, 4.091705
1162.011, 4.404816
1162.493, 4.731873
1162.975, 5.036957
1163.457, 5.222107
1163.939, 5.413635
1164.421, 5.928009
1164.903, 6.600250
1165.385, 6.912170
1165.868, 6.280273
1166.350, 6.198425
1166.832, 6.905151
1167.314, 7.813354
1167.796, 8.474152
1168.278, 8.833710
1168.760, 8.525360
1169.242, 7.702423
1169.725, 7.415009
1170.207, 8.614777
1170.689, 9.429047
1171.171, 9.512939
1171.653, 9.235474
1172.135, 8.845825
1172.617, 8.571320
1173.099, 9.086548
1173.582, 10.44385
1174.064, 11.55139
1174.546, 12.00745
1175.028, 12.09845
1175.510, 11.75040
1175.992, 11.24969
1176.474, 11.19159
1176.956, 11.46371
1177.438, 11.80325
1177.921, 12.18445
1178.403, 12.41919
1178.885, 12.03867
1179.367, 11.99911
1179.849, 12.91022
1180.331, 14.27615
1180.813, 14.37003
1181.295, 13.53513
1181.778, 13.07495
1182.260, 13.43045
1182.742, 13.89420
1183.224, 14.00644
1183.706, 14.31107
1184.188, 15.28897
1184.670, 16.69785
1185.152, 17.00735
1185.635, 16.42743
1186.117, 16.05338
1186.599, 16.38715
1187.081, 16.81366
1187.563, 17.07318
1188.045, 17.27710
1188.527, 17.56982
1189.009, 17.91833
1189.491, 17.70398
1189.974, 17.03580
1190.456, 16.71252
1190.938, 17.44513
1191.420, 18.19339
1191.902, 18.42966
1192.384, 18.42068
1192.866, 18.41736
1193.348, 18.41901
1193.830, 18.63806
1194.313, 19.05151
1194.795, 19.46799
1195.277, 20.17795
1195.759, 20.40277
1196.241, 19.20972
1196.723, 17.65317
1197.205, 17.14917
1197.687, 17.72232
1198.169, 17.97372
1198.652, 17.82980
1199.134, 17.66245
1199.616, 18.14706
1200.098, 18.26367
1200.580, 16.82321
1201.062, 14.82788
1201.544, 13.90704
1202.026, 14.10965
1202.509, 14.84845
1202.991, 16.05145
1203.473, 16.98181
1203.955, 16.80536
1204.437, 16.48898
1204.919, 17.00656
1205.401, 17.74075
1205.883, 17.01202
1206.365, 14.75543
1206.848, 13.70609
1207.330, 14.29449
1207.812, 15.14746
1208.294, 15.20993
1208.776, 15.13132
1209.258, 15.66214
1209.740, 16.43573
1210.222, 16.10251
1210.705, 14.64600
1211.187, 13.86105
1211.669, 14.08276
1212.151, 14.68784
1212.633, 15.61057
1213.115, 16.36902
1213.597, 16.49603
1214.079, 16.15366
1214.562, 15.78781
1215.044, 15.38483
1215.526, 15.15344
1216.008, 15.14523
1216.490, 15.37823
1216.972, 16.32208
1217.454, 17.10184
1217.936, 16.83368
1218.418, 15.76895
1218.901, 15.11176
1219.383, 14.86813
1219.865, 15.26559
1220.347, 16.62006
1220.829, 17.59323
1221.311, 16.58450
1221.793, 15.32660
1222.275, 15.22552
1222.757, 16.09906
1223.240, 16.48990
1223.722, 16.42114
1224.204, 16.31638
1224.686, 16.34790
1225.168, 16.29749
1225.650, 15.96158
1226.132, 15.51520
1226.614, 15.02792
1227.096, 14.53198
1227.579, 14.42603
1228.061, 14.68646
1228.543, 15.07111
1229.025, 15.59509
1229.507, 15.89484
1229.989, 15.58002
1230.471, 15.03638
1230.953, 14.53476
1231.436, 14.11349
1231.918, 13.97467
1232.400, 14.04843
1232.882, 14.10815
1233.364, 14.10425
1233.846, 13.84265
1234.328, 12.80740
1234.810, 11.94678
1235.292, 12.12698
1235.775, 13.12061
1236.257, 13.47919
1236.739, 13.28583
1237.221, 12.96561
1237.703, 12.55957
1238.185, 12.26978
1238.667, 12.19272
1239.149, 12.27856
1239.632, 12.62271
1240.114, 13.13394
1240.596, 13.20721
1241.078, 12.89990
1241.560, 12.59598
1242.042, 12.56073
1242.524, 12.44452
1243.006, 12.10089
1243.489, 11.70230
1243.971, 11.40405
1244.453, 11.23422
1244.935, 11.25775
1245.417, 11.43738
1245.899, 11.64197
1246.381, 11.79071
1246.863, 12.03748
1247.345, 12.55646
1247.828, 12.89606
1248.310, 12.50613
1248.792, 11.68704
1249.274, 11.18335
1249.756, 10.96274
1250.238, 10.86725
1250.720, 10.84915
1251.202, 10.99683
1251.684, 11.42511
1252.167, 11.74475
1252.649, 11.49146
1253.131, 10.95203
1253.613, 10.67749
1254.095, 10.60654
1254.577, 10.50952
1255.059, 10.08978
1255.541, 10.18515
1256.023, 11.02692
1256.506, 11.72528
1256.988, 11.21347
1257.470, 10.28223
1257.952, 10.16998
1258.434, 10.58780
1258.916, 10.54214
1259.398, 9.603302
1259.880, 9.193481
1260.363, 9.452362
1260.845, 9.903168
1261.327, 10.31775
1261.809, 10.57648
1262.291, 10.51315
1262.773, 10.19690
1263.255, 9.823242
1263.737, 9.394470
1264.219, 8.948059
1264.702, 8.485168
1265.184, 8.027954
1265.666, 7.452423
1266.148, 7.021057
1266.630, 7.013947
1267.112, 7.287445
1267.594, 7.602570
1268.076, 7.998657
1268.559, 7.802002
1269.041, 6.974976
1269.523, 6.042511
1270.005, 5.135406
1270.487, 4.466095
1270.969, 4.320953
1271.451, 4.407898
1271.933, 4.425110
1272.416, 4.354889
1272.898, 3.725800
1273.380, 2.607422
1273.862, 2.157196
1274.344, 4.008118
1274.826, 5.421448
1275.308, 5.337006
1275.790, 4.532471
1276.272, 3.902130
1276.755, 3.386566
1277.237, 2.602997
1277.719, 1.628326
1278.201, 1.059174
1278.683, 1.761292
1279.165, 2.027954
1279.647, 1.419891
1280.129, 0.5558780
1280.611, 1.7761000E-02
1281.094, 0.2911680
1281.576, 0.2733760
1282.058, 4.8797999E-02
1282.540, 0.7812190
1283.022, 2.565186
1283.504, 2.812500
1283.986, 2.201508
1284.468, 1.074127
1284.950, 0.0000000E+00
##END=



