##NAMES=Tephroite
##RRUFFID=X050162
##IDEAL CHEMISTRY=Mn^2+^_2_SiO_4_
##LOCALITY=
##OWNER=Caltech
##SOURCE=RD Shannon 56163-
##DESCRIPTION=
##STATUS=The identification of this mineral has been determined only by Raman spectroscopy
##URL=rruff.info/X050162
206.000, 0.000
207.000, 8.869
208.000, 13.078
209.000, 9.642
210.000, 6.356
211.000, 6.027
212.000, 5.859
213.000, 5.074
214.000, 3.936
215.000, 3.058
216.000, 3.671
217.000, 4.614
218.000, 3.032
219.000, 1.253
220.000, 0.324
221.000, 0.226
222.000, 0.307
223.000, 1.150
224.000, 2.003
225.000, 0.943
226.000, 0.734
227.000, 1.291
228.000, 0.063
229.000, 1.146
230.000, 1.529
231.000, 1.911
232.000, 3.631
233.000, 6.068
234.000, 9.204
235.000, 14.181
236.000, 19.150
237.000, 27.574
238.000, 36.350
239.000, 45.374
240.000, 54.607
241.000, 62.285
242.000, 62.283
243.000, 62.011
244.000, 55.173
245.000, 46.939
246.000, 39.258
247.000, 32.422
248.000, 25.961
249.000, 23.348
250.000, 20.730
251.000, 19.032
252.000, 17.671
253.000, 15.830
254.000, 13.508
255.000, 11.324
256.000, 8.004
257.000, 4.501
258.000, 2.292
259.000, 0.880
260.000, 0.090
261.000, 0.746
262.000, 1.379
263.000, 1.996
264.000, 2.598
265.000, 2.678
266.000, 2.400
267.000, 1.901
268.000, 0.744
269.000, 0.424
270.000, 0.867
271.000, 1.264
272.000, 1.017
273.000, 0.227
274.000, 0.467
275.000, 0.745
276.000, 0.808
277.000, 2.887
278.000, 5.370
279.000, 9.148
280.000, 14.205
281.000, 19.749
282.000, 27.824
283.000, 35.915
284.000, 45.420
285.000, 54.933
286.000, 59.448
287.000, 58.465
288.000, 56.308
289.000, 45.680
290.000, 35.170
291.000, 26.731
292.000, 18.871
293.000, 13.794
294.000, 12.032
295.000, 10.895
296.000, 13.961
297.000, 17.073
298.000, 21.571
299.000, 26.486
300.000, 30.296
301.000, 32.743
302.000, 34.659
303.000, 32.092
304.000, 29.575
305.000, 24.415
306.000, 18.545
307.000, 13.504
308.000, 9.697
309.000, 6.309
310.000, 4.651
311.000, 2.695
312.000, 1.505
313.000, 0.563
314.000, 0.254
315.000, 0.652
316.000, 0.904
317.000, 0.403
318.000, 0.085
319.000, 0.137
320.000, 0.520
321.000, 0.472
322.000, 0.036
323.000, 0.517
324.000, 0.691
325.000, 0.916
326.000, 0.096
327.000, 0.908
328.000, 1.488
329.000, 1.671
330.000, 1.925
331.000, 2.777
332.000, 3.629
333.000, 3.734
334.000, 3.674
335.000, 3.777
336.000, 3.984
337.000, 4.340
338.000, 5.244
339.000, 5.848
340.000, 5.019
341.000, 3.854
342.000, 2.937
343.000, 2.231
344.000, 1.918
345.000, 2.440
346.000, 2.928
347.000, 2.586
348.000, 2.168
349.000, 2.266
350.000, 2.642
351.000, 3.103
352.000, 3.559
353.000, 3.747
354.000, 3.370
355.000, 2.829
356.000, 2.573
357.000, 2.365
358.000, 2.084
359.000, 1.696
360.000, 1.220
361.000, 0.775
362.000, 0.338
363.000, 0.200
364.000, 0.029
365.000, 0.396
366.000, 0.992
367.000, 1.351
368.000, 1.069
369.000, 0.775
370.000, 0.073
371.000, 0.632
372.000, 2.528
373.000, 5.044
374.000, 8.083
375.000, 11.974
376.000, 16.078
377.000, 22.611
378.000, 29.140
379.000, 39.517
380.000, 51.020
381.000, 63.783
382.000, 77.805
383.000, 92.125
384.000, 107.790
385.000, 123.703
386.000, 133.507
387.000, 142.775
388.000, 146.471
389.000, 146.758
390.000, 143.821
391.000, 134.239
392.000, 124.599
393.000, 111.709
394.000, 98.916
395.000, 85.550
396.000, 72.063
397.000, 60.006
398.000, 49.713
399.000, 40.322
400.000, 33.635
401.000, 26.751
402.000, 22.020
403.000, 17.480
404.000, 13.517
405.000, 9.928
406.000, 6.852
407.000, 4.660
408.000, 2.587
409.000, 2.158
410.000, 1.765
411.000, 0.708
412.000, 0.485
413.000, 1.186
414.000, 1.519
415.000, 1.634
416.000, 0.811
417.000, 0.059
418.000, 0.636
419.000, 0.982
420.000, 1.224
421.000, 1.406
422.000, 1.727
423.000, 2.269
424.000, 2.730
425.000, 2.799
426.000, 2.806
427.000, 2.753
428.000, 2.548
429.000, 2.540
430.000, 2.593
431.000, 2.001
432.000, 0.773
433.000, 0.055
434.000, 0.794
435.000, 1.625
436.000, 2.056
437.000, 2.358
438.000, 2.147
439.000, 1.545
440.000, 1.186
441.000, 1.408
442.000, 1.586
443.000, 1.702
444.000, 1.762
445.000, 1.853
446.000, 2.008
447.000, 2.171
448.000, 2.237
449.000, 2.128
450.000, 2.197
451.000, 2.329
452.000, 2.920
453.000, 3.512
454.000, 3.427
455.000, 3.085
456.000, 2.958
457.000, 3.106
458.000, 3.137
459.000, 2.919
460.000, 2.907
461.000, 3.812
462.000, 4.350
463.000, 3.892
464.000, 3.082
465.000, 2.530
466.000, 2.159
467.000, 1.888
468.000, 1.946
469.000, 1.995
470.000, 1.148
471.000, 0.292
472.000, 0.097
473.000, 0.113
474.000, 0.106
475.000, 0.560
476.000, 0.689
477.000, 0.136
478.000, 0.928
479.000, 0.408
480.000, 0.115
481.000, 0.404
482.000, 1.214
483.000, 1.540
484.000, 1.458
485.000, 1.241
486.000, 0.717
487.000, 0.261
488.000, 1.024
489.000, 1.812
490.000, 1.780
491.000, 1.406
492.000, 0.739
493.000, 0.274
494.000, 0.148
495.000, 0.610
496.000, 0.932
497.000, 0.531
498.000, 0.147
499.000, 0.185
500.000, 0.291
501.000, 0.721
502.000, 1.323
503.000, 2.342
504.000, 3.890
505.000, 5.851
506.000, 9.271
507.000, 12.724
508.000, 17.981
509.000, 23.282
510.000, 31.332
511.000, 40.261
512.000, 47.284
513.000, 52.652
514.000, 55.095
515.000, 51.123
516.000, 46.830
517.000, 38.401
518.000, 29.916
519.000, 23.420
520.000, 17.498
521.000, 13.548
522.000, 10.079
523.000, 7.072
524.000, 4.827
525.000, 2.868
526.000, 1.969
527.000, 1.061
528.000, 0.592
529.000, 0.110
530.000, 0.034
531.000, 0.103
532.000, 0.057
533.000, 0.386
534.000, 0.370
535.000, 0.253
536.000, 0.655
537.000, 0.430
538.000, 1.488
539.000, 2.103
540.000, 2.801
541.000, 4.559
542.000, 6.522
543.000, 7.448
544.000, 7.483
545.000, 7.488
546.000, 7.401
547.000, 7.127
548.000, 6.067
549.000, 5.057
550.000, 4.008
551.000, 2.670
552.000, 1.425
553.000, 0.770
554.000, 0.228
555.000, 0.316
556.000, 0.601
557.000, 0.261
558.000, 0.163
559.000, 1.414
560.000, 2.670
561.000, 4.343
562.000, 6.074
563.000, 8.778
564.000, 11.908
565.000, 15.971
566.000, 20.954
567.000, 27.090
568.000, 35.782
569.000, 44.548
570.000, 53.745
571.000, 62.835
572.000, 67.237
573.000, 71.418
574.000, 70.023
575.000, 66.560
576.000, 59.666
577.000, 49.850
578.000, 40.693
579.000, 32.731
580.000, 25.083
581.000, 18.981
582.000, 12.895
583.000, 10.394
584.000, 8.049
585.000, 6.228
586.000, 4.569
587.000, 3.740
588.000, 3.318
589.000, 2.445
590.000, 1.031
591.000, 0.048
592.000, 0.079
593.000, 0.073
594.000, 0.359
595.000, 0.793
596.000, 0.824
597.000, 0.798
598.000, 0.449
599.000, 0.040
600.000, 0.297
601.000, 0.351
602.000, 0.261
603.000, 0.100
604.000, 0.446
605.000, 0.782
606.000, 1.111
607.000, 0.968
608.000, 0.812
609.000, 1.034
610.000, 1.351
611.000, 1.646
612.000, 1.922
613.000, 1.965
614.000, 1.759
615.000, 1.489
616.000, 1.065
617.000, 0.669
618.000, 0.657
619.000, 0.781
620.000, 0.968
621.000, 1.161
622.000, 0.978
623.000, 0.713
624.000, 0.472
625.000, 0.192
626.000, 0.345
627.000, 0.968
628.000, 1.286
629.000, 0.965
630.000, 0.637
631.000, 0.306
632.000, 0.026
633.000, 0.099
634.000, 0.236
635.000, 0.375
636.000, 0.513
637.000, 0.332
638.000, 0.001
639.000, 0.096
640.000, 0.017
641.000, 0.110
642.000, 0.211
643.000, 0.319
644.000, 0.424
645.000, 0.553
646.000, 1.117
647.000, 1.670
648.000, 1.354
649.000, 0.986
650.000, 1.357
651.000, 1.936
652.000, 1.941
653.000, 1.568
654.000, 1.592
655.000, 2.075
656.000, 2.159
657.000, 1.280
658.000, 0.556
659.000, 0.614
660.000, 0.673
661.000, 0.731
662.000, 0.786
663.000, 0.430
664.000, 0.013
665.000, 0.068
666.000, 0.026
667.000, 0.008
668.000, 0.036
669.000, 0.271
670.000, 0.759
671.000, 1.102
672.000, 1.120
673.000, 1.179
674.000, 1.247
675.000, 1.306
676.000, 1.311
677.000, 1.313
678.000, 1.312
679.000, 1.305
680.000, 0.921
681.000, 0.391
682.000, 0.466
683.000, 0.897
684.000, 1.097
685.000, 1.070
686.000, 0.876
687.000, 0.383
688.000, 0.003
689.000, 0.034
690.000, 0.021
691.000, 0.407
692.000, 0.833
693.000, 0.799
694.000, 0.762
695.000, 1.135
696.000, 1.586
697.000, 1.326
698.000, 0.810
699.000, 0.576
700.000, 0.536
701.000, 0.715
702.000, 1.141
703.000, 1.399
704.000, 1.310
705.000, 1.219
706.000, 1.128
707.000, 1.036
708.000, 0.527
709.000, 0.021
710.000, 0.016
711.000, 0.050
712.000, 0.330
713.000, 0.804
714.000, 0.528
715.000, 0.024
716.000, 0.131
717.000, 0.575
718.000, 0.523
719.000, 0.045
720.000, 0.011
721.000, 0.494
722.000, 1.003
723.000, 1.516
724.000, 1.831
725.000, 1.363
726.000, 0.876
727.000, 0.371
728.000, 0.110
729.000, 0.340
730.000, 0.819
731.000, 0.874
732.000, 0.866
733.000, 0.505
734.000, 0.040
735.000, 0.119
736.000, 0.132
737.000, 0.129
738.000, 0.116
739.000, 0.109
740.000, 0.593
741.000, 1.074
742.000, 1.553
743.000, 1.912
744.000, 1.874
745.000, 1.944
746.000, 2.436
747.000, 2.916
748.000, 2.944
749.000, 2.970
750.000, 3.428
751.000, 3.887
752.000, 3.952
753.000, 3.962
754.000, 4.333
755.000, 4.822
756.000, 5.294
757.000, 5.736
758.000, 6.147
759.000, 6.546
760.000, 6.704
761.000, 6.656
762.000, 6.786
763.000, 7.220
764.000, 7.497
765.000, 7.560
766.000, 7.765
767.000, 8.359
768.000, 8.933
769.000, 9.519
770.000, 9.566
771.000, 9.031
772.000, 8.120
773.000, 7.059
774.000, 5.852
775.000, 4.497
776.000, 2.983
777.000, 2.056
778.000, 1.166
779.000, 0.801
780.000, 0.567
781.000, 0.409
782.000, 1.894
783.000, 2.503
784.000, 2.421
785.000, 2.031
786.000, 1.249
787.000, 0.213
788.000, 2.786
789.000, 5.315
790.000, 7.782
791.000, 10.651
792.000, 14.921
793.000, 20.400
794.000, 31.544
795.000, 44.090
796.000, 68.106
797.000, 92.667
798.000, 142.697
799.000, 192.777
800.000, 298.770
801.000, 407.790
802.000, 630.476
803.000, 867.809
804.000, 1205.406
805.000, 1564.996
806.000, 1757.416
807.000, 1896.783
808.000, 1762.395
809.000, 1504.685
810.000, 1207.065
811.000, 884.964
812.000, 636.396
813.000, 445.424
814.000, 303.037
815.000, 209.429
816.000, 137.898
817.000, 94.628
818.000, 59.048
819.000, 36.000
820.000, 16.825
821.000, 5.739
822.000, 3.167
823.000, 6.288
824.000, 7.861
825.000, 3.345
826.000, 2.722
827.000, 17.611
828.000, 34.492
829.000, 69.175
830.000, 105.716
831.000, 181.178
832.000, 256.787
833.000, 410.286
834.000, 564.696
835.000, 808.264
836.000, 1057.724
837.000, 1242.998
838.000, 1419.069
839.000, 1344.653
840.000, 1222.474
841.000, 997.102
842.000, 746.158
843.000, 554.821
844.000, 384.210
845.000, 274.280
846.000, 190.182
847.000, 135.641
848.000, 96.400
849.000, 68.998
850.000, 49.033
851.000, 34.103
852.000, 22.882
853.000, 14.902
854.000, 9.868
855.000, 5.887
856.000, 3.007
857.000, 0.834
858.000, 0.571
859.000, 1.468
860.000, 1.647
861.000, 1.611
862.000, 1.122
863.000, 0.613
864.000, 0.075
865.000, 0.633
866.000, 1.067
867.000, 1.775
868.000, 3.414
869.000, 4.668
870.000, 5.056
871.000, 5.328
872.000, 5.477
873.000, 5.684
874.000, 6.409
875.000, 6.473
876.000, 6.204
877.000, 5.685
878.000, 5.160
879.000, 4.669
880.000, 4.322
881.000, 4.042
882.000, 4.154
883.000, 4.285
884.000, 4.965
885.000, 5.635
886.000, 5.751
887.000, 5.818
888.000, 7.301
889.000, 8.696
890.000, 7.616
891.000, 6.512
892.000, 5.424
893.000, 4.343
894.000, 3.482
895.000, 2.550
896.000, 2.400
897.000, 2.329
898.000, 1.867
899.000, 1.435
900.000, 1.542
901.000, 1.483
902.000, 0.943
903.000, 0.337
904.000, 0.594
905.000, 0.965
906.000, 1.332
907.000, 1.695
908.000, 0.778
909.000, 0.361
910.000, 0.255
911.000, 0.058
912.000, 0.049
913.000, 0.238
914.000, 0.448
915.000, 0.682
916.000, 0.109
917.000, 0.642
918.000, 1.385
919.000, 2.109
920.000, 4.084
921.000, 6.359
922.000, 9.872
923.000, 13.672
924.000, 23.567
925.000, 34.673
926.000, 57.213
927.000, 82.551
928.000, 112.362
929.000, 143.180
930.000, 151.985
931.000, 155.692
932.000, 136.336
933.000, 111.769
934.000, 87.622
935.000, 63.583
936.000, 47.828
937.000, 33.845
938.000, 25.295
939.000, 17.864
940.000, 13.391
941.000, 9.512
942.000, 7.356
943.000, 5.553
944.000, 4.336
945.000, 3.362
946.000, 3.004
947.000, 2.417
948.000, 1.672
949.000, 0.934
950.000, 1.100
951.000, 1.382
952.000, 1.212
953.000, 0.998
954.000, 0.787
955.000, 0.577
956.000, 0.368
957.000, 0.159
958.000, 0.052
959.000, 0.269
960.000, 0.503
961.000, 0.763
962.000, 0.061
963.000, 0.632
964.000, 1.317
965.000, 1.978
966.000, 2.142
967.000, 2.299
968.000, 2.448
969.000, 2.549
970.000, 2.175
971.000, 1.844
972.000, 1.957
973.000, 2.126
974.000, 2.699
975.000, 2.959
976.000, 2.204
977.000, 1.470
978.000, 1.868
979.000, 2.208
980.000, 1.747
981.000, 1.411
982.000, 1.500
983.000, 1.572
984.000, 1.629
985.000, 1.514
986.000, 1.036
987.000, 0.902
988.000, 1.419
989.000, 1.546
990.000, 1.040
991.000, 0.750
992.000, 0.770
993.000, 0.803
994.000, 0.840
995.000, 0.624
996.000, 0.145
997.000, 0.066
998.000, 0.043
999.000, 0.024
1000.000, 0.010
1001.000, 0.002
1002.000, 0.012
1003.000, 0.354
1004.000, 0.872
1005.000, 0.674
1006.000, 0.168
1007.000, 0.078
1008.000, 0.081
1009.000, 0.081
1010.000, 0.080
1011.000, 0.545
1012.000, 1.047
1013.000, 1.500
1014.000, 1.964
1015.000, 1.478
1016.000, 0.933
1017.000, 0.900
1018.000, 0.897
1019.000, 1.398
1020.000, 1.762
1021.000, 0.722
1022.000, 0.099
1023.000, 0.395
1024.000, 0.687
1025.000, 0.154
1026.000, 0.118
1027.000, 0.379
1028.000, 0.717
1029.000, 0.703
1030.000, 0.882
1031.000, 1.389
1032.000, 1.678
1033.000, 1.674
1034.000, 1.420
1035.000, 0.902
1036.000, 0.669
1037.000, 0.669
1038.000, 0.949
1039.000, 1.468
1040.000, 1.640
1041.000, 1.645
1042.000, 1.611
1043.000, 1.619
1044.000, 1.657
1045.000, 1.691
1046.000, 1.720
1047.000, 1.744
1048.000, 1.764
1049.000, 1.777
1050.000, 1.273
1051.000, 0.809
1052.000, 0.823
1053.000, 0.836
1054.000, 0.852
1055.000, 0.867
1056.000, 0.883
1057.000, 0.745
1058.000, 0.243
1059.000, 0.066
1060.000, 0.051
1061.000, 0.037
1062.000, 0.025
1063.000, 0.016
1064.000, 0.007
1065.000, 0.001
1066.000, 0.009
1067.000, 0.371
1068.000, 0.899
1069.000, 0.637
1070.000, 0.123
1071.000, 0.046
1072.000, 0.053
1073.000, 0.062
1074.000, 0.071
1075.000, 0.050
1076.000, 0.036
1077.000, 0.021
1078.000, 0.104
1079.000, 0.627
1080.000, 1.022
1081.000, 1.035
1082.000, 1.052
1083.000, 1.064
1084.000, 1.075
1085.000, 1.084
1086.000, 0.815
1087.000, 0.296
1088.000, 0.103
1089.000, 0.112
1090.000, 0.121
1091.000, 0.121
1092.000, 0.540
1093.000, 1.104
1094.000, 1.288
1095.000, 1.458
1096.000, 0.960
1097.000, 0.511
1098.000, 1.013
1099.000, 1.412
1100.000, 1.378
1101.000, 1.340
1102.000, 1.296
1103.000, 1.126
1104.000, 0.542
1105.000, 0.463
1106.000, 0.920
1107.000, 0.752
1108.000, 0.147
1109.000, 0.101
1110.000, 0.201
1111.000, 0.102
1112.000, 0.505
1113.000, 0.899
1114.000, 1.291
1115.000, 1.153
1116.000, 0.952
1117.000, 0.278
1118.000, 0.165
1119.000, 0.207
1120.000, 0.571
1121.000, 0.930
1122.000, 1.063
1123.000, 0.900
1124.000, 0.693
1125.000, 0.392
1126.000, 0.754
1127.000, 1.614
1128.000, 2.102
1129.000, 2.475
1130.000, 2.377
1131.000, 2.227
1132.000, 2.080
1133.000, 1.936
1134.000, 1.716
1135.000, 1.712
1136.000, 2.116
1137.000, 2.332
1138.000, 2.242
1139.000, 1.902
1140.000, 1.268
1141.000, 1.289
1142.000, 1.744
1143.000, 1.820
1144.000, 1.759
1145.000, 1.251
1146.000, 0.691
1147.000, 0.638
1148.000, 0.605
1149.000, 0.579
1150.000, 0.564
1151.000, 0.557
1152.000, 0.374
1153.000, 0.147
1154.000, 0.145
1155.000, 0.414
1156.000, 0.652
1157.000, 0.689
1158.000, 0.731
1159.000, 0.778
1160.000, 0.361
1161.000, 0.105
1162.000, 0.493
1163.000, 1.016
1164.000, 1.081
1165.000, 1.149
1166.000, 1.285
1167.000, 1.297
1168.000, 0.865
1169.000, 0.699
1170.000, 0.781
1171.000, 0.497
1172.000, 0.034
1173.000, 0.021
1174.000, 0.098
1175.000, 0.159
1176.000, 0.208
1177.000, 0.236
1178.000, 0.430
1179.000, 1.085
1180.000, 1.065
1181.000, 0.011
1182.000, 0.170
1183.000, 0.391
1184.000, 0.557
1185.000, 0.535
1186.000, 0.981
1187.000, 1.536
1188.000, 1.532
1189.000, 1.542
1190.000, 1.939
1191.000, 2.159
1192.000, 2.027
1193.000, 1.607
1194.000, 0.836
1195.000, 1.019
1196.000, 1.953
1197.000, 2.031
1198.000, 1.749
1199.000, 1.958
1200.000, 2.083
1201.000, 1.599
1202.000, 1.226
1203.000, 1.420
1204.000, 1.671
1205.000, 2.131
1206.000, 2.115
1207.000, 1.899
1208.000, 2.011
1209.000, 2.330
1210.000, 1.624
1211.000, 0.747
1212.000, 0.428
1213.000, 0.166
1214.000, 0.293
1215.000, 0.397
1216.000, 0.486
1217.000, 0.245
1218.000, 0.322
1219.000, 0.170
1220.000, 0.359
1221.000, 0.440
1222.000, 1.494
1223.000, 0.458
1224.000, 0.504
1225.000, 1.045
1226.000, 1.383
1227.000, 1.261
1228.000, 1.394
1229.000, 1.763
1230.000, 2.253
1231.000, 2.850
1232.000, 4.961
1233.000, 7.289
1234.000, 8.969
1235.000, 10.795
1236.000, 12.762
1237.000, 15.090
1238.000, 17.792
1239.000, 20.931
1240.000, 24.211
1241.000, 27.551
1242.000, 30.954
1243.000, 34.432
1244.000, 37.925
1245.000, 41.012
1246.000, 43.183
1247.000, 43.104
1248.000, 43.093
1249.000, 43.155
1250.000, 41.089
1251.000, 37.987
1252.000, 34.470
1253.000, 30.946
1254.000, 27.498
1255.000, 23.989
1256.000, 20.140
1257.000, 16.389
1258.000, 12.766
1259.000, 10.309
1260.000, 8.533
1261.000, 6.531
1262.000, 4.558
1263.000, 3.871
1264.000, 3.183
1265.000, 2.104
1266.000, 0.968
1267.000, 0.176
1268.000, 0.098
1269.000, 0.078
1270.000, 0.049
1271.000, 0.209
1272.000, 0.318
1273.000, 0.464
1274.000, 0.669
1275.000, 0.529
1276.000, 0.266
1277.000, 0.395
1278.000, 0.021
1279.000, 0.086
1280.000, 0.089
1281.000, 0.932
1282.000, 1.563
1283.000, 0.315
1284.000, 0.149
1285.000, 0.713
1286.000, 0.871
1287.000, 0.486
1288.000, 0.446
1289.000, 0.396
1290.000, 0.183
1291.000, 0.059
1292.000, 0.080
1293.000, 0.097
1294.000, 0.399
1295.000, 0.605
1296.000, 0.742
1297.000, 1.604
1298.000, 2.449
1299.000, 1.491
1300.000, 0.759
1301.000, 1.537
1302.000, 2.601
1303.000, 3.879
1304.000, 4.380
1305.000, 4.576
1306.000, 6.348
1307.000, 8.197
1308.000, 9.577
1309.000, 10.793
1310.000, 11.695
1311.000, 12.306
1312.000, 12.702
1313.000, 12.660
1314.000, 12.520
1315.000, 12.397
1316.000, 11.877
1317.000, 10.102
1318.000, 9.142
1319.000, 9.087
1320.000, 8.260
1321.000, 7.109
1322.000, 5.560
1323.000, 4.245
1324.000, 4.372
1325.000, 4.074
1326.000, 3.094
1327.000, 2.474
1328.000, 2.086
1329.000, 2.193
1330.000, 2.252
1331.000, 2.311
1332.000, 2.194
1333.000, 1.689
1334.000, 1.495
1335.000, 1.557
1336.000, 0.730
1337.000, 0.322
1338.000, 0.272
1339.000, 0.233
1340.000, 0.205
1341.000, 0.187
1342.000, 0.182
1343.000, 0.190
1344.000, 0.211
1345.000, 0.867
1346.000, 1.843
1347.000, 2.371
1348.000, 2.895
1349.000, 3.416
1350.000, 3.934
1351.000, 4.449
1352.000, 4.963
1353.000, 5.479
1354.000, 6.455
1355.000, 7.178
1356.000, 7.584
1357.000, 8.377
1358.000, 9.329
1359.000, 9.743
1360.000, 9.934
1361.000, 9.349
1362.000, 8.732
1363.000, 8.111
1364.000, 7.915
1365.000, 7.886
1366.000, 7.866
1367.000, 7.687
1368.000, 6.650
1369.000, 5.833
1370.000, 5.308
1371.000, 5.587
1372.000, 6.001
1373.000, 5.171
1374.000, 4.104
1375.000, 2.561
1376.000, 2.160
1377.000, 2.753
1378.000, 2.360
1379.000, 1.635
1380.000, 1.423
1381.000, 1.004
1382.000, 0.130
1383.000, 0.165
1384.000, 0.005
1385.000, 0.102
1386.000, 0.206
1387.000, 1.290
1388.000, 2.091
1389.000, 2.433
1390.000, 2.322
1391.000, 1.854
1392.000, 2.862
1393.000, 3.970
1394.000, 5.045
1395.000, 6.594
1396.000, 8.664
1397.000, 10.479
1398.000, 12.006
1399.000, 13.211
1400.000, 13.853
1401.000, 13.811
1402.000, 13.289
1403.000, 12.396
1404.000, 10.606
1405.000, 8.519
1406.000, 5.841
1407.000, 4.089
1408.000, 4.297
1409.000, 3.065
1410.000, 0.951
1411.000, 0.144
1412.000, 1.078
1413.000, 1.607
1414.000, 1.636
1415.000, 1.093
1416.000, 0.998
1417.000, 0.971
1418.000, 0.199
1419.000, 1.225
1420.000, 1.918
1421.000, 3.399
1422.000, 5.395
1423.000, 6.895
1424.000, 8.478
1425.000, 10.102
1426.000, 11.194
1427.000, 11.828
1428.000, 11.879
1429.000, 11.789
1430.000, 10.923
1431.000, 11.008
1432.000, 12.167
1433.000, 14.370
1434.000, 17.332
1435.000, 21.597
1436.000, 26.845
1437.000, 34.483
1438.000, 42.645
1439.000, 51.284
1440.000, 63.626
1441.000, 76.551
1442.000, 88.209
1443.000, 99.573
1444.000, 110.544
1445.000, 118.678
1446.000, 125.537
1447.000, 124.226
1448.000, 121.844
1449.000, 117.377
1450.000, 109.181
1451.000, 99.329
1452.000, 85.670
1453.000, 72.619
1454.000, 61.632
1455.000, 50.614
1456.000, 39.450
1457.000, 31.951
1458.000, 25.176
1459.000, 19.932
1460.000, 15.044
1461.000, 9.827
1462.000, 5.995
1463.000, 2.766
1464.000, 1.243
1465.000, 0.024
1466.000, 1.290
1467.000, 1.261
1468.000, 0.836
1469.000, 1.202
1470.000, 1.287
1471.000, 0.818
1472.000, 0.108
1473.000, 0.505
1474.000, 0.188
1475.000, 0.202
1476.000, 2.658
1477.000, 3.709
1478.000, 4.011
1479.000, 3.525
1480.000, 3.824
1481.000, 5.935
1482.000, 6.121
1483.000, 5.252
1484.000, 6.594
1485.000, 7.245
1486.000, 7.447
1487.000, 8.265
1488.000, 7.848
1489.000, 8.036
1490.000, 7.844
1491.000, 8.070
1492.000, 6.953
1493.000, 5.175
1494.000, 5.053
1495.000, 4.933
1496.000, 4.344
1497.000, 3.413
1498.000, 2.333
1499.000, 0.786
1500.000, 0.000
##END=



