##NAMES=Terlinguaite
##RRUFFID=R060492
##IDEAL CHEMISTRY=Hg_2_OCl
##LOCALITY=Mariposa mine, Terlingua Mining District, Brewster County, Texas, USA
##OWNER=RRUFF
##SOURCE=Michael Scott
##DESCRIPTION=Pale green colored mass showing perfect cleavage
##STATUS=The identification of this mineral has been confirmed by single-crystal X-ray diffraction.
##URL=rruff.info/R060492
97.97919, 0.0000000E+00
98.46130, 0.2517850
98.94342, 5.024292
99.42554, 12.52431
99.90765, 21.58386
100.3898, 32.07544
100.8719, 43.36102
101.3540, 55.60138
101.8361, 69.90806
102.3182, 81.39313
102.8004, 88.71719
103.2825, 92.39573
103.7646, 90.86665
104.2467, 82.98904
104.7288, 71.01281
105.2109, 59.84486
105.6931, 48.38939
106.1752, 38.44412
106.6573, 30.67088
107.1394, 25.67787
107.6215, 22.08295
108.1036, 20.23065
108.5858, 20.03503
109.0679, 20.64378
109.5500, 22.27686
110.0321, 25.05282
110.5142, 28.26682
110.9963, 31.67439
111.4785, 35.27326
111.9606, 38.73001
112.4427, 42.32182
112.9248, 45.38857
113.4069, 47.95094
113.8890, 49.18341
114.3712, 48.98824
114.8533, 47.15913
115.3354, 44.24231
115.8175, 40.15179
116.2996, 34.86199
116.7817, 29.51535
117.2639, 24.10546
117.7460, 18.99792
118.2281, 14.50160
118.7102, 10.78463
119.1923, 7.641285
119.6744, 5.020573
120.1566, 2.934452
120.6387, 1.229591
121.1208, 0.1234860
121.6029, 1.158058
122.0850, 1.919815
122.5671, 2.286568
123.0493, 2.458782
123.5314, 2.663315
124.0135, 2.988960
124.4956, 3.225212
124.9777, 3.082806
125.4598, 2.645317
125.9420, 2.226433
126.4241, 2.154606
126.9062, 2.223946
127.3883, 2.073074
127.8704, 1.669491
128.3525, 0.9629440
128.8347, 0.2976230
129.3168, 2.085388
129.7989, 3.830311
130.2810, 4.988010
130.7631, 5.690166
131.2452, 6.490158
131.7274, 7.401596
132.2095, 8.557499
132.6916, 10.50745
133.1737, 13.36953
133.6558, 16.29934
134.1379, 18.29274
134.6201, 19.37085
135.1022, 20.95741
135.5843, 23.53515
136.0664, 27.00500
136.5485, 30.57719
137.0306, 34.28060
137.5128, 38.05993
137.9949, 41.92322
138.4770, 45.85898
138.9591, 50.00257
139.4412, 54.53495
139.9233, 59.46601
140.4055, 64.16307
140.8876, 68.60331
141.3697, 72.84303
141.8518, 76.96491
142.3339, 80.83705
142.8160, 84.81805
143.2982, 89.06519
143.7803, 93.57199
144.2624, 98.19471
144.7445, 102.9440
145.2266, 107.8240
145.7087, 112.5689
146.1909, 116.9090
146.6730, 121.5528
147.1551, 126.8345
147.6372, 132.8329
148.1193, 139.2608
148.6014, 146.2291
149.0836, 153.6339
149.5657, 161.4148
150.0478, 169.1405
150.5299, 177.4108
151.0120, 186.5600
151.4941, 196.8312
151.9763, 207.5651
152.4584, 219.3721
152.9405, 231.8857
153.4226, 243.5223
153.9047, 254.7769
154.3868, 264.7243
154.8690, 272.8606
155.3511, 279.1879
155.8332, 284.0366
156.3153, 287.3098
156.7974, 288.8592
157.2795, 287.6089
157.7617, 282.9877
158.2438, 275.6636
158.7259, 266.1195
159.2080, 253.3628
159.6901, 239.4559
160.1722, 224.6104
160.6544, 208.8928
161.1365, 193.2788
161.6186, 177.6214
162.1007, 162.5277
162.5828, 148.1655
163.0649, 134.3814
163.5471, 121.7016
164.0292, 110.4653
164.5113, 100.6837
164.9934, 91.84010
165.4755, 83.75220
165.9576, 76.40341
166.4398, 69.87901
166.9219, 64.17384
167.4040, 59.21791
167.8861, 55.17368
168.3682, 52.05295
168.8503, 49.27135
169.3325, 46.41754
169.8146, 43.65265
170.2967, 41.27505
170.7788, 39.56063
171.2609, 38.18012
171.7430, 36.86685
172.2252, 35.59100
172.7073, 34.43431
173.1894, 33.49773
173.6715, 32.72590
174.1536, 32.02569
174.6357, 31.39149
175.1179, 30.74204
175.6000, 29.98113
176.0821, 29.10160
176.5642, 28.12370
177.0463, 27.03903
177.5284, 25.86289
178.0106, 24.66738
178.4927, 23.46956
178.9748, 22.24564
179.4569, 21.00565
179.9390, 19.74809
180.4211, 18.55698
180.9033, 17.52682
181.3854, 16.63260
181.8675, 15.77346
182.3496, 14.88205
182.8317, 14.01505
183.3138, 13.24861
183.7960, 12.59843
184.2781, 12.00861
184.7602, 11.37621
185.2423, 10.73426
185.7244, 10.27432
186.2065, 10.29315
186.6887, 10.67202
187.1708, 10.74895
187.6529, 10.32438
188.1350, 9.743797
188.6171, 9.654427
189.0992, 10.04746
189.5814, 10.54703
190.0635, 10.90692
190.5456, 11.16542
191.0277, 11.50181
191.5098, 11.92894
191.9919, 12.44047
192.4741, 13.04196
192.9562, 13.73171
193.4383, 14.42991
193.9204, 15.05920
194.4025, 15.61642
194.8846, 16.25121
195.3668, 16.99541
195.8489, 17.82083
196.3310, 18.66528
196.8131, 19.52688
197.2952, 20.35275
197.7773, 21.17660
198.2595, 22.00753
198.7416, 22.62377
199.2237, 22.95891
199.7058, 23.07314
200.1879, 23.17342
200.6700, 23.29732
201.1522, 23.26164
201.6343, 22.89985
202.1164, 22.18283
202.5985, 21.41034
203.0806, 20.61705
203.5627, 19.79998
204.0449, 18.95487
204.5270, 18.07472
205.0091, 17.18697
205.4912, 16.29993
205.9733, 15.40582
206.4554, 14.57067
206.9376, 13.83091
207.4197, 13.14934
207.9018, 12.31519
208.3839, 11.24685
208.8660, 10.23234
209.3481, 9.492046
209.8303, 9.066053
210.3124, 8.722473
210.7945, 8.465652
211.2766, 8.269779
211.7587, 7.992069
212.2408, 7.568316
212.7230, 7.196926
213.2051, 7.038979
213.6872, 7.181519
214.1693, 7.223907
214.6514, 7.098961
215.1335, 6.840126
215.6157, 6.610111
216.0978, 6.408318
216.5799, 6.230471
217.0620, 6.069361
217.5441, 5.918444
218.0262, 5.802393
218.5084, 5.727432
218.9905, 5.688005
219.4726, 5.664442
219.9547, 5.666275
220.4368, 5.667147
220.9189, 5.638458
221.4011, 5.538021
221.8832, 5.533564
222.3653, 5.714157
222.8474, 6.003984
223.3295, 6.037672
223.8116, 5.684175
224.2938, 5.282843
224.7759, 5.037737
225.2580, 5.003851
225.7401, 5.002804
226.2222, 5.043699
226.7043, 5.108070
227.1865, 5.119633
227.6686, 5.073992
228.1507, 4.982267
228.6328, 4.847368
229.1149, 4.655773
229.5970, 4.453384
230.0792, 4.242126
230.5613, 4.022320
231.0434, 3.799576
231.5255, 3.565228
232.0076, 3.345869
232.4897, 3.165710
232.9719, 3.060833
233.4540, 2.914989
233.9361, 2.710806
234.4182, 2.463032
234.9003, 2.212843
235.3824, 1.931206
235.8646, 1.688990
236.3467, 1.530798
236.8288, 1.513073
237.3109, 1.455048
237.7930, 1.350878
238.2751, 1.202919
238.7573, 1.012623
239.2394, 0.7234170
239.7215, 0.4696430
240.2036, 0.3204000
240.6857, 0.3452660
241.1678, 0.3135320
241.6500, 0.1954840
242.1321, 2.9620999E-02
242.6142, 8.3773002E-02
243.0963, 0.1010230
243.5784, 0.1294310
244.0605, 0.2245030
244.5427, 0.4484770
245.0248, 0.5724510
245.5069, 0.5426790
245.9890, 0.4383180
246.4711, 0.4321880
246.9532, 0.5654770
247.4354, 0.7234780
247.9175, 0.8687740
248.3996, 1.011187
248.8817, 1.118174
249.3638, 1.208632
249.8459, 1.254860
250.3281, 1.189583
250.8102, 0.9406830
251.2923, 0.7041130
251.7744, 0.5395930
252.2565, 0.4514600
252.7386, 0.4311960
253.2208, 0.5359920
253.7029, 0.6661190
254.1850, 0.6461300
254.6671, 0.3691200
255.1492, 0.1538240
255.6313, 0.1314320
256.1135, 0.3496190
256.5956, 0.4318350
257.0777, 0.3209950
257.5598, 0.1293050
258.0419, 1.4761000E-02
258.5240, 2.8278001E-02
259.0062, 2.3520000E-03
259.4883, 0.1246300
259.9704, 0.3595700
260.4525, 0.5495910
260.9346, 0.6640300
261.4167, 0.7625180
261.8989, 0.9244590
262.3810, 1.187826
262.8631, 1.426331
263.3452, 1.586998
263.8273, 1.670000
264.3094, 1.810043
264.7916, 2.001181
265.2737, 2.255856
265.7558, 2.610670
266.2379, 3.104412
266.7200, 3.575430
267.2021, 3.977871
267.6843, 4.320608
268.1664, 4.724218
268.6485, 5.190504
269.1306, 5.698980
269.6127, 6.216984
270.0948, 6.725967
270.5770, 7.334438
271.0591, 8.096556
271.5412, 8.967285
272.0233, 9.750450
272.5054, 10.40535
272.9875, 11.02872
273.4697, 11.68135
273.9518, 12.37224
274.4339, 13.07549
274.9160, 13.78150
275.3981, 14.49931
275.8802, 15.28373
276.3624, 16.13592
276.8445, 17.00969
277.3266, 17.86683
277.8087, 18.70510
278.2908, 19.60919
278.7729, 20.59669
279.2551, 21.62866
279.7372, 22.53506
280.2193, 23.28485
280.7014, 24.14359
281.1835, 25.34580
281.6656, 26.88243
282.1478, 28.19354
282.6299, 29.18878
283.1120, 30.09175
283.5941, 31.33465
284.0762, 32.94297
284.5583, 34.48288
285.0405, 35.75349
285.5226, 36.77711
286.0047, 37.80808
286.4868, 38.89621
286.9689, 39.82817
287.4510, 40.28799
287.9332, 40.28803
288.4153, 40.09103
288.8974, 39.89389
289.3795, 39.58986
289.8616, 38.71355
290.3438, 37.22615
290.8259, 35.43510
291.3080, 33.63586
291.7901, 31.82789
292.2722, 29.89594
292.7543, 27.78703
293.2365, 25.55877
293.7186, 23.28341
294.2007, 20.97747
294.6828, 18.83453
295.1649, 17.10106
295.6470, 15.69967
296.1292, 14.29990
296.6113, 12.76768
297.0934, 11.27312
297.5755, 10.08418
298.0576, 9.184019
298.5397, 8.439535
299.0219, 7.782269
299.5040, 7.194956
299.9861, 6.654217
300.4682, 6.164116
300.9503, 5.701277
301.4324, 5.208366
301.9146, 4.704050
302.3967, 4.248554
302.8788, 3.922155
303.3609, 3.670685
303.8430, 3.416609
304.3251, 3.142405
304.8073, 2.867210
305.2894, 2.605986
305.7715, 2.358837
306.2536, 2.118174
306.7357, 1.862101
307.2178, 1.624132
307.7000, 1.459242
308.1821, 1.383947
308.6642, 1.318970
309.1463, 1.183744
309.6284, 1.014473
310.1105, 0.8678000
310.5927, 0.7686210
311.0748, 0.6931100
311.5569, 0.6309990
312.0390, 0.5882320
312.5211, 0.5653970
313.0032, 0.5498600
313.4854, 0.5418610
313.9675, 0.5407980
314.4496, 0.6129250
314.9317, 0.6528220
315.4138, 0.5844100
315.8959, 0.4225830
316.3781, 0.2721560
316.8602, 0.1628890
317.3423, 9.9120997E-02
317.8244, 8.8042997E-02
318.3065, 0.2019060
318.7886, 0.2676350
319.2708, 0.1843470
319.7529, 3.2860001E-03
320.2350, 0.1320460
320.7171, 0.1635040
321.1992, 0.1500400
321.6813, 0.1092430
322.1635, 8.4229996E-03
322.6456, 3.9666999E-02
323.1277, 2.8097000E-02
323.6098, 0.1556990
324.0919, 0.2506660
324.5740, 0.3031540
325.0562, 0.3154830
325.5383, 0.2739940
326.0204, 0.1571540
326.5025, 7.3142998E-02
326.9846, 3.4660000E-02
327.4667, 2.9712999E-02
327.9489, 4.5802999E-02
328.4310, 0.1542150
328.9131, 0.2023620
329.3952, 0.1407200
329.8773, 3.4653001E-02
330.3594, 0.1602150
330.8416, 0.2129340
331.3237, 0.2346150
331.8058, 0.2513640
332.2879, 0.2457430
332.7700, 0.2692580
333.2521, 0.3617270
333.7343, 0.4921800
334.2164, 0.4895360
334.6985, 0.2435040
335.1806, 3.5927001E-02
335.6627, 4.0956002E-02
336.1448, 0.3570670
336.6270, 0.5778680
337.1091, 0.6608090
337.5912, 0.6656890
338.0733, 0.7252250
338.5554, 0.8660640
339.0375, 0.9723510
339.5197, 0.9608590
340.0018, 0.8177660
340.4839, 0.8516960
340.9660, 1.122017
341.4481, 1.438828
341.9302, 1.509718
342.4124, 1.311073
342.8945, 1.201672
343.3766, 1.331665
343.8587, 1.634142
344.3408, 1.792574
344.8229, 1.789913
345.3051, 1.753098
345.7872, 1.777899
346.2693, 1.863319
346.7514, 2.018723
347.2335, 2.275320
347.7156, 2.563623
348.1978, 2.718010
348.6799, 2.749952
349.1620, 2.801678
349.6441, 2.991386
350.1262, 3.270441
350.6083, 3.513519
351.0905, 3.695496
351.5726, 3.886452
352.0547, 4.201908
352.5368, 4.601162
353.0189, 4.960899
353.5010, 5.170269
353.9832, 5.328869
354.4653, 5.577854
354.9474, 5.929285
355.4295, 6.254280
355.9116, 6.364428
356.3937, 6.401947
356.8759, 6.578682
357.3580, 7.104605
357.8401, 7.686277
358.3222, 8.102604
358.8043, 8.384638
359.2864, 8.695704
359.7686, 9.092520
360.2507, 9.574375
360.7328, 10.15340
361.2149, 10.94040
361.6970, 11.64845
362.1791, 12.08995
362.6613, 12.36573
363.1434, 12.70813
363.6255, 13.16968
364.1076, 13.73115
364.5897, 14.40080
365.0718, 15.18898
365.5540, 16.00755
366.0361, 16.93315
366.5182, 17.84913
367.0003, 18.61567
367.4824, 19.07006
367.9645, 19.52540
368.4467, 20.01020
368.9288, 20.51385
369.4109, 21.18541
369.8930, 22.20910
370.3751, 23.26044
370.8572, 24.11858
371.3394, 24.63017
371.8215, 25.19767
372.3036, 25.87550
372.7857, 26.62466
373.2678, 27.32596
373.7499, 27.98189
374.2321, 28.59673
374.7142, 29.14973
375.1963, 29.61895
375.6784, 30.15296
376.1605, 30.79873
376.6426, 31.45163
377.1248, 31.91055
377.6069, 32.14801
378.0890, 32.37660
378.5711, 32.66914
379.0532, 33.00790
379.5353, 33.26674
380.0175, 33.44825
380.4996, 33.57777
380.9817, 33.67365
381.4638, 33.73129
381.9459, 33.74350
382.4280, 33.72075
382.9102, 33.65282
383.3923, 33.52259
383.8744, 33.31441
384.3565, 32.97244
384.8386, 32.45274
385.3207, 31.77978
385.8029, 31.00197
386.2850, 30.10760
386.7671, 29.16957
387.2492, 28.28403
387.7313, 27.40351
388.2134, 26.43050
388.6956, 25.28201
389.1777, 24.06412
389.6598, 22.81695
390.1419, 21.55778
390.6240, 20.40296
391.1061, 19.53712
391.5883, 18.74901
392.0704, 17.79194
392.5525, 16.38604
393.0346, 15.08725
393.5167, 14.20802
393.9988, 13.64880
394.4810, 13.07362
394.9631, 12.32156
395.4452, 11.55183
395.9273, 10.83826
396.4094, 10.19102
396.8915, 9.585121
397.3737, 9.025805
397.8558, 8.503937
398.3379, 8.008011
398.8200, 7.565014
399.3021, 7.119432
399.7842, 6.649061
400.2664, 6.153685
400.7485, 5.691586
401.2306, 5.256784
401.7127, 4.866072
402.1948, 4.531746
402.6769, 4.260096
403.1591, 4.048061
403.6412, 3.905565
404.1233, 3.804369
404.6054, 3.679724
405.0875, 3.537941
405.5696, 3.378572
406.0518, 3.196659
406.5339, 2.991847
407.0160, 2.778889
407.4981, 2.531368
407.9802, 2.353589
408.4623, 2.313436
408.9445, 2.415483
409.4266, 2.910646
409.9087, 4.180603
410.3908, 5.625438
410.8729, 5.568598
411.3550, 4.050842
411.8372, 2.423695
412.3193, 1.612841
412.8014, 1.403808
413.2835, 1.323176
413.7656, 1.335225
414.2477, 1.358485
414.7299, 1.278806
415.2120, 1.139728
415.6941, 1.048720
416.1762, 1.133906
416.6583, 1.237569
417.1404, 1.187915
417.6226, 0.9875610
418.1047, 0.8148110
418.5868, 0.8290710
419.0689, 0.8935590
419.5510, 0.8721940
420.0331, 0.6457190
420.5153, 0.4401400
420.9974, 0.3393550
421.4795, 0.3250740
421.9616, 0.3567720
422.4437, 0.4829910
422.9258, 0.6031240
423.4080, 0.6784860
423.8901, 0.7055800
424.3722, 0.6944810
424.8543, 0.6163820
425.3364, 0.5150700
425.8185, 0.4333360
426.3007, 0.3801410
426.7828, 0.3327130
427.2649, 0.2914200
427.7470, 0.2545890
428.2291, 0.2022050
428.7112, 0.1063020
429.1934, 4.4305999E-02
429.6755, 7.7670000E-02
430.1576, 0.2386540
430.6397, 0.3158670
431.1218, 0.2712690
431.6039, 0.1935010
432.0861, 0.2567270
432.5682, 0.4751760
433.0503, 0.6126700
433.5324, 0.5653640
434.0145, 0.3798740
434.4966, 0.1869990
434.9788, 1.5598000E-02
435.4609, 0.1514260
435.9430, 0.1056640
436.4251, 5.9213001E-02
436.9072, 0.1578130
437.3893, 0.1348360
437.8715, 9.4976000E-02
438.3536, 0.2196590
438.8357, 0.4341060
439.3178, 0.5297300
439.7999, 0.2523440
440.2820, 0.1012820
440.7642, 0.2444510
441.2463, 0.1624530
441.7284, 4.9235001E-02
442.2105, 3.5611998E-02
442.6926, 7.8271002E-02
443.1747, 6.2479001E-02
443.6569, 0.1013960
444.1390, 0.2222460
444.6211, 0.2143010
445.1032, 0.1147100
445.5853, 3.0676000E-02
446.0674, 3.2551002E-02
446.5496, 6.4747997E-02
447.0317, 4.7885999E-02
447.5138, 5.1408999E-02
447.9959, 8.5708998E-02
448.4780, 1.7040001E-03
448.9601, 0.1105970
449.4423, 0.1647970
449.9244, 0.1450120
450.4065, 9.7672001E-02
450.8886, 1.4871000E-02
451.3707, 8.8955000E-02
451.8528, 0.1590120
452.3350, 0.1972270
452.8171, 0.1964290
453.2992, 0.1458270
453.7813, 4.4656999E-02
454.2634, 7.5684004E-02
454.7455, 0.2292480
455.2277, 0.3564040
455.7098, 0.3620130
456.1919, 0.2617330
456.6740, 0.1585890
457.1561, 6.5950997E-02
457.6382, 9.5760003E-03
458.1204, 9.0674996E-02
458.6025, 0.2848530
459.0846, 0.4100090
459.5667, 0.2637800
460.0488, 8.0289999E-03
460.5309, 0.1517470
461.0131, 0.1817290
461.4952, 0.1357040
461.9773, 2.3383999E-02
462.4594, 0.2182840
462.9415, 0.3375460
463.4236, 0.2552430
463.9058, 0.1652590
464.3879, 0.1609560
464.8700, 0.2342930
465.3521, 0.2903170
465.8342, 0.2701930
466.3163, 0.2527030
466.7985, 0.2848020
467.2806, 0.4116550
467.7627, 0.5109950
468.2448, 0.5596480
468.7269, 0.5879220
469.2090, 0.6439380
469.6912, 0.7659280
470.1733, 0.8458310
470.6554, 0.8519660
471.1375, 0.7911020
471.6196, 0.7278920
472.1017, 0.6631250
472.5839, 0.5934780
473.0660, 0.5037470
473.5481, 0.3938880
474.0302, 0.3219350
474.5123, 0.2901570
474.9944, 0.3035970
475.4766, 0.4098820
475.9587, 0.5883260
476.4408, 0.7031740
476.9229, 0.6535050
477.4050, 0.5353680
477.8871, 0.5066860
478.3693, 0.5610100
478.8514, 0.6388280
479.3335, 0.7098000
479.8156, 0.7769600
480.2977, 0.8475790
480.7798, 0.9302580
481.2620, 0.9893830
481.7441, 0.9827560
482.2262, 0.9437040
482.7083, 0.9214390
483.1904, 0.9629340
483.6725, 0.9936570
484.1547, 0.9826230
484.6368, 0.9313730
485.1189, 0.8742130
485.6010, 0.7856180
486.0831, 0.7156980
486.5652, 0.6934490
487.0474, 0.7600800
487.5295, 0.7872760
488.0116, 0.7581990
488.4937, 0.7033350
488.9758, 0.6674410
489.4579, 0.6560850
489.9401, 0.6427390
490.4222, 0.6062600
490.9043, 0.5631840
491.3864, 0.6234630
491.8685, 0.8072040
492.3506, 0.9529690
492.8328, 0.9181770
493.3149, 0.7389390
493.7970, 0.6053460
494.2791, 0.5385320
494.7612, 0.5005250
495.2433, 0.4521170
495.7255, 0.4001260
496.2076, 0.3645350
496.6897, 0.3504240
497.1718, 0.3541630
497.6539, 0.3720450
498.1360, 0.3958560
498.6182, 0.4306420
499.1003, 0.5339830
499.5824, 0.6345890
500.0645, 0.6677110
500.5466, 0.6091540
501.0287, 0.5516650
501.5109, 0.4760650
501.9930, 0.4254850
502.4751, 0.4519240
502.9572, 0.7198040
503.4393, 0.8830150
503.9214, 0.8257480
504.4036, 0.6271300
504.8857, 0.5751370
505.3678, 0.7467990
505.8499, 0.9240970
506.3320, 1.015803
506.8141, 1.010380
507.2963, 1.061940
507.7784, 1.184474
508.2605, 1.324142
508.7426, 1.417949
509.2247, 1.467143
509.7068, 1.545954
510.1890, 1.674689
510.6711, 1.833209
511.1532, 1.981125
511.6353, 2.127972
512.1174, 2.298087
512.5995, 2.512434
513.0817, 2.752565
513.5638, 2.994980
514.0459, 3.239038
514.5280, 3.498710
515.0101, 3.809727
515.4922, 4.128511
515.9744, 4.412019
516.4565, 4.643787
516.9386, 4.860096
517.4207, 5.010429
517.9028, 5.161003
518.3849, 5.420403
518.8671, 5.984369
519.3492, 6.484962
519.8313, 6.814584
520.3134, 6.982027
520.7955, 7.232723
521.2776, 7.586245
521.7598, 7.990789
522.2419, 8.426938
522.7240, 8.910375
523.2061, 9.352307
523.6882, 9.740113
524.1703, 10.11179
524.6525, 10.53466
525.1346, 11.00512
525.6167, 11.42778
526.0988, 11.76285
526.5809, 12.05499
527.0630, 12.39347
527.5452, 12.75081
528.0273, 12.99173
528.5094, 13.10329
528.9915, 13.01839
529.4736, 12.60124
529.9557, 11.83063
530.4379, 11.01068
530.9200, 10.31241
531.4021, 9.644911
531.8842, 8.913707
532.3663, 8.052805
532.8484, 7.202898
533.3306, 6.355894
533.8127, 5.537544
534.2948, 4.834185
534.7769, 4.285099
535.2590, 3.806438
535.7411, 3.381492
536.2233, 3.012119
536.7054, 2.722773
537.1875, 2.551085
537.6696, 2.392115
538.1517, 2.162596
538.6339, 1.855184
539.1160, 1.598189
539.5981, 1.398650
540.0802, 1.258273
540.5623, 1.209669
541.0444, 1.234151
541.5266, 1.206799
542.0087, 1.052394
542.4908, 0.8687200
542.9729, 0.8004100
543.4550, 0.8348370
543.9371, 0.8933500
544.4193, 1.034178
544.9014, 1.113486
545.3835, 0.9278520
545.8656, 0.4417300
546.3477, 9.9380001E-02
546.8298, 0.1865960
547.3120, 0.4385810
547.7941, 0.6251940
548.2762, 0.6509890
548.7583, 0.6981130
549.2404, 0.8169170
549.7225, 0.9540720
550.2047, 1.015116
550.6868, 0.9645240
551.1689, 0.9042400
551.6510, 0.8498280
552.1331, 0.8052960
552.6152, 0.8031850
553.0974, 0.8484170
553.5795, 0.9125560
554.0616, 1.008923
554.5437, 1.119242
555.0258, 1.103711
555.5079, 0.9358660
555.9901, 0.7782750
556.4722, 0.8358040
556.9543, 1.025167
557.4364, 1.182376
557.9185, 1.293811
558.4006, 1.302852
558.8828, 1.046934
559.3649, 0.6542800
559.8470, 0.4159060
560.3291, 0.5426650
560.8112, 0.7643930
561.2933, 1.035598
561.7755, 1.351586
562.2576, 1.466703
562.7397, 1.144298
563.2218, 0.7741790
563.7039, 0.5397300
564.1860, 0.4737380
564.6682, 0.4669260
565.1503, 0.5461820
565.6324, 0.6513760
566.1145, 0.7066620
566.5966, 0.7097710
567.0787, 0.6845180
567.5609, 0.6207230
568.0430, 0.5514540
568.5251, 0.5614480
569.0072, 0.6419190
569.4893, 0.7210590
569.9714, 0.7550390
570.4536, 0.7669600
570.9357, 0.8074610
571.4178, 0.8723270
571.8999, 0.8881530
572.3820, 0.7253100
572.8641, 0.5382340
573.3463, 0.4848030
573.8284, 0.6615240
574.3105, 0.7818330
574.7926, 0.7065400
575.2747, 0.5468340
575.7568, 0.4431720
576.2390, 0.4543930
576.7211, 0.4562260
577.2032, 0.4246690
577.6853, 0.3745060
578.1674, 0.3666260
578.6495, 0.4246010
579.1317, 0.4533870
579.6138, 0.3842070
580.0959, 0.2396800
580.5780, 0.2377760
581.0601, 0.3924830
581.5422, 0.5390830
582.0244, 0.5387250
582.5065, 0.4247750
582.9886, 0.2507590
583.4707, 7.6199998E-04
583.9528, 0.1877910
584.4349, 0.1249460
584.9171, 6.9108002E-02
585.3992, 0.2184540
585.8813, 0.2600350
586.3634, 0.2461900
586.8455, 0.1580920
587.3276, 2.7316000E-02
587.8098, 5.5994999E-02
588.2919, 3.0520000E-03
588.7740, 2.5350001E-02
589.2561, 4.3304000E-02
589.7382, 0.2123290
590.2203, 0.2784240
590.7025, 0.2015770
591.1846, 9.2817001E-02
591.6667, 3.3891998E-02
592.1488, 3.1985998E-02
592.6309, 5.6088001E-02
593.1130, 0.2642970
593.5952, 0.4528290
594.0773, 0.4053250
594.5594, 0.1824050
595.0415, 2.4767000E-02
595.5236, 1.2092000E-02
596.0057, 5.0228000E-02
596.4879, 2.4364000E-02
596.9700, 3.2763001E-02
597.4521, 4.2176999E-02
597.9342, 0.1087450
598.4163, 0.2507380
598.8984, 0.2854550
599.3806, 0.2194230
599.8627, 0.1343780
600.3448, 2.9994000E-02
600.8269, 0.1413850
601.3090, 0.1250230
601.7911, 6.3608997E-02
602.2733, 0.2116360
602.7554, 0.3368110
603.2375, 0.3964610
603.7196, 0.3089300
604.2017, 4.8153002E-02
604.6838, 8.3985001E-02
605.1660, 2.6945001E-02
605.6481, 0.1116590
606.1302, 0.1613390
606.6123, 0.1383290
607.0944, 0.1179390
607.5765, 0.1147000
608.0587, 0.1425510
608.5408, 0.2656260
609.0229, 0.4395680
609.5050, 0.5338790
609.9871, 0.3823000
610.4692, 0.2063220
610.9514, 0.1406510
611.4335, 0.1985290
611.9156, 0.2783780
612.3977, 0.4134050
612.8798, 0.5227600
613.3619, 0.5568300
613.8441, 0.4864180
614.3262, 0.4106890
614.8083, 0.3189980
615.2904, 0.2356420
615.7725, 0.1990920
616.2546, 0.2067770
616.7368, 0.1963600
617.2189, 0.1396470
617.7010, 8.5363999E-02
618.1831, 0.1484000
618.6652, 0.3094640
619.1473, 0.4477080
619.6295, 0.4565140
620.1116, 0.4206800
620.5937, 0.4650500
621.0758, 0.5702980
621.5579, 0.6375980
622.0400, 0.5621160
622.5222, 0.4785370
623.0043, 0.4766690
623.4864, 0.5773990
623.9685, 0.6468640
624.4506, 0.6552170
624.9327, 0.6479410
625.4149, 0.6614100
625.8970, 0.7256440
626.3791, 0.7082110
626.8612, 0.5717860
627.3433, 0.4068460
627.8254, 0.3610920
628.3076, 0.4274620
628.7897, 0.4410870
629.2718, 0.3262760
629.7539, 0.1958480
630.2360, 0.2766350
630.7181, 0.5027060
631.2003, 0.6641650
631.6824, 0.5741840
632.1645, 0.4456190
632.6466, 0.4570850
633.1287, 0.5847430
633.6108, 0.6795700
634.0930, 0.6669280
634.5751, 0.6318990
635.0572, 0.6145770
635.5393, 0.6197170
636.0214, 0.6344160
636.5035, 0.6978740
636.9857, 0.7225640
637.4678, 0.6000430
637.9499, 0.2863010
638.4320, 0.1679880
638.9141, 0.3079020
639.3962, 0.5376650
639.8784, 0.6439380
640.3605, 0.6462780
640.8426, 0.6304690
641.3247, 0.6125470
641.8068, 0.5906690
642.2889, 0.5891220
642.7711, 0.6031960
643.2532, 0.6135300
643.7353, 0.5988930
644.2174, 0.5940350
644.6995, 0.6228690
645.1816, 0.6799070
645.6638, 0.7204440
646.1459, 0.7024320
646.6280, 0.7114930
647.1101, 0.7985320
647.5922, 0.9651410
648.0743, 1.018607
648.5565, 0.9456350
649.0386, 0.8251490
649.5207, 0.6870650
650.0028, 0.5370040
650.4849, 0.4612590
650.9670, 0.4715200
651.4492, 0.5087730
651.9313, 0.5416190
652.4134, 0.5511250
652.8955, 0.4854670
653.3776, 0.2759310
653.8597, 0.1137640
654.3419, 0.1712310
654.8240, 0.3392090
655.3061, 0.4530790
655.7882, 0.4512210
656.2703, 0.4142330
656.7524, 0.3067440
657.2346, 0.1774340
657.7167, 0.1901310
658.1988, 0.4258530
658.6809, 0.6084020
659.1630, 0.6379790
659.6451, 0.5497020
660.1273, 0.5192830
660.6094, 0.5503440
661.0915, 0.5555800
661.5736, 0.4412250
662.0557, 0.2693110
662.5378, 0.1534000
663.0200, 0.1069270
663.5021, 0.1037070
663.9842, 0.1751200
664.4663, 0.2511320
664.9484, 0.2415030
665.4305, 6.0998999E-02
665.9127, 2.0669999E-03
666.3948, 0.3074480
666.8769, 0.6757400
667.3590, 0.7914850
667.8411, 0.4834570
668.3232, 0.2833960
668.8054, 0.2651740
669.2875, 0.3355430
669.7696, 0.3355440
670.2517, 0.2639820
670.7338, 0.1773180
671.2159, 8.1839003E-02
671.6981, 5.1420000E-03
672.1802, 6.8972997E-02
672.6623, 0.1009670
673.1444, 7.1483001E-02
673.6265, 0.1345490
674.1086, 0.3257810
674.5908, 0.3420590
675.0729, 0.2030540
675.5550, 5.9114002E-02
676.0371, 0.1311220
676.5192, 0.2340040
677.0013, 0.1551900
677.4835, 0.1301350
677.9656, 0.3189410
678.4477, 0.4054040
678.9298, 0.4089320
679.4119, 0.3040260
679.8940, 8.8077001E-02
680.3762, 2.1793000E-02
680.8583, 1.3806000E-02
681.3404, 5.7714000E-02
681.8225, 0.1935360
682.3046, 0.3479100
682.7867, 0.3904440
683.2689, 0.2674630
683.7510, 0.1458390
684.2331, 0.1540350
684.7152, 0.2322540
685.1973, 0.3044980
685.6794, 0.3770280
686.1616, 0.4111610
686.6437, 0.3750320
687.1258, 0.3027100
687.6079, 0.2577540
688.0900, 0.2609720
688.5721, 0.2350050
689.0543, 0.1448550
689.5364, 2.6010999E-02
690.0185, 2.3357000E-02
690.5006, 2.9310000E-03
690.9827, 4.3003000E-02
691.4648, 9.8903000E-02
691.9470, 0.1632930
692.4291, 0.2439360
692.9112, 0.3359530
693.3933, 0.4122560
693.8754, 0.4577170
694.3575, 0.4835820
694.8397, 0.4934840
695.3218, 0.4869020
695.8039, 0.4803470
696.2860, 0.4831240
696.7681, 0.4799390
697.2502, 0.4528020
697.7324, 0.3845610
698.2145, 0.3949770
698.6966, 0.5125080
699.1787, 0.6286780
699.6608, 0.6322150
700.1429, 0.5394120
700.6251, 0.4066340
701.1072, 0.2243940
701.5893, 0.1000400
702.0714, 0.2158300
702.5535, 0.4347460
703.0356, 0.5493190
703.5178, 0.4306890
703.9999, 0.3197280
704.4820, 0.3356970
704.9641, 0.4136560
705.4462, 0.4463870
705.9283, 0.3994090
706.4105, 0.3447520
706.8926, 0.2850600
707.3747, 0.2301510
707.8568, 0.2022860
708.3389, 0.2017770
708.8210, 0.2225420
709.3032, 0.2656550
709.7853, 0.3261940
710.2674, 0.4072200
710.7495, 0.5008130
711.2316, 0.5704640
711.7137, 0.5067850
712.1959, 0.4849300
712.6780, 0.7353020
713.1601, 1.199580
713.6422, 1.440966
714.1243, 1.071619
714.6064, 0.7166900
715.0886, 0.6727600
715.5707, 0.9392300
716.0528, 1.008230
716.5349, 0.8089140
717.0170, 0.6031530
717.4991, 0.6060710
717.9813, 0.7761080
718.4634, 0.7467060
718.9455, 0.4980140
719.4276, 0.2474210
719.9097, 0.2247740
720.3918, 0.3157800
720.8740, 0.3669400
721.3561, 0.3497230
721.8382, 0.3336540
722.3203, 0.3370650
722.8024, 0.3641720
723.2845, 0.4206370
723.7667, 0.5501380
724.2488, 0.6356970
724.7309, 0.6785190
725.2130, 0.6698270
725.6951, 0.5840230
726.1772, 0.4114570
726.6594, 0.3252600
727.1415, 0.3526890
727.6236, 0.4333470
728.1057, 0.5634830
728.5878, 0.6973720
729.0699, 0.7063220
729.5521, 0.4605220
730.0342, 0.2113310
730.5163, 0.1267510
730.9984, 0.1630390
731.4805, 0.2413960
731.9626, 0.3831530
732.4448, 0.4976270
732.9269, 0.5619440
733.4090, 0.5895010
733.8911, 0.6186270
734.3732, 0.6705460
734.8553, 0.6651160
735.3375, 0.5599820
735.8196, 0.3915990
736.3017, 0.2765700
736.7838, 0.2125040
737.2659, 0.1846640
737.7480, 0.2352250
738.2302, 0.2757870
738.7123, 0.1925370
739.1944, 2.1685001E-02
739.6765, 7.2829001E-02
740.1586, 1.0150000E-02
740.6407, 0.1427970
741.1229, 0.3135310
741.6050, 0.5154380
742.0871, 0.5431270
742.5692, 0.3071620
743.0513, 0.1093960
743.5334, 0.1422590
744.0156, 0.3705200
744.4977, 0.5079670
744.9798, 0.5556130
745.4619, 0.5217490
745.9440, 0.3218220
746.4261, 9.1389999E-02
746.9083, 6.9400002E-03
747.3904, 8.3598003E-02
747.8725, 0.2022380
748.3546, 0.3643880
748.8367, 0.5143590
749.3188, 0.6105560
749.8010, 0.6379880
750.2831, 0.6475160
750.7652, 0.6413660
751.2473, 0.6126580
751.7294, 0.5451590
752.2115, 0.4401640
752.6937, 0.3504910
753.1758, 0.2757600
753.6579, 0.2392110
754.1400, 0.3061470
754.6221, 0.4141240
755.1042, 0.4580170
755.5864, 0.4078710
756.0685, 0.3322300
756.5506, 0.2287910
757.0327, 0.1375880
757.5148, 0.1021670
757.9969, 0.1810710
758.4791, 0.2319390
758.9612, 0.2438710
759.4433, 0.2391660
759.9254, 0.2615950
760.4075, 0.3147930
760.8896, 0.2795950
761.3718, 0.1145030
761.8539, 6.9215000E-02
762.3360, 0.1400700
762.8181, 0.1177700
763.3002, 3.4713998E-02
763.7823, 0.1447440
764.2645, 0.3006480
764.7466, 0.3588280
765.2287, 0.3541130
765.7108, 0.3399950
766.1929, 0.2964860
766.6750, 0.2853630
767.1572, 0.3232530
767.6393, 0.3874190
768.1214, 0.4534920
768.6035, 0.5260330
769.0856, 0.5140430
769.5677, 0.3652200
770.0499, 0.1767270
770.5320, 0.1131320
771.0141, 0.1320960
771.4962, 0.1246190
771.9783, 4.1340999E-02
772.4604, 0.1557840
772.9426, 4.9477000E-02
773.4247, 0.1855860
773.9068, 0.3354270
774.3889, 0.3657680
774.8710, 0.3129080
775.3531, 0.1300770
775.8353, 0.1084740
776.3174, 0.1656560
776.7995, 3.2182001E-02
777.2816, 8.8529997E-02
777.7637, 0.1064840
778.2458, 8.6627997E-02
778.7280, 0.1439340
779.2101, 0.2578740
779.6922, 0.3610450
780.1743, 0.4822280
780.6564, 0.5255630
781.1385, 0.3621340
781.6207, 5.9012000E-02
782.1028, 7.6384999E-02
782.5849, 0.1225500
783.0670, 0.2415380
783.5491, 0.1173700
784.0313, 0.1550050
784.5134, 0.1556060
784.9955, 0.1204470
785.4776, 0.3468160
785.9597, 0.3298190
786.4418, 0.2026360
786.9240, 0.1729730
787.4061, 0.2176720
787.8882, 0.2525430
788.3703, 0.2395520
788.8524, 0.2017100
789.3345, 0.1141470
789.8167, 4.5159999E-03
790.2988, 1.4177000E-02
790.7809, 0.1658150
791.2630, 0.3076920
791.7451, 0.3202670
792.2272, 0.2370590
792.7094, 0.2034870
793.1915, 0.2186350
793.6736, 0.2542980
794.1557, 0.3349000
794.6378, 0.4021250
795.1199, 0.3482600
795.6021, 0.2029160
796.0842, 9.9085003E-02
796.5663, 0.1164630
797.0484, 0.1662850
797.5305, 0.2191890
798.0126, 0.2817660
798.4948, 0.3201850
798.9769, 0.3117680
799.4590, 0.3328150
799.9411, 0.4474660
800.4232, 0.6089270
800.9053, 0.6083700
801.3875, 0.4592040
801.8696, 0.2946890
802.3517, 0.1473960
802.8338, 5.6214999E-02
803.3159, 8.1545003E-02
803.7980, 0.2073290
804.2802, 0.3384930
804.7623, 0.5281940
805.2444, 0.6256190
805.7265, 0.5303800
806.2086, 0.2743940
806.6907, 0.1440600
807.1729, 0.1574740
807.6550, 0.2216410
808.1371, 0.3289160
808.6192, 0.4399150
809.1013, 0.3988880
809.5834, 0.2408460
810.0656, 0.1653770
810.5477, 0.4299710
811.0298, 0.6991770
811.5119, 0.6778380
811.9940, 0.4108730
812.4761, 0.3045230
812.9583, 0.6276470
813.4404, 0.8493460
813.9225, 0.7547010
814.4046, 0.4186380
814.8867, 0.3196460
815.3688, 0.4709280
815.8510, 0.6062050
816.3331, 0.5425590
816.8152, 0.4034260
817.2973, 0.4181510
817.7794, 0.5477420
818.2615, 0.6373790
818.7437, 0.5763700
819.2258, 0.4886990
819.7079, 0.4026990
820.1900, 0.3296610
820.6721, 0.3296960
821.1542, 0.4478570
821.6364, 0.5493870
822.1185, 0.5873770
822.6006, 0.5748740
823.0827, 0.5678970
823.5648, 0.5602200
824.0469, 0.4995920
824.5291, 0.2502500
825.0112, 2.1096000E-02
825.4933, 6.5770999E-02
825.9754, 0.3033960
826.4575, 0.4756990
826.9396, 0.4263320
827.4218, 0.3874520
827.9039, 0.4396800
828.3860, 0.5459860
828.8681, 0.5780920
829.3502, 0.5274860
829.8323, 0.4450390
830.3145, 0.3175750
830.7966, 0.2090260
831.2787, 0.2487880
831.7608, 0.3875470
832.2429, 0.4790770
832.7250, 0.4135370
833.2072, 0.3261970
833.6893, 0.2467710
834.1714, 0.1972120
834.6535, 0.2533150
835.1356, 0.5292970
835.6177, 0.6776490
836.0999, 0.5993740
836.5820, 0.3965190
837.0641, 0.2921640
837.5462, 0.2800330
838.0283, 0.2919980
838.5104, 0.3166990
838.9926, 0.3372290
839.4747, 0.3293620
839.9568, 0.3018910
840.4389, 0.2821760
840.9210, 0.2384930
841.4031, 0.2449300
841.8853, 0.3711280
842.3674, 0.5253610
842.8495, 0.5554730
843.3316, 0.4134000
843.8137, 0.3477090
844.2958, 0.4133600
844.7780, 0.5285720
845.2601, 0.6008590
845.7422, 0.6255460
846.2243, 0.5754050
846.7064, 0.3900400
847.1885, 0.2641730
847.6707, 0.3756400
848.1528, 0.5776690
848.6349, 0.6986350
849.1170, 0.6906240
849.5991, 0.6473130
850.0812, 0.5349930
850.5634, 0.4441070
851.0455, 0.5315320
851.5276, 0.7596480
852.0097, 0.8053770
852.4918, 0.6016770
852.9739, 0.3858560
853.4561, 0.3851740
853.9382, 0.4873130
854.4203, 0.5770760
854.9024, 0.6277890
855.3845, 0.6567660
855.8666, 0.6724920
856.3488, 0.6627520
856.8309, 0.6083400
857.3130, 0.4859430
857.7951, 0.4229870
858.2772, 0.4233220
858.7593, 0.4605960
859.2415, 0.5490700
859.7236, 0.6446030
860.2057, 0.6744350
860.6878, 0.6319960
861.1699, 0.5487960
861.6520, 0.2776140
862.1342, 0.1055800
862.6163, 0.3156250
863.0984, 0.9286780
863.5805, 1.173238
864.0626, 0.9429260
864.5447, 0.6504420
865.0269, 0.5071370
865.5090, 0.4901360
865.9911, 0.5419280
866.4732, 0.6417860
866.9553, 0.7347490
867.4374, 0.8038610
867.9196, 0.8332680
868.4017, 0.7889370
868.8838, 0.6817530
869.3659, 0.6110000
869.8480, 0.6306930
870.3301, 0.6037640
870.8123, 0.4464800
871.2944, 0.2339010
871.7765, 0.2749010
872.2586, 0.5257840
872.7407, 0.7430440
873.2228, 0.8053960
873.7050, 0.8020730
874.1871, 0.8248440
874.6692, 0.8524410
875.1513, 0.8385110
875.6334, 0.6844470
876.1155, 0.5986080
876.5977, 0.6666540
877.0798, 0.7889410
877.5619, 0.7594270
878.0440, 0.5622950
878.5261, 0.4473810
879.0082, 0.4776440
879.4904, 0.5707690
879.9725, 0.6557190
880.4546, 0.7174700
880.9367, 0.7271440
881.4188, 0.6629330
881.9009, 0.5766140
882.3831, 0.4202810
882.8652, 0.2988070
883.3473, 0.3156760
883.8294, 0.5237740
884.3115, 0.6522770
884.7936, 0.6856790
885.2758, 0.6638030
885.7579, 0.6064690
886.2400, 0.5289450
886.7221, 0.4508820
887.2042, 0.3723100
887.6863, 0.3531380
888.1685, 0.4929160
888.6506, 0.6540780
889.1327, 0.7310400
889.6148, 0.7056120
890.0969, 0.7079940
890.5790, 0.7522160
891.0612, 0.7869360
891.5433, 0.7659930
892.0254, 0.7113220
892.5075, 0.7319060
892.9896, 0.8129890
893.4717, 0.8381000
893.9539, 0.6401110
894.4360, 0.4470890
894.9181, 0.4629750
895.4002, 0.6563020
895.8823, 0.7063020
896.3644, 0.4748480
896.8466, 0.3124580
897.3287, 0.3412100
897.8108, 0.4853330
898.2929, 0.5529150
898.7750, 0.5507500
899.2571, 0.5188110
899.7393, 0.4382030
900.2214, 0.3859020
900.7035, 0.4876380
901.1856, 0.6475490
901.6677, 0.7025860
902.1498, 0.4810670
902.6320, 0.3464530
903.1141, 0.3611440
903.5962, 0.4212890
904.0783, 0.3564090
904.5604, 0.1844230
905.0425, 0.1593300
905.5247, 0.3411260
906.0068, 0.5238720
906.4889, 0.4927300
906.9710, 0.3612330
907.4531, 0.2533380
907.9352, 0.2007770
908.4174, 0.1414350
908.8995, 3.4384999E-02
909.3816, 3.9533000E-02
909.8637, 6.1499998E-03
910.3458, 0.1344020
910.8279, 0.1436560
911.3101, 1.8611001E-02
911.7922, 8.4752999E-02
912.2743, 3.3010000E-03
912.7564, 0.1346450
913.2385, 0.1126200
913.7206, 3.2632001E-02
914.2028, 9.5879003E-02
914.6849, 7.9649001E-02
915.1670, 0.2183640
915.6491, 0.2191930
916.1312, 0.1297250
916.6133, 0.1285330
917.0955, 0.2173480
917.5776, 0.2988910
918.0597, 0.3263090
918.5418, 0.3469040
919.0239, 0.4707360
919.5060, 0.6230240
919.9882, 0.6579280
920.4703, 0.3660960
920.9524, 0.1687420
921.4345, 0.2071650
921.9166, 0.3115210
922.3987, 0.2342220
922.8809, 4.6909999E-02
923.3630, 0.1149360
923.8451, 0.1091890
924.3272, 0.3553090
924.8093, 0.2909630
925.2914, 9.3211003E-02
925.7736, 1.4665000E-02
926.2557, 2.8890001E-03
926.7378, 9.7842999E-02
927.2199, 0.4497220
927.7020, 0.6847530
928.1841, 0.5419400
928.6663, 2.2960000E-02
929.1484, 0.1745270
929.6305, 3.9391998E-02
930.1126, 0.1341110
930.5947, 0.1640250
931.0768, 0.1215430
931.5590, 7.8544997E-02
932.0411, 4.4667002E-02
932.5232, 5.3332999E-02
933.0053, 0.1808400
933.4874, 0.2720810
933.9695, 0.2784360
934.4517, 0.2299130
934.9338, 0.1829400
935.4159, 0.1366920
935.8980, 0.1701040
936.3801, 0.3395980
936.8622, 0.5027110
937.3444, 0.4567070
937.8265, 0.3027940
938.3086, 0.1919820
938.7907, 0.2025520
939.2728, 0.1796430
939.7549, 4.0633000E-02
940.2371, 8.2286999E-02
940.7192, 5.5333000E-02
941.2013, 0.1284750
941.6834, 0.2001430
942.1655, 0.1455120
942.6476, 8.3301999E-02
943.1298, 0.1281810
943.6119, 0.2083200
944.0940, 0.2516390
944.5761, 0.2535090
945.0582, 0.2349170
945.5403, 0.1683960
946.0225, 0.1229430
946.5046, 0.1270010
946.9867, 0.1673770
947.4688, 0.1885630
947.9509, 0.1918890
948.4330, 0.2013920
948.9152, 0.2287050
949.3973, 0.2642870
949.8794, 0.3181470
950.3615, 0.3693540
950.8436, 0.3808600
951.3257, 0.3464650
951.8079, 0.2542180
952.2900, 5.5948999E-02
952.7721, 0.1357240
953.2542, 0.1671110
953.7363, 5.8440998E-02
954.2184, 4.6004001E-02
954.7006, 0.1319550
955.1827, 0.1916880
955.6648, 0.1996270
956.1469, 0.1933300
956.6290, 0.2065020
957.1111, 0.2454010
957.5933, 0.2790130
958.0754, 0.2957760
958.5575, 0.3318270
959.0396, 0.4360280
959.5217, 0.5607340
960.0038, 0.5104980
960.4860, 0.3150680
960.9681, 0.1287060
961.4502, 1.5880000E-03
961.9323, 5.8063999E-02
962.4144, 1.9564999E-02
962.8965, 8.8064998E-02
963.3787, 0.2111020
963.8608, 0.4073270
964.3429, 0.4383970
964.8250, 0.2191840
965.3071, 3.5893001E-02
965.7892, 5.5640000E-03
966.2714, 0.2385140
966.7535, 0.4143300
967.2356, 0.4890030
967.7177, 0.4966910
968.1998, 0.3649680
968.6819, 0.2427520
969.1641, 0.2752310
969.6462, 0.4823740
970.1283, 0.4657320
970.6104, 0.1773210
971.0925, 8.9611001E-02
971.5746, 0.1583070
972.0568, 0.1043070
972.5389, 3.6125001E-02
973.0210, 4.4952001E-02
973.5031, 0.1486800
973.9852, 0.3024960
974.4673, 0.4540980
974.9495, 0.6406380
975.4316, 0.7884050
975.9137, 0.7288400
976.3958, 0.4470810
976.8779, 0.2405690
977.3600, 0.1649270
977.8422, 0.1561810
978.3243, 0.1508040
978.8064, 0.1669120
979.2885, 0.2503590
979.7706, 0.4410650
980.2527, 0.5231370
980.7349, 0.3550010
981.2170, 0.2134770
981.6991, 0.2964060
982.1812, 0.5520410
982.6633, 0.6123460
983.1454, 0.4937380
983.6276, 0.3820160
984.1097, 0.4029030
984.5918, 0.4619510
985.0739, 0.5077390
985.5560, 0.5346660
986.0381, 0.5288210
986.5203, 0.4997270
987.0024, 0.3936990
987.4845, 0.1824510
987.9666, 8.9250002E-03
988.4487, 8.0325998E-02
988.9308, 0.3387920
989.4130, 0.4072590
989.8951, 0.1958960
990.3772, 2.9413000E-02
990.8593, 0.1534580
991.3414, 0.3495420
991.8235, 0.4728080
992.3057, 0.5207240
992.7878, 0.4822400
993.2699, 0.3391870
993.7520, 0.2195850
994.2341, 0.1986050
994.7162, 0.2393330
995.1984, 0.2867040
995.6805, 0.3433540
996.1626, 0.4150970
996.6447, 0.5678610
997.1268, 0.6510150
997.6089, 0.5942160
998.0911, 0.4809940
998.5732, 0.4634120
999.0553, 0.5432330
999.5374, 0.5212760
1000.020, 0.3601190
1000.502, 0.2237260
1000.984, 0.3351150
1001.466, 0.4989380
1001.948, 0.4977420
1002.430, 0.2876900
1002.912, 0.1794100
1003.394, 0.2468310
1003.876, 0.3116060
1004.359, 0.2951830
1004.841, 0.2262840
1005.323, 0.1933670
1005.805, 0.1873140
1006.287, 0.1706230
1006.769, 9.1596000E-02
1007.251, 4.3940999E-02
1007.733, 8.7338001E-02
1008.216, 0.1877590
1008.698, 0.3063750
1009.180, 0.4754320
1009.662, 0.5296630
1010.144, 0.4462740
1010.626, 0.3082990
1011.108, 0.2010650
1011.590, 0.1258870
1012.072, 6.0988002E-02
1012.555, 2.3040001E-03
1013.037, 1.3730000E-03
1013.519, 0.1323760
1014.001, 0.2474520
1014.483, 0.2821340
1014.965, 0.2675750
1015.447, 0.3308880
1015.929, 0.4586040
1016.411, 0.5137600
1016.894, 0.4459890
1017.376, 0.3632140
1017.858, 0.3478940
1018.340, 0.3767400
1018.822, 0.4290590
1019.304, 0.5424640
1019.786, 0.5554740
1020.268, 0.4476610
1020.751, 0.3181710
1021.233, 0.2102790
1021.715, 0.1407770
1022.197, 0.1751290
1022.679, 0.2995190
1023.161, 0.4240420
1023.643, 0.5838570
1024.125, 0.6631080
1024.607, 0.5607270
1025.090, 0.3644600
1025.572, 0.2559720
1026.054, 0.2412110
1026.536, 0.2020280
1027.018, 9.8793000E-02
1027.500, 4.2541999E-02
1027.982, 0.2151590
1028.464, 0.4663940
1028.947, 0.6104350
1029.429, 0.6035630
1029.911, 0.6002830
1030.393, 0.6378220
1030.875, 0.6336880
1031.357, 0.5060460
1031.839, 0.3155270
1032.321, 0.2944560
1032.803, 0.4093080
1033.286, 0.5167520
1033.768, 0.5125980
1034.250, 0.5230130
1034.732, 0.5980410
1035.214, 0.7258680
1035.696, 0.9159400
1036.178, 1.217422
1036.660, 1.281784
1037.143, 1.056679
1037.625, 0.7849150
1038.107, 0.6766010
1038.589, 0.6568840
1039.071, 0.6214310
1039.553, 0.5684190
1040.035, 0.6110910
1040.517, 0.8768820
1041.000, 1.080696
1041.482, 1.136190
1041.964, 1.086298
1042.446, 1.017647
1042.928, 0.9298690
1043.410, 0.8120330
1043.892, 0.6330700
1044.374, 0.5073000
1044.856, 0.5523820
1045.339, 0.6524800
1045.821, 0.7073760
1046.303, 0.7118500
1046.785, 0.6842160
1047.267, 0.6212230
1047.749, 0.5897750
1048.231, 0.6662710
1048.713, 0.7776710
1049.195, 0.8412120
1049.677, 0.8606860
1050.160, 0.8475630
1050.642, 0.7678130
1051.124, 0.7071360
1051.606, 0.6775240
1052.088, 0.6657120
1052.570, 0.6667940
1053.052, 0.6715500
1053.534, 0.6336080
1054.017, 0.5460000
1054.499, 0.4702380
1054.981, 0.4452680
1055.463, 0.4438400
1055.945, 0.4430270
1056.427, 0.4482700
1056.909, 0.5320160
1057.391, 0.7106650
1057.874, 0.7669270
1058.356, 0.5798130
1058.838, 0.3385730
1059.320, 0.2750070
1059.802, 0.3074460
1060.284, 0.3163160
1060.766, 0.2553510
1061.248, 0.2077120
1061.730, 0.1598250
1062.213, 0.1578720
1062.695, 0.2894060
1063.177, 0.4893630
1063.659, 0.5001430
1064.141, 0.3545880
1064.623, 0.2091660
1065.105, 0.1203690
1065.587, 7.2328001E-02
1066.070, 6.3699998E-02
1066.552, 8.9295998E-02
1067.034, 0.1641280
1067.516, 0.2915630
1067.998, 0.3481360
1068.480, 0.3163510
1068.962, 0.2418340
1069.444, 0.1071800
1069.927, 8.0829998E-03
1070.409, 1.3680001E-03
1070.891, 0.1313640
1071.373, 0.1693550
1071.855, 7.7922001E-02
1072.337, 3.9597999E-02
1072.819, 0.1926030
1073.301, 0.2871740
1073.783, 6.5659001E-02
1074.266, 0.3251370
1074.748, 0.5632880
1075.230, 0.4931040
1075.712, 0.4640740
1076.194, 0.6307720
1076.676, 0.7933440
1077.158, 0.8182920
1077.640, 0.7231020
1078.122, 0.7128340
1078.604, 0.7726750
1079.087, 0.7771990
1079.569, 0.5722080
1080.051, 0.3787930
1080.533, 0.3197430
1081.015, 0.3679700
1081.497, 0.4684950
1081.979, 0.6224490
1082.461, 0.7833690
1082.944, 0.9491490
1083.426, 1.145934
1083.908, 1.432343
1084.390, 1.739656
1084.872, 1.970884
1085.354, 2.130529
1085.836, 2.339228
1086.318, 2.750490
1086.801, 2.967903
1087.283, 2.896496
1087.765, 2.586455
1088.247, 1.984566
1088.729, 1.232086
1089.211, 0.7235880
1089.693, 0.5732270
1090.175, 0.4824410
1090.657, 0.3153390
1091.140, 0.1853420
1091.622, 0.1549980
1092.104, 0.2158990
1092.586, 0.3449450
1093.068, 0.5431330
1093.550, 0.6063460
1094.032, 0.3698430
1094.514, 0.1321740
1094.997, 0.1353190
1095.479, 0.2557280
1095.961, 0.3303900
1096.443, 0.3569960
1096.925, 0.2997940
1097.407, 0.1393690
1097.889, 1.9347001E-02
1098.371, 0.1039880
1098.854, 0.2585930
1099.336, 0.3172910
1099.818, 0.2944710
1100.300, 0.2628050
1100.782, 0.2370820
1101.264, 0.2067160
1101.746, 0.1730890
1102.228, 0.1295350
1102.710, 3.8614001E-02
1103.193, 6.2921003E-02
1103.675, 6.0881998E-02
1104.157, 3.9620999E-02
1104.639, 0.1235560
1105.121, 0.1322930
1105.603, 0.1156660
1106.085, 7.1850002E-02
1106.567, 2.7944000E-02
1107.049, 0.1039830
1107.531, 0.2761270
1108.014, 0.3355330
1108.496, 0.1912690
1108.978, 4.9089000E-02
1109.460, 8.3010003E-02
1109.942, 0.1616130
1110.424, 0.1622960
1110.906, 7.8501999E-02
1111.388, 4.5038000E-02
1111.871, 6.5494999E-02
1112.353, 8.2796998E-02
1112.835, 5.5890001E-02
1113.317, 2.8233999E-02
1113.799, 3.9779998E-02
1114.281, 8.5848004E-02
1114.763, 0.1656960
1115.245, 0.3562520
1115.728, 0.3998170
1116.210, 0.2608200
1116.692, 9.3456000E-02
1117.174, 3.3160001E-03
1117.656, 2.6214000E-02
1118.138, 6.2983997E-02
1118.620, 0.2382330
1119.102, 0.3947130
1119.584, 0.5039140
1120.067, 0.5789050
1120.549, 0.6256770
1121.031, 0.6343910
1121.513, 0.5627750
1121.995, 0.4422800
1122.477, 0.4054260
1122.959, 0.4611320
1123.441, 0.4657030
1123.924, 0.2049910
1124.406, 4.0638998E-02
1124.888, 0.2017770
1125.370, 0.5273090
1125.852, 0.5239590
1126.334, 0.2270090
1126.816, 4.7132999E-02
1127.298, 0.1060010
1127.781, 0.2077800
1128.263, 0.2270110
1128.745, 0.2115380
1129.227, 0.1796330
1129.709, 0.1350980
1130.191, 0.1520640
1130.673, 0.2275460
1131.155, 0.2787080
1131.637, 0.2827660
1132.120, 0.2707160
1132.602, 0.2999730
1133.084, 0.3320240
1133.566, 0.3051820
1134.048, 0.1838790
1134.530, 0.1014880
1135.012, 5.9714999E-02
1135.494, 4.9314000E-02
1135.976, 5.4740001E-02
1136.458, 9.3755998E-02
1136.941, 0.2749310
1137.423, 0.5064110
1137.905, 0.5644220
1138.387, 0.1667310
1138.869, 6.8750001E-02
1139.351, 7.3953003E-02
1139.833, 6.9889999E-03
1140.315, 4.0371001E-02
1140.798, 5.0629999E-02
1141.280, 9.3387999E-02
1141.762, 0.1694710
1142.244, 0.2641650
1142.726, 0.4722180
1143.208, 0.5535880
1143.690, 0.4101280
1144.172, 0.1809360
1144.655, 6.4902000E-02
1145.137, 4.7467001E-02
1145.619, 8.2439996E-02
1146.101, 0.1650800
1146.583, 0.2128300
1147.065, 6.6766001E-02
1147.547, 9.9499999E-03
1148.029, 0.2430590
1148.511, 0.6195770
1148.994, 0.6818820
1149.476, 0.4673440
1149.958, 0.1923650
1150.440, 0.2261890
1150.922, 1.6950000E-02
1151.404, 2.652772
1151.886, 5.060810
1152.368, 4.756836
1152.851, 2.110647
1153.333, 0.6081670
1153.815, 0.2541240
1154.297, 0.1807620
1154.779, 0.1238660
1155.261, 9.9762999E-02
1155.743, 0.1578270
1156.225, 0.2402880
1156.708, 0.2807840
1157.190, 0.2760170
1157.672, 0.2220170
1158.154, 0.1045230
1158.636, 6.8083003E-02
1159.118, 0.3037300
1159.600, 0.5390830
1160.082, 0.3740620
1160.564, 2.3256000E-02
1161.047, 0.1297980
1161.529, 0.1077790
1162.011, 0.1958640
1162.493, 8.6443998E-02
1162.975, 5.2700001E-03
1163.457, 0.2014380
1163.939, 0.4793820
1164.421, 0.5561580
1164.903, 0.4797330
1165.385, 0.4094230
1165.868, 0.4036210
1166.350, 0.3574230
1166.832, 0.2491790
1167.314, 0.1385520
1167.796, 9.0590000E-02
1168.278, 8.3074003E-02
1168.760, 7.3808998E-02
1169.242, 6.5360002E-02
1169.725, 8.9643002E-02
1170.207, 0.1930060
1170.689, 0.2752310
1171.171, 0.3133620
1171.653, 0.3398390
1172.135, 0.4337780
1172.617, 0.5430310
1173.099, 0.5327630
1173.582, 0.3821130
1174.064, 0.2411920
1174.546, 0.1502830
1175.028, 0.1087290
1175.510, 0.1246440
1175.992, 0.1822110
1176.474, 0.2574720
1176.956, 0.3400280
1177.438, 0.3996070
1177.921, 0.4308340
1178.403, 0.4369430
1178.885, 0.3675870
1179.367, 0.3357330
1179.849, 0.3946820
1180.331, 0.5166940
1180.813, 0.6849450
1181.295, 0.8412680
1181.778, 0.7847560
1182.260, 0.3876850
1182.742, 7.2067000E-02
1183.224, 0.1297470
1183.706, 0.2187800
1184.188, 0.1211400
1184.670, 0.1050170
1185.152, 0.1192260
1185.635, 4.4918999E-02
1186.117, 0.2203220
1186.599, 0.3669530
1187.081, 0.4634750
1187.563, 0.4604650
1188.045, 0.4330460
1188.527, 0.4378590
1189.009, 0.4718780
1189.491, 0.5047140
1189.974, 0.5327470
1190.456, 0.5275570
1190.938, 0.4241430
1191.420, 0.3532550
1191.902, 0.4314010
1192.384, 0.5355450
1192.866, 0.5316150
1193.348, 0.4161610
1193.830, 0.3817620
1194.313, 0.4209990
1194.795, 0.4466710
1195.277, 0.3271350
1195.759, 0.2342200
1196.241, 0.3028010
1196.723, 0.4185770
1197.205, 0.4407250
1197.687, 0.3712470
1198.169, 0.3294610
1198.652, 0.3202780
1199.134, 0.3203420
1199.616, 0.3059360
1200.098, 0.2992740
1200.580, 0.3382700
1201.062, 0.3823820
1201.544, 0.3450110
1202.026, 0.2217660
1202.509, 0.2080790
1202.991, 0.3219740
1203.473, 0.4279460
1203.955, 0.3833690
1204.437, 0.3418010
1204.919, 0.4646800
1205.401, 0.6445760
1205.883, 0.6137790
1206.365, 0.3655530
1206.848, 0.2045710
1207.330, 0.1712670
1207.812, 0.2148810
1208.294, 0.3793220
1208.776, 0.5288530
1209.258, 0.4946060
1209.740, 0.3459090
1210.222, 0.2846750
1210.705, 0.3118550
1211.187, 0.2759430
1211.669, 0.1378770
1212.151, 4.6718001E-02
1212.633, 0.1847630
1213.115, 0.3597080
1213.597, 0.4076170
1214.079, 0.3728110
1214.562, 0.4425610
1215.044, 0.6131360
1215.526, 0.7080170
1216.008, 0.6779260
1216.490, 0.6184650
1216.972, 0.6138170
1217.454, 0.6000450
1217.936, 0.4958400
1218.418, 0.3366580
1218.901, 0.3307740
1219.383, 0.4863110
1219.865, 0.5945500
1220.347, 0.6041630
1220.829, 0.5315860
1221.311, 0.2592890
1221.793, 2.9096000E-02
1222.275, 4.6712998E-02
1222.757, 0.2716010
1223.240, 0.4228840
1223.722, 0.5019800
1224.204, 0.5183960
1224.686, 0.4575660
1225.168, 0.3885890
1225.650, 0.3264950
1226.132, 0.3139390
1226.614, 0.3741290
1227.096, 0.4999020
1227.579, 0.5739810
1228.061, 0.5945440
1228.543, 0.5380710
1229.025, 0.3669850
1229.507, 0.1931530
1229.989, 2.3575000E-02
1230.471, 6.9583997E-02
1230.953, 2.5353000E-02
1231.436, 0.1413340
1231.918, 0.3333240
1232.400, 0.5328340
1232.882, 0.6044650
1233.364, 0.3993010
1233.846, 0.2343780
1234.328, 0.3354250
1234.810, 0.4690450
1235.292, 0.4379420
1235.775, 0.2781730
1236.257, 0.3564480
1236.739, 0.6077620
1237.221, 0.6788100
1237.703, 0.2229540
1238.185, 0.1262940
1238.667, 5.4299001E-02
1239.149, 0.1433510
1239.632, 0.2977820
1240.114, 0.4033250
1240.596, 0.4118400
1241.078, 0.3475690
1241.560, 0.3119660
1242.042, 0.4026770
1242.524, 0.4381160
1243.006, 0.3200650
1243.489, 0.2373680
1243.971, 0.3890420
1244.453, 0.6836280
1244.935, 0.6895100
1245.417, 0.4829680
1245.899, 0.3544000
1246.381, 0.5524560
1246.863, 0.6421740
1247.345, 0.5207960
1247.828, 0.3617410
1248.310, 0.3206080
1248.792, 0.3538230
1249.274, 0.3254070
1249.756, 0.2649000
1250.238, 0.2764640
1250.720, 0.5886320
1251.202, 0.6348030
1251.684, 0.2470270
1252.167, 0.1006860
1252.649, 0.1261220
1253.131, 0.6190420
1253.613, 0.7887050
1254.095, 0.6956330
1254.577, 0.5710230
1255.059, 0.4626550
1255.541, 0.3294250
1256.023, 0.1461790
1256.506, 1.9417999E-02
1256.988, 7.7382997E-02
1257.470, 0.2245820
1257.952, 0.3522470
1258.434, 0.4550210
1258.916, 0.5309880
1259.398, 0.6127330
1259.880, 0.5560000
1260.363, 0.3241900
1260.845, 0.1266300
1261.327, 0.1952130
1261.809, 0.3406990
1262.291, 0.3705890
1262.773, 0.3193930
1263.255, 0.2715640
1263.737, 0.2093630
1264.219, 0.2953150
1264.702, 0.5551770
1265.184, 0.7362550
1265.666, 0.5552840
1266.148, 0.3032040
1266.630, 0.1334910
1267.112, 0.1040250
1267.594, 0.2682610
1268.076, 0.6543390
1268.559, 0.7656560
1269.041, 0.5718460
1269.523, 0.3587220
1270.005, 0.2987000
1270.487, 0.2716840
1270.969, 0.3095230
1271.451, 0.3646880
1271.933, 0.4337380
1272.416, 0.5091850
1272.898, 0.4649050
1273.380, 0.3069550
1273.862, 0.2045720
1274.344, 0.3152930
1274.826, 0.4271300
1275.308, 0.4858700
1275.790, 0.4887470
1276.272, 0.3914180
1276.755, 0.2364320
1277.237, 0.1645510
1277.719, 0.2172010
1278.201, 0.3186500
1278.683, 0.5591240
1279.165, 0.6655900
1279.647, 0.5430910
1280.129, 0.3667710
1280.611, 0.3066940
1281.094, 0.3284940
1281.576, 0.4118340
1282.058, 0.5214060
1282.540, 0.4868060
1283.022, 7.9893999E-02
1283.504, 9.9501997E-02
1283.986, 5.4012999E-02
1284.468, 0.2813300
1284.950, 0.3565970
1285.433, 0.3286010
1285.915, 0.1870140
1286.397, 8.2649998E-03
1286.879, 2.4910999E-02
1287.361, 0.2226720
1287.843, 0.3335220
1288.325, 0.2556580
1288.807, 0.1793390
1289.290, 0.2830100
1289.772, 0.4463160
1290.254, 0.6332980
1290.736, 0.7739340
1291.218, 0.7098020
1291.700, 0.4162100
1292.182, 0.2521460
1292.664, 0.2402780
1293.146, 0.2281080
1293.629, 0.2506850
1294.111, 0.3100470
1294.593, 0.4749100
1295.075, 0.6792210
1295.557, 0.6455420
1296.039, 0.4087190
1296.521, 0.2524200
1297.003, 0.1850690
1297.486, 0.1420430
1297.968, 0.1164740
1298.450, 8.6465999E-02
1298.932, 3.0727001E-02
1299.414, 3.9309999E-03
1299.896, 8.1046999E-02
1300.378, 0.2221780
1300.860, 0.1912210
1301.343, 3.9149001E-02
1301.825, 0.0000000E+00
##END=



