##NAMES=Terlinguacreekite
##RRUFFID=R060731
##IDEAL CHEMISTRY=Hg^2+^_3_O_2_Cl_2_
##LOCALITY=Mariposa mine, Terlingua, Brewster County, Texas, USA
##OWNER=RRUFF
##SOURCE=Michael Scott
##DESCRIPTION=Dark orange bladed crystals on lighter orange incrustation, both terlinguacreekite, associated with calcite
##STATUS=The identification of this mineral is confirmed by single-crystal X-ray diffraction and chemical analysis.
##URL=rruff.info/R060731
##MEASURED CHEMISTRY=Hg^2+^_3.00_O_2_Cl_2.00_ ; O estimated by difference and stoichiometry
151.1459, 0.0000000E+00
151.6280, 3.197266
152.1101, 12.86523
152.5922, 26.43750
153.0743, 59.52930
153.5565, 116.7109
154.0386, 196.1475
154.5207, 275.1836
155.0028, 345.6621
155.4849, 415.0254
155.9670, 490.5664
156.4492, 558.2783
156.9313, 645.5527
157.4134, 762.7617
157.8955, 911.0713
158.3776, 1076.455
158.8597, 1267.003
159.3419, 1470.329
159.8240, 1667.724
160.3061, 1837.796
160.7882, 2013.305
161.2703, 2211.225
161.7524, 2442.098
162.2346, 2686.209
162.7167, 2980.888
163.1988, 3282.413
163.6809, 3497.854
164.1630, 3652.818
164.6451, 3680.756
165.1273, 3504.961
165.6094, 3029.029
166.0915, 2507.357
166.5736, 2041.145
167.0557, 1634.542
167.5379, 1283.328
168.0200, 991.5767
168.5021, 761.4082
168.9842, 593.1479
169.4663, 507.6694
169.9484, 461.9116
170.4306, 430.4238
170.9127, 421.6528
171.3948, 412.0801
171.8769, 386.1699
172.3590, 368.0415
172.8411, 346.7637
173.3233, 307.7173
173.8054, 270.3267
174.2875, 231.4775
174.7696, 212.5742
175.2517, 209.0425
175.7338, 210.7544
176.2160, 221.6196
176.6981, 227.3740
177.1802, 216.1904
177.6623, 200.8467
178.1444, 195.9888
178.6265, 197.3271
179.1087, 194.4224
179.5908, 177.3872
180.0729, 150.9995
180.5550, 129.0581
181.0371, 123.0596
181.5192, 126.9409
182.0014, 125.3652
182.4835, 121.5293
182.9656, 116.5449
183.4477, 111.8213
183.9298, 107.1196
184.4119, 100.6938
184.8941, 89.68506
185.3762, 75.70215
185.8583, 64.98145
186.3404, 58.66553
186.8225, 54.83203
187.3046, 49.70557
187.7868, 43.33057
188.2689, 38.22607
188.7510, 39.08789
189.2331, 44.20654
189.7152, 41.47314
190.1973, 25.42383
190.6795, 3.791016
191.1616, 1.486328
191.6437, 11.50781
192.1258, 22.08105
192.6079, 8.199707
193.0900, 28.73975
193.5722, 56.43506
194.0543, 65.72949
194.5364, 61.90869
195.0185, 66.90186
195.5006, 83.59668
195.9827, 95.65381
196.4649, 80.54883
196.9470, 36.26758
197.4291, 6.286133
197.9112, 7.064453
198.3933, 32.90381
198.8754, 42.79932
199.3576, 32.87598
199.8397, 17.97266
200.3218, 16.27930
200.8039, 29.75244
201.2860, 42.14355
201.7681, 47.58252
202.2503, 46.40381
202.7324, 50.36621
203.2145, 61.02637
203.6966, 73.71680
204.1787, 83.36670
204.6608, 90.51123
205.1430, 91.64111
205.6251, 82.31445
206.1072, 60.95459
206.5893, 50.66309
207.0714, 53.95605
207.5535, 65.19434
208.0357, 76.12305
208.5178, 87.23291
208.9999, 88.66016
209.4820, 86.85254
209.9641, 81.35303
210.4462, 76.27832
210.9284, 74.22461
211.4105, 70.56543
211.8926, 53.47510
212.3747, 15.94287
212.8568, 18.25146
213.3389, 37.53760
213.8211, 36.86523
214.3032, 39.39746
214.7853, 46.38037
215.2674, 56.13916
215.7495, 63.80713
216.2316, 67.27979
216.7138, 72.90381
217.1959, 83.62451
217.6780, 99.94482
218.1601, 120.9780
218.6422, 150.9121
219.1243, 184.4336
219.6065, 202.9839
220.0886, 199.4072
220.5707, 192.4678
221.0528, 192.1821
221.5349, 199.7329
222.0170, 211.5210
222.4992, 231.4238
222.9813, 255.3706
223.4634, 264.2476
223.9455, 243.2749
224.4276, 228.3940
224.9097, 246.3599
225.3919, 322.1211
225.8740, 372.0210
226.3561, 382.4756
226.8382, 360.1362
227.3203, 343.5190
227.8024, 336.3726
228.2846, 330.3433
228.7667, 319.9951
229.2488, 305.1655
229.7309, 285.9805
230.2130, 257.2456
230.6951, 221.9922
231.1773, 205.5913
231.6594, 217.9849
232.1415, 237.5146
232.6236, 249.0928
233.1057, 250.6255
233.5878, 248.6143
234.0700, 240.8218
234.5521, 228.3145
235.0342, 227.5317
235.5163, 251.9209
235.9984, 273.0068
236.4805, 263.7783
236.9627, 196.0151
237.4448, 154.9287
237.9269, 163.0737
238.4090, 218.0752
238.8911, 249.0024
239.3732, 244.3398
239.8554, 228.5864
240.3375, 221.7153
240.8196, 225.0117
241.3017, 234.8730
241.7838, 252.7627
242.2659, 278.4951
242.7481, 301.4409
243.2302, 317.5073
243.7123, 334.7617
244.1944, 361.2344
244.6765, 402.4556
245.1586, 443.2183
245.6408, 481.1587
246.1229, 516.5073
246.6050, 549.4404
247.0871, 577.6411
247.5692, 605.8643
248.0513, 638.7646
248.5335, 679.3608
249.0156, 718.3467
249.4977, 752.6646
249.9798, 782.1802
250.4619, 819.5049
250.9440, 866.5693
251.4262, 917.0586
251.9083, 964.7632
252.3904, 1006.494
252.8725, 1054.719
253.3546, 1113.495
253.8367, 1183.714
254.3189, 1249.262
254.8010, 1311.431
255.2831, 1369.482
255.7652, 1418.579
256.2473, 1446.666
256.7295, 1488.920
257.2116, 1558.388
257.6937, 1655.190
258.1758, 1739.965
258.6579, 1807.433
259.1400, 1867.845
259.6222, 1932.596
260.1043, 2001.835
260.5864, 2074.181
261.0685, 2149.360
261.5506, 2225.990
262.0327, 2309.199
262.5149, 2403.736
262.9970, 2497.797
263.4791, 2575.175
263.9612, 2628.873
264.4433, 2689.714
264.9254, 2768.473
265.4076, 2863.121
265.8897, 2943.168
266.3718, 3001.750
266.8539, 3058.369
267.3360, 3137.082
267.8181, 3245.301
268.3003, 3346.768
268.7824, 3428.644
269.2645, 3493.022
269.7466, 3575.091
270.2287, 3681.124
270.7108, 3792.235
271.1930, 3888.529
271.6751, 3964.290
272.1572, 4049.869
272.6393, 4155.356
273.1214, 4279.125
273.6035, 4391.136
274.0857, 4490.244
274.5678, 4581.949
275.0499, 4667.267
275.5320, 4742.451
276.0141, 4836.505
276.4962, 4964.243
276.9784, 5117.761
277.4605, 5239.261
277.9426, 5321.062
278.4247, 5399.688
278.9068, 5514.053
279.3889, 5667.228
279.8711, 5807.074
280.3532, 5914.673
280.8353, 6001.682
281.3174, 6124.176
281.7995, 6287.569
282.2816, 6453.379
282.7638, 6581.790
283.2459, 6673.551
283.7280, 6774.454
284.2101, 6894.628
284.6922, 7030.280
285.1743, 7170.233
285.6565, 7313.083
286.1386, 7462.384
286.6207, 7626.054
287.1028, 7801.940
287.5849, 7968.930
288.0670, 8120.000
288.5492, 8260.247
289.0313, 8393.882
289.5134, 8519.423
289.9955, 8657.074
290.4776, 8833.179
290.9597, 9037.396
291.4419, 9229.078
291.9240, 9400.805
292.4061, 9556.148
292.8882, 9696.202
293.3703, 9821.246
293.8524, 9947.703
294.3346, 10090.34
294.8167, 10243.98
295.2988, 10398.44
295.7809, 10554.58
296.2630, 10706.56
296.7451, 10850.62
297.2273, 10985.83
297.7094, 11109.55
298.1915, 11214.86
298.6736, 11309.27
299.1557, 11406.13
299.6378, 11508.24
300.1200, 11613.57
300.6021, 11741.78
301.0842, 11879.56
301.5663, 11975.64
302.0484, 11960.87
302.5305, 11897.96
303.0127, 11882.22
303.4948, 11936.15
303.9769, 12002.28
304.4590, 12036.73
304.9411, 12041.64
305.4232, 12023.39
305.9054, 11969.90
306.3875, 11902.36
306.8696, 11845.46
307.3517, 11804.54
307.8338, 11761.48
308.3159, 11711.02
308.7981, 11648.92
309.2802, 11566.78
309.7623, 11449.85
310.2444, 11318.90
310.7265, 11185.78
311.2086, 11051.36
311.6908, 10922.22
312.1729, 10805.69
312.6550, 10694.48
313.1371, 10579.56
313.6192, 10462.43
314.1013, 10339.11
314.5835, 10205.61
315.0656, 10061.91
315.5477, 9913.953
316.0298, 9744.347
316.5119, 9578.408
316.9940, 9443.246
317.4762, 9388.539
317.9583, 9331.020
318.4404, 9236.606
318.9225, 9104.390
319.4046, 8970.864
319.8867, 8839.314
320.3689, 8714.521
320.8510, 8600.476
321.3331, 8518.786
321.8152, 8426.556
322.2973, 8303.388
322.7794, 8153.508
323.2616, 8021.482
323.7437, 7930.724
324.2258, 7848.449
324.7079, 7753.843
325.1900, 7643.607
325.6721, 7522.858
326.1543, 7387.269
326.6364, 7240.881
327.1185, 7096.752
327.6006, 6957.491
328.0827, 6816.554
328.5648, 6670.570
329.0470, 6519.291
329.5291, 6364.543
330.0112, 6209.913
330.4933, 6051.893
330.9754, 5882.425
331.4576, 5693.391
331.9397, 5501.840
332.4218, 5311.227
332.9039, 5115.159
333.3860, 4940.114
333.8681, 4798.864
334.3503, 4674.434
334.8324, 4538.871
335.3145, 4393.633
335.7966, 4238.088
336.2787, 4066.457
336.7608, 3875.476
337.2430, 3702.222
337.7251, 3554.917
338.2072, 3420.252
338.6893, 3283.409
339.1714, 3146.594
339.6535, 3002.384
340.1357, 2843.709
340.6178, 2671.976
341.0999, 2531.723
341.5820, 2428.520
342.0641, 2335.291
342.5462, 2213.155
343.0284, 2062.750
343.5105, 1926.653
343.9926, 1822.832
344.4747, 1740.125
344.9568, 1644.023
345.4389, 1533.413
345.9211, 1424.528
346.4032, 1334.214
346.8853, 1258.606
347.3674, 1182.307
347.8495, 1099.610
348.3316, 1016.399
348.8138, 946.8862
349.2959, 889.9814
349.7780, 836.7349
350.2601, 772.6357
350.7422, 707.3115
351.2243, 663.9219
351.7065, 652.9634
352.1886, 645.6646
352.6707, 604.9546
353.1528, 539.7061
353.6349, 479.8770
354.1170, 448.6099
354.5992, 426.3628
355.0813, 386.4873
355.5634, 321.7832
356.0455, 266.3188
356.5276, 256.5537
357.0097, 271.6782
357.4919, 276.0527
357.9740, 243.9897
358.4561, 204.1558
358.9382, 174.4707
359.4203, 156.3208
359.9024, 141.5371
360.3846, 128.0820
360.8667, 114.3706
361.3488, 99.63184
361.8309, 79.72070
362.3130, 63.17188
362.7951, 56.18555
363.2773, 57.49902
363.7594, 53.27393
364.2415, 35.45605
364.7236, 13.91064
365.2057, 5.042969
365.6878, 22.03809
366.1700, 34.05518
366.6521, 35.52588
367.1342, 30.17432
367.6163, 33.10303
368.0984, 59.00000
368.5805, 81.59619
369.0627, 89.73389
369.5448, 74.11279
370.0269, 60.76123
370.5090, 48.69580
370.9911, 39.80176
371.4732, 38.56934
371.9554, 52.17529
372.4375, 61.80371
372.9196, 58.37842
373.4017, 37.62891
373.8838, 26.97900
374.3659, 30.44531
374.8481, 41.44922
375.3302, 51.28809
375.8123, 59.61426
376.2944, 63.24463
376.7765, 61.31787
377.2586, 55.47412
377.7408, 51.77051
378.2229, 50.18652
378.7050, 50.07031
379.1871, 49.76172
379.6692, 49.27783
380.1513, 55.16943
380.6335, 72.24072
381.1156, 90.56836
381.5977, 86.36133
382.0798, 62.27686
382.5619, 38.24512
383.0440, 23.99121
383.5262, 17.86182
384.0083, 20.69629
384.4904, 36.64502
384.9725, 50.97070
385.4546, 40.19873
385.9367, 11.25488
386.4189, 13.36426
386.9010, 17.66504
387.3831, 14.91943
387.8652, 18.44141
388.3473, 27.28271
388.8294, 39.57910
389.3116, 67.80420
389.7937, 97.77539
390.2758, 107.5273
390.7579, 60.36279
391.2400, 12.94727
391.7221, 1.196777
392.2043, 21.22217
392.6864, 42.48145
393.1685, 51.58691
393.6506, 58.28857
394.1327, 69.36670
394.6148, 91.56104
395.0970, 109.9307
395.5791, 119.9966
396.0612, 123.5991
396.5433, 125.6934
397.0254, 128.0054
397.5075, 128.4092
397.9897, 126.6421
398.4718, 124.3052
398.9539, 116.3252
399.4360, 93.87549
399.9181, 69.84033
400.4002, 61.97607
400.8824, 78.72803
401.3645, 97.51123
401.8466, 113.7661
402.3287, 127.5371
402.8108, 140.8989
403.2929, 156.5684
403.7751, 167.5273
404.2572, 164.1826
404.7393, 141.2070
405.2214, 128.1719
405.7035, 132.4370
406.1856, 148.6118
406.6678, 157.6592
407.1499, 158.4272
407.6320, 160.4355
408.1141, 171.2534
408.5962, 189.9209
409.0783, 207.0073
409.5605, 222.3628
410.0426, 234.0430
410.5247, 236.0000
411.0068, 230.0703
411.4889, 226.9790
411.9710, 235.6191
412.4532, 249.3882
412.9353, 255.7188
413.4174, 254.0986
413.8995, 251.5518
414.3816, 256.0513
414.8637, 263.2729
415.3459, 266.2520
415.8280, 261.3257
416.3101, 252.7036
416.7922, 237.4644
417.2743, 219.0972
417.7564, 212.8135
418.2386, 242.4824
418.7207, 277.6865
419.2028, 293.2661
419.6849, 274.8823
420.1670, 258.9673
420.6491, 261.6626
421.1313, 274.6040
421.6134, 282.4922
422.0955, 284.2441
422.5776, 278.1548
423.0597, 260.5522
423.5418, 227.6494
424.0240, 201.6938
424.5061, 186.5884
424.9882, 177.6782
425.4703, 171.1240
425.9524, 169.7202
426.4345, 163.4272
426.9167, 149.1274
427.3988, 130.2236
427.8809, 118.7202
428.3630, 115.8872
428.8451, 117.4570
429.3272, 123.3467
429.8094, 135.3389
430.2915, 132.6157
430.7736, 109.9722
431.2557, 82.10449
431.7378, 76.37500
432.2199, 93.06787
432.7021, 103.1250
433.1842, 88.72998
433.6663, 58.16162
434.1484, 43.41846
434.6305, 45.46191
435.1126, 53.60352
435.5948, 60.18701
436.0769, 64.38232
436.5590, 64.31885
437.0411, 59.48096
437.5232, 50.00928
438.0053, 28.87402
438.4875, 0.2744140
438.9696, 19.93652
439.4517, 6.030762
439.9338, 18.28125
440.4159, 28.92676
440.8980, 17.94385
441.3802, 6.395996
441.8623, 7.032715
442.3444, 12.02637
442.8265, 11.65820
443.3086, 4.416016
443.7907, 6.047363
444.2729, 25.16846
444.7550, 53.87256
445.2371, 69.29883
445.7192, 51.01074
446.2013, 27.97217
446.6834, 20.00928
447.1656, 43.34668
447.6477, 58.36035
448.1298, 63.43359
448.6119, 61.48633
449.0940, 56.15430
449.5761, 39.92188
450.0583, 27.22314
450.5404, 27.03174
451.0225, 42.13232
451.5046, 48.48193
451.9867, 44.16113
452.4688, 34.04004
452.9510, 23.56689
453.4331, 13.49023
453.9152, 3.710938
454.3973, 6.543945
454.8794, 15.72852
455.3615, 18.76611
455.8437, 15.86182
456.3258, 9.244629
456.8079, 8.737793
457.2900, 28.72461
457.7721, 26.22217
458.2542, 6.820313
458.7364, 47.09619
459.2185, 73.13672
459.7006, 88.01709
460.1827, 97.22949
460.6648, 102.3271
461.1469, 103.8281
461.6291, 99.07227
462.1112, 88.35693
462.5933, 82.35693
463.0754, 86.68506
463.5575, 98.51025
464.0396, 115.7451
464.5218, 145.5293
465.0039, 169.5947
465.4860, 181.9385
465.9681, 186.3232
466.4502, 191.8589
466.9323, 200.9116
467.4145, 209.4429
467.8966, 215.3540
468.3787, 217.1724
468.8608, 223.5610
469.3429, 236.9673
469.8250, 252.4966
470.3072, 264.6533
470.7893, 271.9399
471.2714, 281.2437
471.7535, 294.7051
472.2356, 310.6787
472.7177, 321.6274
473.1999, 326.7061
473.6820, 332.1875
474.1641, 343.6880
474.6462, 359.1348
475.1284, 369.7593
475.6105, 375.2178
476.0926, 376.7983
476.5747, 366.2920
477.0568, 351.2412
477.5389, 351.9204
478.0211, 396.0601
478.5032, 444.2930
478.9853, 450.4287
479.4674, 420.5566
479.9495, 393.4634
480.4316, 397.2896
480.9138, 409.7026
481.3959, 411.5728
481.8780, 393.4658
482.3601, 378.9102
482.8422, 382.3228
483.3243, 393.0283
483.8065, 394.7090
484.2886, 376.9097
484.7707, 356.8638
485.2528, 337.6904
485.7349, 319.6133
486.2170, 304.4253
486.6992, 293.2192
487.1813, 284.2197
487.6634, 277.6338
488.1455, 276.3003
488.6276, 265.3281
489.1097, 239.4692
489.5919, 208.1909
490.0740, 191.8828
490.5561, 192.0605
491.0382, 189.9624
491.5203, 175.6709
492.0024, 152.8062
492.4846, 135.3862
492.9667, 123.7896
493.4488, 115.1401
493.9309, 111.1299
494.4130, 107.7622
494.8951, 93.61230
495.3773, 61.07666
495.8594, 26.93066
496.3415, 9.143555
496.8236, 3.478027
497.3057, 6.6895001E-02
497.7878, 7.305176
498.2700, 13.90283
498.7521, 14.60059
499.2342, 8.609863
499.7163, 8.234375
500.1984, 30.16455
500.6805, 53.39307
501.1627, 61.12842
501.6448, 19.79883
502.1269, 0.9189450
502.6090, 28.63721
503.0911, 82.89893
503.5732, 110.4072
504.0554, 98.70898
504.5375, 79.50830
505.0196, 64.24951
505.5017, 52.84180
505.9838, 38.98779
506.4659, 19.85938
506.9481, 3.459473
507.4302, 4.434570
507.9123, 23.10400
508.3944, 21.09131
508.8765, 15.07031
509.3586, 63.99268
509.8408, 78.74023
510.3229, 65.46533
510.8050, 67.09229
511.2871, 127.0103
511.7692, 209.4395
512.2513, 253.9287
512.7335, 257.0825
513.2156, 264.1001
513.6977, 311.8374
514.1798, 379.4463
514.6619, 442.6426
515.1440, 492.0952
515.6262, 540.0303
516.1083, 588.4326
516.5904, 638.4678
517.0725, 694.1729
517.5546, 756.0791
518.0367, 824.5254
518.5189, 900.3594
519.0010, 985.1582
519.4831, 1069.381
519.9652, 1149.506
520.4473, 1231.429
520.9294, 1323.499
521.4116, 1432.929
521.8937, 1521.507
522.3758, 1574.580
522.8579, 1613.517
523.3400, 1694.332
523.8221, 1819.172
524.3043, 1946.484
524.7864, 2049.749
525.2685, 2140.254
525.7506, 2266.292
526.2327, 2429.599
526.7148, 2590.167
527.1970, 2708.067
527.6791, 2802.661
528.1612, 2907.146
528.6433, 3031.572
529.1254, 3164.973
529.6075, 3298.404
530.0897, 3434.600
530.5718, 3575.617
531.0539, 3725.568
531.5360, 3879.783
532.0181, 4039.031
532.5002, 4202.979
532.9824, 4361.771
533.4645, 4499.711
533.9466, 4641.179
534.4287, 4797.952
534.9108, 4970.610
535.3929, 5163.266
535.8751, 5388.950
536.3572, 5625.243
536.8393, 5827.218
537.3214, 5988.432
537.8035, 6151.556
538.2856, 6330.153
538.7678, 6522.634
539.2499, 6731.319
539.7320, 6957.150
540.2141, 7176.606
540.6962, 7361.832
541.1783, 7527.361
541.6605, 7711.659
542.1426, 7921.362
542.6247, 8138.425
543.1068, 8352.283
543.5889, 8560.975
544.0710, 8761.135
544.5532, 8940.041
545.0353, 9120.585
545.5174, 9314.776
545.9995, 9522.135
546.4816, 9730.343
546.9637, 9960.561
547.4459, 10170.92
547.9280, 10334.60
548.4101, 10422.16
548.8922, 10548.59
549.3743, 10736.94
549.8564, 10944.90
550.3386, 11126.67
550.8207, 11272.76
551.3028, 11426.46
551.7849, 11600.40
552.2670, 11780.20
552.7491, 11918.75
553.2313, 12014.55
553.7134, 12109.73
554.1955, 12232.15
554.6776, 12370.72
555.1597, 12491.91
555.6418, 12593.79
556.1240, 12696.55
556.6061, 12838.44
557.0882, 12985.65
557.5703, 13082.23
558.0524, 13090.79
558.5345, 13096.43
559.0167, 13156.41
559.4988, 13248.18
559.9809, 13326.50
560.4630, 13404.61
560.9451, 13440.91
561.4272, 13401.93
561.9094, 13286.48
562.3915, 13207.35
562.8736, 13184.70
563.3557, 13176.86
563.8378, 13167.57
564.3199, 13168.57
564.8021, 13122.16
565.2842, 13016.61
565.7663, 12882.93
566.2484, 12773.44
566.7305, 12686.48
567.2126, 12567.97
567.6948, 12393.82
568.1769, 12189.79
568.6590, 12009.36
569.1411, 11846.79
569.6232, 11679.54
570.1053, 11492.62
570.5875, 11292.04
571.0696, 11087.36
571.5517, 10880.97
572.0338, 10651.10
572.5159, 10357.76
572.9980, 10051.76
573.4802, 9783.755
573.9623, 9617.834
574.4444, 9419.323
574.9265, 9154.721
575.4086, 8847.428
575.8907, 8551.111
576.3729, 8277.813
576.8550, 7995.338
577.3371, 7690.508
577.8192, 7369.003
578.3013, 7073.913
578.7834, 6812.597
579.2656, 6565.779
579.7477, 6330.304
580.2298, 6100.457
580.7119, 5850.263
581.1940, 5575.148
581.6761, 5294.594
582.1583, 5023.665
582.6404, 4763.808
583.1225, 4518.262
583.6046, 4289.954
584.0867, 4073.938
584.5688, 3872.219
585.0510, 3680.512
585.5331, 3486.791
586.0152, 3275.140
586.4973, 3070.631
586.9794, 2884.813
587.4615, 2719.725
587.9437, 2562.475
588.4258, 2412.824
588.9079, 2270.151
589.3900, 2132.936
589.8721, 1997.557
590.3542, 1880.617
590.8364, 1790.619
591.3185, 1709.021
591.8006, 1604.842
592.2827, 1478.242
592.7648, 1362.044
593.2469, 1267.407
593.7291, 1187.851
594.2112, 1113.853
594.6933, 1045.503
595.1754, 984.3384
595.6575, 934.0459
596.1396, 889.0425
596.6218, 843.9458
597.1039, 798.5947
597.5860, 758.7246
598.0681, 738.8203
598.5502, 719.1792
599.0323, 683.5894
599.5145, 610.4570
599.9966, 546.3608
600.4787, 488.6387
600.9608, 443.9531
601.4429, 426.3198
601.9250, 446.4297
602.4072, 463.1221
602.8893, 469.2769
603.3714, 464.9731
603.8535, 440.6934
604.3356, 393.9727
604.8177, 359.0840
605.2999, 371.0835
605.7820, 410.3750
606.2641, 418.6865
606.7462, 392.1274
607.2283, 365.4956
607.7104, 376.5161
608.1926, 402.7900
608.6747, 411.9639
609.1568, 380.5054
609.6389, 359.0210
610.1210, 388.7432
610.6031, 439.9160
611.0853, 464.0225
611.5674, 419.9868
612.0495, 384.6035
612.5316, 374.7896
613.0137, 386.7246
613.4958, 398.9414
613.9780, 411.8252
614.4601, 426.4570
614.9422, 445.6030
615.4243, 468.5908
615.9064, 477.2476
616.3885, 468.4985
616.8707, 462.6240
617.3528, 488.3608
617.8349, 533.0439
618.3170, 562.4683
618.7991, 566.4692
619.2813, 563.0488
619.7634, 563.4829
620.2455, 569.2266
620.7276, 581.9780
621.2097, 612.2500
621.6918, 637.5713
622.1740, 645.8823
622.6561, 641.5454
623.1382, 645.3008
623.6203, 673.0601
624.1024, 693.0532
624.5845, 691.3042
625.0667, 665.1685
625.5488, 650.8403
626.0309, 648.5640
626.5130, 656.3081
626.9951, 679.8052
627.4772, 715.9575
627.9594, 731.4878
628.4415, 720.5156
628.9236, 699.6396
629.4057, 684.0088
629.8878, 673.5376
630.3699, 669.7295
630.8521, 681.2705
631.3342, 691.0488
631.8163, 685.1899
632.2984, 666.8833
632.7805, 646.0933
633.2626, 616.0854
633.7448, 594.6045
634.2269, 596.7690
634.7090, 623.5435
635.1911, 627.4014
635.6732, 599.2603
636.1553, 559.9531
636.6375, 519.9287
637.1196, 478.9863
637.6017, 440.4253
638.0838, 403.3218
638.5659, 373.6416
639.0480, 364.6880
639.5302, 370.6060
640.0123, 366.0698
640.4944, 341.0342
640.9765, 313.2588
641.4586, 304.9492
641.9407, 307.1577
642.4229, 300.5991
642.9050, 268.9346
643.3871, 234.4336
643.8692, 205.1372
644.3513, 181.5420
644.8334, 163.2993
645.3156, 156.2134
645.7977, 148.7261
646.2798, 137.0039
646.7619, 120.9521
647.2440, 101.2217
647.7261, 76.03467
648.2083, 52.03027
648.6904, 36.66992
649.1725, 29.03613
649.6546, 20.07324
650.1367, 8.604492
650.6188, 2.077148
651.1010, 4.264648
651.5831, 2.863281
652.0652, 8.848145
652.5473, 33.14453
653.0294, 55.39307
653.5115, 57.63184
653.9937, 48.57373
654.4758, 47.06592
654.9579, 67.19531
655.4400, 86.56543
655.9221, 99.53564
656.4042, 106.2759
656.8864, 106.5171
657.3685, 95.69336
657.8506, 87.35107
658.3327, 92.03613
658.8148, 109.4546
659.2969, 108.9658
659.7791, 88.45703
660.2612, 65.30957
660.7433, 56.01562
661.2254, 56.51270
661.7075, 58.36328
662.1896, 60.78906
662.6718, 61.70166
663.1539, 58.83740
663.6360, 53.64258
664.1181, 48.00928
664.6002, 37.01416
665.0823, 31.98926
665.5645, 41.23389
666.0466, 58.39404
666.5287, 66.76367
667.0108, 63.20166
667.4929, 55.82812
667.9750, 45.52393
668.4572, 33.03906
668.9393, 22.92676
669.4214, 15.45312
669.9035, 7.838379
670.3856, 3.999023
670.8677, 16.99170
671.3499, 21.38672
671.8320, 17.00928
672.3141, 13.23779
672.7962, 16.06934
673.2783, 23.87354
673.7604, 36.53516
674.2426, 57.03955
674.7247, 72.76074
675.2068, 75.66748
675.6889, 73.65723
676.1710, 75.60010
676.6531, 86.41895
677.1353, 91.93066
677.6174, 85.76465
678.0995, 77.88916
678.5816, 93.52002
679.0637, 135.4805
679.5458, 166.4053
680.0280, 170.8071
680.5101, 160.4336
680.9922, 158.0410
681.4743, 162.1807
681.9564, 165.2578
682.4385, 159.8110
682.9207, 153.6289
683.4028, 152.0942
683.8849, 155.4824
684.3670, 166.0225
684.8491, 194.5083
685.3312, 222.4663
685.8134, 237.1392
686.2955, 232.4346
686.7776, 240.2061
687.2597, 270.6201
687.7418, 298.0439
688.2239, 291.5601
688.7061, 249.9097
689.1882, 233.8638
689.6703, 253.9810
690.1524, 286.6699
690.6345, 305.3979
691.1166, 312.7949
691.5988, 315.1353
692.0809, 309.1450
692.5630, 306.9912
693.0451, 323.0063
693.5272, 348.6812
694.0093, 366.4263
694.4915, 366.0166
694.9736, 362.2568
695.4557, 355.4277
695.9378, 347.7803
696.4199, 350.4268
696.9020, 366.7026
697.3842, 386.1763
697.8663, 408.4995
698.3484, 431.3423
698.8305, 432.4546
699.3126, 411.2329
699.7947, 392.9326
700.2769, 396.2295
700.7590, 414.8584
701.2411, 445.9536
701.7232, 490.6665
702.2053, 520.0420
702.6874, 498.3540
703.1696, 463.8452
703.6517, 450.5781
704.1338, 480.9907
704.6159, 500.1514
705.0980, 496.3711
705.5801, 485.4590
706.0623, 484.2632
706.5444, 494.0137
707.0265, 510.1870
707.5086, 535.3398
707.9907, 561.0977
708.4728, 572.9517
708.9550, 572.1235
709.4371, 564.1865
709.9192, 545.4624
710.4013, 525.5513
710.8834, 518.5049
711.3655, 520.3745
711.8477, 518.6123
712.3298, 495.7026
712.8119, 477.7236
713.2940, 481.3203
713.7761, 505.4204
714.2582, 515.2168
714.7404, 500.3120
715.2225, 489.6104
715.7046, 498.2476
716.1867, 524.1729
716.6688, 534.5752
717.1509, 529.4380
717.6331, 520.2944
718.1152, 514.0977
718.5973, 509.3623
719.0794, 505.7935
719.5615, 503.7246
720.0436, 496.1772
720.5258, 466.4526
721.0079, 435.9150
721.4900, 427.1475
721.9721, 464.0542
722.4542, 483.0356
722.9363, 458.3745
723.4185, 421.6060
723.9006, 404.9771
724.3827, 416.3623
724.8648, 424.7505
725.3469, 425.5601
725.8290, 424.4287
726.3112, 435.7295
726.7933, 455.2529
727.2754, 459.8628
727.7575, 432.6733
728.2396, 401.1465
728.7217, 398.7861
729.2039, 414.1899
729.6860, 421.3413
730.1681, 403.5508
730.6502, 382.3457
731.1323, 356.4067
731.6144, 331.6387
732.0966, 338.8882
732.5787, 401.0879
733.0608, 453.2300
733.5429, 470.2295
734.0250, 457.0801
734.5071, 445.3691
734.9893, 435.0659
735.4714, 420.8501
735.9535, 392.8257
736.4356, 362.0767
736.9177, 346.6929
737.3998, 346.6787
737.8820, 353.3799
738.3641, 374.5996
738.8462, 391.9155
739.3283, 388.3159
739.8104, 352.1743
740.2925, 330.1475
740.7747, 330.8262
741.2568, 339.8135
741.7389, 348.7964
742.2210, 359.1987
742.7031, 360.7222
743.1852, 350.9727
743.6674, 337.8394
744.1495, 329.1973
744.6316, 324.6172
745.1137, 323.1738
745.5958, 325.7036
746.0779, 328.1533
746.5601, 324.6694
747.0422, 318.9683
747.5243, 319.4507
748.0064, 341.7363
748.4885, 354.7539
748.9706, 348.7480
749.4528, 332.9609
749.9349, 322.7871
750.4170, 320.7754
750.8991, 314.6519
751.3812, 298.4849
751.8633, 280.0601
752.3455, 281.7617
752.8276, 299.0830
753.3097, 308.5454
753.7918, 288.3628
754.2739, 264.9829
754.7560, 270.6123
755.2382, 294.8662
755.7203, 303.3828
756.2024, 259.2544
756.6845, 222.3052
757.1666, 220.4976
757.6487, 248.1245
758.1309, 262.3955
758.6130, 258.9316
759.0951, 254.2476
759.5772, 257.0288
760.0593, 265.0708
760.5414, 265.0947
761.0236, 257.4702
761.5057, 251.8145
761.9878, 260.3257
762.4699, 271.5083
762.9520, 273.7544
763.4341, 266.0488
763.9163, 250.9858
764.3984, 213.1626
764.8805, 181.3682
765.3626, 178.9155
765.8447, 216.4058
766.3268, 227.4092
766.8090, 199.9233
767.2911, 171.4771
767.7732, 178.0918
768.2553, 213.8066
768.7374, 231.4102
769.2195, 227.0684
769.7017, 211.2290
770.1838, 180.4468
770.6659, 149.2480
771.1480, 140.1582
771.6301, 165.3003
772.1122, 185.5034
772.5944, 181.7949
773.0765, 168.9819
773.5586, 161.7114
774.0407, 164.7163
774.5228, 163.8042
775.0049, 156.3115
775.4871, 147.9702
775.9692, 149.9043
776.4513, 160.6504
776.9334, 159.6279
777.4155, 138.9893
777.8976, 116.9487
778.3798, 119.2549
778.8619, 133.1416
779.3440, 136.5820
779.8261, 107.4727
780.3082, 86.27148
780.7903, 95.38086
781.2725, 118.2773
781.7546, 123.7715
782.2367, 101.1128
782.7188, 84.69482
783.2009, 80.43359
783.6830, 85.37207
784.1652, 96.96436
784.6473, 113.9321
785.1294, 127.3481
785.6115, 137.2920
786.0936, 137.8379
786.5757, 111.4033
787.0579, 70.43994
787.5400, 44.51855
788.0221, 61.28711
788.5042, 76.66602
788.9863, 69.58252
789.4684, 49.73389
789.9506, 50.19482
790.4327, 81.93262
790.9148, 103.8076
791.3969, 100.9565
791.8790, 81.42432
792.3611, 68.21973
792.8433, 60.77881
793.3254, 51.74316
793.8075, 28.50879
794.2896, 7.576172
794.7717, 8.875000
795.2538, 27.23096
795.7360, 41.19775
796.2181, 37.16406
796.7002, 34.65088
797.1823, 42.28613
797.6644, 58.23682
798.1465, 68.18945
798.6287, 72.10205
799.1108, 70.13721
799.5929, 59.60400
800.0750, 44.39648
800.5571, 35.83105
801.0392, 33.61865
801.5214, 35.49561
802.0035, 51.88965
802.4856, 62.55127
802.9677, 42.62891
803.4498, 5.813965
803.9319, 35.24561
804.4141, 23.21387
804.8962, 2.457520
805.3783, 18.93604
805.8604, 40.72607
806.3425, 49.59033
806.8246, 44.56738
807.3068, 33.99365
807.7889, 16.15039
808.2710, 1.429199
808.7531, 0.8369140
809.2352, 21.99023
809.7173, 44.12500
810.1995, 63.83203
810.6816, 75.16650
811.1637, 70.42090
811.6458, 46.88428
812.1279, 31.48633
812.6100, 25.60889
813.0922, 27.73584
813.5743, 41.24951
814.0564, 65.14697
814.5385, 73.27393
815.0206, 65.07568
815.5027, 52.88330
815.9849, 44.26611
816.4670, 38.37207
816.9491, 33.12646
817.4312, 28.49707
817.9133, 28.28369
818.3954, 39.67480
818.8776, 51.58301
819.3597, 56.84033
819.8418, 54.58740
820.3239, 53.61035
820.8060, 55.13574
821.2881, 53.84766
821.7703, 45.44336
822.2524, 31.70801
822.7345, 23.78906
823.2166, 21.78125
823.6987, 16.94727
824.1808, 4.410156
824.6630, 27.43506
825.1451, 37.43799
825.6272, 32.50439
826.1093, 21.79150
826.5914, 5.227539
827.0735, 25.62061
827.5557, 23.98877
828.0378, 3.173828
828.5199, 6.207031
829.0020, 19.22754
829.4841, 43.58008
829.9662, 39.45996
830.4484, 18.25781
830.9305, 1.038574
831.4126, 10.62891
831.8947, 17.15332
832.3768, 24.12451
832.8589, 21.75098
833.3411, 4.384766
833.8232, 65.50684
834.3053, 89.65137
834.7874, 60.29492
835.2695, 22.39648
835.7516, 3.101074
836.2338, 1.355469
836.7159, 1.312500
837.1980, 2.904297
837.6801, 3.034668
838.1622, 4.958984
838.6443, 12.96045
839.1265, 9.505859
839.6086, 6.697266
840.0907, 17.79395
840.5728, 7.090332
841.0549, 0.5307620
841.5370, 15.76025
842.0192, 55.29541
842.5013, 65.91699
842.9834, 41.04102
843.4655, 17.62500
843.9476, 29.40527
844.4298, 60.02539
844.9119, 66.81836
845.3940, 50.52734
845.8762, 37.67432
846.3583, 51.91406
846.8404, 68.93066
847.3225, 71.47021
847.8046, 57.03467
848.2867, 46.84619
848.7689, 46.02539
849.2510, 40.84033
849.7331, 18.73242
850.2152, 15.18652
850.6973, 19.29395
851.1794, 5.714355
851.6616, 34.89990
852.1437, 61.30518
852.6258, 77.30762
853.1079, 68.33057
853.5900, 37.44385
854.0721, 14.55273
854.5543, 18.36035
855.0364, 22.57568
855.5185, 13.21631
856.0006, 5.884766
856.4827, 8.183105
856.9648, 62.80029
857.4470, 100.6699
857.9291, 74.99756
858.4112, 21.45703
858.8933, 20.85889
859.3754, 61.44141
859.8575, 93.19580
860.3397, 83.69043
860.8218, 64.14844
861.3039, 42.44629
861.7860, 21.20898
862.2681, 22.67285
862.7502, 62.85303
863.2324, 87.70996
863.7145, 74.02100
864.1966, 37.77588
864.6787, 27.16797
865.1608, 38.54492
865.6429, 49.46875
866.1251, 48.83105
866.6072, 43.30078
867.0893, 34.32715
867.5714, 24.40479
868.0535, 20.38037
868.5356, 28.00195
869.0178, 36.34668
869.4999, 43.26807
869.9820, 49.93115
870.4641, 61.06738
870.9462, 76.62695
871.4283, 84.47119
871.9105, 78.46777
872.3926, 67.30566
872.8747, 61.15039
873.3568, 58.20410
873.8389, 55.29590
874.3210, 50.35840
874.8032, 46.58203
875.2853, 48.40967
875.7674, 49.80273
876.2495, 42.08008
876.7316, 22.76953
877.2137, 5.631836
877.6959, 9.290039
878.1780, 15.84473
878.6601, 3.538574
879.1422, 37.07129
879.6243, 57.31689
880.1064, 52.78906
880.5886, 44.06055
881.0707, 37.07275
881.5528, 33.82568
882.0349, 37.12793
882.5170, 49.76074
882.9991, 59.80713
883.4813, 68.36719
883.9634, 74.35156
884.4455, 73.96924
884.9276, 69.05957
885.4097, 70.99805
885.8918, 82.19922
886.3740, 88.95410
886.8561, 76.65674
887.3382, 58.15234
887.8203, 44.42480
888.3024, 37.87744
888.7845, 34.13281
889.2667, 30.67969
889.7488, 30.16602
890.2309, 34.56641
890.7130, 45.40186
891.1951, 70.40088
891.6772, 107.7168
892.1594, 134.0991
892.6415, 116.9863
893.1236, 91.11133
893.6057, 96.71484
894.0878, 135.7495
894.5699, 155.0986
895.0521, 129.5562
895.5342, 97.96143
896.0163, 72.29883
896.4984, 52.12646
896.9805, 36.76416
897.4626, 26.20703
897.9448, 24.81299
898.4269, 44.36523
898.9090, 68.16553
899.3911, 71.65283
899.8732, 61.09619
900.3553, 59.13867
900.8375, 92.41650
901.3196, 113.7349
901.8017, 104.7422
902.2838, 76.35596
902.7659, 58.40088
903.2480, 51.29199
903.7302, 53.22070
904.2123, 68.68604
904.6944, 84.37012
905.1765, 76.81787
905.6586, 55.20947
906.1407, 39.03564
906.6229, 38.14014
907.1050, 40.39551
907.5871, 44.19727
908.0692, 47.74658
908.5513, 49.34033
909.0334, 48.86523
909.5156, 53.17676
909.9977, 66.04102
910.4798, 73.83350
910.9619, 47.73535
911.4440, 6.347656
911.9261, 11.38086
912.4083, 5.597168
912.8904, 30.10791
913.3725, 63.10938
913.8546, 88.17334
914.3367, 89.63477
914.8188, 57.66797
915.3010, 44.19434
915.7831, 53.14111
916.2652, 66.20166
916.7473, 69.77686
917.2294, 66.08447
917.7115, 58.46826
918.1937, 47.45166
918.6758, 38.22021
919.1579, 33.22949
919.6400, 31.47705
920.1221, 33.76367
920.6042, 39.68359
921.0864, 43.83740
921.5685, 47.28320
922.0506, 44.91357
922.5327, 28.65771
923.0148, 8.756836
923.4969, 17.06494
923.9791, 46.10791
924.4612, 67.27051
924.9433, 60.66357
925.4254, 47.98047
925.9075, 35.20410
926.3896, 24.81543
926.8718, 22.46387
927.3539, 31.42969
927.8360, 39.90576
928.3181, 47.30713
928.8002, 50.49756
929.2823, 38.53955
929.7645, 17.88184
930.2466, 8.727539
930.7287, 22.68262
931.2108, 33.94092
931.6929, 21.05176
932.1750, 1.480957
932.6572, 4.993164
933.1393, 9.721191
933.6214, 18.75098
934.1035, 21.61523
934.5856, 20.48389
935.0677, 15.88672
935.5499, 8.520020
936.0320, 2.942383
936.5141, 0.4033200
936.9962, 0.2397460
937.4783, 0.3779300
937.9604, 2.687500
938.4426, 15.71875
938.9247, 38.62695
939.4068, 48.28662
939.8889, 38.51025
940.3710, 31.84961
940.8531, 43.05811
941.3353, 62.61475
941.8174, 63.60547
942.2995, 50.25635
942.7816, 39.97754
943.2637, 43.93945
943.7458, 50.42041
944.2280, 60.38184
944.7101, 67.77979
945.1922, 55.51855
945.6743, 13.72217
946.1564, 11.37695
946.6385, 7.400879
947.1207, 7.127441
947.6028, 0.4335940
948.0849, 17.88330
948.5670, 24.57471
949.0491, 9.637695
949.5313, 5.831055
950.0134, 9.049316
950.4955, 11.01416
950.9776, 23.56641
951.4597, 53.27881
951.9418, 62.25000
952.4240, 46.22363
952.9061, 26.90381
953.3882, 25.49316
953.8703, 32.93018
954.3524, 31.80811
954.8345, 22.56396
955.3167, 15.01709
955.7988, 15.31348
956.2809, 22.46533
956.7630, 41.58301
957.2451, 68.14795
957.7272, 72.34424
958.2094, 50.71143
958.6915, 35.29053
959.1736, 42.79443
959.6557, 58.63965
960.1378, 58.07129
960.6199, 47.67676
961.1021, 43.63721
961.5842, 65.97900
962.0663, 78.56787
962.5484, 62.41553
963.0305, 40.88330
963.5126, 48.26123
963.9948, 85.44043
964.4769, 102.9111
964.9590, 92.52832
965.4411, 75.84521
965.9232, 74.71680
966.4053, 80.40479
966.8875, 84.36719
967.3696, 85.04053
967.8517, 89.46777
968.3338, 102.0142
968.8159, 109.0278
969.2980, 101.3550
969.7802, 81.90283
970.2623, 80.28076
970.7444, 94.31348
971.2265, 104.1973
971.7086, 93.40332
972.1907, 77.24170
972.6729, 65.81299
973.1550, 59.87695
973.6371, 61.82666
974.1192, 75.70020
974.6013, 92.26807
975.0834, 113.9971
975.5656, 132.5962
976.0477, 129.3223
976.5298, 107.3540
977.0119, 88.70508
977.4940, 79.39844
977.9761, 71.62061
978.4583, 56.36523
978.9404, 41.69385
979.4225, 36.64160
979.9046, 43.43457
980.3867, 53.46338
980.8688, 66.39453
981.3510, 83.27734
981.8331, 112.1206
982.3152, 144.2422
982.7973, 154.9062
983.2794, 143.4785
983.7615, 123.8784
984.2437, 92.45459
984.7258, 65.38184
985.2079, 54.03369
985.6900, 53.66113
986.1721, 46.35986
986.6542, 28.37598
987.1364, 28.76514
987.6185, 64.06445
988.1006, 104.0981
988.5827, 94.32568
989.0648, 59.64307
989.5469, 48.27441
990.0291, 98.61328
990.5112, 125.4595
990.9933, 85.67139
991.4754, 37.51709
991.9575, 31.72559
992.4396, 15.21143
992.9218, 43.44727
993.4039, 59.03955
993.8860, 62.67578
994.3681, 18.58057
994.8502, 36.01416
995.3323, 28.74658
995.8145, 20.55273
996.2966, 46.74316
996.7787, 9.690918
997.2608, 35.35742
997.7429, 35.97510
998.2250, 48.04492
998.7072, 35.29346
999.1893, 30.19678
999.6714, 49.91895
1000.154, 55.89062
1000.636, 40.25098
1001.118, 53.02393
1001.600, 37.07617
1002.082, 30.39941
1002.564, 36.61816
1003.046, 45.24414
1003.528, 58.02393
1004.010, 65.08350
1004.493, 54.90283
1004.975, 35.50391
1005.457, 21.08691
1005.939, 11.37109
1006.421, 4.166504
1006.903, 2.745605
1007.385, 1.104980
1007.867, 6.004883
1008.349, 15.75830
1008.832, 16.19678
1009.314, 7.354004
1009.796, 9.773438
1010.278, 42.91992
1010.760, 68.24219
1011.242, 44.78809
1011.724, 0.9252930
1012.206, 20.28125
1012.689, 11.20215
1013.171, 33.17383
1013.653, 42.26465
1014.135, 43.95801
1014.617, 41.66992
1015.099, 36.02979
1015.581, 30.67822
1016.063, 25.71240
1016.545, 19.64697
1017.028, 6.747070
1017.510, 3.147949
1017.992, 8.7890001E-03
1018.474, 13.03760
1018.956, 15.64307
1019.438, 5.211426
1019.920, 5.883301
1020.402, 17.17480
1020.885, 21.17969
1021.367, 6.994629
1021.849, 48.06494
1022.331, 62.75977
1022.813, 22.39990
1023.295, 6.593750
1023.777, 4.315918
1024.259, 20.04688
1024.741, 10.21875
1025.224, 25.32666
1025.706, 32.90479
1026.188, 12.42773
1026.670, 8.083008
1027.152, 3.876953
1027.634, 4.882813
1028.116, 0.8955080
1028.598, 18.07178
1029.080, 25.19873
1029.563, 15.78760
1030.045, 8.888184
1030.527, 8.142578
1031.009, 12.80762
1031.491, 28.84424
1031.973, 48.30566
1032.455, 48.40625
1032.937, 14.57861
1033.420, 7.254883
1033.902, 16.53320
1034.384, 48.31934
1034.866, 59.18262
1035.348, 47.78320
1035.830, 52.88867
1036.312, 75.41406
1036.794, 88.15479
1037.276, 60.30615
1037.759, 24.86279
1038.241, 22.45215
1038.723, 41.63281
1039.205, 44.81689
1039.687, 5.239258
1040.169, 14.21289
1040.651, 0.2065430
1041.133, 27.91943
1041.615, 45.69727
1042.098, 53.52246
1042.580, 47.14648
1043.062, 23.46875
1043.544, 10.38477
1044.026, 41.15723
1044.508, 71.98340
1044.990, 72.94434
1045.472, 45.75293
1045.955, 23.88672
1046.437, 7.142090
1046.919, 2.171387
1047.401, 17.14600
1047.883, 39.88086
1048.365, 65.07959
1048.847, 85.58301
1049.329, 87.06885
1049.812, 41.08545
1050.294, 12.22217
1050.776, 6.870605
1051.258, 13.97461
1051.740, 28.20117
1052.222, 45.21582
1052.704, 46.27393
1053.186, 30.51221
1053.668, 20.06592
1054.151, 29.67773
1054.633, 46.34668
1055.115, 70.56641
1055.597, 97.04346
1056.079, 107.2480
1056.561, 100.5845
1057.043, 81.30225
1057.525, 44.46777
1058.007, 11.70166
1058.490, 12.78369
1058.972, 31.78174
1059.454, 47.27783
1059.936, 52.52295
1060.418, 61.58545
1060.900, 80.07666
1061.382, 92.36621
1061.864, 80.40527
1062.347, 54.36865
1062.829, 53.85205
1063.311, 73.71338
1063.793, 87.28662
1064.275, 68.39697
1064.757, 55.03516
1065.239, 75.78613
1065.721, 104.5181
1066.203, 89.61572
1066.686, 28.69141
1067.168, 8.318359
1067.650, 46.94531
1068.132, 87.30859
1068.614, 61.95996
1069.096, 21.70117
1069.578, 20.78613
1070.060, 68.44775
1070.542, 94.30371
1071.025, 86.46436
1071.507, 76.76807
1071.989, 78.87256
1072.471, 85.83887
1072.953, 82.86475
1073.435, 73.31104
1073.917, 65.21729
1074.399, 60.42725
1074.882, 58.93994
1075.364, 63.39941
1075.846, 69.01367
1076.328, 74.77100
1076.810, 79.68896
1077.292, 62.38867
1077.774, 23.26611
1078.256, 5.767578
1078.739, 2.631348
1079.221, 26.50635
1079.703, 57.26074
1080.185, 87.61963
1080.667, 94.84375
1081.149, 68.95654
1081.631, 58.12500
1082.113, 73.02490
1082.595, 94.45068
1083.078, 98.90381
1083.560, 92.67334
1084.042, 79.97949
1084.524, 58.18115
1085.006, 53.83203
1085.488, 83.54883
1085.970, 110.3877
1086.452, 118.3608
1086.934, 111.3159
1087.417, 100.0776
1087.899, 85.31201
1088.381, 68.87646
1088.863, 44.02979
1089.345, 29.64404
1089.827, 45.05859
1090.309, 67.38574
1090.791, 73.04932
1091.274, 59.68848
1091.756, 51.11230
1092.238, 47.05908
1092.720, 47.68164
1093.202, 54.82666
1093.684, 65.27783
1094.166, 82.97803
1094.648, 102.1157
1095.130, 98.27295
1095.613, 56.29883
1096.095, 36.40820
1096.577, 53.58838
1097.059, 82.40576
1097.541, 89.43604
1098.023, 83.11084
1098.505, 78.17236
1098.987, 75.18799
1099.470, 80.46436
1099.952, 103.2007
1100.434, 123.7700
1100.916, 133.5757
1101.398, 136.2285
1101.880, 146.5566
1102.362, 160.6694
1102.844, 162.3687
1103.327, 138.2729
1103.809, 114.5210
1104.291, 101.3013
1104.773, 96.17334
1105.255, 98.89453
1105.737, 111.3813
1106.219, 111.5527
1106.701, 99.35742
1107.183, 80.99902
1107.666, 48.00879
1108.148, 21.83984
1108.630, 30.94482
1109.112, 60.68164
1109.594, 65.81445
1110.076, 31.45215
1110.558, 15.39209
1111.040, 27.15186
1111.522, 47.90527
1112.005, 54.20361
1112.487, 56.79639
1112.969, 77.97119
1113.451, 119.0664
1113.933, 136.3638
1114.415, 100.5034
1114.897, 74.70850
1115.379, 82.22900
1115.862, 104.8062
1116.344, 93.56396
1116.826, 63.78760
1117.308, 60.88184
1117.790, 108.7773
1118.272, 145.6904
1118.754, 134.9971
1119.236, 114.2178
1119.719, 104.8921
1120.201, 106.2388
1120.683, 113.2944
1121.165, 124.5337
1121.647, 125.2334
1122.129, 90.92285
1122.611, 62.79541
1123.093, 70.39551
1123.575, 98.93994
1124.057, 127.2354
1124.540, 158.5103
1125.022, 168.9648
1125.504, 156.1289
1125.986, 137.6538
1126.468, 127.0796
1126.950, 119.1401
1127.432, 109.2153
1127.914, 97.32520
1128.397, 83.76660
1128.879, 63.46533
1129.361, 55.39258
1129.843, 63.58057
1130.325, 83.04443
1130.807, 116.7173
1131.289, 152.9922
1131.771, 175.0762
1132.254, 180.8052
1132.736, 166.8906
1133.218, 108.9565
1133.700, 72.84375
1134.182, 92.26562
1134.664, 137.5850
1135.146, 126.1133
1135.628, 78.49219
1136.110, 56.70459
1136.593, 90.91113
1137.075, 120.2671
1137.557, 115.6157
1138.039, 105.4219
1138.521, 109.2012
1139.003, 123.7827
1139.485, 114.5801
1139.967, 85.73682
1140.449, 67.13477
1140.932, 86.72412
1141.414, 107.0601
1141.896, 108.0620
1142.378, 100.4062
1142.860, 97.23584
1143.342, 101.7402
1143.824, 93.28320
1144.306, 70.35938
1144.789, 58.26025
1145.271, 96.67578
1145.753, 135.7012
1146.235, 128.8765
1146.717, 88.87256
1147.199, 69.41455
1147.681, 73.96582
1148.163, 87.90674
1148.646, 111.8281
1149.128, 131.6240
1149.610, 131.0190
1150.092, 119.3667
1150.574, 102.0967
1151.056, 80.57080
1151.538, 79.74561
1152.020, 112.4404
1152.502, 130.6421
1152.984, 115.0137
1153.467, 88.08252
1153.949, 87.79395
1154.431, 99.90430
1154.913, 97.95264
1155.395, 69.56006
1155.877, 58.06787
1156.359, 79.00342
1156.841, 94.86621
1157.324, 82.65918
1157.806, 55.76611
1158.288, 48.06152
1158.770, 55.09326
1159.252, 64.24170
1159.734, 71.74707
1160.216, 82.24463
1160.698, 100.4434
1161.181, 116.8271
1161.663, 125.4521
1162.145, 125.9775
1162.627, 109.6553
1163.109, 81.14795
1163.591, 66.03760
1164.073, 98.80615
1164.555, 120.5493
1165.037, 99.73779
1165.520, 68.03711
1166.002, 65.87842
1166.484, 89.69580
1166.966, 105.4165
1167.448, 110.6602
1167.930, 105.4292
1168.412, 71.94873
1168.894, 46.51367
1169.376, 60.52588
1169.859, 92.16943
1170.341, 90.30420
1170.823, 55.74658
1171.305, 44.83496
1171.787, 69.85645
1172.269, 89.79053
1172.751, 64.13428
1173.233, 26.76611
1173.716, 2.336426
1174.198, 21.11426
1174.680, 13.38281
1175.162, 22.53076
1175.644, 46.54443
1176.126, 45.12402
1176.608, 36.05518
1177.090, 36.43896
1177.573, 40.13330
1178.055, 41.68799
1178.537, 40.82812
1179.019, 32.40576
1179.501, 14.65625
1179.983, 5.512695
1180.465, 17.70410
1180.947, 33.88525
1181.429, 31.60498
1181.911, 22.15674
1182.394, 23.52148
1182.876, 44.25586
1183.358, 47.44678
1183.840, 29.09619
1184.322, 14.97314
1184.804, 28.26611
1185.286, 49.59277
1185.768, 47.63916
1186.251, 35.89258
1186.733, 45.04736
1187.215, 105.9702
1187.697, 123.8818
1188.179, 87.67773
1188.661, 42.03125
1189.143, 18.63184
1189.625, 13.52100
1190.108, 33.46484
1190.590, 68.26562
1191.072, 80.93750
1191.554, 43.74658
1192.036, 31.22852
1192.518, 58.83398
1193.000, 89.18311
1193.482, 73.80371
1193.964, 38.24512
1194.447, 19.17871
1194.929, 18.37061
1195.411, 26.79883
1195.893, 53.94287
1196.375, 66.59131
1196.857, 55.62695
1197.339, 34.19727
1197.821, 21.91748
1198.303, 12.05664
1198.786, 14.88574
1199.268, 61.94434
1199.750, 74.40771
1200.232, 22.23340
1200.714, 26.77441
1201.196, 55.29199
1201.678, 68.19238
1202.160, 71.10596
1202.643, 65.99951
1203.125, 50.01855
1203.607, 14.90186
1204.089, 13.11572
1204.571, 79.63672
1205.053, 126.4009
1205.535, 109.2388
1206.017, 61.56006
1206.500, 54.01074
1206.982, 72.57373
1207.464, 88.29980
1207.946, 98.27539
1208.428, 88.51953
1208.910, 42.56982
1209.392, 6.822266
1209.874, 10.11084
1210.356, 38.31885
1210.839, 62.80811
1211.321, 81.03174
1211.803, 86.00488
1212.285, 67.28613
1212.767, 50.62012
1213.249, 38.66406
1213.731, 30.04980
1214.213, 26.19580
1214.695, 24.22461
1215.178, 11.21631
1215.660, 7.045898
1216.142, 13.17578
1216.624, 16.03125
1217.106, 31.14648
1217.588, 19.52588
1218.070, 8.125977
1218.552, 26.77441
1219.035, 61.98828
1219.517, 80.84912
1219.999, 84.75293
1220.481, 82.73193
1220.963, 77.03613
1221.445, 66.10010
1221.927, 47.84766
1222.409, 28.34180
1222.891, 9.657715
1223.374, 4.049805
1223.856, 8.2030997E-02
1224.338, 19.45166
1224.820, 38.51660
1225.302, 55.96484
1225.784, 64.64209
1226.266, 60.23145
1226.748, 53.83203
1227.230, 64.03906
1227.713, 81.04443
1228.195, 82.84229
1228.677, 69.24023
1229.159, 59.97656
1229.641, 64.80322
1230.123, 67.47119
1230.605, 65.09863
1231.087, 59.74854
1231.570, 53.71973
1232.052, 44.78320
1232.534, 25.74365
1233.016, 3.446777
1233.498, 14.01416
1233.980, 5.807617
1234.462, 29.97412
1234.944, 54.31885
1235.427, 74.43018
1235.909, 85.55127
1236.391, 86.76270
1236.873, 71.42334
1237.355, 36.86670
1237.837, 21.05811
1238.319, 30.87451
1238.801, 49.44727
1239.283, 75.95361
1239.766, 98.91797
1240.248, 96.48291
1240.730, 80.16113
1241.212, 63.60693
1241.694, 47.50830
1242.176, 48.81641
1242.658, 75.50928
1243.140, 91.54346
1243.622, 77.89307
1244.105, 58.76562
1244.587, 75.22705
1245.069, 103.4287
1245.551, 107.5737
1246.033, 73.37549
1246.515, 56.60303
1246.997, 77.01904
1247.479, 91.99072
1247.962, 82.33447
1248.444, 62.26758
1248.926, 44.36426
1249.408, 29.22559
1249.890, 16.61621
1250.372, 5.194824
1250.854, 8.792969
1251.336, 29.48926
1251.818, 42.14062
1252.301, 27.07861
1252.783, 9.835938
1253.265, 13.77490
1253.747, 31.85742
1254.229, 59.45264
1254.711, 99.24658
1255.193, 106.9229
1255.675, 80.73291
1256.157, 56.63379
1256.640, 56.79590
1257.122, 62.14209
1257.604, 61.16357
1258.086, 55.07568
1258.568, 45.35596
1259.050, 32.91602
1259.532, 15.28711
1260.014, 6.664551
1260.497, 18.07666
1260.979, 0.7329100
1261.461, 17.66553
1261.943, 18.40430
1262.425, 14.61475
1262.907, 20.41846
1263.389, 33.83838
1263.871, 47.79883
1264.354, 59.40088
1264.836, 59.67383
1265.318, 30.05078
1265.800, 5.339355
1266.282, 0.8920900
1266.764, 4.894531
1267.246, 7.862793
1267.728, 10.19531
1268.210, 15.46680
1268.693, 22.88232
1269.175, 25.19287
1269.657, 54.48340
1270.139, 71.34619
1270.621, 76.29639
1271.103, 33.59473
1271.585, 52.44531
1272.067, 46.63916
1272.549, 39.82959
1273.032, 67.36816
1273.514, 31.63623
1273.996, 58.66162
1274.478, 60.67383
1274.960, 74.15674
1275.442, 62.83545
1275.924, 59.19873
1276.406, 80.40674
1276.889, 83.16016
1277.371, 68.54736
1277.853, 82.69141
1278.335, 46.12793
1278.817, 54.13721
1279.299, 81.37402
1279.781, 68.40234
1280.263, 83.12402
1280.745, 87.34912
1281.228, 43.81152
1281.710, 83.39404
1282.192, 87.04443
1282.674, 53.80225
1283.156, 90.56006
1283.638, 62.41553
1284.120, 57.44141
1284.602, 56.89160
1285.084, 70.18018
1285.567, 86.67334
1286.049, 101.9834
1286.531, 109.0557
1287.013, 108.4375
1287.495, 84.30127
1287.977, 35.12842
1288.459, 3.435547
1288.941, 0.7270510
1289.424, 16.04688
1289.906, 29.05127
1290.388, 39.26514
1290.870, 32.66699
1291.352, 21.81201
1291.834, 13.60791
1292.316, 4.948242
1292.798, 0.0000000E+00
##END=



