##NAMES=Thaumasite
##RRUFFID=R060296
##IDEAL CHEMISTRY=Ca_3_Si(OH)_6_(SO_4_)(CO_3_)&#183;12H_2_O
##LOCALITY=N'Chwaning II mine, Kalahari manganese field, Cape Province, South Africa
##OWNER=RRUFF
##SOURCE=Herb Obodda
##DESCRIPTION=Pale blue hexagonal prism
##STATUS=The identification of this mineral has been confirmed by X-ray diffraction.
##URL=rruff.info/R060296
117.5675, 0.0000000E+00
118.0496, 4.789429
118.5317, 9.244324
119.0139, 12.80725
119.4960, 13.21716
119.9781, 14.13574
120.4602, 16.26892
120.9423, 18.66876
121.4244, 20.94080
121.9066, 22.08078
122.3887, 21.27588
122.8708, 20.54562
123.3529, 19.55945
123.8350, 18.15631
124.3171, 16.45605
124.7993, 14.54947
125.2814, 13.68747
125.7635, 13.78241
126.2456, 14.14432
126.7277, 14.21487
127.2098, 12.47699
127.6920, 10.30289
128.1741, 10.07886
128.6562, 12.86789
129.1383, 16.22046
129.6204, 16.03314
130.1025, 12.74365
130.5847, 9.314362
131.0668, 6.656525
131.5489, 4.605286
132.0310, 2.722656
132.5131, 0.5116270
132.9952, 1.027283
133.4774, 1.050446
133.9595, 0.4577330
134.4416, 2.418365
134.9237, 3.599304
135.4058, 3.717438
135.8879, 5.119781
136.3701, 9.094696
136.8522, 14.66586
137.3343, 21.14822
137.8164, 28.41336
138.2985, 36.19595
138.7806, 44.48340
139.2628, 54.17514
139.7449, 63.53653
140.2270, 73.15698
140.7091, 83.47153
141.1912, 93.50327
141.6733, 104.6335
142.1555, 115.6602
142.6376, 124.1443
143.1197, 128.7446
143.6018, 132.8820
144.0839, 136.4526
144.5660, 139.8408
145.0482, 143.1362
145.5303, 145.9005
146.0124, 148.2483
146.4945, 151.3617
146.9766, 155.6616
147.4587, 160.1348
147.9409, 164.6723
148.4230, 169.0870
148.9051, 173.0318
149.3872, 176.6064
149.8693, 179.3011
150.3514, 179.8612
150.8336, 178.5563
151.3157, 174.9232
151.7978, 168.1775
152.2799, 158.0433
152.7620, 146.3001
153.2441, 133.6231
153.7263, 120.2558
154.2084, 106.1630
154.6905, 90.22034
155.1726, 73.81512
155.6547, 59.90068
156.1368, 48.92352
156.6190, 40.06383
157.1011, 32.82578
157.5832, 26.97905
158.0653, 22.07175
158.5474, 18.19786
159.0295, 15.24864
159.5117, 11.73914
159.9938, 6.173569
160.4759, 1.548813
160.9580, 0.4570010
161.4401, 0.5045170
161.9222, 0.4053040
162.4044, 1.980423
162.8865, 5.766953
163.3686, 8.101578
163.8507, 7.572266
164.3328, 6.936371
164.8149, 7.696396
165.2971, 9.738205
165.7792, 11.74771
166.2613, 12.18289
166.7434, 10.46031
167.2255, 8.627960
167.7076, 6.477921
168.1898, 4.373550
168.6719, 2.939651
169.1540, 2.184479
169.6361, 1.078018
170.1182, 2.067917
170.6003, 8.756866
171.0825, 13.59052
171.5646, 14.88803
172.0467, 14.77321
172.5288, 15.65846
173.0109, 18.27069
173.4930, 21.73094
173.9752, 24.63461
174.4573, 26.88925
174.9394, 29.37250
175.4215, 33.98509
175.9036, 39.00421
176.3857, 43.54787
176.8679, 47.12167
177.3500, 50.57024
177.8321, 54.96198
178.3142, 60.31421
178.7963, 66.07143
179.2784, 72.01007
179.7606, 78.14046
180.2427, 84.22861
180.7248, 89.92168
181.2069, 95.86490
181.6890, 102.7038
182.1711, 110.5401
182.6533, 118.4747
183.1354, 125.9535
183.6175, 133.0854
184.0996, 138.9570
184.5817, 142.4492
185.0638, 145.1079
185.5460, 147.6703
186.0281, 150.3175
186.5102, 152.9071
186.9923, 155.3579
187.4744, 157.9708
187.9565, 159.4712
188.4387, 158.7463
188.9208, 157.5682
189.4029, 157.2988
189.8850, 158.3222
190.3671, 159.9361
190.8492, 160.7095
191.3314, 159.5428
191.8135, 159.5789
192.2956, 162.0294
192.7777, 165.0551
193.2598, 166.7626
193.7419, 166.4705
194.2241, 165.2909
194.7062, 165.8389
195.1883, 170.1062
195.6704, 173.9422
196.1525, 176.6827
196.6346, 179.1261
197.1168, 182.1656
197.5989, 186.1785
198.0810, 190.9851
198.5631, 196.1973
199.0452, 202.2295
199.5273, 208.0961
200.0095, 213.4498
200.4916, 218.5620
200.9737, 223.8084
201.4558, 229.3096
201.9379, 235.2166
202.4200, 242.1038
202.9022, 249.7198
203.3843, 258.3027
203.8664, 267.7837
204.3485, 278.2933
204.8306, 290.1283
205.3127, 303.4323
205.7949, 318.2625
206.2770, 334.3344
206.7591, 351.9532
207.2412, 370.1141
207.7233, 387.7545
208.2054, 405.2298
208.6876, 424.4535
209.1697, 447.0830
209.6518, 471.3329
210.1339, 494.5149
210.6160, 516.5416
211.0981, 537.1695
211.5803, 556.6105
212.0624, 574.8425
212.5445, 590.3515
213.0266, 602.3462
213.5087, 610.9130
213.9908, 616.3416
214.4730, 618.6953
214.9551, 617.5408
215.4372, 611.7626
215.9193, 600.8196
216.4014, 588.5412
216.8836, 576.1271
217.3657, 562.5563
217.8478, 546.8683
218.3299, 528.8694
218.8120, 508.8820
219.2941, 487.0326
219.7763, 462.4880
220.2584, 438.8222
220.7405, 416.4612
221.2226, 395.0078
221.7047, 374.3378
222.1868, 354.3744
222.6690, 335.1433
223.1511, 316.5448
223.6332, 297.6973
224.1153, 281.6856
224.5974, 270.0074
225.0795, 260.2208
225.5617, 250.7094
226.0438, 240.9895
226.5259, 231.5326
227.0080, 223.1236
227.4901, 215.7830
227.9722, 209.8925
228.4544, 205.5572
228.9365, 202.2737
229.4186, 199.9932
229.9007, 198.5988
230.3828, 197.5845
230.8649, 196.0486
231.3471, 193.1740
231.8292, 191.1106
232.3113, 189.9966
232.7934, 189.5278
233.2755, 189.5937
233.7576, 190.1134
234.2398, 190.8364
234.7219, 191.3888
235.2040, 191.9491
235.6861, 191.9188
236.1682, 190.6113
236.6503, 189.1021
237.1325, 188.5074
237.6146, 189.0725
238.0967, 190.0391
238.5788, 190.2928
239.0609, 189.5533
239.5430, 188.6350
240.0252, 187.4050
240.5073, 186.0885
240.9894, 184.8169
241.4715, 183.6144
241.9536, 182.7021
242.4357, 182.4999
242.9179, 183.2667
243.4000, 183.6098
243.8821, 183.6315
244.3642, 183.0611
244.8463, 181.6313
245.3284, 179.2819
245.8106, 176.0460
246.2927, 171.6901
246.7748, 166.1729
247.2569, 160.7074
247.7390, 155.0663
248.2211, 149.7189
248.7033, 145.5468
249.1854, 142.8279
249.6675, 140.0901
250.1496, 135.6633
250.6317, 129.7391
251.1138, 123.7414
251.5960, 117.4395
252.0781, 111.4250
252.5602, 106.7870
253.0423, 103.9284
253.5244, 100.9134
254.0065, 95.26826
254.4887, 88.07346
254.9708, 82.30473
255.4529, 79.67708
255.9350, 78.41121
256.4171, 75.92911
256.8992, 71.88454
257.3813, 67.92333
257.8635, 65.81552
258.3456, 64.56609
258.8277, 62.40271
259.3098, 58.14926
259.7919, 53.18958
260.2740, 49.42854
260.7562, 46.94270
261.2383, 45.20940
261.7204, 44.64577
262.2025, 44.53345
262.6846, 43.89839
263.1667, 42.15154
263.6489, 40.14862
264.1310, 39.35896
264.6131, 40.20651
265.0952, 40.48868
265.5773, 38.28561
266.0594, 35.37144
266.5416, 33.47774
267.0237, 33.26987
267.5058, 33.68213
267.9879, 33.09280
268.4700, 31.15856
268.9521, 29.82506
269.4343, 30.45126
269.9164, 31.59618
270.3985, 32.17641
270.8806, 31.90950
271.3627, 31.33951
271.8448, 31.22822
272.3270, 31.73441
272.8091, 31.84560
273.2912, 30.91899
273.7733, 29.75915
274.2554, 28.87544
274.7375, 28.34183
275.2197, 27.85179
275.7018, 26.91092
276.1839, 25.37693
276.6660, 24.37429
277.1481, 24.69330
277.6302, 25.10254
278.1124, 24.99217
278.5945, 24.31464
279.0766, 23.40130
279.5587, 22.54224
280.0408, 21.72133
280.5229, 20.96133
281.0051, 20.07436
281.4872, 19.46136
281.9693, 19.55413
282.4514, 20.17239
282.9335, 20.69651
283.4156, 20.55692
283.8978, 19.69808
284.3799, 18.78989
284.8620, 17.73755
285.3441, 16.83563
285.8262, 16.21986
286.3083, 15.83540
286.7905, 15.49779
287.2726, 15.00498
287.7547, 14.45563
288.2368, 14.62083
288.7189, 17.14372
289.2010, 18.36127
289.6832, 16.21179
290.1653, 12.40181
290.6474, 9.528412
291.1295, 9.171852
291.6116, 10.69189
292.0938, 11.62977
292.5759, 11.66768
293.0580, 11.52583
293.5401, 11.35081
294.0222, 11.12016
294.5043, 10.77403
294.9865, 10.28246
295.4686, 9.710007
295.9507, 9.227364
296.4328, 8.966125
296.9149, 8.561348
297.3970, 7.694725
297.8792, 6.837715
298.3613, 6.504326
298.8434, 6.818077
299.3255, 7.352325
299.8076, 7.382156
300.2897, 6.666061
300.7719, 5.969063
301.2540, 5.230392
301.7361, 4.590477
302.2182, 4.135910
302.7003, 3.883545
303.1824, 3.773079
303.6646, 3.771255
304.1467, 3.940460
304.6288, 3.996101
305.1109, 4.190308
305.5930, 4.062805
306.0751, 3.077667
306.5573, 1.470200
307.0394, 6.0768001E-02
307.5215, 0.3206250
308.0036, 0.4215850
308.4857, 0.7356640
308.9678, 0.3411330
309.4500, 0.2297440
309.9321, 0.8782810
310.4142, 1.594025
310.8963, 2.446068
311.3784, 3.550201
311.8605, 4.806252
312.3427, 5.396240
312.8248, 4.777077
313.3069, 4.069809
313.7890, 3.362648
314.2711, 2.721550
314.7532, 2.165558
315.2354, 1.664673
315.7175, 1.364960
316.1996, 1.507858
316.6817, 2.739357
317.1638, 3.323792
317.6459, 2.817276
318.1281, 1.795914
318.6102, 0.6298520
319.0923, 0.5276340
319.5744, 1.543411
320.0565, 2.113838
320.5386, 2.113205
321.0208, 1.758842
321.5029, 0.5350490
321.9850, 0.5394060
322.4671, 0.6705930
322.9492, 0.1303940
323.4313, 1.132584
323.9135, 1.509689
324.3956, 1.119141
324.8777, 0.9870610
325.3598, 1.016457
325.8419, 1.308922
326.3240, 2.286072
326.8062, 3.621765
327.2883, 4.495918
327.7704, 4.157326
328.2525, 2.689110
328.7346, 1.614136
329.2167, 0.9274370
329.6989, 0.5247800
330.1810, 0.5911330
330.6631, 0.8823850
331.1452, 1.064331
331.6273, 0.9575270
332.1094, 0.6259310
332.5916, 0.2579650
333.0737, 0.1751790
333.5558, 0.5958630
334.0379, 1.203293
334.5200, 1.691376
335.0021, 1.653435
335.4843, 0.9772420
335.9664, 0.1024780
336.4485, 0.2150120
336.9306, 0.2667620
337.4127, 0.5849300
337.8948, 0.3942410
338.3770, 0.2143020
338.8591, 0.3608930
339.3412, 0.8542100
339.8233, 1.501022
340.3055, 2.260025
340.7876, 3.199150
341.2697, 3.517540
341.7518, 2.375015
342.2339, 1.412979
342.7160, 1.565849
343.1982, 2.428421
343.6803, 2.952370
344.1624, 2.307915
344.6445, 0.7738040
345.1266, 0.2365340
345.6087, 0.4868700
346.0909, 0.5670090
346.5730, 0.7610930
347.0551, 0.9053190
347.5372, 0.7215960
348.0193, 4.4559999E-03
348.5014, 0.8368380
348.9836, 1.018715
349.4657, 0.3648070
349.9478, 0.3954470
350.4299, 1.132118
350.9120, 1.864380
351.3941, 2.628288
351.8763, 3.426140
352.3584, 4.173889
352.8405, 4.848206
353.3226, 5.458527
353.8047, 5.704353
354.2868, 5.242188
354.7690, 4.707817
355.2511, 4.398689
355.7332, 4.338722
356.2153, 4.561714
356.6974, 5.181671
357.1795, 6.119446
357.6617, 7.181648
358.1438, 8.674866
358.6259, 9.602264
359.1080, 8.793037
359.5901, 7.189270
360.0722, 6.342293
360.5544, 7.085854
361.0365, 8.497871
361.5186, 9.386993
362.0007, 9.731758
362.4828, 9.647842
362.9649, 8.743996
363.4471, 7.674973
363.9292, 7.244499
364.4113, 7.647446
364.8934, 8.160927
365.3755, 8.271751
365.8576, 8.035995
366.3398, 7.636208
366.8219, 6.959572
367.3040, 6.356125
367.7861, 6.305763
368.2682, 6.736710
368.7503, 6.960861
369.2325, 6.524696
369.7146, 5.720917
370.1967, 5.266357
370.6788, 5.406403
371.1609, 5.252823
371.6430, 3.626335
372.1252, 1.101585
372.6073, 0.3444140
373.0894, 0.2292400
373.5715, 1.408371
374.0536, 2.328445
374.5357, 2.905838
375.0179, 2.930077
375.5000, 2.198341
375.9821, 1.035324
376.4642, 0.1126860
376.9463, 0.7049870
377.4284, 1.123276
377.9106, 0.7922130
378.3927, 3.9291002E-02
378.8748, 0.6466900
379.3569, 1.155022
379.8390, 1.382111
380.3211, 1.173309
380.8033, 0.4754410
381.2854, 0.1884610
381.7675, 1.009850
382.2496, 1.629135
382.7317, 1.719902
383.2138, 1.289680
383.6960, 0.5210340
384.1781, 0.6058200
384.6602, 1.999138
385.1423, 2.362503
385.6244, 0.4094090
386.1065, 0.9572370
386.5887, 0.3006210
387.0708, 1.501335
387.5529, 2.948372
388.0350, 3.384644
388.5171, 3.172859
388.9992, 3.113190
389.4814, 3.496361
389.9635, 3.566284
390.4456, 2.644531
390.9277, 1.832344
391.4098, 2.197380
391.8919, 3.765144
392.3741, 5.693199
392.8562, 7.184769
393.3383, 8.290527
393.8204, 8.921562
394.3025, 8.251671
394.7846, 7.894058
395.2668, 8.532715
395.7489, 9.925095
396.2310, 11.68163
396.7131, 13.65368
397.1952, 15.44907
397.6773, 15.62837
398.1595, 12.58130
398.6416, 10.55105
399.1237, 10.18951
399.6058, 11.00696
400.0879, 12.89812
400.5700, 15.61477
401.0522, 18.19653
401.5343, 19.43010
402.0164, 19.11336
402.4985, 19.14987
402.9806, 19.38307
403.4627, 20.11195
403.9449, 21.69900
404.4270, 23.91467
404.9091, 26.18317
405.3912, 28.18261
405.8733, 29.91936
406.3554, 31.30899
406.8376, 32.01472
407.3197, 33.44974
407.8018, 37.22771
408.2839, 41.49965
408.7660, 44.11686
409.2481, 44.36295
409.7303, 44.17294
410.2124, 45.64031
410.6945, 48.64619
411.1766, 51.34230
411.6587, 53.18797
412.1408, 54.81204
412.6230, 56.83311
413.1051, 59.19700
413.5872, 61.51073
414.0693, 63.81972
414.5514, 65.90569
415.0335, 67.39785
415.5157, 68.26640
415.9978, 68.63331
416.4799, 68.37104
416.9620, 67.66887
417.4441, 67.16062
417.9262, 66.94261
418.4084, 66.82388
418.8905, 66.97953
419.3726, 67.15656
419.8547, 66.51992
420.3368, 64.61739
420.8189, 62.36719
421.3011, 61.48168
421.7832, 62.55084
422.2653, 62.40714
422.7474, 59.74639
423.2295, 56.39107
423.7116, 53.57367
424.1938, 51.52800
424.6759, 50.40972
425.1580, 50.47375
425.6401, 51.63678
426.1222, 52.34894
426.6043, 52.80065
427.0865, 52.66229
427.5686, 51.07759
428.0507, 49.09232
428.5328, 48.32620
429.0149, 49.37282
429.4970, 51.20134
429.9792, 51.92829
430.4613, 50.60501
430.9434, 50.22882
431.4255, 51.11177
431.9076, 52.44504
432.3897, 54.03291
432.8719, 55.69733
433.3540, 57.06304
433.8361, 57.65799
434.3182, 57.72247
434.8003, 59.11983
435.2824, 62.96704
435.7646, 66.55279
436.2467, 68.95431
436.7288, 70.89101
437.2109, 73.10606
437.6930, 75.83529
438.1751, 78.83874
438.6573, 81.81771
439.1394, 84.74226
439.6215, 87.86394
440.1036, 91.37267
440.5857, 94.98930
441.0678, 98.54101
441.5500, 102.0776
442.0321, 105.7048
442.5142, 109.4749
442.9963, 113.3457
443.4784, 117.2643
443.9605, 121.1731
444.4427, 125.2531
444.9248, 129.6577
445.4069, 134.1501
445.8890, 138.2472
446.3711, 141.7597
446.8532, 145.3937
447.3354, 149.7258
447.8175, 154.4279
448.2996, 158.8789
448.7817, 162.9753
449.2638, 166.5529
449.7459, 169.3392
450.2281, 171.2760
450.7102, 172.9702
451.1923, 174.6702
451.6744, 175.9306
452.1565, 176.3538
452.6386, 176.0792
453.1208, 175.5979
453.6029, 175.2018
454.0850, 174.6450
454.5671, 173.2432
455.0492, 170.6981
455.5313, 167.6272
456.0135, 163.5083
456.4956, 159.1949
456.9777, 155.6693
457.4598, 152.8562
457.9419, 149.5157
458.4240, 144.2381
458.9062, 136.9862
459.3883, 131.0536
459.8704, 127.4201
460.3525, 124.0827
460.8346, 120.9539
461.3167, 117.7036
461.7989, 113.8342
462.2810, 109.1448
462.7631, 104.3859
463.2452, 100.6646
463.7273, 98.08054
464.2094, 95.87444
464.6916, 94.22026
465.1737, 92.63232
465.6558, 90.61575
466.1379, 88.39642
466.6200, 86.71377
467.1021, 86.05630
467.5843, 86.09031
468.0664, 86.22414
468.5485, 86.49448
469.0306, 87.17716
469.5127, 88.44048
469.9948, 90.10102
470.4770, 91.81328
470.9591, 93.51560
471.4412, 95.42311
471.9233, 98.17830
472.4054, 101.1591
472.8875, 102.7822
473.3697, 102.6696
473.8518, 102.5502
474.3339, 103.9978
474.8160, 107.0354
475.2981, 110.0526
475.7802, 114.2827
476.2624, 117.1735
476.7445, 116.6611
477.2266, 114.1308
477.7087, 112.1995
478.1908, 111.9068
478.6729, 112.5917
479.1551, 113.0960
479.6372, 113.5448
480.1193, 113.5120
480.6014, 112.7350
481.0835, 111.9145
481.5656, 111.4972
482.0478, 111.2984
482.5299, 110.6303
483.0120, 108.9259
483.4941, 106.5461
483.9762, 105.0291
484.4583, 105.1860
484.9405, 104.5306
485.4226, 102.4001
485.9047, 99.46883
486.3868, 96.13969
486.8689, 92.50338
487.3510, 88.64896
487.8332, 84.24719
488.3153, 79.60113
488.7974, 76.37032
489.2795, 75.36183
489.7616, 73.93230
490.2437, 69.86454
490.7259, 64.45830
491.2080, 59.50124
491.6901, 55.22462
492.1722, 51.67647
492.6543, 49.53407
493.1364, 48.19946
493.6186, 45.80032
494.1007, 41.68439
494.5828, 37.03056
495.0649, 32.95418
495.5470, 29.47086
496.0291, 27.07756
496.5113, 26.58168
496.9934, 26.43291
497.4755, 26.00691
497.9576, 25.19347
498.4397, 23.75480
498.9218, 21.55167
499.4040, 18.99681
499.8861, 17.03915
500.3682, 15.97298
500.8503, 15.02471
501.3324, 14.21035
501.8145, 13.48132
502.2967, 12.84171
502.7788, 12.26028
503.2609, 11.64275
503.7430, 10.88474
504.2251, 10.08010
504.7072, 9.684570
505.1894, 10.04462
505.6715, 10.00739
506.1536, 9.163544
506.6357, 7.893890
507.1178, 6.185036
507.5999, 4.115578
508.0821, 2.566498
508.5642, 2.411812
509.0463, 3.273514
509.5284, 4.215988
510.0105, 5.333855
510.4926, 5.852905
510.9748, 4.971237
511.4569, 3.208954
511.9390, 1.800148
512.4211, 0.7990420
512.9032, 0.1900860
513.3853, 0.2054140
513.8674, 0.5472110
514.3495, 0.7030180
514.8317, 0.5588680
515.3138, 0.3001100
515.7959, 0.1077500
516.2780, 1.3695000E-02
516.7601, 0.1483150
517.2422, 0.4610520
517.7244, 0.6029510
518.2065, 0.1691970
518.6886, 0.4136120
519.1707, 0.4885330
519.6528, 0.1620790
520.1349, 1.158752
520.6171, 1.966316
521.0992, 2.594154
521.5813, 2.993454
522.0634, 2.917404
522.5455, 2.847481
523.0276, 3.161743
523.5098, 3.575523
523.9919, 3.445274
524.4740, 2.311905
524.9561, 1.020432
525.4382, 1.009071
525.9203, 2.308113
526.4025, 3.177345
526.8846, 3.189079
527.3667, 2.666801
527.8488, 1.586357
528.3309, 0.1045380
528.8130, 0.6835400
529.2952, 1.3184000E-02
529.7773, 1.145416
530.2594, 2.049507
530.7415, 2.680779
531.2236, 3.073227
531.7057, 3.231308
532.1879, 3.188713
532.6700, 3.006073
533.1521, 2.665428
533.6342, 2.195473
534.1163, 1.234001
534.5984, 0.4526370
535.0806, 0.5575330
535.5627, 1.250702
536.0448, 1.542152
536.5269, 0.7553940
537.0090, 0.5782240
537.4911, 0.6585240
537.9733, 1.637085
538.4554, 2.688774
538.9375, 1.022118
539.4196, 1.082184
539.9017, 2.260185
540.3839, 2.552910
540.8660, 2.786339
541.3481, 3.745285
541.8302, 4.862968
542.3123, 4.529083
542.7944, 2.502136
543.2766, 1.154633
543.7587, 1.497971
544.2408, 2.980858
544.7229, 4.993500
545.2050, 7.690201
545.6871, 9.595886
546.1693, 9.391937
546.6514, 8.640564
547.1335, 9.221367
547.6156, 11.06716
548.0977, 12.79895
548.5798, 13.53534
549.0620, 13.62032
549.5441, 14.20953
550.0262, 16.02125
550.5083, 17.38219
550.9904, 17.75584
551.4725, 18.07825
551.9547, 19.26598
552.4368, 21.14163
552.9189, 22.72246
553.4010, 23.17042
553.8831, 22.86613
554.3652, 23.46181
554.8474, 25.52384
555.3295, 27.04764
555.8116, 27.21511
556.2937, 26.86354
556.7758, 26.36024
557.2579, 25.80151
557.7401, 25.54628
558.2222, 25.90392
558.7043, 26.66064
559.1864, 27.42106
559.6685, 28.16978
560.1506, 29.28978
560.6328, 31.27929
561.1149, 33.44429
561.5970, 34.16483
562.0791, 33.15926
562.5612, 31.96912
563.0433, 30.27599
563.5255, 28.95510
564.0076, 29.14284
564.4897, 30.50813
564.9718, 31.51368
565.4539, 31.12730
565.9360, 29.83090
566.4182, 29.31735
566.9003, 30.41269
567.3824, 30.71474
567.8645, 28.79191
568.3466, 27.18819
568.8287, 28.05206
569.3109, 30.82351
569.7930, 33.12849
570.2751, 33.49336
570.7572, 32.47330
571.2393, 31.01108
571.7214, 29.04802
572.2036, 27.49626
572.6857, 26.64931
573.1678, 26.35957
573.6499, 26.51070
574.1320, 27.08945
574.6141, 27.75658
575.0963, 28.83887
575.5784, 29.62865
576.0605, 29.25106
576.5426, 28.03209
577.0247, 26.98463
577.5068, 26.52309
577.9890, 26.60885
578.4711, 27.29092
578.9532, 28.99409
579.4353, 30.26161
579.9174, 30.48984
580.3995, 30.99073
580.8817, 33.00867
581.3638, 35.62952
581.8459, 37.02856
582.3280, 36.31989
582.8101, 34.64194
583.2922, 33.67409
583.7744, 33.38301
584.2565, 33.19885
584.7386, 32.85220
585.2207, 33.04256
585.7029, 34.52650
586.1850, 36.92910
586.6671, 39.21083
587.1492, 41.10225
587.6313, 42.72383
588.1135, 44.06094
588.5956, 45.26360
589.0777, 46.65308
589.5598, 48.31541
590.0419, 50.24152
590.5240, 52.52850
591.0062, 55.22538
591.4883, 57.12981
591.9704, 57.51874
592.4525, 58.14838
592.9346, 59.52827
593.4167, 61.23537
593.8989, 62.89990
594.3810, 64.45647
594.8631, 65.92150
595.3452, 67.06773
595.8273, 67.90119
596.3094, 69.60303
596.7916, 72.53764
597.2737, 75.97523
597.7558, 80.58523
598.2379, 84.99568
598.7200, 87.59444
599.2021, 88.09986
599.6843, 87.90572
600.1664, 86.85660
600.6485, 85.95545
601.1306, 87.23081
601.6127, 90.51206
602.0948, 92.99839
602.5770, 92.93905
603.0591, 91.23138
603.5412, 90.35964
604.0233, 91.28998
604.5054, 91.47213
604.9875, 90.20038
605.4697, 88.80996
605.9518, 88.29003
606.4339, 88.37856
606.9160, 88.22613
607.3981, 87.34962
607.8802, 86.03349
608.3624, 84.96199
608.8445, 84.26378
609.3266, 82.68569
609.8087, 79.10416
610.2908, 75.82265
610.7729, 74.97121
611.2551, 75.77792
611.7372, 75.93276
612.2193, 74.53735
612.7014, 72.71384
613.1835, 71.34495
613.6656, 70.12932
614.1478, 68.22398
614.6299, 65.43735
615.1120, 62.69303
615.5941, 60.98864
616.0762, 60.32663
616.5583, 59.29124
617.0405, 57.36285
617.5226, 55.70394
618.0047, 54.99101
618.4868, 54.32761
618.9689, 52.58067
619.4510, 49.75684
619.9332, 47.10735
620.4153, 45.77852
620.8974, 45.44092
621.3795, 44.94853
621.8616, 44.26862
622.3438, 43.62054
622.8259, 43.04346
623.3080, 42.57877
623.7901, 42.33514
624.2722, 42.34438
624.7543, 42.26709
625.2365, 41.87076
625.7186, 41.39426
626.2007, 40.96232
626.6828, 40.66446
627.1649, 40.67588
627.6470, 41.06705
628.1292, 41.69459
628.6113, 42.34647
629.0934, 43.03971
629.5755, 43.67799
630.0576, 44.52618
630.5397, 45.00638
631.0219, 44.72186
631.5040, 44.06915
631.9861, 43.28279
632.4682, 42.35155
632.9503, 42.36192
633.4324, 45.08551
633.9146, 49.53116
634.3967, 52.22749
634.8788, 52.69580
635.3609, 53.37759
635.8430, 55.93094
636.3251, 59.59627
636.8073, 61.89833
637.2894, 61.72266
637.7715, 62.85046
638.2536, 66.74098
638.7357, 71.47109
639.2178, 75.71613
639.7000, 79.45423
640.1821, 83.30524
640.6642, 87.68524
641.1463, 92.30145
641.6284, 96.36662
642.1105, 99.56143
642.5927, 103.5626
643.0748, 109.1452
643.5569, 114.7330
644.0390, 119.1517
644.5211, 123.1675
645.0032, 128.0584
645.4854, 134.0091
645.9675, 140.7102
646.4496, 147.8376
646.9317, 155.8176
647.4138, 165.6185
647.8959, 177.2586
648.3781, 189.6710
648.8602, 201.9794
649.3423, 214.6138
649.8244, 228.8212
650.3065, 244.4929
650.7886, 261.9766
651.2708, 281.0375
651.7529, 302.0955
652.2350, 325.7179
652.7171, 351.6400
653.1992, 379.2628
653.6813, 409.0294
654.1635, 438.5973
654.6456, 465.2426
655.1277, 488.8654
655.6098, 508.5673
656.0919, 524.9010
656.5740, 535.3557
657.0562, 538.1027
657.5383, 532.4287
658.0204, 518.6390
658.5025, 494.0013
658.9846, 464.7560
659.4667, 430.0935
659.9489, 393.4780
660.4310, 358.1623
660.9131, 324.8165
661.3952, 292.6623
661.8773, 260.5094
662.3594, 229.2241
662.8416, 201.2829
663.3237, 176.6128
663.8058, 155.4333
664.2879, 139.3624
664.7700, 125.1627
665.2521, 109.6739
665.7343, 93.85632
666.2164, 81.21297
666.6985, 73.87469
667.1806, 68.39038
667.6627, 63.08699
668.1448, 57.70051
668.6270, 51.29994
669.1091, 43.87359
669.5912, 37.08569
670.0733, 32.50588
670.5554, 29.87876
671.0375, 27.18777
671.5197, 24.23788
672.0018, 21.55835
672.4839, 19.06403
672.9660, 16.97004
673.4481, 15.69576
673.9302, 15.00227
674.4124, 14.06396
674.8945, 12.33155
675.3766, 10.40972
675.8587, 9.124672
676.3408, 8.349808
676.8229, 7.494583
677.3051, 6.421730
677.7872, 5.092880
678.2693, 3.316856
678.7514, 1.194115
679.2335, 0.1450350
679.7156, 0.2297440
680.1978, 0.2363130
680.6799, 0.1581420
681.1620, 0.2333300
681.6441, 0.8926240
682.1262, 1.922165
682.6083, 2.516167
683.0905, 2.082222
683.5726, 1.139389
684.0547, 0.6665270
684.5368, 0.6625980
685.0189, 0.7066730
685.5010, 0.7408140
685.9832, 0.7551800
686.4653, 0.7464680
686.9474, 0.7101140
687.4295, 0.6276090
687.9116, 0.3923110
688.3937, 0.2507170
688.8759, 0.6665190
689.3580, 0.9438860
689.8401, 2.8907999E-02
690.3222, 1.979767
690.8043, 3.360489
691.2864, 3.125465
691.7686, 1.877655
692.2507, 1.006508
692.7328, 0.5667420
693.2149, 0.1168750
693.6970, 0.5698170
694.1791, 1.001282
694.6613, 0.4777980
695.1434, 0.5112990
695.6255, 0.7883680
696.1076, 0.2253650
696.5897, 1.145035
697.0718, 1.124092
697.5540, 0.7927250
698.0361, 1.036850
698.5182, 1.789978
699.0003, 2.286766
699.4824, 2.046066
699.9645, 1.328140
700.4467, 0.6640700
700.9288, 9.4214998E-02
701.4109, 0.1974720
701.8930, 1.312531
702.3751, 2.345097
702.8572, 1.250534
703.3394, 0.7864530
703.8215, 1.633842
704.3036, 0.5840070
704.7857, 0.5221630
705.2678, 0.3531340
705.7499, 0.2425690
706.2321, 5.3801998E-02
706.7142, 1.142235
707.1963, 1.930943
707.6784, 1.843979
708.1605, 1.210670
708.6426, 0.6247750
709.1248, 3.2467000E-02
709.6069, 0.2064210
710.0890, 0.7283860
710.5711, 1.410923
711.0532, 1.262199
711.5353, 0.6544720
712.0175, 4.3873001E-02
712.4996, 0.7795070
712.9817, 1.164871
713.4638, 0.5839650
713.9459, 0.2692870
714.4280, 0.3214260
714.9102, 0.3150600
715.3923, 0.8593900
715.8744, 0.9778860
716.3565, 0.9206050
716.8386, 1.103493
717.3207, 1.634712
717.8029, 1.614220
718.2850, 0.1919940
718.7671, 0.7195660
719.2492, 0.2104380
719.7313, 0.6982310
720.2134, 0.9756700
720.6956, 0.5239560
721.1777, 3.5808999E-02
721.6598, 0.5132900
722.1419, 0.7815210
722.6240, 0.5783270
723.1061, 3.6199999E-04
723.5883, 0.5571940
724.0704, 0.9744380
724.5525, 1.431114
725.0346, 2.160358
725.5167, 3.147530
725.9988, 3.860573
726.4810, 4.413189
726.9631, 4.502598
727.4452, 3.523373
727.9273, 2.551514
728.4094, 2.474079
728.8915, 3.168182
729.3737, 3.907272
729.8558, 4.321056
730.3379, 4.706402
730.8200, 5.643730
731.3021, 6.788258
731.7842, 7.130165
732.2664, 6.500412
732.7485, 5.362961
733.2306, 3.918114
733.7127, 2.414104
734.1948, 1.864120
734.6769, 2.832634
735.1591, 3.744488
735.6412, 5.107437
736.1233, 5.861458
736.6054, 4.877007
737.0875, 3.035137
737.5696, 2.063229
738.0518, 2.614609
738.5339, 3.402946
739.0160, 3.164555
739.4981, 2.539726
739.9802, 2.926792
740.4623, 4.277225
740.9445, 5.343319
741.4266, 5.485783
741.9087, 4.995441
742.3908, 4.389187
742.8729, 3.617622
743.3550, 2.919201
743.8372, 1.961437
744.3193, 1.500374
744.8014, 2.113651
745.2835, 3.106979
745.7656, 3.870365
746.2477, 4.276180
746.7299, 4.132706
747.2120, 2.621651
747.6941, 1.094814
748.1762, 1.446232
748.6583, 3.059696
749.1404, 3.757477
749.6226, 2.938354
750.1047, 2.242088
750.5868, 3.558582
751.0689, 6.569477
751.5510, 7.679688
752.0331, 5.601257
752.5153, 4.139420
752.9974, 4.202259
753.4795, 4.751194
753.9616, 5.468651
754.4437, 6.101624
754.9258, 6.145470
755.4080, 5.141575
755.8901, 4.092178
756.3722, 3.530571
756.8543, 3.419662
757.3364, 3.956512
757.8185, 5.024544
758.3007, 5.984383
758.7828, 6.472763
759.2649, 6.469074
759.7470, 5.758038
760.2291, 4.084377
760.7112, 3.256031
761.1934, 3.725769
761.6755, 4.390411
762.1576, 4.648666
762.6397, 4.823956
763.1218, 5.677017
763.6039, 7.441788
764.0861, 8.444595
764.5682, 7.357620
765.0503, 5.933765
765.5324, 5.751625
766.0145, 6.305630
766.4966, 6.316666
766.9788, 5.481686
767.4609, 4.626511
767.9430, 4.616329
768.4251, 5.248260
768.9072, 5.409515
769.3893, 4.997902
769.8715, 4.840042
770.3536, 5.227993
770.8357, 5.752296
771.3178, 6.087566
771.7999, 6.204239
772.2820, 6.148796
772.7642, 5.782581
773.2463, 5.513767
773.7284, 5.458920
774.2105, 5.508507
774.6926, 5.598045
775.1747, 5.719421
775.6569, 5.837204
776.1390, 5.881035
776.6211, 5.966232
777.1032, 6.466816
777.5853, 7.301346
778.0674, 7.798779
778.5496, 7.835266
779.0317, 8.013180
779.5138, 8.787224
779.9959, 9.658455
780.4780, 9.701294
780.9601, 8.660316
781.4423, 7.917561
781.9244, 7.522541
782.4065, 7.317425
782.8886, 7.405827
783.3707, 7.562778
783.8528, 7.449780
784.3350, 7.097244
784.8171, 6.964890
785.2992, 7.326706
785.7813, 8.048820
786.2634, 9.349930
786.7455, 10.89320
787.2277, 11.29553
787.7098, 10.30397
788.1919, 9.418037
788.6740, 9.865810
789.1561, 11.24797
789.6382, 12.03876
790.1204, 11.68202
790.6025, 12.07842
791.0846, 14.13838
791.5667, 16.04636
792.0488, 17.08689
792.5309, 17.47807
793.0131, 17.31792
793.4952, 16.45972
793.9773, 16.29905
794.4594, 18.51396
794.9415, 20.83899
795.4236, 20.55709
795.9058, 18.77431
796.3879, 18.25166
796.8700, 19.79196
797.3521, 22.14925
797.8342, 24.17102
798.3163, 25.88000
798.7985, 27.24184
799.2806, 28.11659
799.7627, 29.48718
800.2448, 31.84971
800.7269, 34.32516
801.2090, 36.19292
801.6912, 37.51214
802.1733, 38.75593
802.6554, 39.88504
803.1375, 41.05225
803.6196, 41.65103
804.1017, 42.84877
804.5839, 45.73630
805.0660, 49.83163
805.5481, 54.16632
806.0302, 58.44415
806.5123, 62.37405
806.9944, 65.31625
807.4766, 67.74881
807.9587, 71.01082
808.4408, 75.07460
808.9229, 78.97326
809.4050, 82.35124
809.8871, 85.37102
810.3693, 88.39134
810.8514, 91.38670
811.3335, 92.88431
811.8156, 92.13028
812.2977, 91.11572
812.7798, 90.82676
813.2620, 89.77842
813.7441, 87.04736
814.2262, 82.70150
814.7083, 76.96033
815.1904, 69.22137
815.6725, 61.94970
816.1547, 56.48466
816.6368, 52.19655
817.1189, 48.56896
817.6010, 45.42790
818.0831, 42.50255
818.5652, 39.67968
819.0474, 37.31021
819.5295, 36.07695
820.0116, 35.79430
820.4937, 35.06255
820.9758, 33.74504
821.4579, 32.59677
821.9401, 31.98848
822.4222, 31.52577
822.9043, 30.65603
823.3864, 29.33181
823.8685, 28.65363
824.3506, 29.23760
824.8328, 29.77115
825.3149, 29.95578
825.7970, 30.01145
826.2791, 30.23577
826.7612, 30.54118
827.2433, 30.64731
827.7255, 30.43164
828.2076, 30.18703
828.6897, 30.28258
829.1718, 30.41925
829.6539, 30.12538
830.1360, 29.41157
830.6182, 28.28567
831.1003, 26.70729
831.5824, 25.49076
832.0645, 25.93549
832.5466, 27.87834
833.0287, 28.49182
833.5109, 26.98441
833.9930, 25.93982
834.4751, 26.35856
834.9572, 27.05042
835.4393, 27.14418
835.9214, 26.71820
836.4036, 25.95097
836.8857, 24.28038
837.3678, 23.44343
837.8499, 24.82294
838.3320, 26.22978
838.8141, 26.03559
839.2963, 24.74782
839.7784, 23.29983
840.2605, 22.03490
840.7426, 21.21891
841.2247, 21.42065
841.7068, 22.04680
842.1890, 21.86377
842.6711, 21.02226
843.1532, 20.37624
843.6353, 20.13855
844.1174, 19.82970
844.5995, 18.98338
845.0817, 17.78008
845.5638, 17.16601
846.0459, 17.65953
846.5280, 17.23288
847.0101, 14.68301
847.4922, 12.57886
847.9744, 12.69521
848.4565, 13.87698
848.9386, 14.49881
849.4207, 14.45411
849.9028, 13.71713
850.3849, 11.42386
850.8671, 9.353348
851.3492, 8.643124
851.8313, 8.757206
852.3134, 9.261856
852.7955, 9.838509
853.2776, 9.658566
853.7598, 7.861748
854.2419, 5.689846
854.7240, 5.258186
855.2061, 6.108940
855.6882, 6.381325
856.1703, 5.849815
856.6525, 5.235268
857.1346, 4.916603
857.6167, 4.850071
858.0988, 5.019001
858.5809, 5.518982
859.0630, 5.595158
859.5452, 5.013729
860.0273, 4.424377
860.5094, 4.005981
860.9915, 3.675018
861.4736, 3.242676
861.9557, 2.788536
862.4379, 2.803230
862.9200, 4.204956
863.4021, 4.915176
863.8842, 3.412102
864.3663, 1.584133
864.8484, 1.229568
865.3306, 1.934906
865.8127, 2.377792
866.2948, 2.054317
866.7769, 1.360058
867.2590, 0.4636880
867.7411, 0.4362340
868.2233, 0.8637310
868.7054, 0.8774570
869.1875, 0.8173560
869.6696, 0.7800640
870.1517, 0.8102150
870.6339, 1.014660
871.1160, 1.246208
871.5981, 0.7054210
872.0802, 1.017231
872.5623, 1.989151
873.0444, 1.585033
873.5266, 1.143539
874.0087, 1.582340
874.4908, 2.382145
874.9729, 2.611404
875.4550, 2.221985
875.9371, 1.532974
876.4193, 8.5135996E-02
876.9014, 1.056988
877.3835, 1.416939
877.8656, 1.257568
878.3477, 0.5385280
878.8298, 0.4543880
879.3120, 0.7548750
879.7941, 0.4249730
880.2762, 1.642025
880.7583, 1.144821
881.2404, 0.1144220
881.7225, 0.2632030
882.2047, 0.5629080
882.6868, 0.8695180
883.1689, 1.2321000E-02
883.6510, 1.092583
884.1331, 1.247688
884.6152, 0.5927350
885.0974, 0.1465070
885.5795, 9.1263004E-02
886.0616, 4.1976999E-02
886.5437, 0.4836010
887.0258, 0.8510060
887.5079, 0.3673210
887.9901, 0.6483760
888.4722, 0.8788680
888.9543, 0.6668170
889.4364, 1.096539
889.9185, 0.9922450
890.4006, 2.548347
890.8828, 1.719349
891.3649, 7.4661002E-02
891.8470, 0.3794900
892.3291, 0.5224570
892.8112, 1.394539
893.2933, 1.699505
893.7755, 1.790535
894.2576, 1.920776
894.7397, 1.943035
895.2218, 1.545410
895.7039, 0.8473590
896.1860, 0.3122750
896.6682, 0.1595730
897.1503, 0.2184490
897.6324, 0.3792610
898.1145, 0.5654830
898.5966, 0.4773370
899.0787, 0.1493800
899.5609, 2.6634000E-02
900.0430, 0.2663310
900.5251, 0.4814070
901.0072, 0.2805020
901.4893, 0.2437520
901.9714, 0.5915450
902.4536, 0.6004710
902.9357, 1.112713
903.4178, 2.756889
903.8999, 3.891205
904.3820, 3.131081
904.8641, 1.618271
905.3463, 1.568760
905.8284, 3.290058
906.3105, 3.888721
906.7926, 1.359543
907.2747, 3.0060001E-03
907.7568, 2.144924
908.2390, 5.160179
908.7211, 6.930779
909.2032, 7.460506
909.6853, 7.502911
910.1674, 7.168499
910.6495, 7.010441
911.1317, 7.411278
911.6138, 8.169083
912.0959, 9.111313
912.5780, 10.20625
913.0601, 11.58205
913.5422, 13.19022
914.0244, 14.42347
914.5065, 14.68489
914.9886, 14.36229
915.4707, 14.20945
915.9528, 14.21378
916.4349, 14.13797
916.9171, 13.93985
917.3992, 14.58998
917.8813, 16.76385
918.3634, 19.50167
918.8455, 21.16358
919.3276, 21.67457
919.8098, 22.52161
920.2919, 23.96251
920.7740, 25.06580
921.2561, 25.36657
921.7382, 25.58289
922.2203, 26.23889
922.7025, 27.30113
923.1846, 28.62393
923.6667, 30.36517
924.1488, 32.03284
924.6309, 33.88090
925.1130, 35.30764
925.5952, 35.76486
926.0773, 35.77502
926.5594, 35.94653
927.0415, 36.34507
927.5236, 36.71472
928.0057, 36.73459
928.4879, 36.99354
928.9700, 38.06096
929.4521, 39.49839
929.9342, 40.90125
930.4163, 42.10908
930.8984, 43.07792
931.3806, 43.78596
931.8627, 44.15485
932.3448, 43.70333
932.8269, 43.09050
933.3090, 44.09662
933.7911, 46.22951
934.2733, 47.25442
934.7554, 46.72005
935.2375, 45.95004
935.7196, 45.84766
936.2017, 46.05637
936.6838, 45.66980
937.1660, 44.59940
937.6481, 43.80970
938.1302, 43.15770
938.6123, 43.42857
939.0944, 45.19102
939.5765, 47.31047
940.0587, 48.67466
940.5408, 49.41372
941.0229, 50.30634
941.5050, 51.14170
941.9871, 52.39745
942.4692, 54.58292
942.9514, 56.62229
943.4335, 58.03689
943.9156, 59.08563
944.3977, 59.84240
944.8798, 60.33559
945.3619, 61.65867
945.8441, 64.19995
946.3262, 67.33463
946.8083, 71.00291
947.2904, 75.07961
947.7725, 79.75881
948.2546, 84.67455
948.7368, 89.17362
949.2189, 93.05864
949.7010, 97.21430
950.1831, 101.9713
950.6652, 107.5655
951.1473, 114.3491
951.6295, 122.1961
952.1116, 131.2526
952.5937, 141.1865
953.0758, 150.3235
953.5579, 157.6092
954.0400, 165.0361
954.5222, 175.8109
955.0043, 188.7919
955.4864, 200.1341
955.9685, 210.1562
956.4506, 222.9558
956.9327, 239.7470
957.4149, 257.3230
957.8970, 272.7755
958.3791, 287.2462
958.8612, 304.7666
959.3433, 325.4737
959.8254, 346.2391
960.3076, 366.6873
960.7897, 387.7489
961.2718, 409.0664
961.7539, 432.6048
962.2360, 461.0926
962.7181, 494.4037
963.2003, 527.2846
963.6824, 560.0779
964.1645, 591.8495
964.6466, 623.5714
965.1287, 652.8582
965.6108, 680.3580
966.0930, 703.7265
966.5751, 720.2273
967.0572, 730.1323
967.5393, 729.2571
968.0214, 714.9328
968.5035, 692.5878
968.9857, 660.9877
969.4678, 624.3541
969.9499, 583.1858
970.4320, 539.9935
970.9141, 498.2105
971.3962, 458.6531
971.8784, 422.6798
972.3605, 391.1290
972.8426, 363.6190
973.3247, 339.7473
973.8068, 319.8163
974.2889, 303.8499
974.7711, 292.0694
975.2532, 284.7377
975.7353, 281.9995
976.2174, 283.7728
976.6995, 291.8655
977.1816, 303.1854
977.6638, 314.4050
978.1459, 324.9664
978.6280, 333.7773
979.1101, 340.8339
979.5922, 347.0922
980.0743, 352.9712
980.5565, 359.6515
981.0386, 367.1716
981.5207, 377.1650
982.0028, 396.3993
982.4849, 424.5413
982.9670, 455.5691
983.4492, 487.3738
983.9313, 522.9900
984.4134, 564.8757
984.8955, 614.3994
985.3776, 673.7490
985.8597, 742.5317
986.3419, 830.5302
986.8240, 936.0284
987.3061, 1076.975
987.7882, 1258.814
988.2703, 1489.986
988.7524, 1790.670
989.2346, 2153.616
989.7167, 2499.697
990.1988, 2884.457
990.6809, 3086.520
991.1630, 3075.438
991.6451, 2892.903
992.1273, 2491.267
992.6094, 1987.254
993.0915, 1536.397
993.5736, 1138.081
994.0557, 823.5980
994.5378, 622.0164
995.0200, 465.9500
995.5021, 364.2205
995.9842, 290.4305
996.4663, 237.4912
996.9484, 199.9119
997.4305, 170.6196
997.9127, 149.6118
998.3948, 131.3553
998.8769, 115.0965
999.3590, 101.1512
999.8411, 90.22532
1000.323, 80.97932
1000.805, 72.62245
1001.287, 65.09178
1001.770, 58.73165
1002.252, 53.65983
1002.734, 48.97009
1003.216, 44.36415
1003.698, 39.97692
1004.180, 35.70574
1004.662, 31.85403
1005.144, 28.87057
1005.627, 26.60587
1006.109, 24.70101
1006.591, 23.04984
1007.073, 21.30353
1007.555, 18.95454
1008.037, 16.66642
1008.519, 15.18769
1009.001, 14.16913
1009.483, 13.01408
1009.966, 11.73168
1010.448, 10.73060
1010.930, 10.21865
1011.412, 9.867550
1011.894, 9.387085
1012.376, 8.839939
1012.858, 8.355179
1013.340, 7.871807
1013.823, 7.152607
1014.305, 6.223213
1014.787, 5.491486
1015.269, 5.217392
1015.751, 4.908047
1016.233, 3.546856
1016.715, 1.724602
1017.197, 1.311230
1017.679, 2.040760
1018.162, 2.579006
1018.644, 2.617874
1019.126, 2.262451
1019.608, 1.553791
1020.090, 0.7220800
1020.572, 0.1192020
1021.054, 0.2530940
1021.536, 0.5199240
1022.018, 0.6603360
1022.501, 0.2256050
1022.983, 2.451694
1023.465, 3.867031
1023.947, 2.738628
1024.429, 0.4048610
1024.911, 0.1421810
1025.393, 1.150314
1025.875, 1.648617
1026.358, 1.299908
1026.840, 0.4043160
1027.322, 1.204266
1027.804, 2.136517
1028.286, 1.079342
1028.768, 0.9904750
1029.250, 1.514366
1029.732, 0.2243230
1030.214, 0.5222780
1030.697, 0.5670360
1031.179, 0.6408200
1031.661, 1.049217
1032.143, 1.224548
1032.625, 0.4974170
1033.107, 0.6027600
1033.589, 0.4512520
1034.071, 1.436829
1034.553, 2.365211
1035.036, 1.988968
1035.518, 1.405785
1036.000, 0.8378870
1036.482, 0.2212410
1036.964, 0.5541730
1037.446, 1.399250
1037.928, 2.072887
1038.410, 2.687828
1038.893, 2.716354
1039.375, 1.488304
1039.857, 0.7601850
1040.339, 1.684898
1040.821, 2.471912
1041.303, 1.527340
1041.785, 0.5683400
1042.267, 2.191135
1042.750, 3.310406
1043.232, 4.065861
1043.714, 4.908298
1044.196, 4.772545
1044.678, 2.234726
1045.160, 0.2656480
1045.642, 0.7191930
1046.124, 0.1901510
1046.606, 0.7797010
1047.089, 0.9214780
1047.571, 0.8600010
1048.053, 0.3733440
1048.535, 1.7754000E-02
1049.017, 6.9831997E-02
1049.499, 0.1891290
1049.981, 0.2568740
1050.463, 0.1559640
1050.945, 0.4161990
1051.428, 1.597191
1051.910, 2.561840
1052.392, 2.733002
1052.874, 3.228050
1053.356, 4.947922
1053.838, 6.618980
1054.320, 7.132702
1054.802, 6.891342
1055.285, 6.717117
1055.767, 6.709656
1056.249, 7.087513
1056.731, 7.737633
1057.213, 9.010941
1057.695, 11.66298
1058.177, 14.38078
1058.659, 15.65494
1059.141, 16.44193
1059.624, 18.79401
1060.106, 23.05466
1060.588, 27.13594
1061.070, 30.39346
1061.552, 33.33022
1062.034, 35.80379
1062.516, 38.34454
1062.998, 41.14640
1063.480, 44.38581
1063.963, 48.32950
1064.445, 52.99881
1064.927, 58.07273
1065.409, 63.58539
1065.891, 69.27224
1066.373, 73.59267
1066.855, 79.42650
1067.337, 89.32206
1067.820, 102.0657
1068.302, 115.0124
1068.784, 128.1734
1069.266, 145.2630
1069.748, 167.2635
1070.230, 193.9559
1070.712, 227.4590
1071.194, 263.5282
1071.677, 303.8047
1072.159, 342.0996
1072.641, 373.2455
1073.123, 394.8752
1073.605, 399.9026
1074.087, 383.6480
1074.569, 355.7552
1075.051, 314.4176
1075.533, 269.5728
1076.016, 223.9490
1076.498, 181.8903
1076.980, 148.5228
1077.462, 123.5511
1077.944, 103.6489
1078.426, 88.07383
1078.908, 75.97349
1079.390, 67.53956
1079.873, 61.69430
1080.355, 59.02126
1080.837, 57.74657
1081.319, 55.79570
1081.801, 53.48354
1082.283, 52.62886
1082.765, 53.94167
1083.247, 55.43658
1083.729, 56.48751
1084.212, 57.06899
1084.694, 57.41593
1085.176, 56.98931
1085.658, 55.00784
1086.140, 52.10803
1086.622, 49.40419
1087.104, 47.04472
1087.586, 45.35854
1088.068, 44.54456
1088.551, 44.31257
1089.033, 44.97914
1089.515, 45.69440
1089.997, 45.58638
1090.479, 45.12056
1090.961, 45.09066
1091.443, 45.59347
1091.925, 46.37947
1092.408, 47.89978
1092.890, 49.21033
1093.372, 49.83252
1093.854, 50.19388
1094.336, 50.48275
1094.818, 50.79273
1095.300, 51.14320
1095.782, 51.56326
1096.265, 52.21219
1096.747, 53.34124
1097.229, 54.30939
1097.711, 54.78637
1098.193, 55.17560
1098.675, 55.84031
1099.157, 56.44681
1099.639, 56.51910
1100.121, 56.05221
1100.604, 55.26654
1101.086, 53.89291
1101.568, 53.25833
1102.050, 54.51651
1102.532, 55.86400
1103.014, 56.71427
1103.496, 56.90520
1103.978, 56.02819
1104.460, 54.52727
1104.943, 53.46510
1105.425, 53.02233
1105.907, 53.01190
1106.389, 53.49932
1106.871, 54.13150
1107.353, 55.10923
1107.835, 56.00842
1108.317, 56.11747
1108.800, 55.99064
1109.282, 56.98097
1109.764, 59.25555
1110.246, 59.85667
1110.728, 57.23537
1111.210, 54.92280
1111.692, 52.87175
1112.174, 51.73959
1112.656, 52.64043
1113.139, 54.10808
1113.621, 54.24331
1114.103, 53.16925
1114.585, 52.47587
1115.067, 52.45477
1115.549, 52.30759
1116.031, 52.02708
1116.513, 51.62686
1116.995, 50.99587
1117.478, 50.40528
1117.960, 50.02364
1118.442, 49.78917
1118.924, 49.45716
1119.406, 48.90573
1119.888, 48.79161
1120.370, 49.62678
1120.852, 49.77563
1121.335, 48.45361
1121.817, 47.14643
1122.299, 46.82946
1122.781, 47.13707
1123.263, 47.51693
1123.745, 47.98165
1124.227, 47.71115
1124.709, 46.43844
1125.192, 45.41107
1125.674, 44.88963
1126.156, 44.25988
1126.638, 43.13813
1127.120, 42.07091
1127.602, 41.84333
1128.084, 42.13539
1128.566, 41.24711
1129.048, 39.00421
1129.531, 37.03710
1130.013, 35.34743
1130.495, 34.63366
1130.977, 35.32759
1131.459, 35.59451
1131.941, 33.82741
1132.423, 31.01758
1132.905, 29.37029
1133.387, 28.79871
1133.870, 27.76653
1134.352, 26.30492
1134.834, 25.43412
1135.316, 25.34435
1135.798, 25.31204
1136.280, 24.94778
1136.762, 24.40907
1137.244, 23.96531
1137.727, 23.43532
1138.209, 22.08716
1138.691, 20.16066
1139.173, 18.91183
1139.655, 18.25288
1140.137, 16.52285
1140.619, 13.29797
1141.101, 10.92684
1141.583, 11.56734
1142.066, 13.28244
1142.548, 12.93339
1143.030, 11.54561
1143.512, 11.26424
1143.994, 11.74239
1144.476, 11.76723
1144.958, 11.15204
1145.440, 10.26714
1145.922, 9.254787
1146.405, 8.684242
1146.887, 9.839733
1147.369, 11.00110
1147.851, 9.684284
1148.333, 7.418625
1148.815, 6.585445
1149.297, 6.887711
1149.779, 6.822044
1150.262, 6.005981
1150.744, 5.308899
1151.226, 5.324833
1151.708, 5.442348
1152.190, 5.340702
1152.672, 5.116817
1153.154, 4.711636
1153.636, 4.321457
1154.119, 4.308784
1154.601, 4.590675
1155.083, 4.737762
1155.565, 4.588593
1156.047, 4.190716
1156.529, 3.397976
1157.011, 2.697777
1157.493, 2.035862
1157.975, 1.747791
1158.458, 2.629700
1158.940, 3.981369
1159.422, 4.016964
1159.904, 2.444660
1160.386, 1.648739
1160.868, 2.944550
1161.350, 3.414318
1161.832, 2.110535
1162.314, 0.6258320
1162.797, 0.5386200
1163.279, 1.255299
1163.761, 1.222252
1164.243, 0.6583900
1164.725, 0.6429560
1165.207, 1.845348
1165.689, 1.325428
1166.171, 2.133049
1166.654, 3.805790
1167.136, 2.064964
1167.618, 0.2486990
1168.100, 1.473003
1168.582, 1.646248
1169.064, 0.6363600
1169.546, 1.362820
1170.028, 2.641998
1170.510, 3.204166
1170.993, 2.640190
1171.475, 0.8810810
1171.957, 6.9968998E-02
1172.439, 0.5565300
1172.921, 1.586910
1173.403, 2.035583
1173.885, 1.908619
1174.367, 0.6889610
1174.849, 0.9893610
1175.332, 0.4852070
1175.814, 1.578835
1176.296, 2.446918
1176.778, 1.814754
1177.260, 1.219345
1177.742, 1.401066
1178.224, 1.660622
1178.706, 1.144814
1179.189, 0.5380780
1179.671, 0.9163510
1180.153, 1.646675
1180.635, 1.704887
1181.117, 1.348679
1181.599, 1.470043
1182.081, 2.103889
1182.563, 2.179180
1183.046, 0.8270230
1183.528, 7.9487003E-02
1184.010, 2.088657
1184.492, 4.010860
1184.974, 3.392006
1185.456, 2.121883
1185.938, 2.463650
1186.420, 3.797138
1186.902, 4.206890
1187.385, 3.343822
1187.867, 2.484291
1188.349, 1.749615
1188.831, 1.225018
1189.313, 1.023197
1189.795, 0.9137690
1190.277, 0.6379890
1190.759, 0.5376210
1191.241, 1.197144
1191.724, 2.298767
1192.206, 2.536186
1192.688, 1.614731
1193.170, 1.073967
1193.652, 0.9327770
1194.134, 1.153275
1194.616, 1.812366
1195.098, 2.599854
1195.581, 3.429798
1196.063, 4.028744
1196.545, 3.978340
1197.027, 3.367329
1197.509, 2.857651
1197.991, 2.425304
1198.473, 1.483219
1198.955, 0.1046560
1199.438, 6.9220997E-02
1199.920, 1.314392
1200.402, 2.547775
1200.884, 2.473484
1201.366, 1.915302
1201.848, 1.922153
1202.330, 2.232494
1202.812, 2.403116
1203.294, 2.469055
1203.776, 2.479572
1204.259, 2.463057
1204.741, 2.447903
1205.223, 2.453390
1205.705, 2.579599
1206.187, 3.057240
1206.669, 3.209949
1207.151, 2.242970
1207.633, 1.138416
1208.116, 0.4752370
1208.598, 0.2277530
1209.080, 0.5095310
1209.562, 1.072863
1210.044, 1.331137
1210.526, 1.149670
1211.008, 0.9801640
1211.490, 1.302515
1211.973, 1.057816
1212.455, 1.068340
1212.937, 2.385193
1213.419, 1.164881
1213.901, 0.8043520
1214.383, 1.996143
1214.865, 2.396822
1215.347, 1.816849
1215.829, 1.2882000E-02
1216.312, 0.9227120
1216.794, 0.7483670
1217.276, 0.3687500
1217.758, 0.1407450
1218.240, 0.2333740
1218.722, 0.4444870
1219.204, 0.8221950
1219.686, 0.2330700
1220.168, 2.022537
1220.651, 2.635967
1221.133, 2.221712
1221.615, 0.9994580
1222.097, 0.5756420
1222.579, 0.6922590
1223.061, 0.6667520
1223.543, 1.899481
1224.025, 2.220779
1224.508, 2.323809
1224.990, 2.935480
1225.472, 3.528145
1225.954, 3.668484
1226.436, 3.374290
1226.918, 2.260248
1227.400, 0.9486160
1227.882, 0.5692540
1228.365, 1.072906
1228.847, 1.442591
1229.329, 1.276556
1229.811, 1.280905
1230.293, 1.688272
1230.775, 2.189329
1231.257, 3.238714
1231.739, 3.932747
1232.221, 3.404158
1232.703, 2.435909
1233.186, 1.908606
1233.668, 1.836555
1234.150, 2.445925
1234.632, 4.189383
1235.114, 4.631683
1235.596, 3.319294
1236.078, 2.923893
1236.560, 4.208988
1237.043, 5.448252
1237.525, 5.664970
1238.007, 5.180193
1238.489, 4.222944
1238.971, 3.181589
1239.453, 3.265326
1239.935, 4.139994
1240.417, 4.785402
1240.900, 5.151182
1241.382, 5.434906
1241.864, 5.612427
1242.346, 5.155844
1242.828, 3.746983
1243.310, 2.864170
1243.792, 4.354853
1244.274, 5.978056
1244.756, 5.855947
1245.239, 5.087456
1245.721, 4.539480
1246.203, 4.204678
1246.685, 3.932594
1247.167, 3.715927
1247.649, 3.661802
1248.131, 3.940414
1248.613, 3.907835
1249.095, 2.716223
1249.578, 2.032795
1250.060, 3.663744
1250.542, 5.119999
1251.024, 4.786209
1251.506, 3.725573
1251.988, 3.936386
1252.470, 4.730316
1252.952, 3.543619
1253.435, 0.4994600
1253.917, 3.0489000E-02
1254.399, 1.676273
1254.881, 3.571177
1255.363, 4.876076
1255.845, 5.117550
1256.327, 4.113628
1256.809, 3.280300
1257.292, 4.200983
1257.774, 5.425903
1258.256, 4.739073
1258.738, 3.262869
1259.220, 2.235943
1259.702, 1.807455
1260.184, 2.497328
1260.666, 3.789650
1261.148, 4.009258
1261.630, 2.691938
1262.113, 1.728369
1262.595, 2.226955
1263.077, 2.546547
1263.559, 2.108759
1264.041, 1.528734
1264.523, 0.6488550
1265.005, 0.2260740
1265.487, 1.390554
1265.970, 3.174726
1266.452, 3.214270
1266.934, 1.470997
1267.416, 0.5702930
1267.898, 0.5733430
1268.380, 1.169230
1268.862, 2.378754
1269.344, 3.051733
1269.827, 2.775862
1270.309, 2.366232
1270.791, 2.647810
1271.273, 3.113998
1271.755, 3.171299
1272.237, 3.058514
1272.719, 3.334988
1273.201, 3.691168
1273.683, 3.412321
1274.166, 2.788116
1274.648, 2.828321
1275.130, 3.462233
1275.612, 2.968122
1276.094, 0.5395700
1276.576, 0.7910420
1277.058, 1.225378
1277.540, 3.136297
1278.022, 3.273432
1278.505, 2.974413
1278.987, 3.014166
1279.469, 3.177366
1279.951, 3.202835
1280.433, 3.122669
1280.915, 3.092003
1281.397, 2.004423
1281.879, 1.701044
1282.362, 1.167273
1282.844, 0.7439160
1283.326, 0.4683820
1283.808, 0.2673170
1284.290, 0.1402300
1284.772, 4.0545002E-02
1285.254, 1.8960000E-03
1285.736, 0.0000000E+00
##END=



