##NAMES=Thaumasite
##RRUFFID=R060296
##IDEAL CHEMISTRY=Ca_3_Si(OH)_6_(SO_4_)(CO_3_)&#183;12H_2_O
##LOCALITY=N'Chwaning II mine, Kalahari manganese field, Cape Province, South Africa
##OWNER=RRUFF
##SOURCE=Herb Obodda
##DESCRIPTION=Pale blue hexagonal prism
##STATUS=The identification of this mineral has been confirmed by X-ray diffraction.
##URL=rruff.info/R060296
129.5436, 0.0000000E+00
130.0258, 1.388142
130.5079, 4.309797
130.9900, 7.277431
131.4721, 5.022268
131.9542, 3.208202
132.4363, 4.807312
132.9185, 5.609795
133.4006, 4.467907
133.8827, 2.358883
134.3648, 0.3070530
134.8469, 2.029247
135.3290, 2.815735
135.8112, 2.716377
136.2933, 1.857883
136.7754, 0.2433780
137.2575, 2.247322
137.7396, 5.877853
138.2217, 10.49414
138.7039, 15.22425
139.1860, 20.09647
139.6681, 25.02956
140.1502, 30.14368
140.6323, 35.46955
141.1144, 40.58571
141.5966, 45.19456
142.0787, 49.00087
142.5608, 53.56941
143.0429, 59.41774
143.5250, 65.71535
144.0071, 70.51060
144.4893, 73.41965
144.9714, 75.33277
145.4535, 76.30498
145.9356, 74.88156
146.4177, 75.54549
146.8998, 79.12427
147.3820, 84.92827
147.8641, 90.34958
148.3462, 94.83395
148.8283, 99.36240
149.3104, 104.4981
149.7925, 109.7922
150.2747, 116.2598
150.7568, 124.7082
151.2389, 134.8719
151.7210, 143.4530
152.2031, 150.7790
152.6852, 156.2474
153.1674, 159.5685
153.6495, 157.9471
154.1316, 157.0195
154.6137, 158.7132
155.0958, 163.1320
155.5779, 164.5556
156.0601, 159.8825
156.5422, 153.0300
157.0243, 147.3815
157.5064, 144.7100
157.9885, 142.2064
158.4706, 138.8632
158.9528, 134.4442
159.4349, 130.6969
159.9170, 128.4793
160.3991, 127.0497
160.8812, 125.5503
161.3633, 121.9168
161.8455, 119.6164
162.3276, 120.9035
162.8097, 126.7949
163.2918, 132.0315
163.7739, 133.0704
164.2560, 131.9441
164.7382, 130.5055
165.2203, 132.5905
165.7024, 136.3574
166.1845, 140.5516
166.6666, 145.3314
167.1487, 149.5179
167.6309, 151.6161
168.1130, 152.6902
168.5951, 154.9368
169.0772, 160.5881
169.5593, 167.2138
170.0414, 172.7259
170.5236, 176.5605
171.0057, 179.7933
171.4878, 183.3955
171.9699, 187.1436
172.4520, 190.2582
172.9341, 192.4240
173.4163, 193.7335
173.8984, 194.2171
174.3805, 193.6570
174.8626, 192.6618
175.3447, 192.0779
175.8268, 191.7021
176.3090, 190.5674
176.7911, 186.1282
177.2732, 180.8182
177.7553, 178.8545
178.2374, 182.5722
178.7195, 188.6138
179.2017, 193.1068
179.6838, 196.1673
180.1659, 198.3681
180.6480, 198.9490
181.1301, 198.9954
181.6122, 201.2113
182.0944, 207.3238
182.5765, 215.2847
183.0586, 222.2847
183.5407, 228.2101
184.0228, 232.8091
184.5049, 234.7139
184.9871, 234.7549
185.4692, 235.9105
185.9513, 239.9155
186.4334, 245.3502
186.9155, 248.9122
187.3976, 249.8889
187.8798, 250.0434
188.3619, 250.4897
188.8440, 251.1582
189.3261, 251.5832
189.8082, 251.6426
190.2903, 251.3338
190.7725, 250.5447
191.2546, 249.2139
191.7367, 247.6297
192.2188, 245.6316
192.7009, 243.2934
193.1830, 242.1516
193.6652, 243.2557
194.1473, 246.2325
194.6294, 248.6978
195.1115, 250.6605
195.5936, 251.9843
196.0757, 252.0772
196.5579, 250.8793
197.0400, 250.2176
197.5221, 251.2992
198.0042, 253.9334
198.4863, 255.1660
198.9684, 254.8031
199.4506, 253.4508
199.9327, 251.5977
200.4148, 249.0836
200.8969, 247.4218
201.3790, 247.7296
201.8611, 250.1118
202.3433, 250.9467
202.8254, 249.6687
203.3075, 247.7314
203.7896, 247.6630
204.2717, 249.6944
204.7538, 252.3300
205.2360, 254.9303
205.7181, 257.4324
206.2002, 260.4554
206.6823, 264.0950
207.1644, 268.1291
207.6465, 272.0025
208.1287, 275.4142
208.6108, 279.5724
209.0929, 285.1989
209.5750, 292.6324
210.0571, 299.8906
210.5392, 307.0337
211.0214, 314.0209
211.5035, 320.7795
211.9856, 327.2364
212.4677, 333.5173
212.9498, 340.1095
213.4319, 347.6429
213.9140, 352.5555
214.3962, 354.4449
214.8783, 353.9449
215.3604, 352.4712
215.8425, 350.0443
216.3246, 346.5589
216.8067, 341.7488
217.2889, 335.2664
217.7710, 328.7830
218.2531, 322.3195
218.7352, 315.8661
219.2173, 309.1833
219.6994, 301.9778
220.1816, 295.0382
220.6637, 288.6877
221.1458, 283.2118
221.6279, 277.3450
222.1100, 270.3551
222.5921, 263.2185
223.0743, 258.4967
223.5564, 257.2104
224.0385, 256.6006
224.5206, 255.3810
225.0027, 253.0389
225.4848, 251.7598
225.9670, 251.7910
226.4491, 252.7099
226.9312, 253.5022
227.4133, 253.6985
227.8954, 254.4737
228.3775, 256.3911
228.8597, 259.7226
229.3418, 263.6951
229.8239, 268.2657
230.3060, 273.3835
230.7881, 279.0581
231.2702, 286.1184
231.7524, 292.8925
232.2345, 298.3377
232.7166, 301.6624
233.1987, 305.3024
233.6808, 309.5837
234.1629, 314.1019
234.6451, 317.8331
235.1272, 320.5791
235.6093, 322.8927
236.0914, 324.8976
236.5735, 326.0964
237.0556, 328.3199
237.5378, 332.2047
238.0199, 336.9380
238.5020, 340.3405
238.9841, 341.5892
239.4662, 342.6462
239.9483, 344.4168
240.4305, 347.3089
240.9126, 350.0118
241.3947, 352.4904
241.8768, 354.8307
242.3589, 357.2994
242.8410, 360.3993
243.3232, 362.8250
243.8053, 364.1246
244.2874, 364.5943
244.7695, 363.0598
245.2516, 358.8559
245.7337, 352.7093
246.2159, 346.4314
246.6980, 340.2289
247.1801, 333.7559
247.6622, 327.0179
248.1443, 320.5305
248.6264, 312.3591
249.1086, 301.9347
249.5907, 289.9490
250.0728, 277.5754
250.5549, 263.6095
251.0370, 251.2744
251.5191, 242.4010
252.0013, 238.9581
252.4834, 232.4948
252.9655, 221.4625
253.4476, 208.4344
253.9297, 198.3512
254.4118, 192.6981
254.8940, 187.3747
255.3761, 180.9359
255.8582, 173.0499
256.3403, 164.9975
256.8224, 156.5558
257.3046, 148.1017
257.7867, 140.4509
258.2688, 133.7443
258.7509, 127.4319
259.2330, 121.4775
259.7151, 115.9249
260.1973, 110.2373
260.6794, 104.4292
261.1615, 98.60413
261.6436, 92.91429
262.1257, 86.92853
262.6078, 82.05609
263.0900, 79.29822
263.5721, 79.03525
264.0542, 76.63214
264.5363, 71.13922
265.0184, 64.60513
265.5005, 59.45442
265.9827, 56.04041
266.4648, 53.11823
266.9469, 50.44302
267.4290, 48.02806
267.9111, 45.83505
268.3932, 44.20865
268.8754, 42.29230
269.3575, 38.69804
269.8396, 32.57970
270.3217, 27.82954
270.8038, 25.86801
271.2859, 26.48346
271.7681, 25.80832
272.2502, 23.54053
272.7323, 20.61667
273.2144, 17.91376
273.6965, 15.36485
274.1786, 13.34460
274.6608, 12.08246
275.1429, 11.44627
275.6250, 10.41539
276.1071, 8.943878
276.5892, 7.220749
277.0714, 5.358490
277.5535, 3.300705
278.0356, 1.508392
278.5177, 3.5110001E-02
278.9998, 1.096085
279.4819, 1.746231
279.9641, 1.871155
280.4462, 1.775131
280.9283, 1.375885
281.4104, 0.6195220
281.8925, 1.067612
282.3746, 3.432495
282.8568, 6.811905
283.3389, 8.627731
283.8210, 8.732544
284.3031, 8.076447
284.7852, 7.089828
285.2673, 5.838120
285.7495, 5.071899
286.2316, 5.026291
286.7137, 5.297409
287.1958, 4.728409
287.6779, 3.275238
288.1600, 2.441635
288.6422, 3.833588
289.1243, 7.019958
289.6064, 8.712311
290.0885, 8.475647
290.5706, 7.185593
291.0527, 5.974594
291.5349, 4.856171
292.0170, 4.030731
292.4991, 3.640533
292.9812, 3.616089
293.4633, 3.821884
293.9454, 4.338989
294.4276, 4.953323
294.9097, 5.473404
295.3918, 5.839615
295.8739, 5.794601
296.3560, 4.897507
296.8381, 3.515366
297.3203, 2.511932
297.8024, 1.932739
298.2845, 1.715408
298.7666, 1.933670
299.2487, 2.472992
299.7308, 3.014938
300.2130, 3.518463
300.6951, 3.907181
301.1772, 4.246140
301.6593, 4.538727
302.1414, 4.219315
302.6235, 2.087692
303.1057, 1.000153
303.5878, 3.269104
304.0699, 4.000320
304.5520, 3.769882
305.0341, 2.863205
305.5162, 1.388199
305.9984, 0.2179410
306.4805, 6.8480998E-02
306.9626, 0.5999760
307.4447, 1.414032
307.9268, 2.722748
308.4089, 3.853256
308.8911, 4.181778
309.3732, 3.808594
309.8553, 3.148514
310.3374, 2.165329
310.8195, 1.142120
311.3016, 0.3389280
311.7838, 0.2838900
312.2659, 0.4999850
312.7480, 0.1764830
313.2301, 0.6885220
313.7122, 2.078613
314.1943, 4.844070
314.6765, 7.692947
315.1586, 9.513901
315.6407, 9.917084
316.1228, 10.07750
316.6049, 10.29402
317.0870, 10.72116
317.5692, 11.58994
318.0513, 13.76300
318.5334, 15.76009
319.0155, 16.70653
319.4976, 16.38435
319.9797, 16.13101
320.4619, 16.16884
320.9440, 16.58379
321.4261, 17.46877
321.9082, 20.11031
322.3903, 22.00806
322.8724, 21.92793
323.3546, 19.80020
323.8367, 18.33115
324.3188, 18.17345
324.8009, 18.78880
325.2830, 19.76486
325.7651, 22.02127
326.2473, 23.56937
326.7294, 23.82907
327.2115, 22.96713
327.6936, 22.29929
328.1757, 22.01349
328.6578, 21.86504
329.1400, 21.73825
329.6221, 21.83887
330.1042, 21.67842
330.5863, 21.02959
331.0684, 20.10608
331.5505, 19.55835
332.0327, 19.62193
332.5148, 19.77151
332.9969, 19.78975
333.4790, 19.57321
333.9611, 19.56114
334.4432, 20.13374
334.9254, 20.68742
335.4075, 20.01163
335.8896, 17.21701
336.3717, 14.99980
336.8538, 14.48503
337.3359, 15.92433
337.8180, 16.20090
338.3001, 14.91193
338.7823, 13.10147
339.2644, 12.11809
339.7465, 12.25781
340.2286, 11.66608
340.7107, 9.497818
341.1928, 6.125320
341.6750, 4.207336
342.1571, 3.982025
342.6392, 4.394348
343.1213, 4.566391
343.6034, 4.462646
344.0855, 4.701965
344.5677, 5.535507
345.0498, 6.626480
345.5319, 7.025955
346.0140, 6.687561
346.4961, 6.049911
346.9782, 5.197388
347.4604, 4.256866
347.9425, 3.783020
348.4246, 4.021805
348.9067, 4.350510
349.3888, 3.632065
349.8709, 2.062775
350.3531, 0.7863310
350.8352, 0.3221740
351.3173, 0.5282900
351.7994, 1.479980
352.2815, 3.264252
352.7636, 4.661224
353.2458, 4.039490
353.7279, 2.178589
354.2100, 0.7606350
354.6921, 0.5189820
355.1742, 0.9584350
355.6563, 1.852798
356.1385, 3.110504
356.6206, 4.026718
357.1027, 3.905258
357.5848, 3.232819
358.0669, 2.555191
358.5490, 1.860519
359.0312, 1.441574
359.5133, 1.700211
359.9954, 2.467392
360.4775, 3.221649
360.9596, 3.968643
361.4417, 4.387497
361.9239, 4.115463
362.4060, 2.755707
362.8881, 1.670929
363.3702, 1.529922
363.8523, 1.911240
364.3344, 2.227127
364.8166, 2.298553
365.2987, 2.364288
365.7808, 2.518036
366.2629, 2.759415
366.7450, 2.983749
367.2271, 3.324585
367.7093, 3.532745
368.1914, 3.382767
368.6735, 2.017929
369.1556, 1.221512
369.6377, 1.912552
370.1198, 3.810272
370.6020, 4.100128
371.0841, 1.314407
371.5662, 1.637711
372.0483, 3.171890
372.5304, 2.843765
373.0125, 2.073349
373.4947, 0.5092010
373.9768, 1.331619
374.4589, 2.162613
374.9410, 1.523209
375.4231, 0.8165440
375.9052, 0.5521850
376.3874, 0.7688600
376.8695, 1.198761
377.3516, 1.985657
377.8337, 2.756897
378.3158, 3.015915
378.7979, 2.698196
379.2801, 2.356796
379.7622, 2.116791
380.2443, 1.973663
380.7264, 1.798096
381.2085, 1.531784
381.6906, 1.650574
382.1728, 2.863297
382.6549, 4.969452
383.1370, 6.617355
383.6191, 7.589355
384.1012, 8.016434
384.5833, 7.920425
385.0655, 7.376068
385.5476, 6.946442
386.0297, 6.572769
386.5118, 6.622803
386.9939, 8.135468
387.4760, 11.40018
387.9582, 14.61800
388.4403, 15.90158
388.9224, 15.91568
389.4045, 16.03989
389.8866, 16.42000
390.3687, 17.45496
390.8509, 19.92845
391.3330, 23.67807
391.8151, 27.09216
392.2972, 29.20419
392.7793, 30.48680
393.2614, 31.29955
393.7436, 30.89230
394.2257, 31.21072
394.7078, 33.46701
395.1899, 37.12105
395.6720, 40.72913
396.1541, 44.62976
396.6363, 47.73289
397.1184, 49.24104
397.6005, 48.37955
398.0826, 48.18861
398.5647, 48.69482
399.0468, 50.17900
399.5290, 53.05699
400.0111, 59.31657
400.4932, 65.00626
400.9753, 69.34308
401.4574, 72.33571
401.9395, 75.10329
402.4217, 77.12262
402.9038, 79.52776
403.3859, 83.20128
403.8680, 88.94864
404.3501, 93.97623
404.8322, 97.88763
405.3144, 101.0337
405.7965, 103.9559
406.2786, 106.3010
406.7607, 109.7390
407.2428, 115.7039
407.7249, 124.3285
408.2071, 130.3654
408.6892, 133.3708
409.1713, 135.3760
409.6534, 139.0241
410.1355, 144.2189
410.6176, 149.0768
411.0998, 152.8537
411.5819, 156.0154
412.0640, 159.8353
412.5461, 164.2853
413.0282, 168.7813
413.5103, 173.3102
413.9925, 177.4425
414.4746, 180.1960
414.9567, 181.1795
415.4388, 181.3777
415.9209, 181.6033
416.4030, 181.8503
416.8852, 182.1241
417.3673, 183.4286
417.8494, 184.1202
418.3315, 182.1865
418.8136, 177.4906
419.2957, 173.2599
419.7779, 172.2782
420.2600, 172.2583
420.7421, 170.9390
421.2242, 166.5443
421.7063, 161.9549
422.1884, 157.7182
422.6706, 153.9291
423.1527, 150.7940
423.6348, 149.4125
424.1169, 147.9003
424.5990, 145.1828
425.0811, 140.1069
425.5633, 136.3520
426.0454, 134.7368
426.5275, 134.1982
427.0096, 133.3696
427.4917, 131.6931
427.9738, 130.6355
428.4560, 130.6869
428.9381, 131.7769
429.4202, 132.3563
429.9023, 132.1777
430.3844, 131.9615
430.8665, 131.9922
431.3487, 132.1494
431.8308, 133.4600
432.3129, 136.2900
432.7950, 139.9051
433.2771, 142.5781
433.7592, 144.2298
434.2414, 146.3122
434.7235, 149.5455
435.2056, 153.7574
435.6877, 158.4091
436.1698, 163.5113
436.6519, 168.6433
437.1341, 172.9416
437.6162, 176.8461
438.0983, 181.7331
438.5804, 188.4555
439.0625, 195.6158
439.5446, 201.3759
440.0268, 206.1263
440.5089, 211.2888
440.9910, 218.0439
441.4731, 225.3672
441.9552, 232.4204
442.4373, 238.9606
442.9195, 245.7182
443.4016, 253.6988
443.8837, 261.9107
444.3658, 269.0574
444.8479, 273.8036
445.3300, 278.5769
445.8122, 284.4613
446.2943, 291.2500
446.7764, 297.5193
447.2585, 302.7676
447.7406, 307.6787
448.2227, 312.7504
448.7049, 318.9602
449.1870, 323.0261
449.6691, 324.1180
450.1512, 323.6339
450.6333, 323.8970
451.1154, 325.7151
451.5976, 326.2805
452.0797, 324.5208
452.5618, 320.6588
453.0439, 317.7350
453.5260, 316.5656
454.0081, 314.0643
454.4903, 307.2203
454.9724, 296.1428
455.4545, 284.7990
455.9366, 273.5933
456.4187, 262.5733
456.9008, 252.5959
457.3830, 243.3583
457.8651, 233.3759
458.3472, 220.7606
458.8293, 207.1885
459.3114, 195.4014
459.7935, 185.4551
460.2757, 176.0842
460.7578, 167.0081
461.2399, 158.0483
461.7220, 148.9132
462.2041, 139.0799
462.6862, 129.6343
463.1684, 121.1899
463.6505, 113.6708
464.1326, 107.0672
464.6147, 101.6485
465.0968, 96.91620
465.5789, 92.97723
466.0611, 89.97472
466.5432, 86.58943
467.0253, 81.96887
467.5074, 77.20360
467.9895, 73.21982
468.4716, 69.75404
468.9538, 67.52356
469.4359, 66.98788
469.9180, 67.60368
470.4001, 67.96072
470.8822, 68.22791
471.3643, 68.13159
471.8465, 67.42627
472.3286, 66.01704
472.8107, 64.99649
473.2928, 64.29427
473.7749, 64.13269
474.2570, 65.16238
474.7392, 67.42325
475.2213, 69.37160
475.7034, 70.87256
476.1855, 71.41718
476.6676, 69.52782
477.1497, 65.51663
477.6319, 62.12123
478.1140, 61.76961
478.5961, 62.77992
479.0782, 62.25935
479.5603, 59.93123
480.0424, 57.35239
480.5246, 55.58449
481.0067, 54.41489
481.4888, 53.59523
481.9709, 53.37621
482.4530, 52.85251
482.9352, 51.15105
483.4173, 48.74269
483.8994, 47.11768
484.3815, 48.42375
484.8636, 49.27548
485.3457, 47.68767
485.8279, 42.61382
486.3100, 38.55815
486.7921, 36.40649
487.2742, 35.16656
487.7563, 33.99670
488.2384, 32.95486
488.7206, 31.91722
489.2027, 31.10747
489.6848, 30.26024
490.1669, 28.21812
490.6490, 24.55592
491.1311, 21.04636
491.6133, 18.65564
492.0954, 17.35463
492.5775, 15.96909
493.0596, 14.48412
493.5417, 13.01250
494.0238, 11.97047
494.5060, 11.14551
494.9881, 9.318100
495.4702, 5.514679
495.9523, 1.663254
496.4344, 1.016983
496.9165, 2.892700
497.3987, 4.718826
497.8808, 5.200226
498.3629, 4.878616
498.8450, 4.254517
499.3271, 3.364731
499.8092, 2.079514
500.2914, 0.6484680
500.7735, 3.339127
501.2556, 4.637558
501.7377, 2.666260
502.2198, 1.112000
502.7019, 1.018204
503.1841, 1.931519
503.6662, 2.603470
504.1483, 2.757370
504.6304, 2.868057
505.1125, 3.245895
505.5946, 3.994446
506.0768, 3.518661
506.5589, 0.8585360
507.0410, 1.600372
507.5231, 1.433853
508.0052, 1.975739
508.4873, 3.765564
508.9695, 3.011993
509.4516, 0.9850160
509.9337, 8.2886003E-02
510.4158, 0.2225040
510.8979, 2.5480001E-03
511.3800, 0.5448300
511.8622, 1.224365
512.3443, 1.729828
512.8264, 2.049942
513.3085, 2.014633
513.7906, 1.119568
514.2728, 6.8207003E-02
514.7549, 0.8274840
515.2370, 1.010849
515.7191, 0.7868350
516.2012, 0.4886780
516.6833, 1.939926
517.1655, 2.244247
517.6476, 0.4089360
518.1297, 2.908463
518.6118, 4.419449
519.0939, 4.908279
519.5760, 4.359283
520.0582, 1.271729
520.5403, 1.573807
521.0224, 2.918610
521.5045, 2.248093
521.9866, 1.586182
522.4688, 0.8837890
522.9509, 0.2464750
523.4330, 0.2113190
523.9151, 0.4836430
524.3972, 0.6119380
524.8793, 0.6314090
525.3615, 0.4865720
525.8436, 0.2570950
526.3257, 1.583939
526.8078, 2.350388
527.2899, 1.387955
527.7720, 0.5294800
528.2542, 1.698029
528.7363, 2.040009
529.2184, 1.815857
529.7005, 0.7369080
530.1826, 0.6147000
530.6647, 1.390427
531.1469, 0.9618530
531.6290, 0.5573120
532.1111, 1.280212
532.5932, 2.490524
533.0753, 2.882660
533.5574, 0.8213650
534.0396, 0.9063420
534.5217, 1.048065
535.0038, 0.5579220
535.4859, 1.461288
535.9680, 1.261017
536.4501, 0.6841430
536.9323, 4.3060001E-02
537.4144, 0.9534150
537.8965, 1.034424
538.3786, 0.3743130
538.8607, 1.958832
539.3428, 1.447037
539.8250, 1.339127
540.3071, 3.911072
540.7892, 5.603989
541.2713, 6.579330
541.7534, 7.232880
542.2355, 7.532730
542.7177, 7.121521
543.1998, 4.620331
543.6819, 1.681198
544.1640, 1.093872
544.6461, 3.131027
545.1282, 5.798828
545.6104, 8.370697
546.0925, 10.51241
546.5746, 11.81509
547.0567, 11.64798
547.5388, 11.35042
548.0209, 11.04385
548.5031, 10.93498
548.9852, 11.46919
549.4673, 13.26302
549.9494, 15.14096
550.4315, 16.91080
550.9136, 18.57195
551.3958, 19.78085
551.8779, 20.21648
552.3600, 20.74544
552.8421, 22.16534
553.3242, 24.67250
553.8063, 26.00710
554.2885, 25.77129
554.7706, 25.19623
555.2527, 26.42476
555.7348, 29.04634
556.2169, 30.36742
556.6990, 28.97638
557.1812, 26.66214
557.6633, 25.75377
558.1454, 26.02104
558.6275, 26.72232
559.1096, 28.16649
559.5917, 29.71835
560.0739, 30.48019
560.5560, 30.30592
561.0381, 30.37589
561.5202, 31.83879
562.0023, 33.38583
562.4844, 34.01810
562.9666, 33.09518
563.4487, 31.90404
563.9308, 29.96684
564.4129, 28.25298
564.8950, 28.17976
565.3771, 30.60844
565.8593, 32.32501
566.3414, 32.35362
566.8235, 31.34323
567.3056, 31.98561
567.7877, 34.47650
568.2698, 36.67075
568.7520, 36.89870
569.2341, 35.72617
569.7162, 35.36803
570.1983, 35.92122
570.6804, 37.00226
571.1625, 38.89476
571.6447, 40.96967
572.1268, 42.03281
572.6089, 41.31061
573.0910, 40.46474
573.5731, 40.71149
574.0552, 41.51009
574.5374, 41.97054
575.0195, 41.19855
575.5016, 40.92775
575.9837, 41.95827
576.4658, 44.12593
576.9479, 45.30858
577.4301, 44.17387
577.9122, 43.57040
578.3943, 44.88222
578.8764, 48.66672
579.3585, 51.39958
579.8406, 52.76636
580.3228, 53.78195
580.8049, 55.46204
581.2870, 57.75922
581.7691, 60.19238
582.2512, 62.69090
582.7333, 65.21051
583.2155, 67.85239
583.6975, 70.44130
584.1796, 72.58646
584.6617, 73.80322
585.1439, 74.82709
585.6260, 75.96756
586.1081, 77.27008
586.5902, 79.32999
587.0723, 83.20708
587.5544, 87.29477
588.0366, 90.73996
588.5187, 93.36853
589.0008, 95.67538
589.4829, 96.89204
589.9650, 98.31714
590.4471, 101.0511
590.9293, 106.0095
591.4114, 110.4380
591.8935, 114.0522
592.3756, 117.0468
592.8577, 119.7118
593.3398, 121.9914
593.8220, 124.3252
594.3041, 126.9201
594.7862, 129.6068
595.2683, 131.9218
595.7504, 133.8940
596.2325, 135.8892
596.7147, 137.9539
597.1968, 140.2715
597.6789, 143.1843
598.1610, 146.6754
598.6431, 149.9243
599.1252, 152.5395
599.6074, 154.6481
600.0895, 156.3619
