##NAMES=Thenardite
##RRUFFID=R040178
##IDEAL CHEMISTRY=Na_2_SO_4_
##LOCALITY=Bonita Flow, Flagstaff, Coconino County, Arizona, USA
##OWNER=RRUFF
##SOURCE=University of Arizona Mineral Museum
##DESCRIPTION=Tan colored powder
##STATUS=The identification of this mineral has been confirmed by X-ray diffraction.
##URL=rruff.info/R040178
171.6417, 0.0000000E+00
172.1238, 7.659424
172.6059, 13.28442
173.0880, 14.68091
173.5701, 14.85059
174.0522, 12.02881
174.5344, 7.484619
175.0165, 7.258789
175.4986, 7.729004
175.9807, 5.115967
176.4628, 4.052490
176.9449, 5.989746
177.4271, 6.589600
177.9092, 0.9848630
178.3913, 6.055908
178.8734, 7.428711
179.3555, 1.946533
179.8376, 17.78784
180.3197, 27.06177
180.8019, 25.22168
181.2840, 24.64111
181.7661, 31.33398
182.2482, 40.78101
182.7303, 46.63599
183.2124, 44.78003
183.6946, 39.07617
184.1767, 41.62354
184.6588, 59.52051
185.1409, 73.12939
185.6230, 74.07373
186.1051, 69.65796
186.5873, 68.91113
187.0694, 76.65625
187.5515, 88.61548
188.0336, 93.46387
188.5157, 87.82324
188.9978, 80.12915
189.4800, 68.12793
189.9621, 57.04272
190.4442, 52.66675
190.9263, 57.82812
191.4084, 69.57739
191.8905, 81.10254
192.3727, 92.97510
192.8548, 103.5645
193.3369, 116.4351
193.8190, 126.5122
194.3011, 127.2881
194.7832, 116.0354
195.2654, 98.86450
195.7475, 89.17725
196.2296, 91.10400
196.7117, 93.12524
197.1938, 90.84424
197.6759, 89.44849
198.1581, 95.59644
198.6402, 111.2341
199.1223, 129.0898
199.6044, 134.0479
200.0865, 114.7920
200.5686, 105.4243
201.0508, 115.7705
201.5329, 131.0037
202.0150, 138.8689
202.4971, 136.3105
202.9792, 130.1653
203.4613, 132.7805
203.9435, 152.4163
204.4256, 161.7915
204.9077, 153.2322
205.3898, 140.2371
205.8719, 131.8403
206.3540, 129.8242
206.8362, 129.9883
207.3183, 126.0962
207.8004, 115.1287
208.2825, 107.9250
208.7646, 105.4607
209.2467, 105.5083
209.7289, 109.3687
210.2110, 115.7598
210.6931, 119.4478
211.1752, 111.3689
211.6573, 83.41553
212.1395, 74.29297
212.6216, 105.6587
213.1037, 136.0698
213.5858, 142.9136
214.0679, 127.8330
214.5500, 107.7026
215.0322, 98.53931
215.5143, 101.4851
215.9964, 108.3835
216.4785, 129.2756
216.9606, 144.8428
217.4427, 145.7480
217.9249, 134.3945
218.4070, 118.9214
218.8891, 105.1340
219.3712, 92.93555
219.8533, 86.10815
220.3354, 86.49316
220.8176, 90.91699
221.2997, 102.0562
221.7818, 116.6606
222.2639, 128.9231
222.7460, 134.5576
223.2281, 134.1582
223.7103, 133.3962
224.1924, 130.0393
224.6745, 128.9109
225.1566, 136.8452
225.6387, 146.5376
226.1208, 144.9492
226.6030, 122.7612
227.0851, 87.81714
227.5672, 74.47266
228.0493, 109.4041
228.5314, 130.2170
229.0135, 113.0952
229.4957, 81.19092
229.9778, 63.82666
230.4599, 74.15039
230.9420, 101.2683
231.4241, 118.7212
231.9062, 122.3540
232.3884, 122.3408
232.8705, 118.6018
233.3526, 113.1785
233.8347, 106.1516
234.3168, 97.84375
234.7989, 92.00366
235.2811, 97.16309
235.7632, 122.4580
236.2453, 136.5112
236.7274, 130.1477
237.2095, 118.5410
237.6916, 110.5095
238.1738, 108.0476
238.6559, 108.1731
239.1380, 107.1599
239.6201, 104.3467
240.1022, 102.8855
240.5843, 103.7600
241.0665, 105.2871
241.5486, 106.5581
242.0307, 107.6497
242.5128, 109.3633
242.9949, 113.1177
243.4770, 119.3000
243.9592, 122.8816
244.4413, 120.8748
244.9234, 118.9951
245.4055, 120.4165
245.8876, 123.8582
246.3697, 125.5740
246.8519, 121.7483
247.3340, 113.4116
247.8161, 110.3440
248.2982, 117.7964
248.7803, 123.6145
249.2624, 122.7017
249.7446, 117.6833
250.2267, 112.7427
250.7088, 109.8967
251.1909, 108.8101
251.6730, 108.2771
252.1551, 107.3457
252.6373, 109.1282
253.1194, 118.5125
253.6015, 129.2258
254.0836, 132.8706
254.5657, 124.8950
255.0478, 114.6448
255.5300, 120.5557
256.0121, 149.5532
256.4942, 168.1877
256.9763, 158.5754
257.4584, 139.4924
257.9406, 121.8840
258.4227, 107.8711
258.9048, 98.86157
259.3869, 99.85449
259.8690, 111.6099
260.3511, 115.0764
260.8333, 98.46802
261.3154, 79.55542
261.7975, 69.61621
262.2796, 69.23315
262.7617, 75.64404
263.2438, 89.65454
263.7260, 109.8999
264.2081, 129.5693
264.6902, 152.9163
265.1723, 167.2141
265.6544, 158.8784
266.1365, 133.8708
266.6187, 111.7844
267.1008, 104.8992
267.5829, 106.6094
268.0650, 101.3274
268.5471, 85.57227
269.0292, 73.03491
269.5114, 77.85059
269.9935, 92.05176
270.4756, 102.5110
270.9577, 104.2139
271.4398, 102.1294
271.9219, 102.8770
272.4041, 106.6482
272.8862, 105.8735
273.3683, 92.92993
273.8504, 74.81201
274.3325, 64.77441
274.8146, 65.05591
275.2968, 70.49512
275.7789, 81.25879
276.2610, 95.33618
276.7431, 104.7749
277.2252, 107.1919
277.7073, 102.8301
278.1895, 90.31201
278.6716, 67.37891
279.1537, 48.66577
279.6358, 41.56445
280.1179, 41.20142
280.6000, 38.51587
281.0822, 30.88745
281.5643, 25.49243
282.0464, 33.61841
282.5285, 56.89697
283.0106, 72.06250
283.4927, 71.37744
283.9749, 64.71533
284.4570, 60.22119
284.9391, 58.76782
285.4212, 58.39185
285.9033, 56.20190
286.3854, 52.20630
286.8676, 53.67163
287.3497, 67.63818
287.8318, 79.75073
288.3139, 82.12842
288.7960, 77.04346
289.2781, 70.20947
289.7603, 64.14258
290.2424, 59.37476
290.7245, 57.57983
291.2066, 62.03638
291.6887, 65.20337
292.1708, 65.07178
292.6530, 63.35181
293.1351, 62.62671
293.6172, 63.75488
294.0993, 64.85132
294.5814, 62.56689
295.0635, 55.47510
295.5457, 47.26758
296.0278, 33.97070
296.5099, 22.50537
296.9920, 18.68066
297.4741, 22.52246
297.9562, 29.57129
298.4384, 35.63745
298.9205, 40.89478
299.4026, 43.89648
299.8847, 46.02661
300.3668, 44.62793
300.8489, 33.51440
301.3311, 18.15796
301.8131, 10.44336
302.2953, 19.54614
302.7774, 41.11475
303.2595, 52.61646
303.7416, 47.75098
304.2237, 41.38525
304.7058, 36.53271
305.1880, 32.32666
305.6701, 26.70679
306.1522, 17.67773
306.6343, 8.981445
307.1164, 5.700439
307.5985, 8.906982
308.0807, 14.95312
308.5628, 30.05029
309.0449, 41.57837
309.5270, 36.72925
310.0091, 16.13306
310.4912, 2.306396
310.9734, 1.114746
311.4555, 24.27979
311.9376, 36.62305
312.4197, 30.08423
312.9018, 20.13843
313.3839, 14.64355
313.8661, 13.91675
314.3482, 17.70044
314.8303, 31.94556
315.3124, 48.53052
315.7945, 49.58179
316.2766, 32.25464
316.7588, 16.18677
317.2409, 14.94775
317.7230, 21.08179
318.2051, 21.36548
318.6872, 11.58325
319.1693, 2.321289
319.6515, 3.823486
320.1336, 13.41797
320.6157, 18.46631
321.0978, 13.11987
321.5799, 3.872803
322.0620, 2.001709
322.5442, 8.816406
323.0263, 13.12183
323.5084, 7.693604
323.9905, 0.2700200
324.4726, 0.3127440
324.9547, 9.285156
325.4369, 21.08472
325.9190, 28.85010
326.4011, 32.19141
326.8832, 30.69092
327.3653, 15.61011
327.8474, 4.571533
328.3296, 11.51196
328.8117, 30.87378
329.2938, 46.12305
329.7759, 46.89966
330.2580, 36.62549
330.7401, 30.64624
331.2223, 33.95337
331.7044, 34.89502
332.1865, 30.47095
332.6686, 23.84595
333.1507, 18.24146
333.6328, 14.71313
334.1150, 12.59473
334.5971, 11.64819
335.0792, 14.60303
335.5613, 12.84790
336.0434, 0.5505370
336.5255, 10.40234
337.0077, 13.78955
337.4898, 10.46606
337.9719, 4.887207
338.4540, 1.086182
338.9361, 7.396484
339.4182, 13.06689
339.9004, 19.63379
340.3825, 22.93823
340.8646, 21.52490
341.3467, 16.71704
341.8288, 8.804688
342.3109, 2.856689
342.7931, 13.20337
343.2752, 11.46533
343.7573, 4.802490
344.2394, 15.98389
344.7215, 14.51929
345.2036, 8.359131
345.6858, 1.768799
346.1679, 4.737549
346.6500, 6.562988
347.1321, 3.709473
347.6142, 20.90552
348.0963, 29.86206
348.5785, 27.95190
349.0606, 21.84448
349.5427, 14.50146
350.0248, 6.845703
350.5069, 1.975098
350.9890, 1.714600
351.4712, 3.403809
351.9533, 4.427734
352.4354, 5.252197
352.9175, 9.314453
353.3996, 20.03296
353.8817, 32.91211
354.3639, 34.25659
354.8460, 15.58374
355.3281, 5.490723
355.8102, 18.02100
356.2923, 38.99463
356.7744, 51.56396
357.2566, 52.26147
357.7387, 47.88550
358.2208, 45.97461
358.7029, 47.36792
359.1850, 46.40234
359.6671, 39.61108
360.1493, 34.24268
360.6314, 37.63354
361.1135, 44.85229
361.5956, 43.11401
362.0777, 23.48364
362.5598, 5.885254
363.0420, 13.47876
363.5241, 25.16553
364.0062, 46.03467
364.4883, 25.78687
364.9704, 3.424316
365.4525, 12.76489
365.9347, 2.991699
366.4168, 25.34546
366.8989, 34.11108
367.3810, 28.66650
367.8631, 20.32471
368.3452, 4.029541
368.8274, 8.385010
369.3095, 8.110352
369.7916, 0.2766110
370.2737, 5.292480
370.7558, 2.390869
371.2379, 13.27124
371.7201, 7.707520
372.2022, 16.65869
372.6843, 34.47827
373.1664, 31.89600
373.6485, 18.15161
374.1306, 6.246826
374.6128, 5.224121
375.0949, 8.443359
375.5770, 7.388672
376.0591, 33.26196
376.5412, 51.35913
377.0233, 57.89160
377.5055, 57.92773
377.9876, 56.21118
378.4697, 52.58740
378.9518, 45.64551
379.4339, 29.54028
379.9160, 15.36646
380.3982, 11.71411
380.8803, 15.75684
381.3624, 18.84985
381.8445, 16.12207
382.3266, 9.894531
382.8087, 7.263916
383.2909, 17.30396
383.7730, 18.68945
384.2551, 0.1074220
384.7372, 20.40576
385.2193, 24.75391
385.7014, 11.86084
386.1836, 4.968994
386.6657, 11.97729
387.1478, 8.657471
387.6299, 4.646240
388.1120, 2.572266
388.5941, 7.453613
389.0763, 6.256104
389.5584, 2.088867
390.0405, 0.3439940
390.5226, 4.100830
391.0047, 8.924072
391.4868, 6.267822
391.9690, 5.048340
392.4511, 12.39673
392.9332, 10.50513
393.4153, 4.916260
393.8974, 0.9665530
394.3795, 7.188232
394.8617, 7.912598
395.3438, 6.098389
395.8259, 25.57837
396.3080, 33.37549
396.7901, 27.34766
397.2722, 20.02051
397.7544, 20.99121
398.2365, 27.95142
398.7186, 28.48486
399.2007, 12.84131
399.6828, 1.794922
400.1649, 8.585205
400.6471, 23.68066
401.1292, 30.43066
401.6113, 23.47363
402.0934, 13.38599
402.5755, 17.83276
403.0576, 47.37524
403.5398, 58.36377
404.0219, 33.96338
404.5040, 9.217285
404.9861, 4.346680
405.4682, 14.45288
405.9503, 24.07690
406.4325, 23.16553
406.9146, 15.15308
407.3967, 12.57812
407.8788, 18.87842
408.3609, 23.59009
408.8430, 22.21094
409.3252, 20.22070
409.8073, 21.97876
410.2894, 28.11182
410.7715, 36.17896
411.2536, 46.44238
411.7357, 57.56152
412.2179, 61.57886
412.7000, 56.07642
413.1821, 48.01221
413.6642, 39.43823
414.1463, 31.89697
414.6284, 29.40552
415.1106, 34.58740
415.5927, 42.67725
416.0748, 52.90845
416.5569, 63.55127
417.0390, 68.26733
417.5211, 64.08154
418.0033, 56.11597
418.4854, 51.45190
418.9675, 50.12866
419.4496, 52.83862
419.9317, 65.22290
420.4138, 76.73511
420.8960, 78.59277
421.3781, 74.10181
421.8602, 72.25171
422.3423, 80.27661
422.8244, 93.43115
423.3065, 90.73462
423.7887, 51.78979
424.2708, 31.64355
424.7529, 43.27466
425.2350, 69.17065
425.7171, 101.8533
426.1992, 136.8979
426.6814, 161.8792
427.1635, 159.9949
427.6456, 134.6565
428.1277, 121.9453
428.6098, 123.9155
429.0919, 133.5161
429.5741, 158.4558
430.0562, 186.9895
430.5383, 198.2749
431.0204, 181.1328
431.5025, 159.7612
431.9846, 153.4731
432.4668, 159.0437
432.9489, 165.1887
433.4310, 167.9021
433.9131, 177.3525
434.3952, 212.1282
434.8773, 276.1858
435.3595, 318.9226
435.8416, 323.9912
436.3237, 319.1313
436.8058, 316.2620
437.2879, 317.4968
437.7701, 324.4243
438.2522, 337.8281
438.7343, 357.6775
439.2164, 384.6409
439.6985, 427.4658
440.1806, 461.4854
440.6628, 478.1404
441.1449, 493.8684
441.6270, 519.7231
442.1091, 554.7124
442.5912, 590.7666
443.0733, 623.9888
443.5555, 655.4397
444.0376, 685.1165
444.5197, 710.9868
445.0018, 737.9048
445.4839, 769.2451
445.9660, 801.7126
446.4482, 832.5381
446.9303, 861.4932
447.4124, 890.0312
447.8945, 920.0942
448.3766, 949.6226
448.8587, 975.5117
449.3409, 998.0554
449.8230, 1015.343
450.3051, 1024.428
450.7872, 1025.588
451.2693, 1025.818
451.7514, 1031.373
452.2336, 1028.012
452.7157, 1013.049
453.1978, 989.4893
453.6799, 955.7861
454.1620, 912.5601
454.6441, 868.4905
455.1263, 834.9351
455.6084, 813.4773
456.0905, 793.7710
456.5726, 772.0840
457.0547, 756.4778
457.5368, 749.0361
458.0190, 749.7051
458.5011, 758.2395
458.9832, 775.4548
459.4653, 796.7537
459.9474, 817.3550
460.4295, 836.4590
460.9117, 850.7034
461.3938, 858.4153
461.8759, 863.5073
462.3580, 868.9312
462.8401, 874.6548
463.3222, 881.0234
463.8044, 891.7615
464.2865, 901.1052
464.7686, 904.6658
465.2507, 902.4399
465.7328, 894.8052
466.2149, 881.7085
466.6971, 864.1648
467.1792, 844.7017
467.6613, 825.9678
468.1434, 798.5466
468.6255, 757.1643
469.1076, 711.8335
469.5898, 665.5061
470.0719, 620.7019
470.5540, 583.3328
471.0361, 558.1748
471.5182, 540.6941
472.0003, 515.2158
472.4825, 474.8645
472.9646, 438.7620
473.4467, 418.0581
473.9288, 399.9404
474.4109, 376.7429
474.8930, 348.2395
475.3752, 318.3621
475.8573, 283.2805
476.3394, 248.6248
476.8215, 226.8137
477.3036, 218.4297
477.7857, 213.8601
478.2679, 210.0610
478.7500, 205.5669
479.2321, 196.0916
479.7142, 179.8284
480.1963, 164.4768
480.6784, 149.4519
481.1606, 137.3562
481.6427, 132.4248
482.1248, 133.6692
482.6069, 135.5215
483.0890, 133.7483
483.5711, 129.2168
484.0533, 126.9929
484.5354, 133.2151
485.0175, 131.2109
485.4996, 107.7388
485.9817, 83.76978
486.4638, 79.09106
486.9460, 93.96802
487.4281, 109.8792
487.9102, 113.6306
488.3923, 107.2888
488.8744, 94.78540
489.3565, 74.44336
489.8387, 57.91309
490.3208, 51.25781
490.8029, 52.42944
491.2850, 55.89844
491.7671, 61.07495
492.2492, 70.11499
492.7314, 93.97729
493.2135, 116.2759
493.6956, 113.6653
494.1777, 86.95020
494.6598, 58.98462
495.1419, 47.16016
495.6241, 49.04053
496.1062, 48.57251
496.5883, 45.08154
497.0704, 39.97095
497.5525, 31.26831
498.0346, 22.50977
498.5168, 15.76953
498.9989, 11.75317
499.4810, 11.42041
499.9631, 17.76172
500.4452, 28.34790
500.9273, 33.56421
501.4095, 32.48340
501.8916, 29.77637
502.3737, 26.08643
502.8558, 22.74927
503.3379, 22.49512
503.8200, 27.39526
504.3022, 30.65063
504.7843, 23.76660
505.2664, 14.82837
505.7485, 15.74854
506.2306, 26.42090
506.7127, 39.97168
507.1949, 53.60889
507.6770, 64.00171
508.1591, 55.57568
508.6412, 4.052979
509.1233, 34.39233
509.6054, 9.293701
510.0876, 28.26074
510.5697, 49.85693
511.0518, 52.95386
511.5339, 47.38281
512.0161, 36.82080
512.4982, 24.81226
512.9803, 23.30444
513.4624, 34.84692
513.9445, 41.11133
514.4266, 32.01733
514.9088, 17.69995
515.3909, 12.65308
515.8730, 17.84058
516.3551, 19.41870
516.8372, 6.335938
517.3193, 7.130127
517.8015, 3.980957
518.2836, 12.02295
518.7657, 22.03857
519.2478, 15.28784
519.7299, 5.9326001E-02
520.2120, 3.217285
520.6942, 16.27979
521.1763, 27.02710
521.6584, 21.66919
522.1405, 15.50049
522.6226, 18.35010
523.1047, 27.21802
523.5869, 32.54834
524.0690, 28.13232
524.5511, 20.39331
525.0332, 22.11816
525.5153, 33.20532
525.9974, 35.78882
526.4796, 21.19971
526.9617, 4.085205
527.4438, 3.896484
527.9259, 18.00073
528.4080, 21.99561
528.8901, 2.487305
529.3723, 23.18896
529.8544, 14.79639
530.3365, 9.962891
530.8186, 26.38135
531.3007, 26.00830
531.7828, 15.56958
532.2650, 2.695313
532.7471, 14.52832
533.2292, 22.49561
533.7113, 14.81006
534.1934, 4.756592
534.6755, 5.828369
535.1577, 15.49878
535.6398, 23.49561
536.1219, 29.97656
536.6040, 31.32471
537.0861, 19.75049
537.5682, 0.1894530
538.0504, 10.98657
538.5325, 11.36523
539.0146, 6.904541
539.4967, 0.9047850
539.9788, 6.524902
540.4609, 14.65503
540.9431, 27.17114
541.4252, 35.40894
541.9073, 36.24292
542.3894, 32.92480
542.8715, 26.48169
543.3536, 18.43530
543.8358, 13.17163
544.3179, 14.81567
544.8000, 21.42700
545.2821, 23.64062
545.7642, 18.24463
546.2463, 17.30859
546.7285, 28.65796
547.2106, 42.09595
547.6927, 51.93677
548.1748, 57.43140
548.6569, 55.54590
549.1390, 36.97925
549.6211, 15.95361
550.1032, 9.499023
550.5853, 15.06665
551.0674, 20.15967
551.5496, 19.53076
552.0317, 17.82031
552.5138, 23.48804
552.9959, 41.85229
553.4780, 49.33374
553.9601, 36.18066
554.4423, 24.23242
554.9244, 23.75586
555.4065, 29.80396
555.8886, 34.26050
556.3707, 34.17236
556.8528, 31.45508
557.3350, 27.58887
557.8171, 22.85254
558.2992, 19.49780
558.7813, 18.08643
559.2634, 17.07031
559.7455, 16.95581
560.2277, 16.12256
560.7098, 9.363525
561.1919, 11.61938
561.6740, 24.10156
562.1561, 15.03174
562.6382, 2.425049
563.1204, 15.50952
563.6025, 22.55273
564.0846, 27.20557
564.5667, 32.29907
565.0488, 36.84570
565.5309, 36.79468
566.0131, 30.71826
566.4952, 23.10938
566.9773, 9.113525
567.4594, 0.4909670
567.9415, 0.5046390
568.4236, 7.114746
568.9058, 16.32568
569.3879, 27.07788
569.8700, 36.11719
570.3521, 39.57959
570.8342, 38.52075
571.3163, 34.62402
571.7985, 27.73657
572.2806, 25.53198
572.7627, 40.00635
573.2448, 75.05469
573.7269, 89.64307
574.2090, 67.14648
574.6912, 45.08276
575.1733, 30.29736
575.6554, 22.18262
576.1375, 20.10010
576.6196, 22.94482
577.1017, 27.24927
577.5839, 30.42578
578.0660, 32.43726
578.5481, 33.03125
579.0302, 31.44287
579.5123, 31.08105
579.9944, 34.67456
580.4766, 39.37598
580.9587, 37.77954
581.4408, 26.31396
581.9229, 23.89746
582.4050, 44.26538
582.8871, 64.39185
583.3693, 68.91333
583.8514, 60.97290
584.3335, 47.75903
584.8156, 32.33765
585.2977, 19.86401
585.7798, 19.40991
586.2620, 31.77979
586.7441, 46.30981
587.2262, 69.12720
587.7083, 82.84790
588.1904, 67.02393
588.6725, 37.26978
589.1547, 21.12378
589.6368, 26.23755
590.1189, 34.03809
590.6010, 35.00195
591.0831, 33.23291
591.5652, 35.24951
592.0474, 40.84790
592.5295, 44.76343
593.0116, 43.17578
593.4937, 37.40479
593.9758, 31.34106
594.4579, 24.09766
594.9401, 18.75317
595.4222, 12.69556
595.9043, 10.56274
596.3864, 19.40869
596.8685, 35.13013
597.3506, 46.30005
597.8328, 45.69556
598.3149, 44.40894
598.7970, 57.00952
599.2791, 76.40112
599.7612, 81.06689
600.2433, 66.81738
600.7255, 53.72974
601.2076, 59.66797
601.6897, 81.86084
602.1718, 97.82446
602.6539, 103.7341
603.1360, 108.2947
603.6182, 111.7092
604.1003, 114.3750
604.5824, 113.5991
605.0645, 111.7463
605.5466, 117.4158
606.0287, 138.8418
606.5109, 165.9949
606.9930, 181.1292
607.4751, 186.5491
607.9572, 200.4180
608.4393, 227.6497
608.9214, 264.4526
609.4036, 312.7705
609.8857, 372.6167
610.3678, 402.4153
610.8499, 370.0178
611.3320, 351.1589
611.8141, 367.8894
612.2963, 403.9954
612.7784, 446.9004
613.2605, 491.7864
613.7426, 532.1882
614.2247, 558.4089
614.7068, 580.5598
615.1890, 626.6792
615.6711, 697.4639
616.1532, 764.8159
616.6353, 820.3914
617.1174, 869.4475
617.5995, 916.8323
618.0817, 962.6165
618.5638, 1007.457
619.0459, 1050.957
619.5280, 1092.327
620.0101, 1141.662
620.4922, 1185.878
620.9744, 1210.924
621.4565, 1212.524
621.9386, 1187.631
622.4207, 1126.091
622.9028, 1038.969
623.3849, 970.6375
623.8671, 923.2178
624.3492, 882.3228
624.8313, 843.8635
625.3134, 809.7847
625.7955, 782.1494
626.2776, 760.7065
626.7598, 749.4072
627.2419, 748.0469
627.7240, 756.2454
628.2061, 772.8098
628.6882, 799.3389
629.1703, 843.3462
629.6525, 903.0493
630.1346, 957.6211
630.6167, 984.6726
631.0988, 989.3193
631.5809, 1002.335
632.0630, 1028.898
632.5452, 1043.270
633.0273, 1036.195
633.5094, 1014.684
633.9915, 986.3235
634.4736, 951.9111
634.9557, 910.4983
635.4379, 856.3813
635.9200, 799.3306
636.4021, 740.6321
636.8842, 685.2837
637.3663, 640.9236
637.8484, 608.9663
638.3306, 583.5222
638.8127, 556.6938
639.2948, 531.7197
639.7769, 532.2673
640.2590, 566.0532
640.7411, 598.1448
641.2233, 619.3447
641.7054, 633.9043
642.1875, 642.8660
642.6696, 647.2400
643.1517, 660.5972
643.6339, 692.1780
644.1160, 726.6814
644.5981, 757.4741
645.0802, 784.6516
645.5623, 813.2854
646.0444, 842.0750
646.5266, 856.4827
647.0087, 840.7485
647.4908, 800.7195
647.9729, 764.6604
648.4550, 736.3035
648.9371, 697.9385
649.4193, 642.3147
649.9014, 578.1636
650.3835, 506.7935
650.8656, 431.0669
651.3477, 371.2019
651.8298, 342.1453
652.3120, 316.2021
652.7941, 277.5715
653.2762, 235.5654
653.7583, 204.5227
654.2404, 185.4426
654.7225, 165.6987
655.2047, 133.3596
655.6868, 94.94092
656.1689, 73.90210
656.6510, 72.94043
657.1331, 73.14233
657.6152, 72.37061
658.0974, 69.28003
658.5795, 62.06274
659.0616, 52.30127
659.5437, 47.60474
660.0258, 56.92896
660.5079, 61.09644
660.9901, 49.15063
661.4722, 31.67773
661.9543, 16.64233
662.4364, 6.932617
662.9185, 6.887695
663.4006, 21.54224
663.8828, 41.97534
664.3649, 49.28125
664.8470, 43.01294
665.3291, 38.30371
665.8112, 37.66992
666.2933, 38.39893
666.7755, 38.79395
667.2576, 38.91699
667.7397, 39.33667
668.2218, 45.58813
668.7039, 43.24268
669.1860, 16.16528
669.6682, 9.546143
670.1503, 7.442383
670.6324, 14.06494
671.1145, 26.26636
671.5966, 13.99536
672.0787, 5.873047
672.5609, 8.988770
673.0430, 2.333008
673.5251, 12.17041
674.0072, 19.32861
674.4893, 23.00342
674.9714, 21.53516
675.4536, 17.18140
675.9357, 16.06104
676.4178, 21.11670
676.8999, 22.90625
677.3820, 19.44849
677.8641, 14.44580
678.3463, 7.639893
678.8284, 1.369385
679.3105, 6.3965000E-02
679.7926, 5.121338
680.2747, 10.36157
680.7568, 7.102783
681.2390, 0.4199220
681.7211, 6.342285
682.2032, 24.34375
682.6853, 32.47705
683.1674, 19.57617
683.6495, 2.275635
684.1317, 14.99512
684.6138, 17.81104
685.0959, 15.28784
685.5780, 0.9804690
686.0601, 10.99634
686.5422, 18.39600
687.0244, 21.12427
687.5065, 16.92456
687.9886, 6.539795
688.4707, 1.314453
688.9528, 1.797363
689.4349, 2.830566
689.9171, 15.68994
690.3992, 31.49487
690.8813, 31.88501
691.3634, 12.26782
691.8455, 10.27100
692.3276, 19.14819
692.8098, 15.17505
693.2919, 3.991455
693.7740, 19.78564
694.2561, 39.05200
694.7382, 51.65454
695.2203, 57.40430
695.7025, 53.55811
696.1846, 42.39160
696.6667, 32.18408
697.1488, 25.22388
697.6309, 19.27075
698.1130, 11.14209
698.5952, 4.530518
699.0773, 6.872314
699.5594, 16.29419
700.0415, 21.66919
700.5236, 15.69824
701.0057, 4.100586
701.4879, 2.137451
701.9700, 2.991455
702.4521, 1.057617
702.9342, 11.43628
703.4163, 23.43066
703.8984, 38.69653
704.3806, 51.83374
704.8627, 48.09033
705.3448, 18.33203
705.8269, 0.9030760
706.3090, 0.2033690
706.7911, 8.229980
707.2733, 19.02905
707.7554, 29.85645
708.2375, 38.79810
708.7196, 44.96899
709.2017, 44.58618
709.6838, 25.84961
710.1660, 0.1752930
710.6481, 1.887695
711.1302, 19.68872
711.6123, 41.23779
712.0944, 55.69067
712.5765, 61.88330
713.0587, 57.27197
713.5408, 41.33423
714.0229, 26.19263
714.5050, 0.8281250
714.9871, 8.009277
715.4692, 19.05688
715.9514, 51.92285
716.4335, 67.29712
716.9156, 65.53564
717.3977, 58.38354
717.8798, 47.04297
718.3619, 36.92456
718.8441, 35.52832
719.3262, 37.03198
719.8083, 27.73193
720.2904, 8.541992
720.7725, 2.565918
721.2546, 7.569092
721.7368, 29.17798
722.2189, 37.27759
722.7010, 28.92090
723.1831, 28.66382
723.6652, 44.64648
724.1473, 56.22266
724.6295, 47.93970
725.1116, 29.40747
725.5937, 19.91846
726.0758, 23.16992
726.5579, 25.67529
727.0400, 22.59937
727.5222, 20.14941
728.0043, 22.97559
728.4864, 29.63184
728.9685, 38.15918
729.4506, 47.58984
729.9327, 54.54614
730.4149, 55.37939
730.8970, 52.52954
731.3791, 50.11621
731.8612, 48.32617
732.3433, 44.40894
732.8254, 36.52734
733.3076, 27.55786
733.7897, 19.21704
734.2718, 11.97241
734.7539, 12.02026
735.2360, 26.96118
735.7181, 36.43823
736.2003, 34.25439
736.6824, 29.81250
737.1645, 26.26611
737.6466, 25.28198
738.1287, 31.61792
738.6108, 51.78394
739.0930, 66.56470
739.5751, 58.98364
740.0572, 44.33252
740.5393, 42.09546
741.0214, 49.76147
741.5035, 52.76489
741.9857, 44.49463
742.4678, 31.15259
742.9499, 22.63672
743.4320, 19.82959
743.9141, 21.30640
744.3962, 27.72485
744.8784, 34.84424
745.3605, 42.07593
745.8426, 47.69165
746.3247, 48.80347
746.8068, 44.79004
747.2889, 42.53955
747.7711, 41.34790
748.2532, 42.48120
748.7353, 49.78906
749.2174, 56.89868
749.6995, 58.76343
750.1816, 54.57739
750.6638, 43.55444
751.1459, 18.52563
751.6280, 0.5241700
752.1101, 14.27026
752.5922, 45.18066
753.0743, 57.03638
753.5565, 48.17114
754.0386, 37.18823
754.5207, 34.84888
755.0028, 38.03052
755.4849, 41.28149
755.9670, 44.83228
756.4492, 45.60596
756.9313, 41.02979
757.4134, 40.43945
757.8955, 51.64941
758.3776, 66.26831
758.8597, 70.48584
759.3419, 63.15649
759.8240, 58.54321
760.3061, 64.85596
760.7882, 65.44653
761.2703, 46.34717
761.7524, 24.38940
762.2346, 18.82373
762.7167, 29.41211
763.1988, 41.07617
763.6809, 45.49146
764.1630, 46.76953
764.6451, 50.25684
765.1273, 54.03027
765.6094, 52.48364
766.0915, 44.93066
766.5736, 37.03125
767.0557, 32.00293
767.5378, 29.91846
768.0200, 32.17871
768.5021, 40.48511
768.9842, 42.59399
769.4663, 36.26367
769.9484, 27.36646
770.4305, 14.45435
770.9127, 3.065430
771.3948, 2.690430
771.8769, 14.36279
772.3590, 23.78296
772.8411, 21.56494
773.3232, 23.09985
773.8054, 41.57007
774.2875, 62.61987
774.7696, 69.01733
775.2517, 61.69873
775.7338, 55.17603
776.2159, 57.75073
776.6981, 63.18433
777.1802, 65.84375
777.6623, 65.75562
778.1444, 62.08130
778.6265, 54.90771
779.1086, 47.97778
779.5908, 42.95337
780.0729, 38.34424
780.5550, 31.16113
781.0371, 21.09326
781.5192, 10.64404
782.0013, 3.497803
782.4835, 8.958740
782.9656, 2.521484
783.4477, 21.63916
783.9298, 37.96875
784.4119, 51.55640
784.8940, 61.15186
785.3762, 69.48193
785.8583, 70.13940
786.3404, 52.02075
786.8225, 32.93579
787.3046, 33.15991
787.7867, 46.63403
788.2689, 48.05835
788.7510, 22.63892
789.2331, 3.707520
789.7152, 7.649902
790.1973, 0.7604980
790.6794, 6.998047
791.1616, 10.02222
791.6437, 11.73364
792.1258, 12.96240
792.6079, 15.71875
793.0900, 23.51782
793.5721, 35.71313
794.0543, 46.66040
794.5364, 57.60986
795.0185, 58.23828
795.5006, 41.87744
795.9827, 22.04492
796.4648, 11.13184
796.9470, 8.638184
797.4291, 9.587158
797.9112, 23.20337
798.3933, 26.88110
798.8754, 5.065918
799.3575, 12.22876
799.8397, 2.021240
800.3218, 22.88354
800.8039, 36.54639
801.2860, 31.90674
801.7681, 24.08154
802.2502, 15.82764
802.7324, 11.81689
803.2145, 20.21973
803.6966, 35.02026
804.1787, 44.69653
804.6608, 46.56030
805.1429, 46.13599
805.6251, 48.73560
806.1072, 51.21899
806.5893, 43.41626
807.0714, 27.65527
807.5535, 25.25024
808.0356, 40.96509
808.5178, 49.39624
808.9999, 30.54834
809.4820, 0.5705570
809.9641, 2.165039
810.4462, 40.37598
810.9283, 57.33032
811.4105, 32.07861
811.8926, 8.315186
812.3747, 2.595459
812.8568, 7.049072
813.3389, 15.72070
813.8210, 28.38013
814.3032, 34.07300
814.7853, 24.43140
815.2674, 16.27148
815.7495, 19.20703
816.2316, 23.00488
816.7137, 14.68164
817.1959, 1.402344
817.6780, 9.618164
818.1601, 2.643066
818.6422, 9.821289
819.1243, 22.53955
819.6064, 33.81714
820.0886, 41.73438
820.5707, 46.03711
821.0528, 44.84814
821.5349, 37.68213
822.0170, 27.07666
822.4991, 12.95410
822.9813, 0.9836430
823.4634, 5.750488
823.9455, 34.80688
824.4276, 49.07520
824.9097, 37.61255
825.3918, 23.54443
825.8740, 24.85352
826.3561, 36.44116
826.8382, 41.00610
827.3203, 34.92651
827.8024, 30.87451
828.2845, 33.31567
828.7667, 30.76636
829.2488, 10.39697
829.7309, 11.60791
830.2130, 12.92920
830.6951, 7.465332
831.1772, 22.56152
831.6594, 24.62329
832.1415, 21.78638
832.6236, 11.88867
833.1057, 2.980957
833.5878, 5.521729
834.0699, 16.62646
834.5521, 24.03076
835.0342, 21.47241
835.5163, 18.66699
835.9984, 25.55835
836.4805, 37.37036
836.9626, 48.42676
837.4448, 57.81055
837.9269, 63.63501
838.4090, 65.39795
838.8911, 65.34229
839.3732, 66.47339
839.8553, 66.86108
840.3375, 59.86426
840.8196, 45.67847
841.3017, 33.68091
841.7838, 26.67212
842.2659, 23.37061
842.7480, 23.62354
843.2302, 25.99023
843.7123, 26.47339
844.1944, 23.21875
844.6765, 24.61499
845.1586, 35.58691
845.6407, 43.86450
846.1229, 43.95874
846.6050, 40.35889
847.0871, 35.81763
847.5692, 30.83252
848.0513, 28.91431
848.5334, 34.64575
849.0156, 36.68457
849.4977, 29.34912
849.9798, 19.53369
850.4619, 9.177246
850.9440, 1.372803
851.4261, 3.049561
851.9083, 16.99292
852.3904, 29.91260
852.8725, 30.78979
853.3546, 28.30884
853.8367, 34.08716
854.3188, 42.93579
854.8010, 42.75732
855.2831, 32.09058
855.7652, 18.52515
856.2473, 5.938965
856.7294, 1.692139
857.2115, 7.705322
857.6937, 29.72437
858.1758, 34.95312
858.6579, 20.90601
859.1400, 6.604736
859.6221, 0.3166500
860.1042, 2.109619
860.5864, 14.10181
861.0685, 35.63745
861.5506, 47.34570
862.0327, 46.73584
862.5148, 47.47607
862.9969, 54.47607
863.4791, 59.10425
863.9612, 54.45044
864.4433, 43.77271
864.9254, 34.28784
865.4075, 20.93042
865.8896, 13.52979
866.3718, 15.48999
866.8539, 20.49805
867.3360, 29.01294
867.8181, 37.45532
868.3002, 42.76587
868.7823, 44.27954
869.2645, 42.15088
869.7466, 30.57886
870.2287, 22.60425
870.7108, 29.38916
871.1929, 37.05933
871.6750, 28.47852
872.1572, 11.34814
872.6393, 7.202637
873.1214, 23.70190
873.6035, 39.82617
874.0856, 37.96509
874.5677, 29.88184
875.0499, 26.95508
875.5320, 27.97632
876.0141, 34.58154
876.4962, 44.38501
876.9783, 44.79834
877.4604, 24.93994
877.9426, 0.5375980
878.4247, 2.025635
878.9068, 22.06885
879.3889, 32.94751
879.8710, 33.25757
880.3531, 31.94922
880.8353, 32.33276
881.3174, 32.97632
881.7995, 30.81763
882.2816, 27.44312
882.7637, 33.18994
883.2458, 49.90942
883.7280, 51.06104
884.2101, 27.36938
884.6922, 3.810303
885.1743, 4.020020
885.6564, 0.4291990
886.1385, 6.110596
886.6207, 17.26270
887.1028, 23.40356
887.5849, 18.25439
888.0670, 16.85156
888.5491, 28.41528
889.0313, 41.40698
889.5134, 46.40576
889.9955, 44.83618
890.4776, 43.40601
890.9597, 45.03882
891.4418, 42.35718
891.9240, 30.27686
892.4061, 18.02832
892.8882, 5.967285
893.3703, 0.7707520
893.8524, 8.989502
894.3345, 34.31030
894.8167, 49.06689
895.2988, 31.84253
895.7809, 14.65479
896.2630, 20.67749
896.7451, 30.61475
897.2272, 16.50488
897.7094, 10.37500
898.1915, 13.22876
898.6736, 21.29004
899.1557, 54.82886
899.6378, 51.90723
900.1199, 34.77026
900.6021, 30.76294
901.0842, 34.01831
901.5663, 28.87231
902.0484, 14.61499
902.5305, 3.596191
903.0126, 3.181396
903.4948, 11.89185
903.9769, 36.46411
904.4590, 67.15308
904.9411, 65.26733
905.4232, 34.98779
905.9053, 21.37109
906.3875, 38.93481
906.8696, 60.20044
907.3517, 58.19336
907.8338, 40.49316
908.3159, 32.70825
908.7980, 34.91479
909.2802, 29.29810
909.7623, 12.50488
910.2444, 0.1545410
910.7265, 0.7207030
911.2086, 4.996338
911.6907, 9.026367
912.1729, 11.38501
912.6550, 13.11108
913.1371, 13.14844
913.6192, 16.52881
914.1013, 27.48462
914.5834, 35.03589
915.0656, 30.31738
915.5477, 19.07397
916.0298, 15.27539
916.5119, 21.60474
916.9940, 25.30688
917.4761, 27.76392
917.9583, 25.69800
918.4404, 13.54443
918.9225, 0.6359860
919.4046, 6.086670
919.8867, 7.442627
920.3688, 6.262939
920.8510, 1.375000
921.3331, 2.296387
921.8152, 18.95947
922.2973, 31.64307
922.7794, 11.13452
923.2615, 18.81836
923.7437, 27.16772
924.2258, 15.01367
924.7079, 11.45312
925.1900, 37.04761
925.6721, 53.01074
926.1542, 29.32739
926.6364, 3.175293
927.1185, 7.983887
927.6006, 30.37671
928.0827, 45.87573
928.5648, 48.67627
929.0469, 43.93921
929.5291, 27.36963
930.0112, 12.56934
930.4933, 13.63843
930.9754, 19.83057
931.4575, 14.15625
931.9396, 1.356689
932.4218, 1.751709
932.9039, 22.30298
933.3860, 38.65112
933.8681, 21.60498
934.3502, 4.808838
934.8323, 10.01904
935.3145, 0.5981450
935.7966, 13.93359
936.2787, 29.31055
936.7608, 35.24731
937.2429, 25.61426
937.7250, 12.60571
938.2072, 14.44702
938.6893, 22.61304
939.1714, 12.25879
939.6535, 10.18726
940.1356, 15.64282
940.6177, 0.8889160
941.0999, 17.64111
941.5820, 18.23950
942.0641, 15.77808
942.5462, 43.11841
943.0283, 89.48755
943.5104, 94.41602
943.9926, 58.88086
944.4747, 29.55835
944.9568, 20.83716
945.4389, 21.39526
945.9210, 22.00342
946.4031, 22.44824
946.8853, 21.95215
947.3674, 20.51489
947.8495, 18.67456
948.3316, 16.33179
948.8137, 15.86353
949.2958, 18.93677
949.7780, 19.87061
950.2601, 10.49268
950.7422, 5.322266
951.2243, 4.406494
951.7064, 17.44775
952.1885, 30.45093
952.6707, 30.21216
953.1528, 26.19312
953.6349, 21.36353
954.1170, 17.99756
954.5991, 20.00513
955.0812, 26.86377
955.5634, 26.10938
956.0455, 14.11914
956.5276, 9.947754
957.0097, 18.79395
957.4918, 25.80444
957.9739, 19.36719
958.4561, 10.57544
958.9382, 20.59473
959.4203, 52.17798
959.9024, 62.33765
960.3845, 35.27026
960.8666, 18.60107
961.3488, 24.16235
961.8309, 35.10034
962.3130, 43.63013
962.7951, 49.34839
963.2772, 50.21094
963.7593, 43.90747
964.2415, 45.18481
964.7236, 61.93140
965.2057, 74.78613
965.6878, 79.22754
966.1699, 80.10205
966.6520, 77.94336
967.1342, 75.07422
967.6163, 77.51440
968.0984, 87.61035
968.5805, 93.91064
969.0626, 89.71606
969.5447, 90.09863
970.0269, 104.1882
970.5090, 119.3489
970.9911, 121.5757
971.4732, 117.8054
971.9553, 127.8604
972.4374, 157.7495
972.9196, 185.8669
973.4017, 213.4026
973.8838, 233.7915
974.3659, 239.5825
974.8480, 241.5620
975.3301, 245.8979
975.8123, 254.6653
976.2944, 272.7786
976.7765, 304.0891
977.2586, 333.9812
977.7407, 353.3013
978.2228, 378.2021
978.7050, 410.6646
979.1871, 456.0444
979.6692, 514.9106
980.1513, 590.3735
980.6334, 692.6091
981.1155, 823.1226
981.5977, 977.3162
982.0798, 1148.723
982.5619, 1349.465
983.0440, 1596.748
983.5261, 1870.977
984.0082, 2155.296
984.4904, 2446.155
984.9725, 2737.438
985.4546, 3022.349
985.9367, 3324.191
986.4188, 3634.099
986.9009, 3985.163
987.3831, 4381.649
987.8652, 4840.568
988.3473, 5367.238
988.8294, 5969.083
989.3115, 6670.992
989.7936, 7497.799
990.2758, 8370.424
990.7579, 9347.398
991.2400, 10256.14
991.7221, 11151.85
992.2042, 11803.61
992.6863, 11943.07
993.1685, 11578.20
993.6506, 10868.60
994.1327, 9769.648
994.6148, 8625.509
995.0969, 7541.679
995.5790, 6514.263
996.0612, 5525.177
996.5433, 4607.179
997.0254, 3784.164
997.5075, 3065.537
997.9896, 2475.868
998.4717, 2034.458
998.9539, 1692.413
999.4360, 1454.457
999.9181, 1276.328
1000.400, 1145.063
1000.882, 1045.966
1001.364, 971.7261
1001.847, 915.1709
1002.329, 859.5398
1002.811, 799.0427
1003.293, 738.7959
1003.775, 675.7644
1004.257, 619.3337
1004.739, 580.2766
1005.221, 549.2200
1005.703, 511.4185
1006.186, 469.7673
1006.668, 442.9297
1007.150, 443.3682
1007.632, 438.5701
1008.114, 406.1726
1008.596, 372.2454
1009.078, 355.7878
1009.560, 346.2200
1010.043, 330.3062
1010.525, 307.7639
1011.007, 283.3154
1011.489, 256.0676
1011.971, 235.2031
1012.453, 229.5215
1012.935, 226.1501
1013.417, 217.6182
1013.899, 207.0310
1014.382, 197.6016
1014.864, 189.4370
1015.346, 181.8523
1015.828, 175.2026
1016.310, 169.2373
1016.792, 169.1328
1017.274, 162.4792
1017.756, 134.5916
1018.239, 103.9902
1018.721, 90.73267
1019.203, 91.51270
1019.685, 90.14307
1020.167, 80.42017
1020.649, 78.57324
1021.131, 108.4888
1021.613, 125.7751
1022.095, 92.49072
1022.578, 52.32349
1023.060, 50.63232
1023.542, 74.50049
1024.024, 85.96362
1024.506, 77.12549
1024.988, 70.01270
1025.470, 71.19336
1025.952, 71.23486
1026.435, 63.15527
1026.917, 58.12451
1027.399, 72.65527
1027.881, 93.96899
1028.363, 91.16748
1028.845, 56.13330
1029.327, 34.07080
1029.809, 41.82666
1030.292, 51.52100
1030.774, 59.75903
1031.256, 63.43726
1031.738, 58.03540
1032.220, 47.72046
1032.702, 39.66504
1033.184, 34.49341
1033.666, 30.17627
1034.148, 21.38306
1034.630, 20.97485
1035.113, 42.27124
1035.595, 60.26245
1036.077, 58.54614
1036.559, 46.37451
1037.041, 36.50244
1037.523, 29.14038
1038.005, 23.94897
1038.487, 22.17700
1038.970, 20.48120
1039.452, 17.06763
1039.934, 15.85278
1040.416, 20.65015
1040.898, 26.74414
1041.380, 28.17261
1041.862, 25.40112
1042.344, 23.80225
1042.826, 25.92017
1043.309, 22.74927
1043.791, 5.467285
1044.273, 7.4707001E-02
1044.755, 25.21899
1045.237, 52.13452
1045.719, 47.51221
1046.201, 20.13428
1046.683, 12.11499
1047.166, 32.28003
1047.648, 40.35254
1048.130, 30.17725
1048.612, 26.36938
1049.094, 39.68604
1049.576, 52.56274
1050.058, 49.10693
1050.540, 35.61987
1051.022, 28.89209
1051.505, 29.36304
1051.987, 33.84595
1052.469, 44.15405
1052.951, 45.10034
1053.433, 30.90186
1053.915, 19.89453
1054.397, 25.89941
1054.879, 37.16260
1055.361, 28.82446
1055.844, 4.029297
1056.326, 4.226318
1056.808, 29.22852
1057.290, 40.60376
1057.772, 31.92749
1058.254, 20.06812
1058.736, 12.96191
1059.218, 10.80273
1059.701, 15.52490
1060.183, 24.20605
1060.665, 20.67798
1061.147, 7.159668
1061.629, 4.435303
1062.111, 13.27026
1062.593, 20.07349
1063.075, 18.88110
1063.557, 14.53882
1064.040, 11.21094
1064.522, 8.498779
1065.004, 6.192871
1065.486, 3.579590
1065.968, 3.708984
1066.450, 12.91846
1066.932, 13.27271
1067.414, 2.841309
1067.896, 10.77563
1068.379, 24.36108
1068.861, 31.43506
1069.343, 17.74707
1069.825, 1.732422
1070.307, 3.001953
1070.789, 5.078125
1071.271, 0.2070310
1071.753, 16.82520
1072.236, 24.63086
1072.718, 12.25122
1073.200, 0.9040530
1073.682, 2.064697
1074.164, 7.087402
1074.646, 0.3798830
1075.128, 9.725830
1075.610, 13.21289
1076.093, 10.52710
1076.575, 4.852295
1077.057, 3.216064
1077.539, 6.207275
1078.021, 3.967041
1078.503, 13.53638
1078.985, 18.70093
1079.467, 18.47241
1079.949, 5.066895
1080.432, 10.73267
1080.914, 6.381348
1081.396, 18.66382
1081.878, 26.33521
1082.360, 12.84180
1082.842, 35.00024
1083.324, 16.27271
1083.806, 4.298340
1084.288, 7.217285
1084.771, 4.694824
1085.253, 10.88110
1085.735, 23.60156
1086.217, 32.02466
1086.699, 35.36548
1087.181, 35.99194
1087.663, 31.01709
1088.145, 29.37280
1088.628, 32.77222
1089.110, 41.12695
1089.592, 54.98828
1090.074, 73.30835
1090.556, 95.42993
1091.038, 121.8865
1091.520, 131.3188
1092.002, 116.5557
1092.484, 135.4761
1092.967, 203.0955
1093.449, 266.2512
1093.931, 297.2344
1094.413, 318.5706
1094.895, 360.9773
1095.377, 415.3286
1095.859, 442.0007
1096.341, 446.4014
1096.823, 475.0210
1097.306, 528.0249
1097.788, 565.6748
1098.270, 576.5027
1098.752, 593.1213
1099.234, 643.5686
1099.716, 703.8259
1100.198, 742.2441
1100.680, 760.9226
1101.163, 763.4255
1101.645, 749.9170
1102.127, 714.5979
1102.609, 662.5994
1103.091, 616.3347
1103.573, 587.2581
1104.055, 551.6899
1104.537, 486.8853
1105.020, 410.9751
1105.502, 328.3433
1105.984, 253.4028
1106.466, 207.6042
1106.948, 182.5227
1107.430, 158.0964
1107.912, 129.7253
1108.394, 102.9268
1108.876, 77.92896
1109.359, 57.92480
1109.841, 45.23706
1110.323, 36.77734
1110.805, 32.76538
1111.287, 30.39795
1111.769, 27.16821
1112.251, 22.85205
1112.733, 16.84082
1113.215, 6.999023
1113.698, 0.3076170
1114.180, 0.6948240
1114.662, 1.849365
1115.144, 6.858154
1115.626, 8.935303
1116.108, 0.2651370
1116.590, 10.87256
1117.072, 6.992188
1117.555, 11.97949
1118.037, 14.32812
1118.519, 4.555908
1119.001, 11.93213
1119.483, 1.770996
1119.965, 5.176514
1120.447, 0.7333980
1120.929, 13.42261
1121.411, 37.39819
1121.894, 65.18872
1122.376, 77.40967
1122.858, 78.60938
1123.340, 95.03467
1123.822, 124.1790
1124.304, 147.2419
1124.786, 161.6494
1125.268, 181.5654
1125.750, 214.7427
1126.233, 250.2700
1126.715, 267.1621
1127.197, 286.5938
1127.679, 346.7441
1128.161, 424.1479
1128.643, 482.9600
1129.125, 523.8196
1129.607, 564.6147
1130.090, 609.2542
1130.572, 637.8484
1131.054, 640.3086
1131.536, 622.5688
1132.018, 579.4988
1132.500, 527.6870
1132.982, 472.6414
1133.464, 418.3269
1133.947, 368.6416
1134.429, 323.4155
1134.911, 280.6436
1135.393, 241.9482
1135.875, 201.6150
1136.357, 153.8252
1136.839, 111.2871
1137.321, 73.13965
1137.803, 45.31445
1138.286, 34.21460
1138.768, 31.10669
1139.250, 20.29419
1139.732, 3.301270
1140.214, 2.449707
1140.696, 20.68970
1141.178, 32.63379
1141.660, 35.62598
1142.142, 41.31396
1142.625, 53.44067
1143.107, 72.05493
1143.589, 97.39941
1144.071, 127.5334
1144.553, 159.4988
1145.035, 193.4519
1145.517, 230.9639
1145.999, 270.5469
1146.482, 305.4475
1146.964, 337.4644
1147.446, 376.3428
1147.928, 425.8330
1148.410, 485.9158
1148.892, 558.9426
1149.374, 638.5601
1149.856, 731.1143
1150.339, 815.1533
1150.821, 866.7156
1151.303, 896.4031
1151.785, 932.9351
1152.267, 966.9431
1152.749, 946.4612
1153.231, 846.0742
1153.713, 742.6929
1154.195, 649.4141
1154.677, 560.5310
1155.160, 472.1990
1155.642, 390.0762
1156.124, 315.9373
1156.606, 250.9727
1157.088, 198.3889
1157.570, 157.4639
1158.052, 118.5051
1158.534, 78.40283
1159.017, 56.50562
1159.499, 56.74927
1159.981, 59.60107
1160.463, 60.21948
1160.945, 53.00073
1161.427, 32.44458
1161.909, 9.016846
1162.391, 2.233154
1162.874, 6.221436
1163.356, 1.067871
1163.838, 14.14648
1164.320, 17.61377
1164.802, 9.980713
1165.284, 9.072266
1165.766, 37.16797
1166.248, 55.54370
1166.730, 47.18872
1167.213, 36.20508
1167.695, 43.99561
1168.177, 56.44751
1168.659, 64.22949
1169.141, 66.19800
1169.623, 55.49951
1170.105, 41.43335
1170.587, 47.91187
1171.069, 87.88721
1171.552, 112.5376
1172.034, 107.6526
1172.516, 98.57056
1172.998, 79.88599
1173.480, 70.47998
1173.962, 82.35376
1174.444, 101.7678
1174.926, 115.5742
1175.409, 124.4143
1175.891, 129.0750
1176.373, 128.8491
1176.855, 136.2776
1177.337, 151.6694
1177.819, 160.7793
1178.301, 161.0354
1178.783, 156.3538
1179.266, 148.6016
1179.748, 148.8647
1180.230, 172.5906
1180.712, 204.2705
1181.194, 225.4031
1181.676, 232.4138
1182.158, 204.3291
1182.640, 162.9692
1183.122, 154.5288
1183.604, 180.4343
1184.087, 212.5171
1184.569, 242.0217
1185.051, 265.0925
1185.533, 279.5881
1186.015, 287.7756
1186.497, 289.3210
1186.979, 286.3359
1187.461, 274.8914
1187.944, 263.2969
1188.426, 264.7927
1188.908, 276.8691
1189.390, 284.3923
1189.872, 288.5823
1190.354, 281.0945
1190.836, 255.4033
1191.318, 249.7654
1191.801, 275.7180
1192.283, 299.9607
1192.765, 303.1909
1193.247, 298.6577
1193.729, 301.6616
1194.211, 310.3137
1194.693, 315.3135
1195.175, 316.4634
1195.657, 312.7468
1196.140, 305.8032
1196.622, 300.4624
1197.104, 296.9575
1197.586, 291.1804
1198.068, 281.1987
1198.550, 269.9607
1199.032, 260.4180
1199.514, 248.7087
1199.996, 223.3901
1200.479, 204.4976
1200.961, 218.8967
1201.443, 243.0076
1201.925, 238.4126
1202.407, 207.9470
1202.889, 188.3293
1203.371, 180.0066
1203.853, 183.4719
1204.336, 205.6028
1204.818, 216.7847
1205.300, 209.9919
1205.782, 196.3440
1206.264, 181.2229
1206.746, 165.4028
1207.228, 149.2695
1207.710, 134.0615
1208.193, 122.9268
1208.675, 115.2922
1209.157, 107.9236
1209.639, 102.7700
1210.121, 112.4744
1210.603, 131.7222
1211.085, 128.6082
1211.567, 89.93945
1212.049, 55.97974
1212.531, 55.37646
1213.014, 60.67993
1213.496, 61.36523
1213.978, 58.46143
1214.460, 49.96802
1214.942, 40.36987
1215.424, 36.31982
1215.906, 35.79565
1216.388, 29.98486
1216.871, 16.96973
1217.353, 11.70557
1217.835, 17.28467
1218.317, 15.50342
1218.799, 1.434814
1219.281, 0.8295900
1219.763, 25.98755
1220.245, 45.31641
1220.728, 27.20312
1221.210, 1.843506
1221.692, 9.678223
1222.174, 21.09961
1222.656, 0.0000000E+00
##END=



