##NAMES=Tinzenite
##RRUFFID=R050251
##IDEAL CHEMISTRY=Ca_6_Al_4_[B_2_Si_8_O_30_](OH)_2_
##LOCALITY=Tinzen, Sursass Valley, Switzerland
##OWNER=RRUFF
##SOURCE=Marcus Origlieri
##DESCRIPTION=Aggregate of yellowish orange prismatic crystals associated with quartz
##STATUS=The identification of this mineral has been confirmed by X-ray diffraction and chemical analysis
##URL=rruff.info/R050251
##MEASURED CHEMISTRY=(Ca_2.96_Mn_2.84_Fe^2+^_0.14_Mg_0.06_)_Î£=6_Al_4.00_[B_2.00_Si_8.00_O_30_](OH)_2_; H_2_O assumed ideal from stoichiometry; B_2_O_3_ estimated by difference
85.009, 0.000
86.404, 3.527
87.798, 89.631
89.193, 163.787
90.587, 193.455
91.981, 228.068
93.375, 298.804
94.768, 474.644
96.161, 964.279
97.554, 1490.783
98.947, 2338.551
100.340, 3345.091
101.732, 4481.628
103.124, 5396.710
104.516, 5393.613
105.908, 5194.561
107.300, 4477.640
108.691, 3591.327
110.082, 3067.357
111.473, 2391.325
112.864, 2139.886
114.254, 2308.913
115.644, 2404.318
117.034, 2220.026
118.424, 1367.985
119.813, 518.153
121.203, 301.892
122.592, 174.267
123.981, 31.862
125.369, 25.031
126.758, 13.016
128.146, 133.192
129.534, 266.650
130.922, 1009.472
132.309, 290.734
133.696, 1123.443
135.083, 1012.225
136.470, 1356.654
137.857, 1700.771
139.243, 1985.611
140.630, 1931.207
142.016, 1677.587
143.401, 1400.778
144.787, 1118.801
146.172, 929.676
147.557, 627.419
148.942, 358.043
150.327, 193.562
151.711, 119.987
153.096, 142.328
154.480, 153.595
155.863, 221.919
157.247, 348.088
158.630, 483.292
160.013, 610.910
161.396, 657.635
162.779, 669.016
164.161, 673.625
165.544, 780.381
166.926, 901.278
168.308, 1013.289
169.689, 1054.367
171.070, 1037.975
172.452, 990.882
173.833, 859.353
175.213, 676.975
176.594, 459.752
177.974, 263.685
179.354, 162.771
180.734, 34.009
182.114, 1.605
183.493, 30.926
184.872, 137.598
186.251, 222.409
187.630, 425.349
189.008, 670.414
190.387, 1024.600
191.765, 1352.904
193.143, 1684.318
194.520, 1981.841
195.898, 2062.466
197.275, 2293.192
198.652, 2419.016
200.029, 2691.937
201.405, 2992.951
202.782, 3175.061
204.158, 3486.259
205.534, 3696.525
206.909, 3846.848
208.285, 3592.229
209.660, 3368.667
211.035, 2992.163
212.410, 2575.717
213.784, 2343.332
215.159, 1933.008
216.533, 1548.711
217.907, 1217.445
219.281, 826.248
220.654, 590.120
222.027, 269.061
223.400, 116.113
224.773, 105.602
226.146, 216.038
227.518, 299.772
228.891, 318.854
230.263, 439.884
231.634, 359.860
233.006, 297.784
234.377, 314.655
235.748, 150.475
237.119, 27.243
238.490, 11.915
239.860, 234.820
241.231, 307.370
242.601, 485.651
243.970, 508.823
245.340, 603.041
246.709, 636.331
248.079, 560.689
249.448, 683.117
250.816, 616.032
252.185, 639.994
253.553, 692.700
254.921, 753.930
256.289, 862.570
257.657, 927.541
259.024, 1131.788
260.391, 1226.267
261.758, 1437.944
263.125, 1576.792
264.492, 1649.788
265.858, 1846.914
267.224, 1857.158
268.590, 1964.506
269.956, 2003.929
271.321, 2205.431
272.687, 1990.001
274.052, 1936.631
275.416, 1755.311
276.781, 1487.036
278.146, 1159.803
279.510, 916.608
280.874, 890.453
282.237, 612.334
283.601, 679.251
284.964, 606.202
286.327, 705.172
287.690, 786.131
289.053, 859.755
290.416, 1043.684
291.778, 1319.603
293.140, 1594.195
294.502, 1944.428
295.863, 2403.340
297.225, 2957.254
298.586, 3583.099
299.947, 3866.927
301.308, 4284.765
302.668, 4713.616
304.029, 5112.479
305.389, 5309.357
306.749, 5188.252
308.108, 4645.163
309.468, 4213.090
310.827, 3577.037
312.186, 3360.004
313.545, 3371.032
314.903, 3259.099
316.262, 3253.215
317.620, 3329.378
318.978, 3865.591
320.336, 3995.640
321.693, 3810.362
323.051, 3469.667
324.408, 3239.676
325.765, 2968.617
327.121, 3041.592
328.478, 2908.615
329.834, 2959.683
331.190, 3133.798
332.546, 3480.961
333.902, 3685.168
335.257, 4548.428
336.612, 5117.741
337.967, 4566.120
339.322, 4337.567
340.677, 4294.095
342.031, 4291.713
343.385, 4204.431
344.739, 4160.770
346.093, 4125.715
347.446, 4030.229
348.799, 4280.294
350.153, 4202.446
351.505, 4104.645
352.858, 3578.887
354.210, 2765.168
355.563, 2201.484
356.915, 1546.837
358.267, 1049.395
359.618, 713.139
360.969, 388.005
362.321, 328.858
363.672, 149.291
365.022, 71.331
366.373, 97.687
367.723, 35.377
369.073, 148.438
370.423, 230.107
371.773, 282.804
373.122, 276.529
374.471, 411.282
375.821, 514.062
377.169, 521.870
378.518, 775.705
379.866, 923.565
381.215, 1281.453
382.563, 1652.366
383.910, 2036.305
385.258, 2371.270
386.605, 2710.259
387.952, 2851.697
389.299, 3012.865
390.646, 3005.518
391.992, 2922.103
393.339, 2897.571
394.685, 2700.857
396.031, 2455.832
397.376, 2416.868
398.722, 2164.122
400.067, 2154.647
401.412, 1951.971
402.757, 1865.217
404.101, 1895.488
405.446, 1996.784
406.790, 2178.105
408.134, 2693.452
409.478, 3219.825
410.821, 3880.222
412.165, 4409.642
413.508, 4553.102
414.851, 4857.590
416.193, 4549.111
417.536, 4251.656
418.878, 4134.224
420.220, 3983.815
421.562, 3665.428
422.904, 3394.060
424.245, 3341.709
425.586, 3173.379
426.927, 2865.063
428.268, 2799.766
429.609, 2432.482
430.949, 2102.214
432.289, 2012.961
433.629, 1924.722
434.969, 1599.497
436.309, 1707.284
437.648, 1629.086
438.987, 1762.900
440.326, 1875.727
441.665, 1841.565
443.003, 1905.415
444.342, 1879.275
445.680, 1651.147
447.018, 1335.030
448.355, 1102.924
449.693, 816.828
451.030, 712.744
452.367, 528.671
453.704, 502.607
455.041, 397.587
456.377, 381.511
457.713, 299.478
459.049, 300.455
460.385, 317.440
461.721, 442.437
463.056, 685.443
464.391, 777.458
465.726, 731.483
467.061, 856.517
468.395, 781.560
469.730, 794.755
471.064, 1019.970
472.398, 959.663
473.731, 1220.932
475.065, 1383.382
476.398, 1775.521
477.731, 2310.683
479.064, 3006.220
480.397, 3717.459
481.729, 4333.428
483.062, 4800.129
484.394, 4538.675
485.725, 4168.194
487.057, 3380.781
488.389, 2643.458
489.720, 2065.210
491.051, 1512.016
492.382, 1216.981
493.712, 1021.964
495.043, 827.238
496.373, 844.834
497.703, 868.444
499.032, 959.799
500.362, 1368.294
501.691, 1358.901
503.020, 1410.992
504.349, 1432.318
505.678, 1402.282
507.007, 1224.321
508.335, 1058.376
509.663, 776.961
510.991, 575.050
512.319, 395.655
513.646, 208.696
514.973, 96.723
516.300, 36.747
517.627, 4.231
518.954, 114.220
520.280, 130.922
521.607, 161.401
522.933, 177.622
524.259, 185.942
525.584, 166.369
526.910, 122.893
528.235, 8.876
529.560, 60.108
530.885, 253.885
532.209, 284.251
533.534, 418.608
534.858, 556.955
536.182, 629.292
537.506, 647.618
538.829, 722.933
540.152, 806.236
541.476, 820.527
542.799, 976.808
544.121, 979.075
545.444, 922.331
546.766, 1122.573
548.088, 1009.833
549.410, 1040.135
550.732, 1053.500
552.053, 1078.931
553.375, 1099.458
554.696, 1150.296
556.017, 1182.795
557.337, 1237.450
558.658, 1252.201
559.978, 1237.950
561.298, 1229.688
562.618, 1437.411
563.938, 1511.116
565.257, 1721.805
566.576, 1951.476
567.895, 1999.130
569.214, 2195.766
570.533, 2381.384
571.851, 2406.983
573.170, 2478.564
574.488, 2535.125
575.805, 2412.667
577.123, 2405.189
578.440, 2495.692
579.758, 2567.173
581.075, 2898.634
582.391, 2969.075
583.708, 3410.494
585.024, 3617.891
586.341, 3849.267
587.657, 3892.620
588.972, 3803.952
590.288, 3560.261
591.603, 3229.546
592.918, 2624.851
594.233, 2364.090
595.548, 2169.454
596.863, 1815.646
598.177, 1514.814
599.491, 1508.958
600.805, 1390.078
602.119, 1308.172
603.432, 1297.242
604.746, 1208.286
606.059, 1159.305
607.372, 1193.298
608.685, 1010.265
609.997, 1130.207
611.309, 1082.122
612.621, 971.010
613.933, 1094.871
615.245, 1089.706
616.557, 1078.513
617.868, 1099.292
619.179, 1040.044
620.490, 1007.769
621.801, 775.464
623.111, 770.132
624.421, 474.771
625.731, 404.381
627.041, 170.065
628.351, 171.349
629.660, 66.153
630.970, 107.763
632.279, 30.245
633.588, 54.748
634.896, 54.248
636.205, 55.424
637.513, 4.875
638.821, 107.468
640.129, 204.378
641.437, 266.493
642.744, 392.267
644.051, 403.694
645.358, 417.427
646.665, 522.119
647.972, 526.023
649.278, 347.980
650.584, 350.135
651.890, 149.706
653.196, 132.298
654.502, 37.680
655.807, 23.523
657.113, 27.413
658.418, 60.680
659.722, 99.883
661.027, 87.428
662.331, 97.225
663.636, 64.587
664.940, 3.549
666.244, 50.256
667.547, 120.491
668.851, 146.601
670.154, 407.363
671.457, 555.613
672.760, 741.339
674.062, 1119.034
675.365, 1355.214
676.667, 1764.717
677.969, 2294.281
679.271, 2597.834
680.572, 2857.105
681.874, 2965.778
683.175, 2884.604
684.476, 2700.088
685.777, 2370.188
687.077, 2081.666
688.378, 1607.102
689.678, 1456.495
690.978, 1184.847
692.278, 902.156
693.577, 729.423
694.877, 671.496
696.176, 574.755
697.475, 548.325
698.774, 602.066
700.072, 590.122
701.371, 696.135
702.669, 809.106
703.967, 985.441
705.265, 1244.922
706.562, 1455.767
707.860, 1803.568
709.157, 2083.328
710.454, 2903.042
711.751, 3426.715
713.047, 4455.343
714.344, 5479.927
715.640, 6691.466
716.936, 7789.962
718.232, 9234.412
719.527, 10636.819
720.823, 11281.181
722.118, 11800.499
723.413, 11815.774
724.708, 11307.005
726.002, 10352.191
727.297, 9089.335
728.591, 7545.436
729.885, 6377.493
731.179, 5240.506
732.472, 4053.477
733.766, 3328.404
735.059, 2640.289
736.352, 2365.131
737.645, 1610.930
738.937, 1330.687
740.230, 1098.400
741.522, 823.072
742.814, 767.702
744.106, 627.289
745.397, 625.834
746.689, 433.337
747.980, 384.799
749.271, 506.217
750.562, 359.595
751.853, 493.929
753.143, 415.221
754.433, 548.472
755.723, 473.680
757.013, 477.849
758.303, 629.976
759.592, 622.062
760.881, 846.106
762.170, 947.110
763.459, 1220.074
764.748, 1229.996
766.036, 1314.879
767.325, 1588.721
768.613, 1563.523
769.901, 1728.285
771.188, 1514.007
772.476, 1332.689
773.763, 1217.332
775.050, 967.936
776.337, 872.499
777.624, 695.023
778.910, 615.508
780.196, 451.954
781.482, 366.360
782.768, 215.583
784.054, 106.754
785.339, 69.411
786.625, 114.453
787.910, 34.723
789.195, 9.358
790.479, 111.627
791.764, 203.061
793.048, 114.297
794.332, 200.336
795.616, 141.201
796.900, 168.989
798.183, 180.831
799.467, 266.827
800.750, 204.022
802.033, 129.383
803.316, 147.869
804.598, 32.408
805.880, 113.364
807.163, 88.504
808.445, 1.019
809.726, 225.482
811.008, 107.170
812.289, 224.688
813.570, 128.063
814.851, 158.924
816.132, 170.518
817.413, 16.453
818.693, 91.393
819.973, 45.569
821.253, 21.669
822.533, 8.028
823.813, 72.175
825.092, 11.147
826.371, 55.510
827.650, 50.137
828.929, 119.732
830.208, 264.307
831.486, 183.888
832.764, 185.478
834.042, 310.088
835.320, 351.728
836.598, 377.396
837.875, 504.089
839.152, 438.796
840.429, 431.486
841.706, 620.160
842.983, 403.816
844.259, 519.455
845.536, 574.077
846.812, 471.682
848.088, 526.271
849.363, 430.844
850.639, 468.401
851.914, 492.943
853.189, 478.493
854.464, 570.057
855.739, 604.618
857.013, 626.405
858.288, 630.730
859.562, 705.293
860.836, 775.848
862.110, 871.394
863.383, 946.927
864.656, 1045.462
865.930, 1029.999
867.203, 1103.523
868.475, 1202.706
869.748, 1231.678
871.020, 1390.046
872.292, 1390.532
873.564, 1411.028
874.836, 1559.545
876.108, 1560.092
877.379, 1639.654
878.650, 1725.205
879.922, 1765.742
881.192, 1958.302
882.463, 1918.851
883.733, 2195.399
885.004, 2368.977
886.274, 2696.541
887.544, 2886.096
888.813, 3145.654
890.083, 3248.208
891.352, 3633.750
892.621, 3906.312
893.890, 3934.893
895.159, 4115.461
896.427, 4327.018
897.695, 4207.564
898.964, 4486.106
900.232, 4180.638
901.499, 4255.116
902.767, 4115.629
904.034, 4035.982
905.301, 3831.479
906.568, 3772.965
907.835, 3742.468
909.102, 3540.961
910.368, 3420.864
911.634, 3224.518
912.900, 3084.417
914.166, 2771.908
915.432, 2666.396
916.697, 2433.886
917.962, 2268.373
919.227, 2229.873
920.492, 2095.364
921.757, 2072.859
923.021, 2015.345
924.285, 2025.834
925.550, 2090.314
926.813, 2015.785
928.077, 2170.246
929.341, 2101.699
930.604, 2256.142
931.867, 2412.573
933.130, 2351.996
934.393, 2467.306
935.655, 2740.977
936.918, 2652.086
938.180, 3066.875
939.442, 3054.148
940.703, 3394.381
941.965, 3822.549
943.226, 4050.325
944.488, 4366.557
945.749, 4751.439
947.009, 5069.961
948.270, 5171.236
949.530, 5290.814
950.791, 5457.699
952.051, 5627.238
953.311, 5883.773
954.570, 5942.056
955.830, 6546.244
957.089, 6968.197
958.348, 7216.690
959.607, 7360.116
960.866, 7464.701
962.124, 7420.761
963.383, 7270.376
964.641, 7202.557
965.899, 6882.426
967.156, 6790.535
968.414, 6614.803
969.671, 6538.535
970.928, 6718.674
972.185, 6676.680
973.442, 6919.043
974.699, 7221.988
975.955, 7530.227
977.211, 8029.932
978.468, 8424.111
979.723, 8960.275
980.979, 9270.396
982.234, 9414.607
983.490, 9709.370
984.745, 9258.812
986.000, 9270.020
987.254, 9092.637
988.509, 8670.649
989.763, 8826.865
991.017, 8738.106
992.271, 8683.072
993.525, 8809.282
994.779, 8854.161
996.032, 8844.060
997.285, 8916.037
998.538, 8698.965
999.791, 7955.188
1001.044, 7808.404
1002.296, 7006.570
1003.548, 6835.414
1004.800, 6466.272
1006.052, 6139.332
1007.304, 5924.422
1008.555, 5785.982
1009.807, 5672.904
1011.058, 5340.348
1012.309, 5041.333
1013.559, 4693.326
1014.810, 4323.788
1016.060, 3783.413
1017.310, 3505.520
1018.560, 3144.396
1019.810, 2645.875
1021.060, 2582.521
1022.309, 2330.229
1023.558, 2170.822
1024.807, 2146.627
1026.056, 2044.809
1027.305, 2043.158
1028.553, 1928.821
1029.801, 1988.783
1031.049, 1848.069
1032.297, 1720.047
1033.545, 1598.694
1034.793, 1705.272
1036.040, 1552.140
1037.287, 1314.154
1038.534, 1471.067
1039.781, 1562.961
1041.027, 1666.877
1042.274, 1418.039
1043.520, 1464.534
1044.766, 1480.843
1046.012, 1419.133
1047.257, 1517.197
1048.503, 1485.227
1049.748, 1476.136
1050.993, 1438.123
1052.238, 1589.318
1053.483, 1451.417
1054.727, 1422.899
1055.971, 1500.809
1057.216, 1401.230
1058.459, 1519.054
1059.703, 1365.037
1060.947, 1316.315
1062.190, 1399.668
1063.433, 1359.303
1064.676, 1248.883
1065.919, 1156.202
1067.162, 1115.114
1068.404, 1173.858
1069.646, 998.249
1070.888, 1057.247
1072.130, 1147.930
1073.372, 1067.588
1074.613, 1117.711
1075.855, 1163.328
1077.096, 1189.334
1078.337, 1287.019
1079.578, 1443.440
1080.818, 1331.838
1082.059, 1517.747
1083.299, 1533.787
1084.539, 1562.250
1085.779, 1506.400
1087.018, 1395.225
1088.258, 1353.267
1089.497, 1241.832
1090.736, 1213.061
1091.975, 1027.176
1093.213, 1065.826
1094.452, 1235.131
1095.690, 1128.166
1096.928, 818.695
1098.166, 1104.717
1099.404, 915.273
1100.642, 921.835
1101.879, 853.800
1103.116, 912.628
1104.353, 854.294
1105.590, 894.115
1106.827, 773.901
1108.063, 892.730
1109.299, 735.158
1110.536, 761.604
1111.771, 801.532
1113.007, 638.756
1114.243, 618.963
1115.478, 549.629
1116.713, 576.447
1117.948, 519.469
1119.183, 464.422
1120.418, 450.342
1121.652, 769.088
1122.886, 848.832
1124.120, 616.272
1125.354, 499.754
1126.588, 316.057
1127.821, 304.427
1129.055, 128.121
1130.288, 223.739
1131.521, 284.685
1132.753, 126.706
1133.986, 4.324
1135.218, 130.074
1136.450, 274.889
1137.682, 6.888
1138.914, 221.396
1140.146, 48.800
1141.377, 11.108
1142.609, 69.671
1143.840, 65.847
1145.071, 46.104
1146.301, 58.183
1147.532, 14.361
1148.762, 15.991
1149.992, 22.575
1151.222, 77.732
1152.452, 108.937
1153.682, 47.590
1154.911, 31.359
1156.140, 38.045
1157.369, 74.881
1158.598, 18.710
1159.827, 10.622
1161.055, 46.568
1162.284, 53.384
1163.512, 45.709
1164.740, 32.764
1165.967, 60.259
1167.195, 46.184
1168.422, 101.114
1169.650, 85.099
1170.877, 77.973
1172.103, 96.650
1173.330, 149.935
1174.557, 88.376
1175.783, 81.387
1177.009, 44.720
1178.235, 101.903
1179.461, 40.738
1180.686, 27.120
1181.912, 121.217
1183.137, 49.553
1184.362, 32.229
1185.587, 29.879
1186.811, 2.599
1188.036, 37.977
1189.260, 80.743
1190.484, 84.396
1191.708, 111.748
1192.932, 110.669
1194.155, 26.487
1195.378, 28.188
1196.602, 34.779
1197.825, 159.267
1199.047, 21.657
1200.270, 122.180
1201.492, 15.359
1202.715, 154.426
1203.937, 72.602
1205.159, 78.102
1206.380, 116.840
1207.602, 78.314
1208.823, 95.325
1210.044, 42.795
1211.265, 13.773
1212.486, 0.676
1213.707, 7.348
1214.927, 38.133
1216.147, 50.220
1217.367, 10.558
1218.587, 115.550
1219.807, 3.955
1221.027, 70.477
1222.246, 128.856
1223.465, 84.191
1224.684, 124.479
1225.903, 171.720
1227.121, 178.301
1228.340, 103.050
1229.558, 265.132
1230.776, 165.165
1231.994, 241.139
1233.212, 121.049
1234.429, 270.904
1235.646, 156.690
1236.864, 92.407
1238.081, 264.058
1239.297, 160.638
1240.514, 245.148
1241.730, 319.585
1242.947, 216.959
1244.163, 148.270
1245.378, 172.521
1246.594, 326.716
1247.810, 411.685
1249.025, 215.849
1250.240, 262.338
1251.455, 234.464
1252.670, 241.496
1253.885, 237.244
1255.099, 330.126
1256.313, 323.487
1257.527, 210.372
1258.741, 336.441
1259.955, 321.123
1261.168, 192.155
1262.382, 167.978
1263.595, 309.598
1264.808, 310.354
1266.021, 301.883
1267.233, 337.075
1268.446, 294.200
1269.658, 309.221
1270.870, 290.432
1272.082, 301.869
1273.294, 240.059
1274.505, 150.896
1275.716, 143.941
1276.928, 270.670
1278.139, 218.889
1279.349, 406.191
1280.560, 252.782
1281.770, 222.298
1282.981, 161.704
1284.191, 242.122
1285.401, 252.848
1286.610, 230.521
1287.820, 146.537
1289.029, 207.066
1290.239, 151.080
1291.448, 165.204
1292.656, 111.422
1293.865, 223.459
1295.073, 216.041
1296.282, 170.654
1297.490, 122.447
1298.698, 202.664
1299.906, 207.152
1301.113, 142.462
1302.320, 191.360
1303.528, 144.012
1304.735, 136.195
1305.942, 89.479
1307.148, 98.382
1308.355, 157.521
1309.561, 175.929
1310.767, 142.702
1311.973, 102.046
1313.179, 129.979
1314.384, 18.208
1315.590, 165.365
1316.795, 51.000
1318.000, 151.865
1319.205, 151.751
1320.410, 70.062
1321.614, 148.302
1322.819, 112.554
1324.023, 33.692
1325.227, 109.391
1326.431, 161.564
1327.634, 164.801
1328.838, 224.149
1330.041, 56.112
1331.244, 292.209
1332.447, 166.591
1333.650, 183.612
1334.852, 34.689
1336.055, 83.560
1337.257, 134.393
1338.459, 179.490
1339.661, 202.996
1340.862, 142.724
1342.064, 157.781
1343.265, 116.008
1344.466, 3.950
1345.667, 162.814
1346.868, 102.673
1348.068, 265.798
1349.269, 147.550
1350.469, 22.939
1351.669, 184.159
1352.869, 190.906
1354.069, 148.808
1355.268, 162.148
1356.468, 1.048
1357.667, 157.442
1358.866, 175.333
1360.065, 60.713
1361.263, 129.974
1362.462, 0.000
##END=



