##NAMES=Topaz
##RRUFFID=R050405
##IDEAL CHEMISTRY=Al_2_SiO_4_F_2_
##LOCALITY=Amelia, Virginia, USA
##OWNER=RRUFF
##SOURCE=Gerry Gibbs
##DESCRIPTION=Colorless cleavage fragment
##STATUS=The identification of this mineral has been confirmed by X-ray diffraction and chemical analysis
##URL=rruff.info/R050405
##MEASURED CHEMISTRY=Al_2.00_Si_1.00_O_4_(F_0.75_(OH)_0.25_)_2_
101.4971, 0.0000000E+00
101.9792, 0.3054580
102.4613, 0.6710740
102.9434, 0.7896880
103.4255, 0.8301580
103.9077, 0.5303150
104.3898, 0.2071150
104.8719, 2.9980000E-03
105.3540, 2.5249999E-03
105.8361, 0.5199660
106.3182, 0.9851910
106.8004, 1.250065
107.2825, 1.539738
107.7646, 1.941998
108.2467, 2.296970
108.7288, 2.409271
109.2109, 2.246292
109.6931, 1.362305
110.1752, 0.8778420
110.6573, 1.499847
111.1394, 2.545353
111.6215, 3.270798
112.1036, 3.148075
112.5858, 2.090008
113.0679, 1.281281
113.5500, 0.6677060
114.0321, 0.2456780
114.5142, 0.1428790
114.9964, 0.4244800
115.4785, 0.8337520
115.9606, 1.090004
116.4427, 1.212040
116.9248, 1.220837
117.4069, 1.062897
117.8891, 0.7878420
118.3712, 0.4694250
118.8533, 9.2231996E-02
119.3354, 0.1868740
119.8175, 0.2915120
120.2996, 0.1786940
120.7818, 5.1511999E-02
121.2639, 0.3445150
121.7460, 0.7206590
122.2281, 1.178238
122.7102, 2.068342
123.1923, 2.781521
123.6745, 2.887093
124.1566, 2.332258
124.6387, 1.538429
125.1208, 1.076698
125.6029, 1.021648
126.0850, 1.172810
126.5672, 1.674095
127.0493, 2.180079
127.5314, 2.442562
128.0135, 2.354994
128.4956, 2.037794
128.9777, 1.828005
129.4599, 1.869209
129.9420, 1.870560
130.4241, 1.804478
130.9062, 1.723471
131.3883, 1.675114
131.8704, 1.633032
132.3526, 1.559326
132.8347, 1.511250
133.3168, 1.505829
133.7989, 1.571836
134.2810, 1.832657
134.7632, 2.080904
135.2453, 2.146843
135.7274, 1.751194
136.2095, 1.085466
136.6916, 0.8180770
137.1737, 1.340397
137.6559, 2.035156
138.1380, 2.214094
138.6201, 1.795229
139.1022, 1.397881
139.5843, 1.516605
140.0664, 1.891636
140.5486, 2.160608
141.0307, 2.119751
141.5128, 1.858061
141.9949, 1.633142
142.4770, 1.427727
142.9591, 1.292395
143.4413, 1.272804
143.9234, 1.284369
144.4055, 1.265163
144.8876, 1.123569
145.3697, 0.8671420
145.8518, 0.7288420
146.3340, 0.6492610
146.8161, 0.5896720
147.2982, 0.5218260
147.7803, 0.4779720
148.2624, 0.5429690
148.7445, 0.8687310
149.2267, 1.606871
149.7088, 1.959726
150.1909, 1.427919
150.6730, 0.9762610
151.1551, 1.214142
151.6372, 2.188190
152.1194, 3.437750
152.6015, 4.457840
153.0836, 4.953653
153.5657, 6.154623
154.0478, 8.521994
154.5299, 11.38018
155.0121, 14.46357
155.4942, 17.82096
155.9763, 20.54001
156.4584, 20.87796
156.9405, 18.88500
157.4226, 16.13587
157.9048, 12.14828
158.3869, 7.698687
158.8690, 4.258820
159.3511, 2.490572
159.8332, 1.676252
160.3153, 1.063354
160.7975, 0.6415580
161.2796, 0.3970890
161.7617, 0.3606190
162.2438, 0.5218180
162.7259, 0.7649500
163.2081, 1.207613
163.6902, 1.614662
164.1723, 1.829184
164.6544, 1.835344
165.1365, 1.661890
165.6186, 1.224871
166.1008, 0.3943750
166.5829, 9.2166997E-02
167.0650, 0.1667080
167.5471, 0.6142940
168.0292, 0.9539180
168.5113, 1.107946
168.9935, 1.148058
169.4756, 1.190229
169.9577, 1.262957
170.4398, 1.264042
170.9219, 1.119606
171.4040, 0.9461190
171.8862, 0.8351920
172.3683, 0.8262940
172.8504, 0.9054600
173.3325, 1.023582
173.8146, 1.383755
174.2967, 1.513117
174.7789, 1.197678
175.2610, 0.7089560
175.7431, 0.3605370
176.2252, 0.2909740
176.7073, 0.4308170
177.1894, 0.5659430
177.6716, 0.8047280
178.1537, 0.9441090
178.6358, 0.8644410
179.1179, 0.6604060
179.6000, 0.5350360
180.0821, 0.6057660
180.5643, 0.7972970
181.0464, 0.8650360
181.5285, 0.7318760
182.0106, 0.6030460
182.4927, 0.6214870
182.9748, 0.7458530
183.4570, 0.7763060
183.9391, 0.5458740
184.4212, 0.2094880
184.9033, 9.9476002E-02
185.3854, 0.3283060
185.8675, 0.6016650
186.3497, 0.6552370
186.8318, 0.4825330
187.3139, 0.3401620
187.7960, 0.4235730
188.2781, 0.5591370
188.7602, 0.5335270
189.2424, 0.2546250
189.7245, 8.0831997E-02
190.2066, 0.2005140
190.6887, 4.5494001E-02
191.1708, 0.1148760
191.6530, 0.1988720
192.1351, 0.2389760
192.6172, 0.2405610
193.0993, 0.1930580
193.5814, 0.1504400
194.0635, 0.2515960
194.5457, 0.6414850
195.0278, 0.8914720
195.5099, 0.8631060
195.9920, 0.6942460
196.4741, 0.4977680
196.9562, 0.3212320
197.4384, 0.1793230
197.9205, 0.1120720
198.4026, 0.2088490
198.8847, 0.2579400
199.3668, 0.2087690
199.8489, 0.1081500
200.3311, 5.8699999E-04
200.8132, 9.7162001E-02
201.2953, 0.1731470
201.7774, 0.1968360
202.2595, 5.6279998E-02
202.7416, 1.1187000E-02
203.2238, 7.6922998E-02
203.7059, 0.2411370
204.1880, 0.3645380
204.6701, 0.3818470
205.1522, 0.3224050
205.6343, 0.3159620
206.1165, 0.4517310
206.5986, 0.5262410
207.0807, 0.4566440
207.5628, 0.3008380
208.0449, 0.1574710
208.5270, 7.2414003E-02
209.0092, 3.8642999E-02
209.4913, 4.9697999E-02
209.9734, 0.1260660
210.4555, 0.2124790
210.9376, 0.2907680
211.4197, 0.3637680
211.9019, 0.4730780
212.3840, 0.7079090
212.8661, 0.9170280
213.3482, 0.6903510
213.8303, 0.2735900
214.3124, 1.157360
214.7946, 1.336632
215.2767, 0.9553870
215.7588, 0.8086660
216.2409, 1.345219
216.7230, 2.271343
217.2052, 2.997614
217.6873, 3.467842
218.1694, 3.839478
218.6515, 4.185869
219.1336, 4.511984
219.6157, 4.902964
220.0979, 5.393993
220.5800, 5.986132
221.0621, 6.729330
221.5442, 7.679890
222.0263, 8.558294
222.5084, 9.002510
222.9906, 8.961884
223.4727, 9.058334
223.9548, 9.730183
224.4369, 10.43676
224.9190, 10.75776
225.4011, 10.59361
225.8833, 10.33986
226.3654, 10.48075
226.8475, 11.08262
227.3296, 11.75350
227.8117, 12.38150
228.2938, 13.07406
228.7760, 13.82981
229.2581, 14.66741
229.7402, 15.73091
230.2223, 17.26722
230.7044, 19.43406
231.1865, 21.60002
231.6687, 23.30742
232.1508, 25.25548
232.6329, 27.62905
233.1150, 30.57536
233.5971, 34.45924
234.0792, 39.63471
234.5614, 45.64035
235.0435, 54.38516
235.5256, 67.24731
236.0077, 81.40416
236.4898, 96.24271
236.9719, 111.0409
237.4541, 124.1781
237.9362, 133.1191
238.4183, 135.6843
238.9004, 139.0411
239.3825, 143.3550
239.8646, 148.1440
240.3468, 155.4589
240.8289, 164.3614
241.3110, 169.6166
241.7931, 164.3975
242.2752, 145.0797
242.7573, 124.3932
243.2395, 99.00656
243.7216, 74.96149
244.2037, 55.94428
244.6858, 42.48287
245.1679, 32.98191
245.6501, 25.89334
246.1322, 21.73210
246.6143, 18.56610
247.0964, 16.49145
247.5785, 15.18178
248.0606, 14.61226
248.5428, 14.71591
249.0249, 15.17834
249.5070, 15.73115
249.9891, 16.39797
250.4712, 17.00939
250.9533, 17.72546
251.4355, 18.28930
251.9176, 18.46766
252.3997, 18.26489
252.8818, 17.89623
253.3639, 17.48783
253.8460, 17.05513
254.3282, 16.84656
254.8103, 16.79003
255.2924, 17.01505
255.7745, 17.72338
256.2566, 18.87950
256.7387, 20.08554
257.2209, 21.00323
257.7030, 21.72651
258.1851, 22.82725
258.6672, 24.57889
259.1493, 26.48036
259.6314, 28.05868
260.1136, 29.38764
260.5957, 31.04788
261.0778, 33.35005
261.5599, 36.30936
262.0420, 39.61726
262.5241, 42.56088
263.0063, 46.71347
263.4884, 52.64087
263.9705, 60.45019
264.4526, 71.07589
264.9347, 84.27485
265.4168, 101.5571
265.8990, 123.8157
266.3811, 151.5062
266.8632, 183.6292
267.3453, 223.2759
267.8274, 268.8642
268.3095, 310.2691
268.7917, 351.9259
269.2738, 378.1130
269.7559, 370.4084
270.2380, 324.4759
270.7201, 266.8005
271.2022, 208.5578
271.6844, 151.4249
272.1665, 106.3269
272.6486, 78.49021
273.1307, 62.71711
273.6128, 52.72870
274.0949, 48.39048
274.5771, 46.98388
275.0592, 47.98104
275.5413, 50.86406
276.0234, 52.64427
276.5055, 52.87570
276.9876, 51.77229
277.4698, 49.18673
277.9519, 45.42852
278.4340, 42.04130
278.9161, 39.61189
279.3982, 38.22908
279.8803, 38.29410
280.3625, 40.03661
280.8446, 43.07231
281.3267, 46.45242
281.8088, 50.65117
282.2909, 56.88466
282.7730, 65.64468
283.2552, 76.93281
283.7373, 90.92283
284.2194, 108.2421
284.7015, 127.2932
285.1836, 149.2152
285.6658, 171.9276
286.1479, 193.1610
286.6300, 213.8918
287.1121, 230.4192
287.5942, 233.4644
288.0764, 219.8453
288.5585, 199.5110
289.0406, 171.8909
289.5227, 141.8613
290.0048, 114.2920
290.4869, 90.41573
290.9691, 70.33186
291.4512, 54.32521
291.9333, 43.00566
292.4154, 34.00421
292.8975, 27.54287
293.3796, 22.59649
293.8618, 18.69154
294.3439, 15.69972
294.8260, 13.39349
295.3081, 11.58589
295.7902, 10.37027
296.2723, 9.221443
296.7545, 7.982327
297.2366, 6.846872
297.7187, 5.957054
298.2008, 5.315483
298.6829, 4.804060
299.1650, 4.357304
299.6472, 3.992613
300.1293, 3.512697
300.6114, 2.700249
301.0935, 1.956907
301.5756, 1.474844
302.0577, 1.227493
302.5399, 1.075193
303.0220, 0.9382760
303.5041, 0.8139040
303.9862, 0.6185570
304.4683, 0.2358020
304.9504, 8.0504999E-02
305.4326, 0.2456860
305.9147, 0.2822270
306.3968, 0.2143210
306.8789, 5.8169998E-03
307.3610, 0.2664380
307.8431, 0.2289310
308.3253, 0.4258330
308.8074, 0.8983570
309.2895, 0.8671530
309.7716, 0.5868930
310.2537, 0.4025230
310.7358, 0.4915730
311.2180, 0.6381030
311.7001, 0.2698250
312.1822, 1.011942
312.6643, 1.957829
313.1464, 1.982788
313.6285, 1.805151
314.1107, 2.034716
314.5928, 2.837469
315.0749, 3.879667
315.5570, 4.720444
316.0391, 5.366943
316.5212, 5.780130
317.0034, 5.721737
317.4855, 5.621458
317.9676, 5.714119
318.4497, 5.992943
318.9318, 6.315125
319.4139, 6.567862
319.8961, 6.740238
320.3782, 7.019730
320.8603, 7.320496
321.3424, 7.833389
321.8245, 8.774483
322.3066, 9.999916
322.7888, 11.16957
323.2709, 11.99152
323.7530, 12.53194
324.2351, 13.23458
324.7172, 13.98849
325.1993, 15.10654
325.6815, 16.74578
326.1636, 18.74741
326.6457, 20.81200
327.1278, 22.69321
327.6099, 24.78957
328.0920, 28.04992
328.5742, 32.50724
329.0563, 38.20256
329.5384, 44.88509
330.0205, 52.76346
330.5026, 62.33611
330.9847, 73.77399
331.4669, 86.04912
331.9490, 98.64478
332.4311, 112.5828
332.9132, 122.3118
333.3953, 127.2237
333.8774, 127.3023
334.3596, 120.9999
334.8417, 108.8299
335.3238, 93.93872
335.8059, 78.04403
336.2880, 61.05357
336.7701, 47.06716
337.2523, 37.19330
337.7344, 29.53192
338.2165, 23.42710
338.6986, 18.68743
339.1807, 14.95096
339.6628, 12.13234
340.1450, 10.12267
340.6271, 8.545204
341.1092, 7.578152
341.5913, 6.721909
342.0735, 5.665638
342.5556, 4.632387
343.0377, 3.941328
343.5198, 3.768826
344.0019, 3.806309
344.4840, 3.522802
344.9662, 2.816254
345.4483, 2.229292
345.9304, 2.010336
346.4125, 1.927446
346.8946, 1.845978
347.3767, 1.742313
347.8589, 1.637556
348.3410, 1.543554
348.8231, 1.460409
349.3052, 1.415016
349.7873, 1.432108
350.2694, 1.465752
350.7516, 1.401257
351.2337, 1.294809
351.7158, 1.379986
352.1979, 1.874107
352.6800, 2.673681
353.1621, 3.433088
353.6443, 4.120831
354.1264, 4.829311
354.6085, 5.471848
355.0906, 6.191769
355.5727, 7.230942
356.0548, 8.642117
356.5370, 10.43804
357.0191, 12.71279
357.5012, 15.48173
357.9833, 18.43071
358.4654, 21.74741
358.9475, 24.96976
359.4297, 27.82123
359.9118, 30.50231
360.3939, 31.78492
360.8760, 30.38771
361.3581, 26.67038
361.8402, 22.22550
362.3224, 16.88655
362.8045, 11.79567
363.2866, 8.155653
363.7687, 5.849653
364.2508, 4.062519
364.7329, 2.550400
365.2151, 1.329935
365.6972, 0.4519630
366.1793, 7.2114997E-02
366.6614, 0.4048600
367.1435, 0.5950240
367.6256, 0.6504540
368.1078, 0.6325990
368.5899, 0.4842720
369.0720, 0.3568670
369.5541, 0.4083460
370.0362, 0.5802120
370.5183, 0.6634730
371.0005, 0.5256750
371.4826, 0.2346020
371.9647, 8.9990003E-03
372.4468, 0.1053180
372.9289, 0.2076630
373.4110, 0.3747290
373.8932, 0.5241170
374.3753, 0.4374750
374.8574, 2.2670999E-02
375.3395, 0.3992270
375.8216, 0.3867240
376.3037, 0.1123370
376.7859, 0.6083470
377.2680, 1.101124
377.7501, 1.545210
378.2322, 1.897173
378.7143, 2.158438
379.1964, 2.356476
379.6786, 2.489315
380.1607, 2.569063
380.6428, 2.756859
381.1249, 3.206402
381.6070, 3.580345
382.0891, 3.700041
382.5713, 3.667843
383.0534, 3.685230
383.5355, 3.841612
384.0176, 4.071253
384.4997, 4.233185
384.9818, 4.277815
385.4640, 4.331409
385.9461, 4.325771
386.4282, 4.374052
386.9103, 4.655392
387.3924, 5.150982
387.8745, 5.591265
388.3567, 5.646399
388.8388, 5.216850
389.3209, 5.134249
389.8030, 5.640589
390.2851, 6.185787
390.7672, 6.553400
391.2494, 6.799978
391.7315, 7.041510
392.2136, 7.332741
392.6957, 7.720354
393.1778, 8.392050
393.6599, 9.624556
394.1421, 10.76294
394.6242, 11.51129
395.1063, 12.28432
395.5884, 13.48534
396.0706, 15.20171
396.5527, 17.15660
397.0348, 18.96108
397.5169, 20.47914
397.9990, 22.35333
398.4811, 24.50507
398.9633, 27.08980
399.4454, 30.28692
399.9275, 33.99011
400.4096, 37.97375
400.8917, 42.06279
401.3738, 46.30105
401.8560, 50.98977
402.3381, 56.65966
402.8202, 61.73295
403.3023, 66.40228
403.7844, 70.03975
404.2665, 72.04628
404.7487, 72.25896
405.2308, 70.67889
405.7129, 66.98087
406.1950, 61.05440
406.6771, 54.63758
407.1592, 47.52891
407.6414, 40.55944
408.1235, 34.15396
408.6056, 28.35188
409.0877, 23.25142
409.5698, 18.88501
410.0519, 15.28654
410.5341, 12.65101
411.0162, 11.16584
411.4983, 9.978384
411.9804, 8.616505
412.4625, 7.216730
412.9446, 6.031799
413.4268, 5.149908
413.9089, 4.409168
414.3910, 3.631779
414.8731, 2.868416
415.3552, 2.409311
415.8373, 2.446983
416.3195, 2.661547
416.8016, 2.562180
417.2837, 2.142565
417.7658, 1.741035
418.2479, 1.432207
418.7300, 1.195848
419.2122, 1.025002
419.6943, 0.9151710
420.1764, 0.8164040
420.6585, 0.6951430
421.1406, 0.5501370
421.6227, 0.3884280
422.1049, 0.1523130
422.5870, 3.9078001E-02
423.0691, 0.1082780
423.5512, 0.1055280
424.0333, 0.1447790
424.5154, 0.2806510
424.9976, 0.4352630
425.4797, 0.4737990
425.9618, 0.4223060
426.4439, 0.1477910
426.9260, 0.8071160
427.4081, 1.619209
427.8903, 1.591202
428.3724, 0.8014370
428.8545, 0.1440620
429.3366, 0.7766040
429.8187, 1.108265
430.3008, 1.240959
430.7830, 1.012579
431.2651, 0.7540340
431.7472, 0.4705200
432.2293, 0.2017500
432.7114, 1.7573999E-02
433.1935, 4.9732000E-02
433.6757, 8.4367998E-02
434.1578, 0.2308830
434.6399, 0.5258690
435.1220, 0.7075610
435.6041, 0.6315170
436.0862, 0.5414940
436.5684, 0.4831220
437.0505, 0.5014020
437.5326, 0.6930560
438.0147, 1.155233
438.4968, 1.832378
438.9789, 2.550152
439.4611, 3.346539
439.9432, 4.084829
440.4253, 4.713139
440.9074, 5.257078
441.3895, 5.723928
441.8716, 6.110130
442.3538, 6.459818
442.8359, 6.738100
443.3180, 6.984974
443.8001, 7.470158
444.2822, 8.370792
444.7643, 9.294609
445.2465, 9.751127
445.7286, 9.861858
446.2107, 10.16515
446.6928, 10.85864
447.1749, 11.77681
447.6570, 12.74335
448.1392, 13.76262
448.6213, 14.93179
449.1034, 16.27555
449.5855, 17.82265
450.0677, 19.66571
450.5498, 21.80184
451.0319, 24.15201
451.5140, 26.46509
451.9961, 29.08531
452.4782, 32.31042
452.9604, 36.23342
453.4425, 41.01541
453.9246, 46.87723
454.4067, 53.89244
454.8888, 61.29993
455.3709, 69.49397
455.8531, 77.53435
456.3352, 85.71232
456.8173, 93.35800
457.2994, 99.80638
457.7815, 104.7316
458.2636, 107.6335
458.7458, 107.3620
459.2279, 103.0641
459.7100, 97.13881
460.1921, 88.87369
460.6742, 79.89848
461.1563, 70.65311
461.6385, 61.46045
462.1206, 52.98022
462.6027, 45.71095
463.0848, 39.56144
463.5669, 34.04545
464.0490, 29.12968
464.5312, 25.02160
465.0133, 22.09367
465.4954, 19.80977
465.9775, 17.66080
466.4596, 15.51677
466.9417, 13.54990
467.4239, 11.86362
467.9060, 10.46896
468.3881, 9.471468
468.8702, 9.039560
469.3523, 8.702841
469.8344, 8.002871
470.3166, 7.068081
470.7987, 6.282604
471.2808, 5.799908
471.7629, 5.459772
472.2450, 5.146776
472.7271, 4.860817
473.2093, 4.605892
473.6914, 4.389694
474.1735, 4.195004
474.6556, 3.983728
475.1377, 3.743216
475.6198, 3.530415
476.1020, 3.390903
476.5841, 3.256725
477.0662, 3.049168
477.5483, 2.775089
478.0304, 2.503132
478.5125, 2.278231
478.9947, 2.103739
479.4768, 2.028461
479.9589, 2.266705
480.4410, 2.327894
480.9231, 1.950672
481.4052, 1.483948
481.8874, 1.341501
482.3695, 1.588091
482.8516, 1.891066
483.3337, 1.804287
483.8158, 1.254759
484.2979, 1.010344
484.7801, 1.303703
485.2622, 1.659943
485.7443, 1.948380
486.2264, 2.187067
486.7085, 2.392525
487.1906, 2.582832
487.6728, 2.736921
488.1549, 2.771502
488.6370, 2.695206
489.1191, 2.776415
489.6012, 3.204260
490.0833, 3.663311
490.5655, 3.851574
491.0476, 3.798302
491.5297, 3.743517
492.0118, 3.808489
492.4939, 3.916592
492.9760, 3.962667
493.4582, 3.943361
493.9403, 3.908722
494.4224, 3.882244
494.9045, 3.860909
495.3866, 3.851748
495.8687, 3.912560
496.3509, 3.843391
496.8330, 3.486389
497.3151, 3.040022
497.7972, 2.751001
498.2793, 2.626705
498.7614, 2.453638
499.2436, 2.023888
499.7257, 1.363838
500.2078, 0.9313200
500.6899, 0.9326440
501.1720, 0.9130170
501.6541, 0.7294450
502.1363, 0.5249480
502.6184, 0.4972760
503.1005, 0.6800190
503.5826, 0.8838140
504.0647, 0.8227980
504.5468, 0.4466860
505.0290, 0.3237290
505.5111, 0.6767440
505.9932, 1.013479
506.4753, 1.135897
506.9575, 1.118093
507.4396, 1.037617
507.9217, 0.8673060
508.4038, 0.8286840
508.8859, 1.353848
509.3680, 2.396986
509.8502, 3.091389
510.3323, 3.159731
510.8144, 2.971199
511.2965, 2.756294
511.7786, 2.551311
512.2607, 2.628832
512.7429, 3.336292
513.2250, 4.130436
513.7071, 4.459705
514.1892, 4.437965
514.6713, 4.569237
515.1534, 5.066320
515.6356, 5.869946
516.1177, 6.884504
516.5998, 8.255249
517.0819, 9.541101
517.5640, 10.50160
518.0461, 11.56202
518.5283, 13.13334
519.0104, 15.09392
519.4925, 17.09342
519.9746, 18.98858
520.4567, 20.54320
520.9388, 20.82229
521.4210, 19.16211
521.9031, 17.44683
522.3852, 15.94584
522.8673, 14.42725
523.3494, 12.64738
523.8315, 10.64517
524.3137, 8.741714
524.7958, 7.185163
525.2779, 5.927792
525.7600, 4.858206
526.2421, 3.998684
526.7242, 3.221338
527.2064, 2.442638
527.6885, 1.779499
528.1706, 1.399668
528.6527, 1.353403
529.1348, 1.331575
529.6169, 1.184393
530.0991, 0.9586490
530.5812, 0.7215270
531.0633, 0.4656640
531.5454, 0.2475720
532.0275, 0.1050590
532.5096, 5.5863999E-02
532.9918, 0.1755640
533.4739, 0.5989020
533.9560, 0.9619430
534.4381, 1.209717
534.9202, 1.371479
535.4023, 1.473249
535.8845, 1.523165
536.3666, 1.526445
536.8487, 1.482169
537.3308, 1.391015
537.8129, 1.361966
538.2950, 1.401698
538.7772, 1.504369
539.2593, 1.663906
539.7414, 1.894182
540.2235, 2.196405
540.7056, 2.589698
541.1877, 3.037674
541.6699, 3.536468
542.1520, 4.059420
542.6341, 4.500404
543.1162, 4.768070
543.5983, 5.158485
544.0804, 5.843262
544.5626, 6.788924
545.0447, 7.980306
545.5268, 9.510870
546.0089, 11.10434
546.4910, 12.63331
546.9731, 14.11370
547.4553, 15.64138
547.9374, 17.25130
548.4195, 18.64395
548.9016, 19.56059
549.3837, 20.00389
549.8658, 19.94618
550.3480, 19.52577
550.8301, 18.54350
551.3122, 16.45922
551.7943, 14.00042
552.2764, 12.01661
552.7585, 10.74430
553.2407, 9.876869
553.7228, 9.056667
554.2049, 8.271003
554.6870, 7.789571
555.1691, 7.832342
555.6512, 7.876408
556.1334, 7.610349
556.6155, 7.285364
557.0976, 7.244213
557.5797, 7.595572
558.0618, 8.089630
558.5439, 8.521550
559.0261, 8.911805
559.5082, 9.387593
559.9903, 10.01163
560.4724, 10.51306
560.9545, 10.74437
561.4366, 10.65794
561.9188, 10.18773
562.4009, 8.964671
562.8830, 7.822489
563.3651, 7.119164
563.8472, 6.657627
564.3293, 6.157104
564.8115, 5.562517
565.2936, 5.021048
565.7757, 4.711761
566.2578, 4.634965
566.7399, 4.297602
567.2220, 3.273357
567.7042, 2.502174
568.1863, 2.351378
568.6684, 2.411802
569.1505, 2.270183
569.6326, 1.840219
570.1147, 1.317449
570.5969, 0.8338290
571.0790, 0.4054780
571.5611, 0.1574370
572.0432, 0.1269530
572.5253, 0.1768520
573.0074, 0.3154980
573.4896, 0.4581330
573.9717, 0.4540480
574.4538, 0.2358100
574.9359, 7.3178999E-02
575.4180, 0.2000870
575.9001, 0.4096980
576.3823, 0.3638430
576.8644, 4.8032999E-02
577.3465, 0.2440230
577.8286, 0.2956960
578.3107, 0.1597570
578.7928, 9.5780998E-02
579.2750, 0.1997010
579.7571, 0.2505090
580.2392, 0.2602770
580.7213, 0.1963010
581.2034, 7.6978996E-02
581.6855, 0.4791070
582.1677, 0.6881380
582.6498, 0.3981280
583.1319, 0.2035630
583.6140, 0.4299140
584.0961, 0.1589270
584.5782, 6.4026996E-02
585.0604, 2.1435000E-02
585.5425, 7.2515003E-02
586.0246, 1.7701000E-02
586.5067, 0.2727610
586.9889, 0.3858330
587.4710, 6.4076997E-02
587.9531, 0.3636460
588.4352, 0.4902420
588.9174, 0.3529410
589.3995, 0.2242910
589.8816, 0.2298470
590.3637, 0.2741750
590.8458, 0.1743760
591.3279, 0.1847710
591.8101, 0.3487750
592.2922, 0.1510230
592.7743, 7.3973998E-02
593.2564, 0.1624380
593.7385, 0.1428490
594.2206, 9.5804997E-02
594.7028, 5.8095001E-02
595.1849, 8.6580003E-03
595.6670, 0.1298890
596.1491, 0.3964470
596.6312, 0.4471650
597.1133, 8.9484997E-02
597.5955, 0.2667340
598.0776, 0.4612730
598.5597, 0.4904470
599.0418, 0.3149300
599.5239, 0.1670060
600.0060, 0.6481270
600.4882, 0.8959670
600.9703, 0.9552180
601.4524, 0.9159490
601.9345, 0.7927360
602.4166, 0.6359720
602.8987, 0.4754940
603.3809, 0.3154520
603.8630, 0.2378320
604.3451, 0.2802900
604.8272, 0.3456560
605.3093, 0.4327170
605.7914, 0.5248490
606.2736, 0.6299300
606.7557, 0.7324390
607.2378, 0.7685000
607.7199, 0.6665900
608.2020, 0.4616260
608.6841, 0.3313050
609.1663, 0.2979510
609.6484, 0.2728780
610.1305, 0.1475180
610.6126, 8.3920002E-02
611.0947, 0.2952030
611.5768, 0.7676190
612.0590, 1.121716
612.5411, 1.148832
613.0232, 1.011099
613.5053, 0.8400260
613.9874, 0.6648050
614.4695, 0.5542090
614.9517, 0.5567960
615.4338, 0.6083540
615.9159, 0.5937230
616.3980, 0.4549710
616.8801, 0.4571750
617.3622, 0.7592590
617.8444, 1.018619
618.3265, 1.071389
618.8086, 0.9898190
619.2907, 0.8698930
619.7728, 0.7501910
620.2549, 0.6934720
620.7371, 0.8206830
621.2192, 1.121724
621.7013, 1.334847
622.1834, 1.429071
622.6655, 1.476581
623.1476, 1.467628
623.6298, 1.453939
624.1119, 1.531500
624.5940, 1.740037
625.0761, 1.942636
625.5582, 2.044436
626.0403, 2.123262
626.5225, 2.307020
627.0046, 2.584585
627.4867, 2.805260
627.9688, 2.867415
628.4509, 2.818812
628.9330, 2.821368
629.4152, 2.948762
629.8973, 2.990458
630.3794, 2.843177
630.8615, 2.710978
631.3436, 2.673197
631.8257, 2.746398
632.3079, 2.976483
632.7900, 3.451415
633.2721, 3.916204
633.7542, 3.910024
634.2363, 3.499660
634.7184, 3.324072
635.2006, 3.547167
635.6827, 3.865053
636.1648, 4.018719
636.6469, 4.026413
637.1290, 4.088301
637.6111, 4.201196
638.0933, 4.382759
638.5754, 4.642487
639.0575, 4.982864
639.5396, 5.451679
640.0217, 6.014901
640.5038, 6.498899
640.9860, 6.746521
641.4681, 6.789232
641.9502, 6.809067
642.4323, 6.737764
642.9144, 6.778833
643.3965, 7.126577
643.8787, 7.485737
644.3608, 7.698541
644.8429, 7.746195
645.3250, 7.602062
645.8071, 7.163895
646.2892, 6.584238
646.7714, 5.962094
647.2535, 5.327357
647.7356, 4.776549
648.2177, 4.342037
648.6998, 3.989573
649.1819, 3.697062
649.6641, 3.456547
650.1462, 3.145731
650.6283, 2.661612
651.1104, 2.224501
651.5925, 1.851114
652.0746, 1.576509
652.5568, 1.490340
653.0389, 1.567209
653.5210, 1.609601
654.0031, 1.379647
654.4852, 1.027549
654.9673, 1.075398
655.4495, 1.563195
655.9316, 1.760676
656.4137, 1.312794
656.8958, 0.6361080
657.3779, 0.2395630
657.8600, 8.9481004E-02
658.3422, 3.7292998E-02
658.8243, 0.1567890
659.3064, 0.2890190
659.7885, 0.2885960
660.2706, 0.2252780
660.7527, 0.2839780
661.2349, 0.5004840
661.7170, 0.7035520
662.1991, 0.6756770
662.6812, 0.4298350
663.1633, 0.2943690
663.6454, 0.2852260
664.1276, 0.3547710
664.6097, 0.5612370
665.0918, 0.7920080
665.5739, 0.9638950
666.0560, 1.068622
666.5381, 1.101143
667.0203, 0.9667520
667.5024, 0.8316370
667.9845, 0.9391610
668.4666, 1.202297
668.9487, 1.327798
669.4308, 1.205601
669.9130, 0.9225660
670.3951, 0.5612460
670.8772, 8.3131999E-02
671.3593, 0.1562580
671.8414, 1.4096000E-02
672.3235, 0.2313440
672.8057, 0.5222300
673.2878, 0.7610430
673.7699, 0.7783610
674.2520, 0.5663040
674.7341, 0.3383570
675.2162, 0.2073570
675.6984, 0.1884320
676.1805, 0.3858870
676.6626, 0.7888830
677.1447, 1.062416
677.6268, 1.062548
678.1089, 0.9219680
678.5911, 0.8163970
679.0732, 0.7591920
679.5553, 0.6512840
680.0374, 0.4038400
680.5195, 0.2201210
681.0016, 0.1702910
681.4838, 0.2119910
681.9659, 0.2977770
682.4480, 0.4116950
682.9301, 0.5581610
683.4122, 0.7879500
683.8943, 1.045953
684.3765, 1.072860
684.8586, 0.8213250
685.3407, 0.6362580
685.8228, 0.6628970
686.3049, 0.7690410
686.7870, 0.7893340
687.2692, 0.7276160
687.7513, 0.6540990
688.2334, 0.5205620
688.7155, 0.4439920
689.1976, 0.4971290
689.6797, 0.6430930
690.1619, 0.8776450
690.6440, 1.172441
691.1261, 1.361244
691.6082, 1.247094
692.0903, 0.8807200
692.5724, 0.6168870
693.0546, 0.4723470
693.5367, 0.3918150
694.0188, 0.3783850
694.5009, 0.4046350
694.9830, 0.4210000
695.4651, 0.4405570
695.9473, 0.5622060
696.4294, 1.014848
696.9116, 1.379417
697.3937, 1.248350
697.8758, 0.8564130
698.3579, 0.6426260
698.8400, 0.7056530
699.3221, 0.8582450
699.8043, 0.9265440
700.2864, 0.9218330
700.7685, 0.9422200
701.2506, 1.035327
701.7327, 1.054185
702.2148, 0.8590470
702.6970, 0.6725500
703.1791, 0.6707230
703.6612, 0.8180250
704.1433, 0.9366600
704.6254, 1.008503
705.1075, 1.005255
705.5897, 0.8331080
706.0718, 0.5795970
706.5539, 0.4178980
707.0360, 0.3824250
707.5181, 0.4600620
708.0002, 0.6676350
708.4824, 0.9515450
708.9645, 1.024310
709.4466, 0.6852350
709.9287, 0.5207330
710.4108, 0.7970670
710.8929, 1.053074
711.3751, 0.9837610
711.8572, 0.6952650
712.3393, 0.4622350
712.8214, 0.3776780
713.3035, 0.4192180
713.7856, 0.7076430
714.2678, 1.070271
714.7499, 1.090142
715.2320, 0.7279590
715.7141, 0.2959430
716.1962, 2.3696000E-02
716.6783, 0.2067340
717.1605, 0.1258460
717.6426, 0.5024290
718.1247, 0.8460820
718.6068, 0.6831010
719.0889, 0.4829310
719.5710, 0.4477340
720.0532, 0.5214160
720.5353, 0.5893230
721.0174, 0.6166040
721.4995, 0.6388230
721.9816, 0.7056680
722.4637, 0.7829000
722.9459, 0.8153340
723.4280, 0.7991670
723.9101, 0.6997190
724.3922, 0.4739310
724.8743, 0.2163560
725.3564, 0.1318950
725.8386, 0.2856780
726.3207, 0.4231090
726.8028, 0.5388560
727.2849, 0.6073220
727.7670, 0.6315920
728.2491, 0.6207820
728.7313, 0.5246240
729.2134, 0.3430120
729.6955, 0.2891450
730.1776, 0.6324980
730.6597, 1.106914
731.1418, 1.280885
731.6240, 1.190872
732.1061, 1.058518
732.5882, 0.9374980
733.0703, 0.7987100
733.5524, 0.6496350
734.0345, 0.4883990
734.5167, 0.5115460
734.9988, 0.9809650
735.4809, 1.281543
735.9630, 1.291905
736.4451, 1.138507
736.9272, 0.7904070
737.4094, 0.3415130
737.8915, 0.1424890
738.3736, 0.4855010
738.8557, 0.9740840
739.3378, 1.210802
739.8199, 1.258501
740.3021, 1.292300
740.7842, 1.346039
741.2663, 1.309637
741.7484, 1.068946
742.2305, 0.7130920
742.7126, 0.6243840
743.1948, 1.005996
743.6769, 1.226196
744.1590, 1.210078
744.6411, 1.101846
745.1232, 0.9168750
745.6053, 0.7057840
746.0875, 0.5320530
746.5696, 0.3952940
747.0517, 0.3614090
747.5338, 0.5667530
748.0159, 0.8716700
748.4980, 1.055388
748.9802, 1.104926
749.4623, 1.061895
749.9444, 0.8887980
750.4265, 0.6514020
750.9086, 0.5372390
751.3907, 0.5737700
751.8729, 0.6115070
752.3550, 0.6951880
752.8371, 0.7586900
753.3192, 0.6997320
753.8013, 0.5800800
754.2834, 0.5274530
754.7656, 0.5612150
755.2477, 0.6555700
755.7298, 0.8851650
756.2119, 1.095966
756.6940, 1.086750
757.1761, 0.9486360
757.6583, 0.9307470
758.1404, 1.092322
758.6225, 1.262634
759.1046, 1.280114
759.5867, 1.154960
760.0688, 0.9117610
760.5510, 0.4017650
761.0331, 0.1853210
761.5152, 0.5703040
761.9973, 1.073285
762.4794, 1.401766
762.9615, 1.560876
763.4437, 1.557492
763.9258, 1.278601
764.4079, 1.037630
764.8900, 1.044939
765.3721, 1.133435
765.8542, 1.089390
766.3364, 0.9319220
766.8185, 0.8427910
767.3006, 0.9271780
767.7827, 1.043256
768.2648, 0.8785180
768.7469, 0.4128240
769.2291, 0.2326950
769.7112, 0.4580810
770.1933, 0.7104540
770.6754, 0.8103770
771.1575, 0.8315540
771.6396, 0.9296810
772.1218, 1.141241
772.6039, 1.169750
773.0860, 0.7175280
773.5681, 0.3380450
774.0502, 0.4221590
774.5323, 0.7065620
775.0145, 0.8090980
775.4966, 0.6765390
775.9787, 0.5505760
776.4608, 0.6717590
776.9429, 0.9179560
777.4250, 1.003554
777.9072, 0.9314070
778.3893, 0.7749400
778.8714, 0.5187590
779.3535, 0.3022790
779.8356, 0.2711550
780.3177, 0.3895900
780.7999, 0.4119250
781.2820, 0.2101010
781.7641, 9.8940000E-02
782.2462, 0.2079680
782.7283, 0.3009030
783.2104, 0.1561120
783.6926, 9.7804002E-02
784.1747, 0.1702170
784.6568, 5.6653000E-02
785.1389, 0.3223050
785.6210, 0.4093240
786.1031, 0.3673550
786.5853, 0.2670110
787.0674, 0.1215110
787.5495, 1.2592000E-02
788.0316, 0.1061930
788.5137, 0.1859240
788.9958, 0.3077040
789.4780, 0.4890840
789.9601, 0.4427020
790.4422, 7.7987000E-02
790.9243, 0.4281000
791.4064, 0.3174150
791.8885, 9.1815002E-02
792.3707, 4.9853001E-02
792.8528, 0.1656650
793.3349, 0.1871190
793.8170, 3.9634001E-02
794.2991, 0.2832270
794.7813, 0.4611120
795.2634, 0.5437580
795.7455, 0.4131610
796.2276, 0.1018560
796.7097, 0.1395590
797.1918, 0.1535930
797.6740, 4.1166000E-02
798.1561, 1.4160000E-02
798.6382, 7.9646997E-02
799.1203, 6.4949999E-03
799.6024, 0.2964860
800.0845, 0.5080740
800.5667, 0.4080090
801.0488, 0.1593280
801.5309, 7.0816003E-02
802.0130, 0.1591890
802.4951, 0.2576480
802.9772, 0.4103110
803.4594, 0.5059910
803.9415, 0.4988750
804.4236, 0.4092100
804.9057, 0.1679270
805.3878, 0.1746010
805.8699, 0.3057540
806.3521, 0.1289960
806.8342, 0.6887740
807.3163, 0.5947270
807.7985, 1.6230000E-02
808.2806, 0.3575060
808.7627, 0.4035050
809.2448, 0.2028710
809.7269, 0.2609390
810.2090, 0.8175140
810.6912, 0.9119010
811.1733, 0.2448730
811.6554, 0.1613010
812.1375, 0.1020740
812.6196, 1.5675999E-02
813.1017, 0.1029550
813.5839, 0.2435150
814.0660, 0.2471560
814.5481, 8.1900001E-02
815.0302, 4.2893998E-02
815.5123, 2.2287000E-02
815.9944, 5.9852999E-02
816.4766, 0.2009280
816.9587, 0.3322200
817.4408, 0.2712140
817.9229, 1.8045001E-02
818.4050, 0.1509900
818.8871, 4.4466000E-02
819.3693, 0.1159400
819.8514, 0.4598870
820.3335, 6.6831999E-02
820.8156, 2.7763000E-02
821.2977, 0.3797380
821.7798, 0.8044970
822.2620, 0.9164700
822.7441, 0.8137550
823.2262, 0.7777560
823.7083, 0.8067170
824.1904, 0.9073700
824.6725, 1.135757
825.1547, 1.374866
825.6368, 1.517635
826.1189, 1.665293
826.6010, 2.009459
827.0831, 2.559204
827.5652, 3.009977
828.0474, 2.996668
828.5295, 2.888956
829.0116, 3.174601
829.4937, 3.723057
829.9758, 4.219166
830.4579, 4.590769
830.9401, 4.862812
831.4222, 5.022442
831.9043, 5.172941
832.3864, 5.628868
832.8685, 6.449247
833.3506, 7.255857
833.8328, 8.062576
834.3149, 8.764038
834.7970, 9.183073
835.2791, 9.509708
835.7612, 10.08980
836.2433, 10.96494
836.7255, 11.84771
837.2076, 12.50824
837.6897, 13.36354
838.1718, 14.74834
838.6539, 16.36493
839.1360, 17.82752
839.6182, 19.10918
840.1003, 20.49183
840.5824, 22.16957
841.0645, 23.98730
841.5466, 25.66689
842.0287, 27.32719
842.5109, 29.28624
842.9930, 31.58667
843.4751, 34.21338
843.9572, 37.19983
844.4393, 40.29670
844.9214, 42.83950
845.4036, 44.63385
845.8857, 46.92590
846.3678, 50.00830
846.8499, 53.09062
847.3320, 56.08887
847.8141, 58.79432
848.2963, 60.93027
848.7784, 62.48653
849.2605, 64.00700
849.7426, 65.74003
850.2247, 67.25677
850.7068, 68.21478
851.1890, 69.00645
851.6711, 70.09029
852.1532, 71.37677
852.6353, 72.46384
853.1174, 73.16206
853.5995, 73.62160
854.0817, 73.92223
854.5638, 74.13327
855.0459, 74.62885
855.5280, 75.34036
856.0101, 75.43332
856.4922, 74.57458
856.9744, 72.99107
857.4565, 70.94654
857.9386, 68.44022
858.4207, 65.56626
858.9028, 62.22222
859.3849, 58.77264
859.8671, 55.17448
860.3492, 51.61223
860.8313, 48.20252
861.3134, 44.93737
861.7955, 41.76590
862.2776, 38.68759
862.7598, 35.73289
863.2419, 32.77473
863.7240, 30.07685
864.2061, 27.93641
864.6882, 26.10936
865.1703, 24.18922
865.6525, 22.10435
866.1346, 20.18169
866.6167, 18.70728
867.0988, 17.53570
867.5809, 16.55392
868.0630, 15.65790
868.5452, 14.50576
869.0273, 13.08296
869.5094, 11.86032
869.9915, 11.21714
870.4736, 10.93292
870.9557, 10.42583
871.4379, 9.636494
871.9200, 8.942774
872.4021, 8.348936
872.8842, 7.871603
873.3663, 7.564142
873.8484, 7.343843
874.3306, 7.109663
874.8127, 6.863329
875.2948, 6.574484
875.7769, 6.186825
876.2590, 5.825941
876.7411, 5.533659
877.2233, 5.286169
877.7054, 5.133768
878.1875, 5.010359
878.6696, 4.717253
879.1517, 4.127390
879.6339, 3.592293
880.1160, 3.454887
880.5981, 3.503836
881.0802, 3.516048
881.5623, 3.442493
882.0444, 3.115559
882.5266, 2.506418
883.0087, 2.018345
883.4908, 2.134399
883.9729, 2.666332
884.4550, 2.821667
884.9371, 2.570759
885.4193, 2.465303
885.9014, 2.634260
886.3835, 2.850298
886.8656, 2.934345
887.3477, 3.220013
887.8298, 3.196995
888.3120, 3.739485
888.7941, 4.148958
889.2762, 4.414314
889.7583, 4.561804
890.2404, 4.341713
890.7225, 4.181351
891.2047, 4.658295
891.6868, 5.705948
892.1689, 6.507277
892.6510, 6.617342
893.1331, 6.668045
893.6152, 6.967344
894.0974, 7.378771
894.5795, 7.756628
895.0616, 8.113241
895.5437, 8.529808
896.0258, 9.042795
896.5079, 9.608599
896.9901, 10.20677
897.4722, 10.81295
897.9543, 11.28437
898.4364, 11.67629
898.9185, 12.38795
899.4006, 13.52923
899.8828, 14.68200
900.3649, 15.46872
900.8470, 16.00465
901.3291, 16.71737
901.8112, 17.62759
902.2933, 18.61352
902.7755, 19.69359
903.2576, 20.78035
903.7397, 21.76549
904.2218, 22.77742
904.7039, 24.09801
905.1860, 25.80358
905.6682, 27.18534
906.1503, 27.85595
906.6324, 28.69578
907.1145, 29.97324
907.5966, 31.45864
908.0787, 33.00300
908.5609, 34.59026
909.0430, 36.23519
909.5251, 37.96138
910.0072, 39.66039
910.4893, 41.20999
910.9714, 42.75143
911.4536, 44.36470
911.9357, 46.10149
912.4178, 48.06724
912.8999, 50.27710
913.3820, 52.59719
913.8641, 54.87858
914.3463, 57.19468
914.8284, 59.79612
915.3105, 62.64203
915.7926, 65.44158
916.2748, 68.12286
916.7569, 70.84150
917.2390, 73.65687
917.7211, 76.82768
918.2032, 80.92921
918.6854, 85.98827
919.1675, 90.57288
919.6496, 94.48788
920.1317, 98.50152
920.6138, 103.0483
921.0959, 107.4716
921.5781, 111.1402
922.0602, 114.1896
922.5423, 117.3471
923.0244, 121.1901
923.5065, 124.1283
923.9886, 125.6814
924.4708, 126.7458
924.9529, 127.7218
925.4350, 128.4671
925.9171, 128.9170
926.3992, 129.0136
926.8813, 128.3395
927.3635, 126.7066
927.8456, 124.2454
928.3277, 120.6951
928.8098, 116.6241
929.2919, 112.4926
929.7740, 108.4301
930.2562, 104.5071
930.7383, 100.7759
931.2204, 96.95942
931.7025, 92.58637
932.1846, 88.03020
932.6667, 84.09293
933.1489, 80.63646
933.6310, 77.15070
934.1131, 73.52780
934.5952, 70.02363
935.0773, 66.83590
935.5594, 63.87748
936.0416, 61.07060
936.5237, 58.41325
937.0058, 55.53640
937.4879, 52.41091
937.9700, 49.08163
938.4521, 45.42027
938.9343, 41.90747
939.4164, 39.14785
939.8985, 37.09285
940.3806, 34.86594
940.8627, 32.23648
941.3448, 29.90427
941.8270, 28.03494
942.3091, 26.36110
942.7912, 24.80095
943.2733, 23.33084
943.7554, 21.92970
944.2375, 20.60985
944.7197, 19.26048
945.2018, 17.71042
945.6839, 16.32454
946.1660, 15.24387
946.6481, 14.39181
947.1302, 13.79720
947.6124, 13.35614
948.0945, 12.82603
948.5766, 12.12131
949.0587, 11.32541
949.5408, 10.42360
950.0229, 9.504194
950.5051, 8.545343
950.9872, 7.667255
951.4693, 7.152987
951.9514, 6.992641
952.4335, 6.821527
952.9156, 6.379669
953.3978, 5.825350
953.8799, 5.396973
954.3620, 5.036995
954.8441, 4.544392
955.3262, 3.938408
955.8083, 3.451256
956.2905, 3.175207
956.7726, 2.989992
957.2547, 2.753586
957.7368, 2.495859
958.2189, 2.352648
958.7010, 2.328997
959.1832, 2.326235
959.6653, 2.346478
960.1474, 2.287544
960.6295, 2.062529
961.1116, 1.776529
961.5938, 1.642767
962.0759, 1.695419
962.5580, 1.550673
963.0401, 1.089422
963.5222, 0.6786590
964.0043, 0.3715720
964.4865, 0.1674290
964.9686, 8.8675998E-02
965.4507, 0.1134490
965.9328, 0.1714520
966.4149, 0.2674670
966.8970, 0.3834290
967.3792, 0.6335680
967.8613, 0.7621900
968.3434, 0.5812400
968.8255, 0.3051010
969.3076, 0.1695520
969.7897, 0.1486110
970.2719, 1.9617001E-02
970.7540, 0.4071690
971.2361, 0.6674390
971.7182, 0.3295590
972.2003, 1.6597999E-02
972.6824, 0.2302280
973.1646, 0.7276370
973.6467, 0.8430020
974.1288, 0.4992660
974.6109, 0.1889710
975.0930, 0.2170850
975.5751, 0.3638190
976.0573, 0.4674640
976.5394, 0.5349660
977.0215, 0.5553870
977.5036, 0.5431300
977.9857, 0.5783090
978.4678, 0.6840060
978.9500, 0.7498170
979.4321, 0.6416150
979.9142, 0.4537630
980.3963, 0.4372320
980.8784, 0.5063740
981.3605, 0.2380070
981.8427, 0.3711590
982.3248, 0.7052270
982.8069, 0.4239040
983.2890, 0.1274380
983.7711, 0.5028020
984.2532, 0.6931710
984.7354, 0.6198850
985.2175, 0.2723290
985.6996, 3.7550000E-03
986.1817, 0.1346650
986.6638, 0.1824250
987.1459, 0.1804050
987.6281, 0.1456500
988.1102, 0.1097000
988.5923, 6.5206997E-02
989.0744, 0.1302520
989.5565, 0.3434920
990.0386, 0.5701640
990.5208, 0.7807870
991.0029, 0.9600490
991.4850, 1.105168
991.9671, 1.223967
992.4492, 1.336683
992.9313, 1.446996
993.4135, 1.543262
993.8956, 1.553354
994.3777, 1.650488
994.8598, 1.905981
995.3419, 2.256947
995.8240, 2.698616
996.3062, 3.202116
996.7883, 3.602632
997.2704, 3.803986
997.7525, 4.047707
998.2346, 4.384548
998.7167, 4.755737
999.1989, 5.223581
999.6810, 5.654387
1000.163, 5.792354
1000.645, 5.684864
1001.127, 5.819147
1001.609, 6.474392
1002.092, 7.166811
1002.574, 7.737846
1003.056, 8.251359
1003.538, 8.694468
1004.020, 9.137428
1004.502, 9.675172
1004.984, 10.32816
1005.466, 11.08717
1005.948, 12.07265
1006.431, 12.98301
1006.913, 13.50996
1007.395, 13.90357
1007.877, 14.56566
1008.359, 15.32659
1008.841, 15.64525
1009.323, 15.39795
1009.805, 15.14514
1010.288, 15.47439
1010.770, 15.84660
1011.252, 15.53939
1011.734, 14.80616
1012.216, 14.19743
1012.698, 13.74197
1013.180, 13.22572
1013.662, 12.55694
1014.144, 11.72812
1014.627, 10.66194
1015.109, 9.493516
1015.591, 8.401985
1016.073, 7.455639
1016.555, 6.987690
1017.037, 6.966129
1017.519, 6.874847
1018.001, 6.455399
1018.484, 5.864637
1018.966, 5.257175
1019.448, 4.669859
1019.930, 4.260983
1020.412, 4.014917
1020.894, 3.753913
1021.376, 3.450188
1021.858, 3.270372
1022.340, 3.326824
1022.823, 3.417307
1023.305, 3.189287
1023.787, 2.693644
1024.269, 2.406354
1024.751, 2.331169
1025.233, 2.386171
1025.715, 2.587520
1026.197, 2.678748
1026.680, 2.480071
1027.162, 2.118369
1027.644, 1.807851
1028.126, 1.546459
1028.608, 1.474607
1029.090, 1.659074
1029.572, 1.736039
1030.054, 1.573684
1030.536, 1.401418
1031.019, 1.388344
1031.501, 1.472258
1031.983, 1.503554
1032.465, 1.472226
1032.947, 1.426438
1033.429, 1.391541
1033.911, 1.224111
1034.393, 0.7668610
1034.875, 0.4074550
1035.358, 0.4747950
1035.840, 0.7979150
1036.322, 0.9769010
1036.804, 0.9962370
1037.286, 0.9574020
1037.768, 0.7459210
1038.250, 0.7066840
1038.732, 1.056417
1039.215, 1.408627
1039.697, 1.484342
1040.179, 1.327177
1040.661, 1.063668
1041.143, 0.5880240
1041.625, 0.3128750
1042.107, 0.4160320
1042.589, 0.5182790
1043.072, 0.5502430
1043.554, 0.5755230
1044.036, 0.6892630
1044.518, 0.8041510
1045.000, 0.6784420
1045.482, 0.1957810
1045.964, 8.7476999E-02
1046.446, 1.5148000E-02
1046.928, 0.1192580
1047.411, 4.4558000E-02
1047.893, 1.4779000E-02
1048.375, 0.3105260
1048.857, 0.7568020
1049.339, 0.9109780
1049.821, 0.6695620
1050.303, 0.4613740
1050.785, 0.3900720
1051.267, 0.3095700
1051.750, 0.1151490
1052.232, 5.1855002E-02
1052.714, 5.9230000E-02
1053.196, 4.3483000E-02
1053.678, 0.1298140
1054.160, 0.1739510
1054.642, 0.2609130
1055.124, 0.4555070
1055.607, 0.6335260
1056.089, 0.8033740
1056.571, 0.8892250
1057.053, 0.7891450
1057.535, 0.5693550
1058.017, 0.3396900
1058.499, 0.1065410
1058.981, 2.0429000E-02
1059.464, 0.2084310
1059.946, 0.4472890
1060.428, 0.7760890
1060.910, 1.007402
1061.392, 0.8666260
1061.874, 0.5418970
1062.356, 0.4169970
1062.838, 0.5725360
1063.320, 0.7596910
1063.802, 0.9836440
1064.285, 1.097584
1064.767, 0.9496470
1065.249, 0.7418350
1065.731, 0.6218400
1066.213, 0.5837200
1066.695, 0.6420150
1067.177, 0.7924150
1067.659, 0.7459210
1068.142, 6.1055999E-02
1068.624, 0.4218910
1069.106, 8.9675002E-02
1069.588, 0.4035090
1070.070, 0.4977030
1070.552, 0.3464910
1071.034, 0.2898970
1071.516, 0.4050600
1071.999, 0.5829600
1072.481, 0.9362570
1072.963, 1.177618
1073.445, 1.091549
1073.927, 0.9163500
1074.409, 0.8489080
1074.891, 0.8405660
1075.373, 0.7410580
1075.855, 0.5503970
1076.338, 0.4209100
1076.820, 0.4084080
1077.302, 0.4773330
1077.784, 0.7769590
1078.266, 0.9872270
1078.748, 0.7225830
1079.230, 0.2774960
1079.712, 0.1440020
1080.194, 0.3383600
1080.677, 0.4560040
1081.159, 0.2983450
1081.641, 0.1406320
1082.123, 0.1000990
1082.605, 0.1196330
1083.087, 0.1391900
1083.569, 0.2052070
1084.052, 0.4786830
1084.534, 0.8835660
1085.016, 1.002042
1085.498, 0.5504360
1085.980, 0.2265730
1086.462, 0.5154320
1086.944, 0.8351550
1087.426, 0.7935520
1087.908, 0.5746520
1088.391, 0.3821550
1088.873, 0.2443570
1089.355, 0.1364570
1089.837, 3.6986999E-02
1090.319, 3.2258000E-02
1090.801, 0.2628920
1091.283, 0.4692180
1091.765, 0.4984000
1092.247, 0.4373570
1092.730, 0.3349350
1093.212, 0.2394030
1093.694, 0.2455680
1094.176, 0.3928170
1094.658, 0.4379960
1095.140, 9.8293997E-02
1095.622, 0.1108000
1096.104, 0.2123750
1096.587, 0.6142440
1097.069, 0.6826470
1097.551, 0.5243430
1098.033, 0.4141990
1098.515, 0.4015600
1098.997, 0.3853210
1099.479, 0.2106650
1099.961, 0.2014060
1100.443, 0.6494080
1100.926, 1.109666
1101.408, 1.308125
1101.890, 1.284890
1102.372, 1.046245
1102.854, 0.6194220
1103.336, 0.3953150
1103.818, 0.6809820
1104.300, 0.8548430
1104.782, 0.6724930
1105.265, 0.4509200
1105.747, 0.3429930
1106.229, 0.3234580
1106.711, 0.3421450
1107.193, 0.3899900
1107.675, 0.4552650
1108.157, 0.5726020
1108.639, 0.6345930
1109.122, 0.5276070
1109.604, 0.4834580
1110.086, 0.7418400
1110.568, 0.9852070
1111.050, 0.8308720
1111.532, 0.3924500
1112.014, 0.1339860
1112.496, 0.1003680
1112.979, 0.1833000
1113.461, 0.5770130
1113.943, 0.8114590
1114.425, 0.6197200
1114.907, 0.3897030
1115.389, 0.4367760
1115.871, 0.6261840
1116.353, 0.6552360
1116.835, 0.5021750
1117.318, 0.3235780
1117.800, 6.5321997E-02
1118.282, 0.1286820
1118.764, 0.5014430
1119.246, 1.025350
1119.728, 0.9275880
1120.210, 0.5372550
1120.692, 0.3467260
1121.174, 0.3515940
1121.657, 0.3548370
1122.139, 0.3462860
1122.621, 0.3674100
1123.103, 0.4327530
1123.585, 0.4902020
1124.067, 0.4905270
1124.549, 0.5420260
1125.031, 0.8215070
1125.514, 0.7055080
1125.996, 0.6484170
1126.478, 0.6201370
1126.960, 0.2996690
1127.442, 0.3238950
1127.924, 0.2692160
1128.406, 8.9204997E-02
1128.888, 0.3310290
1129.370, 9.8598003E-02
1129.853, 0.3974550
1130.335, 0.6995790
1130.817, 0.8077490
1131.299, 0.5901440
1131.781, 1.5774000E-02
1132.263, 0.1806150
1132.745, 0.1696850
1133.227, 0.5354150
1133.709, 0.6168580
1134.192, 0.4947380
1134.674, 0.2199000
1135.156, 0.1177580
1135.638, 8.4311001E-02
1136.120, 0.2603450
1136.602, 0.4293300
1137.084, 0.3866940
1137.566, 0.4575170
1138.049, 0.7675890
1138.531, 1.018482
1139.013, 0.9028360
1139.495, 0.5966630
1139.977, 0.4230810
1140.459, 0.3495890
1140.941, 0.2563000
1141.423, 0.1697850
1141.906, 0.2802960
1142.388, 0.5856950
1142.870, 0.7453550
1143.352, 0.5252020
1143.834, 0.2081690
1144.316, 8.0595002E-02
1144.798, 0.1123500
1145.280, 0.3861580
1145.762, 0.7284450
1146.245, 0.7657990
1146.727, 0.5374640
1147.209, 0.3021790
1147.691, 0.1666200
1148.173, 0.1658700
1148.655, 0.4345960
1149.137, 0.7248100
1149.619, 0.8213100
1150.101, 0.8164590
1150.584, 0.7450970
1151.066, 0.6837480
1151.548, 0.8059310
1152.030, 1.109940
1152.512, 1.299502
1152.994, 1.173853
1153.476, 1.043277
1153.958, 1.051280
1154.441, 1.143553
1154.923, 1.439658
1155.405, 1.689484
1155.887, 1.492152
1156.369, 0.9826000
1156.851, 0.7256560
1157.333, 0.9008180
1157.815, 1.083996
1158.297, 1.154780
1158.780, 1.264449
1159.262, 1.550305
1159.744, 1.823236
1160.226, 1.909178
1160.708, 1.902856
1161.190, 1.980391
1161.672, 2.165470
1162.154, 2.198855
1162.636, 1.871195
1163.119, 1.802260
1163.601, 2.270617
1164.083, 2.583565
1164.565, 2.378761
1165.047, 2.016665
1165.529, 1.874377
1166.011, 1.891649
1166.493, 1.805876
1166.976, 1.563410
1167.458, 1.507198
1167.940, 1.686056
1168.422, 1.828486
1168.904, 1.887183
1169.386, 1.786565
1169.868, 1.449978
1170.350, 1.029268
1170.833, 0.7444450
1171.315, 0.6113060
1171.797, 0.8293440
1172.279, 1.344055
1172.761, 1.490653
1173.243, 1.224639
1173.725, 1.015395
1174.207, 1.043170
1174.689, 1.148137
1175.172, 1.212435
1175.654, 1.178119
1176.136, 0.8635270
1176.618, 0.4310580
1177.100, 0.1953670
1177.582, 0.1500460
1178.064, 0.2955470
1178.546, 0.5616640
1179.028, 0.6531730
1179.511, 0.4144270
1179.993, 0.1658390
1180.475, 0.2030020
1180.957, 0.3400450
1181.439, 0.4530140
1181.921, 0.5105160
1182.403, 0.4136290
1182.885, 0.2543220
1183.368, 0.2869090
1183.850, 0.5298640
1184.332, 0.5749630
1184.814, 1.2763000E-02
1185.296, 0.3338010
1185.778, 8.7167002E-02
1186.260, 0.5704940
1186.742, 0.7033210
1187.224, 0.6784960
1187.707, 0.6566310
1188.189, 0.6406740
1188.671, 0.5986900
1189.153, 0.4948020
1189.635, 0.4914460
1190.117, 0.6813220
1190.599, 0.8534670
1191.081, 1.025140
1191.564, 1.074685
1192.046, 0.8627420
1192.528, 0.5817320
1193.010, 0.5182590
1193.492, 0.6361890
1193.974, 0.5360980
1194.456, 0.1059190
1194.938, 8.2358003E-02
1195.421, 0.5888340
1195.903, 0.9924140
1196.385, 1.108596
1196.867, 1.025326
1197.349, 0.7807010
1197.831, 0.4933020
1198.313, 0.4081470
1198.795, 0.4649790
1199.277, 0.3200660
1199.760, 0.3743510
1200.242, 8.0646999E-02
1200.724, 0.4191480
1201.206, 0.6715780
1201.688, 0.6901610
1202.170, 0.6120990
1202.652, 0.5499350
1203.134, 0.4490880
1203.616, 0.1227060
1204.099, 0.1989750
1204.581, 0.1224350
1205.063, 0.1829680
1205.545, 0.4258910
1206.027, 0.5436070
1206.509, 0.5175980
1206.991, 0.3238340
1207.473, 0.2259650
1207.956, 0.4628660
1208.438, 0.6944630
1208.920, 0.7790110
1209.402, 0.7512070
1209.884, 0.5594310
1210.366, 0.3211660
1210.848, 0.2178970
1211.330, 0.2485980
1211.813, 0.2610940
1212.295, 0.2596450
1212.777, 0.1957620
1213.259, 5.7213999E-02
1213.741, 0.1564310
1214.223, 0.1131230
1214.705, 0.3425880
1215.187, 0.1770810
1215.669, 9.4016001E-02
1216.151, 9.5054001E-02
1216.634, 8.1625998E-02
1217.116, 0.1215820
1217.598, 5.5734001E-02
1218.080, 8.7592997E-02
1218.562, 0.4071470
1219.044, 0.7412150
1219.526, 0.6320580
1220.008, 0.4694600
1220.491, 0.5810610
1220.973, 0.7696690
1221.455, 0.6293970
1221.937, 0.3273810
1222.419, 0.3431970
1222.901, 0.5585310
1223.383, 0.6445720
1223.865, 0.5825380
1224.348, 0.5038580
1224.830, 0.4546920
1225.312, 0.3925940
1225.794, 0.2617000
1226.276, 0.1584240
1226.758, 0.1927530
1227.240, 0.2498210
1227.722, 0.2225450
1228.204, 0.1583990
1228.687, 9.3947001E-02
1229.169, 5.9919000E-02
1229.651, 0.1344390
1230.133, 0.3542640
1230.615, 0.5681720
1231.097, 0.8046960
1231.579, 0.9510780
1232.061, 1.024875
1232.543, 0.9416450
1233.026, 0.5181060
1233.508, 9.4411001E-02
1233.990, 8.7416001E-02
1234.472, 0.3886620
1234.954, 0.5379730
1235.436, 0.5179600
1235.918, 0.4348960
1236.400, 0.2466690
1236.883, 0.2376450
1237.365, 0.4426940
1237.847, 0.6592320
1238.329, 0.7848650
1238.811, 0.7901460
1239.293, 0.5928550
1239.775, 0.3386950
1240.257, 0.3566420
1240.740, 0.5423850
1241.222, 0.6751490
1241.704, 0.7532230
1242.186, 0.8253560
1242.668, 0.8861990
1243.150, 0.8656970
1243.632, 0.7306390
1244.114, 0.5481990
1244.596, 0.2228180
1245.078, 4.6206001E-02
1245.561, 0.3387030
1246.043, 0.7013770
1246.525, 0.9350670
1247.007, 1.002364
1247.489, 0.8319680
1247.971, 0.4826590
1248.453, 0.3449890
1248.935, 0.6202790
1249.418, 0.6934180
1249.900, 0.3896800
1250.382, 0.2102870
1250.864, 0.2794460
1251.346, 0.4671640
1251.828, 0.7103290
1252.310, 0.8881050
1252.792, 0.8374520
1253.275, 0.9369270
1253.757, 0.6191210
1254.239, 0.7633270
1254.721, 0.6251940
1255.203, 0.2391130
1255.685, 8.2097001E-02
1256.167, 0.2343230
1256.649, 0.4008680
1257.131, 0.4273620
1257.614, 0.4159250
1258.096, 0.4700810
1258.578, 0.5282680
1259.060, 0.5024860
1259.542, 0.4532260
1260.024, 0.4437120
1260.506, 0.4761100
1260.988, 0.5850390
1261.470, 0.7367620
1261.953, 0.7875480
1262.435, 0.6870790
1262.917, 0.5464750
1263.399, 0.3393390
1263.881, 0.1732110
1264.363, 2.0305000E-02
1264.845, 3.8198002E-02
1265.327, 0.3279890
1265.810, 0.8028780
1266.292, 1.111320
1266.774, 1.249928
1267.256, 1.118822
1267.738, 0.6716580
1268.220, 0.4600140
1268.702, 0.4915760
1269.184, 0.5394980
1269.667, 0.5636540
1270.149, 0.5783170
1270.631, 0.5894000
1271.113, 0.5861020
1271.595, 0.5688320
1272.077, 0.4994100
1272.559, 0.2102570
1273.041, 9.5022999E-02
1273.523, 0.1012360
1274.005, 0.1012940
1274.488, 0.3987920
1274.970, 0.7133680
1275.452, 0.9053480
1275.934, 0.9176860
1276.416, 0.9232600
1276.898, 1.151663
1277.380, 1.173077
1277.862, 0.6481550
1278.345, 0.1781970
1278.827, 4.5511000E-02
1279.309, 9.6931003E-02
1279.791, 0.2770930
1280.273, 0.4216380
1280.755, 0.3979910
1281.237, 0.3229760
1281.719, 0.2886390
1282.202, 0.2994520
1282.684, 0.3055840
1283.166, 0.2566030
1283.648, 0.2425610
1284.130, 0.3001190
1284.612, 0.3531100
1285.094, 0.3654990
1285.576, 0.3340380
1286.058, 0.1657730
1286.541, 1.1100000E-04
1287.023, 0.0000000E+00
##END=



