##NAMES=Tourmaline
##RRUFFID=R110133
##LOCALITY=Crystal Palace, King County, Washington, USA
##OWNER=RRUFF
##SOURCE=Bart Cannon
##DESCRIPTION=Masses of green acicular crystals associated with quartz
##STATUS=The identification of this mineral has been confirmed only by single crystal X-ray diffraction.
##URL=rruff.info/R110133
187.3976, 0.0000000E+00
187.8798, 0.6527790
188.3619, 1.096664
188.8440, 1.149879
189.3261, 0.2733380
189.8082, 0.2941970
190.2903, 0.4480060
190.7725, 0.1038060
191.2546, 0.6904830
191.7367, 1.746765
192.2188, 3.170479
192.7009, 4.539413
193.1830, 4.784134
193.6652, 3.884956
194.1473, 3.454681
194.6294, 4.553558
195.1115, 7.058990
195.5936, 9.554787
196.0757, 12.01382
196.5579, 14.33048
197.0400, 16.11614
197.5221, 17.29231
198.0042, 18.72961
198.4863, 21.14036
198.9684, 24.52754
199.4506, 27.46961
199.9327, 29.73315
200.4148, 31.64159
200.8969, 33.92207
201.3790, 36.68546
201.8611, 39.35107
202.3433, 41.52452
202.8254, 43.15805
203.3075, 44.86507
203.7896, 46.62981
204.2717, 48.51889
204.7538, 50.65347
205.2360, 53.00166
205.7181, 55.69031
206.2002, 59.01776
206.6823, 63.18567
207.1644, 66.59947
207.6465, 68.92007
208.1287, 70.51617
208.6108, 72.61266
209.0929, 75.39098
209.5750, 78.17154
210.0571, 80.45166
210.5392, 82.10488
211.0214, 83.94781
211.5035, 86.19241
211.9856, 88.62966
212.4677, 90.56261
212.9498, 91.87310
213.4319, 92.98428
213.9140, 94.17550
214.3962, 95.51169
214.8783, 96.64237
215.3604, 97.38184
215.8425, 97.91235
216.3246, 99.06670
216.8067, 101.2719
217.2889, 103.2905
217.7710, 104.2761
218.2531, 103.8124
218.7352, 103.5450
219.2173, 103.6188
219.6994, 103.9884
220.1816, 104.5660
220.6637, 105.7486
221.1458, 106.4654
221.6279, 105.8811
222.1100, 103.3237
222.5921, 101.2655
223.0743, 100.1400
223.5564, 99.67736
224.0385, 98.38858
224.5206, 95.62626
225.0027, 93.11395
225.4848, 92.12495
225.9670, 93.70271
226.4491, 94.26664
226.9312, 93.19129
227.4133, 90.87013
227.8954, 89.12827
228.3775, 88.20893
228.8597, 87.56528
229.3418, 86.90076
229.8239, 86.20992
230.3060, 85.50394
230.7881, 84.75381
231.2702, 83.98019
231.7524, 83.33888
232.2345, 82.90617
232.7166, 82.49996
233.1987, 82.00340
233.6808, 81.31082
234.1629, 80.76759
234.6451, 80.49341
235.1272, 80.38678
235.6093, 79.99374
236.0914, 79.28952
236.5735, 78.49420
237.0556, 77.83631
237.5378, 76.96937
238.0199, 76.39056
238.5020, 76.53956
238.9841, 76.83706
239.4662, 76.12737
239.9483, 73.77159
240.4305, 71.12499
240.9126, 68.97855
241.3947, 67.74149
241.8768, 66.04905
242.3589, 63.78709
242.8410, 61.27194
243.3232, 59.10379
243.8053, 57.60568
244.2874, 56.13026
244.7695, 54.31335
245.2516, 51.73969
245.7337, 49.63000
246.2159, 48.16978
246.6980, 47.16370
247.1801, 46.03773
247.6622, 44.75151
248.1443, 43.38864
248.6264, 41.97588
249.1086, 40.39368
249.5907, 38.97633
250.0728, 37.67155
250.5549, 36.55063
251.0370, 35.83545
251.5191, 35.70007
252.0013, 35.69736
252.4834, 35.65732
252.9655, 35.63135
253.4476, 35.41005
253.9297, 34.79819
254.4118, 34.08041
254.8940, 33.92258
255.3761, 34.58690
255.8582, 35.34898
256.3403, 35.96674
256.8224, 36.52306
257.3046, 36.63894
257.7867, 36.21951
258.2688, 35.41795
258.7509, 34.42700
259.2330, 32.96188
259.7151, 31.91049
260.1973, 31.78260
260.6794, 32.92874
261.1615, 33.39852
261.6436, 32.93245
262.1257, 32.01485
262.6078, 31.49409
263.0900, 31.57793
263.5721, 31.57924
264.0542, 31.21919
264.5363, 30.41105
265.0184, 29.82990
265.5005, 29.58508
265.9827, 29.43403
266.4648, 28.96776
266.9469, 28.04115
267.4290, 27.20932
267.9111, 26.69644
268.3932, 26.53919
268.8754, 26.11829
269.3575, 25.40644
269.8396, 24.46993
270.3217, 23.29883
270.8038, 21.75481
271.2859, 20.52585
271.7681, 19.89808
272.2502, 19.84838
272.7323, 19.62604
273.2144, 19.19926
273.6965, 18.67464
274.1786, 18.20530
274.6608, 17.82984
275.1429, 17.25829
275.6250, 16.35384
276.1071, 15.17912
276.5892, 14.19144
277.0714, 13.46849
277.5535, 12.76167
278.0356, 11.77150
278.5177, 10.45098
278.9998, 9.356102
279.4819, 8.705368
279.9641, 8.342171
280.4462, 7.552818
280.9283, 6.241913
281.4104, 4.900215
281.8925, 3.982895
282.3746, 3.498566
282.8568, 2.821434
283.3389, 1.749504
283.8210, 0.5026170
284.3031, 0.2355500
284.7852, 0.4119570
285.2673, 0.5356520
285.7495, 1.091721
286.2316, 2.023277
286.7137, 2.525253
287.1958, 2.357376
287.6779, 1.916527
288.1600, 2.138916
288.6422, 3.037605
289.1243, 3.825378
289.6064, 3.843033
290.0885, 3.260254
290.5706, 2.981438
291.0527, 3.162010
291.5349, 3.495331
292.0170, 3.492928
292.4991, 3.176521
292.9812, 2.782738
293.4633, 2.420189
293.9454, 2.081779
294.4276, 1.776527
294.9097, 1.529648
295.3918, 1.217819
295.8739, 0.5011060
296.3560, 0.4902950
296.8381, 1.170380
297.3203, 0.8766400
297.8024, 0.1449360
298.2845, 0.1332930
298.7666, 0.9078370
299.2487, 1.971291
299.7308, 2.899956
300.2130, 3.732941
300.6951, 4.571358
301.1772, 5.618408
301.6593, 6.613586
302.1414, 7.020485
302.6235, 6.852119
303.1057, 6.805954
303.5878, 7.772369
304.0699, 9.242310
304.5520, 10.23649
305.0341, 10.11683
305.5162, 9.682114
305.9984, 9.678116
306.4805, 10.08636
306.9626, 10.77674
307.4447, 11.91124
307.9268, 13.19698
308.4089, 14.24368
308.8911, 14.94075
309.3732, 15.39198
309.8553, 15.66143
310.3374, 15.75012
310.8195, 15.66122
311.3016, 15.16953
311.7838, 14.61882
312.2659, 14.36800
312.7480, 14.65295
313.2301, 14.84288
313.7122, 14.52496
314.1943, 13.83739
314.6765, 13.07837
315.1586, 12.21762
315.6407, 11.44530
316.1228, 10.93260
316.6049, 10.78674
317.0870, 10.54692
317.5692, 10.02831
318.0513, 9.293053
318.5334, 8.429192
319.0155, 7.358841
319.4976, 6.257133
319.9797, 5.133034
320.4619, 3.965683
320.9440, 3.059090
321.4261, 2.752235
321.9082, 2.648445
322.3903, 2.373947
322.8724, 1.451317
323.3546, 0.7485960
323.8367, 0.6052630
324.3188, 1.001389
324.8009, 1.277985
325.2830, 1.183212
325.7651, 1.027252
326.2473, 1.011398
326.7294, 1.430862
327.2115, 1.675484
327.6936, 1.495773
328.1757, 1.028191
328.6578, 0.9374470
329.1400, 1.480019
329.6221, 2.193581
330.1042, 2.892342
330.5863, 3.556839
331.0684, 4.244469
331.5505, 4.971634
332.0327, 5.714088
332.5148, 6.396271
332.9969, 6.864296
333.4790, 7.480873
333.9611, 8.465103
334.4432, 10.02477
334.9254, 11.04161
335.4075, 11.11112
335.8896, 10.96324
336.3717, 11.62215
336.8538, 13.27776
337.3359, 15.28024
337.8180, 17.53507
338.3001, 20.02692
338.7823, 22.42474
339.2644, 24.74385
339.7465, 26.89574
340.2286, 28.71043
340.7107, 30.09120
341.1928, 31.63515
341.6750, 33.40670
342.1571, 35.40271
342.6392, 37.62215
343.1213, 40.10013
343.6034, 42.70987
344.0855, 45.48886
344.5677, 48.42570
345.0498, 51.15298
345.5319, 53.53705
346.0140, 55.79912
346.4961, 58.49437
346.9782, 61.59592
347.4604, 64.62174
347.9425, 67.07375
348.4246, 69.18256
348.9067, 71.72210
349.3888, 74.73544
349.8709, 78.14111
350.3531, 82.15198
350.8352, 86.56540
351.3173, 90.59014
351.7994, 93.74561
352.2815, 96.37601
352.7636, 98.98053
353.2458, 101.5628
353.7279, 104.3007
354.2100, 107.4937
354.6921, 110.8651
355.1742, 114.0153
355.6563, 116.8955
356.1385, 119.4443
356.6206, 121.6043
357.1027, 123.3743
357.5848, 124.8174
358.0669, 125.8439
358.5490, 126.6455
359.0312, 127.4202
359.5133, 128.2808
359.9954, 128.9738
360.4775, 129.5348
360.9596, 129.8270
361.4417, 129.5565
361.9239, 128.4980
362.4060, 126.9362
362.8881, 124.9719
363.3702, 122.5783
363.8523, 119.9969
364.3344, 117.4227
364.8166, 114.6622
365.2987, 111.4671
365.7808, 107.3401
366.2629, 103.3002
366.7450, 99.72330
367.2271, 96.61039
367.7093, 93.29091
368.1914, 89.36892
368.6735, 85.41329
369.1556, 81.76423
369.6377, 78.59965
370.1198, 75.64360
370.6020, 73.10472
371.0841, 70.79764
371.5662, 67.99612
372.0483, 64.15895
372.5304, 60.52428
373.0125, 57.63036
373.4947, 55.74763
373.9768, 53.91355
374.4589, 52.18677
374.9410, 50.50867
375.4231, 48.61227
375.9052, 46.25237
376.3874, 44.01472
376.8695, 42.16614
377.3516, 40.68054
377.8337, 39.35898
378.3158, 38.27533
378.7979, 37.22853
379.2801, 35.91308
379.7622, 34.25544
380.2443, 32.68577
380.7264, 31.27328
381.2085, 30.05112
381.6906, 29.20173
382.1728, 28.74940
382.6549, 28.33279
383.1370, 27.39789
383.6191, 26.09043
384.1012, 25.31733
384.5833, 25.30637
385.0655, 25.48808
385.5476, 24.95415
386.0297, 23.87947
386.5118, 23.01584
386.9939, 23.04240
387.4760, 23.39670
387.9582, 23.22573
388.4403, 22.50850
388.9224, 21.61763
389.4045, 20.52071
389.8866, 19.53869
390.3687, 19.17171
390.8509, 20.28629
391.3330, 21.30504
391.8151, 20.82993
392.2972, 19.19939
392.7793, 17.81501
393.2614, 17.75365
393.7436, 18.00217
394.2257, 17.70163
394.7078, 16.39495
395.1899, 15.23740
395.6720, 14.58314
396.1541, 14.33382
396.6363, 14.33200
397.1184, 14.77822
397.6005, 15.24243
398.0826, 15.67236
398.5647, 16.10386
399.0468, 16.13956
399.5290, 15.37556
400.0111, 14.40519
400.4932, 13.70225
400.9753, 13.46954
401.4574, 13.23818
401.9395, 12.97576
402.4217, 12.68710
402.9038, 12.38664
403.3859, 11.99752
403.8680, 11.70603
404.3501, 11.67594
404.8322, 12.10303
405.3144, 12.04631
405.7965, 11.29189
406.2786, 10.35936
406.7607, 10.04824
407.2428, 10.46391
407.7249, 10.82714
408.2071, 10.85938
408.6892, 10.61192
409.1713, 10.38937
409.6534, 10.19989
410.1355, 10.00426
410.6176, 9.793564
411.0998, 9.544548
411.5819, 9.150764
412.0640, 8.510315
412.5461, 7.875549
413.0282, 7.708763
413.5103, 7.943878
413.9925, 8.175766
414.4746, 8.171783
414.9567, 8.012383
415.4388, 7.777397
415.9209, 7.455345
416.4030, 7.214272
416.8852, 7.334854
417.3673, 7.601883
417.8494, 7.667870
418.3315, 7.289330
418.8136, 6.759262
419.2957, 6.303665
419.7779, 5.891617
420.2600, 5.274834
420.7421, 3.853737
421.2242, 2.484947
421.7063, 1.896118
422.1884, 2.733124
422.6706, 3.341209
423.1527, 3.107269
423.6348, 2.400261
424.1169, 1.915451
424.5990, 1.976906
425.0811, 2.053230
425.5633, 1.973541
426.0454, 1.706894
426.5275, 1.474014
427.0096, 1.143623
427.4917, 0.9454800
427.9738, 1.131287
428.4560, 2.090569
428.9381, 2.591568
429.4202, 2.336433
429.9023, 1.560913
430.3844, 1.106812
430.8665, 1.137093
431.3487, 1.033104
431.8308, 0.2471620
432.3129, 1.294449
432.7950, 1.811150
433.2771, 1.050079
433.7592, 0.1177900
434.2414, 0.6276630
434.7235, 0.5142060
435.2056, 0.1458590
435.6877, 0.5704120
436.1698, 1.321182
436.6519, 1.352318
437.1341, 0.6914370
437.6162, 0.1077120
438.0983, 0.9816130
438.5804, 1.644653
439.0625, 1.426460
439.5446, 3.5812002E-02
440.0268, 1.524689
440.5089, 1.847076
440.9910, 1.400047
441.4731, 0.9920730
441.9552, 1.142517
442.4373, 1.327431
442.9195, 1.179802
443.4016, 0.6960530
443.8837, 0.2083820
444.3658, 0.2575530
444.8479, 0.6096950
445.3300, 0.7689510
445.8122, 0.5954440
446.2943, 0.3921130
446.7764, 0.1696620
447.2585, 4.9316000E-02
447.7406, 0.2062150
448.2227, 0.3455890
448.7049, 0.3701320
449.1870, 0.1739580
449.6691, 0.3355030
450.1512, 0.4588390
450.6333, 0.1452100
451.1154, 0.7634660
451.5976, 0.6045910
452.0797, 0.6780090
452.5618, 1.558266
453.0439, 1.695473
453.5260, 1.336037
454.0081, 1.257813
454.4903, 1.503136
454.9724, 1.755005
455.4545, 1.836105
455.9366, 1.765274
456.4187, 1.607208
456.9008, 1.322754
457.3830, 1.184883
457.8651, 1.818138
458.3472, 2.919685
458.8293, 3.442207
459.3114, 2.700027
459.7935, 1.573929
460.2757, 1.191826
460.7578, 1.437752
461.2399, 1.710930
461.7220, 1.758507
462.2041, 1.592728
462.6862, 1.102982
463.1684, 0.1408540
463.6505, 0.5275190
464.1326, 0.3070910
464.6147, 0.3856890
465.0968, 1.017601
465.5789, 1.660583
466.0611, 1.977287
466.5432, 1.685272
467.0253, 0.8545150
467.5074, 0.2542190
467.9895, 3.9421000E-02
468.4716, 7.0289999E-02
468.9538, 0.1882550
469.4359, 1.004700
469.9180, 1.502205
470.4001, 1.522636
470.8822, 1.335442
471.3643, 1.386040
471.8465, 1.823135
472.3286, 2.040703
472.8107, 1.758583
473.2928, 1.117882
473.7749, 0.9671250
474.2570, 1.372330
474.7392, 1.930626
475.2213, 2.309700
475.7034, 2.556587
476.1855, 3.071213
476.6676, 3.981201
477.1497, 4.873177
477.6319, 5.069313
478.1140, 4.754135
478.5961, 4.522621
479.0782, 4.608391
479.5603, 4.928467
480.0424, 5.479355
480.5246, 6.232368
481.0067, 6.935711
481.4888, 7.321579
481.9709, 7.647568
482.4530, 8.145344
482.9352, 8.898861
483.4173, 9.725578
483.8994, 10.63411
484.3815, 11.55522
484.8636, 12.37534
485.3457, 13.16336
485.8279, 13.74929
486.3100, 13.94824
486.7921, 13.76349
487.2742, 13.89921
487.7563, 14.61142
488.2384, 15.38765
488.7206, 15.92717
489.2027, 16.10448
489.6848, 16.37685
490.1669, 16.67142
490.6490, 17.04133
491.1311, 17.68589
491.6133, 18.67128
492.0954, 19.42969
492.5775, 19.73147
493.0596, 19.70057
493.5417, 19.75574
494.0238, 19.87527
494.5060, 20.07673
494.9881, 20.51359
495.4702, 21.04554
495.9523, 21.17427
496.4344, 20.70795
496.9165, 20.43378
497.3987, 21.41774
497.8808, 23.04270
498.3629, 24.35766
498.8450, 25.06584
499.3271, 25.31129
499.8092, 24.86396
500.2914, 23.86830
500.7735, 23.16523
501.2556, 23.36600
501.7377, 23.76472
502.2198, 23.91250
502.7019, 23.60881
503.1841, 23.41740
503.6662, 23.59880
504.1483, 23.83525
504.6304, 23.74084
505.1125, 22.97723
505.5946, 22.44362
506.0768, 22.39314
506.5589, 22.69379
507.0410, 22.59010
507.5231, 21.86440
508.0052, 21.34321
508.4873, 21.66586
508.9695, 22.83718
509.4516, 23.30335
509.9337, 22.93800
510.4158, 22.28460
510.8979, 21.97375
511.3800, 21.97356
511.8622, 22.12643
512.3443, 22.47430
512.8264, 22.73567
513.3085, 22.42144
513.7906, 21.70103
514.2728, 21.13469
514.7549, 21.23023
515.2370, 21.44844
515.7191, 21.25363
516.2012, 20.58128
516.6833, 20.07306
517.1655, 20.14951
517.6476, 20.47028
518.1297, 20.73570
518.6118, 20.92312
519.0939, 20.93981
519.5760, 20.68933
520.0582, 20.26844
520.5403, 19.88781
521.0224, 19.46076
521.5045, 19.14727
521.9866, 19.01307
522.4688, 19.07889
522.9509, 19.60425
523.4330, 20.84998
523.9151, 22.03410
524.3972, 22.39697
524.8793, 21.88152
525.3615, 21.45698
525.8436, 21.22300
526.3257, 21.15154
526.8078, 21.21730
527.2899, 21.38877
527.7720, 21.56303
528.2542, 21.64497
528.7363, 21.72292
529.2184, 21.94735
529.7005, 22.32390
530.1826, 22.77580
530.6647, 23.25070
531.1469, 23.71445
531.6290, 24.24631
532.1111, 24.96452
532.5932, 25.42810
533.0753, 25.24696
533.5574, 24.73383
534.0396, 24.25124
534.5217, 23.79824
535.0038, 23.48455
535.4859, 23.32574
535.9680, 23.31342
536.4501, 23.35281
536.9323, 23.65678
537.4144, 23.64462
537.8965, 22.99406
538.3786, 21.68688
538.8607, 20.69280
539.3428, 20.07608
539.8250, 19.59654
540.3071, 19.01599
540.7892, 18.36412
541.2713, 17.90042
541.7534, 17.72958
542.2355, 17.58582
542.7177, 17.11548
543.1998, 16.36842
543.6819, 15.49972
544.1640, 14.33873
544.6461, 13.25777
545.1282, 12.74905
545.6104, 12.73766
546.0925, 12.56498
546.5746, 11.84450
547.0567, 10.92834
547.5388, 9.851566
548.0209, 8.498867
548.5031, 7.671406
548.9852, 7.954506
549.4673, 8.656738
549.9494, 9.014652
550.4315, 8.953938
550.9136, 8.602737
551.3958, 7.859554
551.8779, 6.862537
552.3600, 6.010406
552.8421, 5.282059
553.3242, 4.754871
553.8063, 4.521606
554.2885, 4.540379
554.7706, 4.472225
555.2527, 4.309628
555.7348, 4.142406
556.2169, 4.036472
556.6990, 3.987591
557.1812, 4.031105
557.6633, 4.229671
558.1454, 4.307583
558.6275, 3.899818
559.1096, 3.198933
559.5917, 2.535442
560.0739, 1.825123
560.5560, 1.393192
561.0381, 1.669537
561.5202, 2.451473
562.0023, 2.860481
562.4844, 2.297478
562.9666, 1.636150
563.4487, 1.276272
563.9308, 1.294441
564.4129, 1.270218
564.8950, 1.238457
565.3771, 1.124725
565.8593, 0.7843700
566.3414, 7.0350997E-02
566.8235, 0.1766510
567.3056, 0.2861750
567.7877, 0.9981840
568.2698, 1.017159
568.7520, 0.3909910
569.2341, 6.7726001E-02
569.7162, 7.5347997E-02
570.1983, 0.4904750
570.6804, 0.5146940
571.1625, 0.2092510
571.6447, 2.8990000E-03
572.1268, 0.2515030
572.6089, 0.6775550
573.0910, 1.039700
573.5731, 1.333584
574.0552, 1.407032
574.5374, 0.9115330
575.0195, 0.3033260
575.5016, 6.5649999E-03
575.9837, 0.4334980
576.4658, 0.7634700
576.9479, 0.8974040
577.4301, 0.8934210
577.9122, 0.8524700
578.3943, 0.7229420
578.8764, 0.6688270
579.3585, 0.8174320
579.8406, 1.096230
580.3228, 0.8868290
580.8049, 9.8392002E-02
581.2870, 0.5907900
581.7691, 0.5621190
582.2512, 2.8751001E-02
582.7333, 9.3239002E-02
583.2155, 0.2787700
583.6975, 0.7470510
584.1796, 1.030304
584.6617, 1.138149
585.1439, 1.056717
585.6260, 0.6296040
586.1081, 0.2886770
586.5902, 0.4739380
587.0723, 0.9139560
587.5544, 1.084000
588.0366, 0.3471070
588.5187, 0.1861110
589.0008, 8.5593998E-02
589.4829, 1.095852
589.9650, 1.418041
590.4471, 0.5040890
590.9293, 0.3817600
591.4114, 0.5214200
591.8935, 0.2733040
592.3756, 0.3676030
592.8577, 0.4406850
593.3398, 1.404507
593.8220, 1.725620
594.3041, 1.475853
594.7862, 1.175190
595.2683, 0.8645740
595.7504, 0.6773640
596.2325, 0.9656980
596.7147, 1.527805
597.1968, 1.833405
597.6789, 1.434883
598.1610, 0.8803440
598.6431, 0.5427320
599.1252, 0.3897210
599.6074, 0.2494740
600.0895, 4.8641000E-02
600.5716, 0.1456790
601.0537, 0.3540190
601.5358, 0.6375080
602.0179, 0.5786320
602.5001, 0.2583390
602.9822, 1.009109
603.4643, 0.8720020
603.9464, 0.5919230
604.4285, 1.087463
604.9106, 0.1614270
605.3928, 1.186237
605.8749, 1.272556
606.3570, 0.2056690
606.8391, 0.5848730
607.3212, 0.5894170
607.8033, 0.1885910
608.2855, 0.1229590
608.7676, 0.3548740
609.2497, 0.5568430
609.7318, 0.8320880
610.2139, 1.028011
610.6960, 0.9341320
611.1782, 0.5576210
611.6603, 0.3280260
612.1424, 0.6140750
612.6245, 0.9342800
613.1066, 0.9747120
613.5887, 0.5539210
614.0709, 0.2210770
614.5530, 5.7830000E-03
615.0351, 0.1618800
615.5172, 0.2930720
615.9993, 0.4126360
616.4814, 0.4569970
616.9636, 0.4370040
617.4457, 0.3109820
617.9278, 7.1308002E-02
618.4099, 0.6831970
618.8920, 1.262436
619.3741, 1.755165
619.8563, 2.115726
620.3384, 2.187965
620.8205, 2.023163
621.3026, 1.886951
621.7847, 1.890404
622.2668, 2.017815
622.7490, 2.249352
623.2311, 2.579247
623.7132, 3.047050
624.1953, 3.900837
624.6774, 4.713505
625.1595, 5.214790
625.6417, 5.222404
626.1238, 5.208298
626.6059, 5.029079
627.0880, 4.942993
627.5701, 5.458138
628.0522, 6.672142
628.5344, 7.605885
629.0165, 7.964653
629.4986, 8.043922
629.9807, 8.455326
630.4628, 9.145992
630.9449, 9.804802
631.4271, 10.05100
631.9092, 10.33448
632.3913, 11.33370
632.8734, 12.90770
633.3555, 14.20082
633.8376, 14.57584
634.3198, 14.76595
634.8019, 15.25274
635.2840, 16.17148
635.7661, 16.90665
636.2482, 17.14858
636.7303, 17.39738
637.2125, 18.03103
637.6946, 19.24997
638.1767, 20.29070
638.6588, 21.10932
639.1409, 21.69569
639.6230, 21.97333
640.1052, 22.00856
640.5873, 22.30564
641.0694, 23.05012
641.5515, 23.93563
642.0336, 24.47072
642.5157, 24.77509
642.9979, 25.19162
643.4800, 26.06176
643.9621, 26.98081
644.4442, 27.67783
644.9263, 28.13612
645.4084, 28.38323
645.8906, 28.21645
646.3727, 28.10526
646.8548, 28.25891
647.3369, 28.67091
647.8190, 29.01058
648.3011, 29.33855
648.7833, 29.67972
649.2654, 30.06781
649.7475, 30.50469
650.2296, 30.55853
650.7117, 30.17982
651.1938, 29.67953
651.6760, 29.42749
652.1581, 29.40031
652.6402, 29.57184
653.1223, 30.04751
653.6044, 30.47919
654.0865, 30.55824
654.5687, 30.37230
655.0508, 30.09498
655.5329, 29.95966
656.0150, 29.56762
656.4971, 28.59398
656.9792, 27.17549
657.4614, 26.01557
657.9435, 25.05833
658.4256, 24.48129
658.9077, 24.49805
659.3898, 25.06035
659.8719, 25.08174
660.3541, 24.49476
660.8362, 23.78943
661.3183, 23.27090
661.8004, 22.90468
662.2825, 22.66582
662.7646, 22.64314
663.2468, 22.60764
663.7289, 22.35675
664.2110, 22.00716
664.6931, 21.67764
665.1752, 21.39662
665.6573, 21.23660
666.1395, 21.23697
666.6216, 21.34506
667.1037, 21.50058
667.5858, 21.92699
668.0679, 22.08005
668.5500, 21.72791
669.0322, 21.16241
669.5143, 21.12050
669.9964, 21.76389
670.4785, 22.10690
670.9606, 21.70605
671.4427, 20.89961
671.9249, 20.72229
672.4070, 21.09145
672.8891, 21.35276
673.3712, 20.68961
673.8533, 19.96368
674.3354, 20.49873
674.8176, 22.17051
675.2997, 23.38474
675.7818, 22.91304
676.2639, 22.04436
676.7460, 21.52842
677.2281, 21.49871
677.7103, 21.69066
678.1924, 22.34639
678.6745, 22.95599
679.1566, 23.08032
679.6387, 22.55784
680.1208, 22.33577
680.6030, 22.49843
681.0851, 22.86668
681.5672, 23.28139
682.0493, 23.72098
682.5314, 24.06654
683.0135, 24.18253
683.4957, 24.44128
683.9778, 25.35983
684.4599, 26.69084
684.9420, 27.93171
685.4241, 28.83266
685.9063, 29.70083
686.3884, 30.77429
686.8705, 31.92872
687.3526, 32.71814
687.8347, 32.67145
688.3168, 32.94000
688.7990, 33.90012
689.2811, 35.45283
689.7632, 36.88625
690.2453, 38.19039
690.7274, 39.42015
691.2095, 40.58598
691.6917, 41.68790
692.1738, 42.70164
692.6559, 43.62233
693.1380, 44.63166
693.6201, 45.87272
694.1022, 47.25053
694.5844, 48.78527
695.0665, 50.53635
695.5486, 51.95747
696.0307, 52.39092
696.5128, 52.72227
696.9949, 53.73508
697.4771, 56.32869
697.9592, 57.66956
698.4413, 57.26855
698.9234, 56.23118
699.4055, 55.90835
699.8876, 56.31603
700.3698, 56.67882
700.8519, 56.90793
701.3340, 56.96317
701.8161, 56.72501
702.2982, 56.27039
702.7803, 55.79903
703.2625, 55.48826
703.7446, 54.97249
704.2267, 53.93984
704.7088, 52.56014
705.1909, 51.16634
705.6730, 49.66260
706.1552, 48.33659
706.6373, 47.52332
707.1194, 47.00732
707.6015, 45.68341
708.0836, 43.26727
708.5657, 40.95303
709.0479, 39.28089
709.5300, 38.12622
710.0121, 37.09127
710.4942, 36.16429
710.9763, 34.98595
711.4584, 33.12949
711.9406, 30.93349
712.4227, 28.74656
712.9048, 26.59824
713.3869, 24.72889
713.8690, 23.39621
714.3511, 22.28418
714.8333, 21.18837
715.3154, 20.08558
715.7975, 19.07604
716.2796, 18.22386
716.7617, 17.38114
717.2438, 16.38926
717.7260, 15.23349
718.2081, 14.15928
718.6902, 13.16522
719.1723, 12.35851
719.6544, 12.11578
720.1365, 12.15900
720.6187, 11.69068
721.1008, 10.31718
721.5829, 9.053032
722.0650, 8.835316
722.5471, 9.122166
723.0292, 9.180939
723.5114, 8.464527
723.9935, 7.926159
724.4756, 7.804920
724.9577, 7.908760
725.4398, 7.958012
725.9219, 8.020805
726.4041, 7.788357
726.8862, 7.118164
727.3683, 6.191086
727.8504, 5.366913
728.3325, 4.667542
728.8146, 4.258663
729.2968, 4.320663
729.7789, 4.629478
730.2610, 5.085838
730.7431, 5.601223
731.2252, 5.882530
731.7073, 5.584736
732.1895, 5.238037
732.6716, 5.088810
733.1537, 5.127609
733.6358, 5.088573
734.1179, 4.985748
734.6000, 4.766167
735.0822, 4.294380
735.5643, 3.637749
736.0464, 3.645195
736.5285, 4.355591
737.0106, 4.963127
737.4927, 4.680786
737.9749, 3.995167
738.4570, 3.795372
738.9391, 4.114002
739.4212, 4.386326
739.9033, 4.328934
740.3854, 4.090847
740.8676, 3.625359
741.3497, 2.678467
741.8318, 2.507370
742.3139, 3.960697
742.7960, 5.365601
743.2781, 5.368507
743.7603, 3.635082
744.2424, 2.642311
744.7245, 2.570782
745.2066, 2.859268
745.6887, 2.976547
746.1708, 2.970566
746.6530, 2.997704
747.1351, 3.100559
747.6172, 3.140770
748.0993, 2.965969
748.5814, 2.685467
749.0635, 2.420406
749.5457, 2.152447
750.0278, 1.970192
750.5099, 1.954109
750.9920, 1.985268
751.4741, 1.957928
751.9562, 1.909969
752.4384, 1.581699
752.9205, 0.8289910
753.4026, 2.0931000E-02
753.8847, 0.1917500
754.3668, 6.7093000E-02
754.8489, 0.3341870
755.3311, 0.4952470
755.8132, 0.5636830
756.2953, 0.5621800
756.7774, 0.4732740
757.2595, 0.2687070
757.7416, 0.1850930
758.2238, 0.6109200
758.7059, 0.9325330
759.1880, 1.192738
759.6701, 1.534004
760.1522, 2.091103
760.6343, 2.264889
761.1165, 1.769745
761.5986, 0.9365460
762.0807, 0.6669620
762.5628, 0.8502500
763.0449, 0.8327450
763.5270, 8.0383003E-02
764.0092, 0.9860530
764.4913, 0.7966120
764.9734, 0.1341320
765.4555, 0.7168620
765.9376, 8.2138002E-02
766.4197, 0.4801030
766.9019, 0.4292410
767.3840, 7.9865001E-02
767.8661, 0.4143520
768.3482, 0.6143840
768.8303, 0.5849720
769.3124, 0.1357150
769.7946, 0.5337490
770.2767, 0.6035390
770.7588, 0.1401710
771.2409, 0.2323910
771.7230, 5.2498002E-02
772.2051, 0.3354380
772.6873, 0.6485600
773.1694, 0.8735080
773.6515, 0.9904750
774.1336, 0.8511580
774.6157, 0.7388040
775.0978, 0.7366640
775.5800, 0.8517070
776.0621, 1.261986
776.5442, 2.132458
777.0263, 2.804771
777.5084, 2.845917
777.9905, 2.383610
778.4727, 1.837273
778.9548, 1.234673
779.4369, 1.038738
779.9190, 2.198315
780.4011, 3.510967
780.8832, 3.571911
781.3654, 2.312679
781.8475, 1.417263
782.3296, 1.676640
782.8117, 2.222378
783.2938, 2.659397
783.7759, 2.997200
784.2581, 3.105980
784.7402, 2.921223
785.2223, 2.712368
785.7044, 2.705662
786.1865, 2.833229
786.6686, 2.832100
787.1508, 2.702454
787.6329, 2.464836
788.1150, 1.800682
788.5971, 1.249004
789.0792, 1.552486
789.5613, 2.936684
790.0435, 3.709190
790.5256, 2.870846
791.0077, 1.832649
791.4898, 1.337093
791.9719, 1.483021
792.4540, 1.494274
792.9362, 1.349548
793.4183, 1.179787
793.9004, 1.011959
794.3825, 0.9172520
794.8646, 1.249180
795.3467, 2.042645
795.8289, 2.550972
796.3110, 1.988251
796.7931, 1.067574
797.2752, 0.3521730
797.7573, 8.5162997E-02
798.2394, 0.3259890
798.7216, 0.2289770
799.2037, 0.1127430
799.6858, 0.2515720
800.1679, 0.7375220
800.6500, 0.6431240
801.1321, 0.1257400
801.6143, 0.8833010
802.0964, 0.8905830
802.5785, 0.4772680
803.0606, 0.2331810
803.5427, 0.2247540
804.0248, 0.4118610
804.5070, 1.029724
804.9891, 1.652054
805.4712, 1.909485
805.9533, 1.579479
806.4354, 1.482014
806.9175, 1.728584
807.3997, 2.052147
807.8818, 2.264072
808.3639, 2.365513
808.8460, 2.501823
809.3281, 2.693859
809.8102, 2.710270
810.2924, 2.044090
810.7745, 1.214043
811.2566, 1.012089
811.7387, 1.607136
812.2208, 2.158283
812.7029, 2.347439
813.1851, 2.340591
813.6672, 2.210735
814.1493, 1.889561
814.6314, 1.798912
815.1135, 2.022308
815.5956, 2.280888
816.0778, 2.311031
816.5599, 2.168915
817.0420, 2.145676
817.5241, 2.255974
818.0062, 2.283329
818.4883, 1.965149
818.9705, 1.614555
819.4526, 1.606609
819.9347, 2.034260
820.4168, 2.137733
820.8989, 1.443577
821.3810, 0.7194750
821.8632, 0.2596860
822.3453, 6.1935000E-02
822.8274, 0.2913170
823.3095, 1.022488
823.7916, 1.632374
824.2737, 1.318794
824.7559, 0.5402030
825.2380, 0.2472080
825.7201, 0.4862560
826.2022, 0.8653950
826.6843, 1.407734
827.1664, 1.830582
827.6486, 1.822403
828.1307, 1.251942
828.6128, 1.019203
829.0949, 1.316883
829.5770, 1.624130
830.0591, 1.583031
830.5413, 1.227558
831.0234, 1.207867
831.5055, 1.523659
831.9876, 1.758076
832.4697, 1.445137
832.9518, 0.9949760
833.4340, 0.9040570
833.9161, 1.170593
834.3982, 1.346069
834.8803, 1.237808
835.3624, 1.043961
835.8445, 0.8199080
836.3267, 0.5796810
836.8088, 0.4689370
837.2909, 0.4712640
837.7730, 0.5802880
838.2551, 0.9390300
838.7372, 1.398209
839.2194, 1.474361
839.7015, 1.241188
840.1836, 1.110294
840.6657, 1.440014
841.1478, 1.815163
841.6299, 1.963036
842.1121, 1.919220
842.5942, 1.977581
843.0763, 2.266003
843.5584, 2.350842
844.0405, 1.978710
844.5226, 1.379475
845.0048, 1.515087
845.4869, 2.324177
845.9690, 3.032745
846.4511, 3.217529
846.9332, 3.142033
847.4153, 2.990582
847.8975, 2.808643
848.3796, 2.721680
848.8617, 3.019550
849.3438, 3.171196
849.8259, 2.769539
850.3080, 2.096493
850.7902, 2.163200
851.2723, 3.180199
851.7544, 3.845669
852.2365, 3.667355
852.7186, 3.135326
853.2007, 3.105610
853.6829, 3.440205
854.1650, 3.775650
854.6471, 4.050724
855.1292, 4.190399
855.6113, 4.003933
856.0934, 3.654537
856.5756, 3.498013
857.0577, 3.711102
857.5398, 3.896889
858.0219, 3.973412
858.5040, 3.942467
858.9861, 3.782215
859.4683, 3.521851
859.9504, 3.435722
860.4325, 3.641785
860.9146, 3.863449
861.3967, 3.855774
861.8788, 3.732964
862.3610, 3.632759
862.8431, 3.620232
863.3252, 3.530411
863.8073, 3.300568
864.2894, 3.056164
864.7715, 2.900604
865.2537, 2.824768
865.7358, 2.753849
866.2179, 2.670216
866.7000, 2.666302
867.1821, 2.921242
867.6642, 3.280064
868.1464, 3.524921
868.6285, 3.623859
869.1106, 3.615421
869.5927, 3.364155
870.0748, 3.147228
870.5569, 3.220768
871.0391, 3.686604
871.5212, 3.616730
872.0033, 2.871094
872.4854, 2.142200
872.9675, 1.997803
873.4496, 2.247486
873.9318, 2.485710
874.4139, 2.700500
874.8960, 2.906296
875.3781, 3.143944
875.8602, 3.328434
876.3423, 3.346924
876.8245, 3.204502
877.3066, 3.314697
877.7887, 3.893936
878.2708, 4.226902
878.7529, 3.937855
879.2350, 3.238461
879.7172, 2.767803
880.1993, 2.504368
880.6814, 2.306087
881.1635, 2.007099
881.6456, 1.799973
882.1277, 2.007820
882.6099, 2.432175
883.0920, 2.510914
883.5741, 1.741535
884.0562, 1.222889
884.5383, 1.142559
885.0204, 1.374870
885.5026, 1.796261
885.9847, 2.372730
886.4668, 2.541561
886.9489, 1.969559
887.4310, 1.333153
887.9131, 1.565029
888.3953, 2.172722
888.8774, 2.405697
889.3595, 1.681049
889.8416, 1.139294
890.3237, 0.9777640
890.8058, 1.023304
891.2880, 1.155083
891.7701, 1.396748
892.2522, 1.514336
892.7343, 1.485031
893.2164, 1.346245
893.6985, 0.9025080
894.1807, 0.4327280
894.6628, 0.4294050
895.1449, 1.064449
895.6270, 1.468121
896.1091, 1.157566
896.5912, 0.6709100
897.0734, 0.2966690
897.5555, 3.2779999E-02
898.0376, 9.2049003E-02
898.5197, 4.2675000E-02
899.0018, 1.4420000E-03
899.4839, 0.1989860
899.9661, 0.4471660
900.4482, 0.2901190
900.9303, 0.2123370
901.4124, 0.6218410
901.8945, 0.5632210
902.3766, 0.5122570
902.8588, 0.8332060
903.3409, 1.402824
903.8230, 1.603470
904.3051, 1.368023
904.7872, 1.024090
905.2693, 0.6602820
905.7515, 0.2691920
906.2336, 0.3289720
906.7157, 0.9799350
907.1978, 1.226692
907.6799, 0.5660440
908.1620, 0.1349530
908.6442, 0.5070760
909.1263, 0.6791460
909.6084, 0.8934440
910.0905, 1.302444
910.5726, 1.323605
911.0547, 0.8142620
911.5369, 0.1261020
912.0190, 0.3511810
912.5011, 0.6285630
912.9832, 0.6651650
913.4653, 0.4005890
913.9474, 0.2615590
914.4296, 0.7657470
914.9117, 1.348019
915.3938, 1.491302
915.8759, 1.048046
916.3580, 0.6721080
916.8401, 0.3671110
917.3223, 0.1219670
917.8044, 5.7128999E-02
918.2865, 0.1818240
918.7686, 0.2831840
919.2507, 0.3680080
919.7328, 0.4905090
920.2150, 0.8968350
920.6971, 1.160072
921.1792, 0.7374990
921.6613, 0.1942140
922.1434, 0.2257800
922.6255, 1.283306
923.1077, 2.203163
923.5898, 1.705662
924.0719, 0.4766810
924.5540, 0.1300850
925.0361, 0.4815670
925.5182, 0.7833100
926.0004, 0.7612990
926.4825, 0.6008450
926.9646, 0.3115160
927.4467, 6.3900002E-03
927.9288, 0.1968420
928.4109, 0.2552030
928.8931, 0.1607020
929.3752, 0.1609000
929.8573, 0.4816630
930.3394, 0.5293310
930.8215, 0.3606490
931.3036, 0.1209260
931.7858, 0.1858440
932.2679, 0.3691290
932.7500, 0.2294500
933.2321, 3.4800999E-02
933.7142, 0.3270950
934.1964, 0.6608850
934.6785, 0.7488480
935.1606, 0.5297850
935.6427, 0.2031210
936.1248, 0.2545810
936.6069, 0.7035480
937.0891, 0.5383570
937.5712, 0.1313210
938.0533, 0.7522240
938.5354, 1.057789
939.0175, 1.189526
939.4996, 1.162647
939.9818, 1.025387
940.4639, 0.8956870
940.9460, 0.7658310
941.4281, 0.6621670
941.9102, 0.6092720
942.3923, 0.5499340
942.8745, 0.3094560
943.3566, 1.5610000E-02
943.8387, 0.1487240
944.3208, 2.0367000E-02
944.8029, 0.2704890
945.2850, 0.9961470
945.7672, 1.659836
946.2493, 1.690361
946.7314, 0.8097080
947.2135, 0.3920710
947.6956, 0.4691510
948.1777, 0.8915710
948.6599, 2.048702
949.1420, 3.338581
949.6241, 2.814438
950.1062, 0.7115140
950.5883, 0.7671130
951.0704, 0.1875990
951.5526, 1.443111
952.0347, 1.926914
952.5168, 1.817684
952.9989, 1.753059
953.4810, 1.714138
953.9631, 1.728130
954.4453, 1.820518
954.9274, 1.921436
955.4095, 1.877110
955.8916, 1.768604
956.3737, 1.771725
956.8558, 1.976089
957.3380, 2.212730
957.8201, 2.525597
958.3022, 2.804226
958.7843, 2.973686
959.2664, 3.050320
959.7485, 2.633648
960.2307, 1.600838
960.7128, 0.9239460
961.1949, 1.975998
961.6770, 3.643944
962.1591, 4.246506
962.6412, 3.733875
963.1234, 3.276619
963.6055, 3.370209
964.0876, 3.456123
964.5697, 3.310303
965.0518, 3.024403
965.5339, 2.981331
966.0161, 3.182938
966.4982, 3.370018
966.9803, 3.471237
967.4624, 3.458546
967.9445, 3.093197
968.4266, 2.643585
968.9088, 2.560177
969.3909, 3.516022
969.8730, 3.980148
970.3551, 3.649063
970.8372, 3.123451
971.3193, 3.097233
971.8015, 3.491032
972.2836, 3.551777
972.7657, 3.213268
973.2478, 2.798050
973.7299, 2.468479
974.2120, 2.271194
974.6942, 2.231312
975.1763, 2.353657
975.6584, 2.700970
976.1405, 3.456844
976.6226, 4.009876
977.1047, 4.086311
977.5869, 3.852100
978.0690, 3.708237
978.5511, 3.645714
979.0332, 3.621502
979.5153, 3.519890
979.9974, 3.578800
980.4796, 4.116322
980.9617, 4.807613
981.4438, 5.224548
981.9259, 5.342392
982.4080, 5.187233
982.8901, 4.673946
983.3723, 4.220074
983.8544, 4.342876
984.3365, 4.789188
984.8186, 5.074268
985.3007, 5.162018
985.7828, 5.283852
986.2650, 5.640022
986.7471, 5.961838
987.2292, 6.089478
987.7113, 6.076847
988.1934, 6.288029
988.6755, 6.738731
989.1577, 7.008556
989.6398, 6.829441
990.1219, 6.556847
990.6040, 6.615505
991.0861, 6.894806
991.5682, 7.199680
992.0504, 7.275578
992.5325, 7.740295
993.0146, 8.978088
993.4967, 10.15426
993.9788, 10.27418
994.4609, 9.505703
994.9431, 9.528172
995.4252, 10.43221
995.9073, 11.37871
996.3894, 11.86597
996.8715, 12.08427
997.3536, 12.07169
997.8358, 11.87009
998.3179, 11.86806
998.8000, 12.11378
999.2821, 12.47089
999.7642, 12.96437
1000.246, 13.45972
1000.728, 13.54290
1001.211, 13.40614
1001.693, 13.55090
1002.175, 14.23232
1002.657, 15.00496
1003.139, 15.82067
1003.621, 16.53297
1004.103, 16.97518
1004.585, 17.07602
1005.068, 17.35953
1005.550, 17.85406
1006.032, 18.27139
1006.514, 18.18743
1006.996, 18.03659
1007.478, 18.47904
1007.960, 19.41244
1008.442, 20.13071
1008.924, 20.36733
1009.407, 20.50015
1009.889, 20.54071
1010.371, 20.58301
1010.853, 20.84644
1011.335, 21.30632
1011.817, 21.80159
1012.299, 22.33477
1012.781, 22.74382
1013.263, 22.85069
1013.746, 22.81754
1014.228, 22.81172
1014.710, 22.87989
1015.192, 22.77370
1015.674, 22.42070
1016.156, 22.13844
1016.638, 22.24548
1017.120, 22.49458
1017.603, 22.27309
1018.085, 21.70311
1018.567, 21.22447
1019.049, 20.98890
1019.531, 20.93135
1020.013, 21.15466
1020.495, 21.45310
1020.977, 21.53577
1021.459, 21.39833
1021.942, 21.14910
1022.424, 20.79044
1022.906, 20.39884
1023.388, 20.01449
1023.870, 19.64929
1024.352, 19.37282
1024.834, 19.20992
1025.316, 18.75643
1025.799, 17.77167
1026.281, 16.96662
1026.763, 16.66557
1027.245, 16.70071
1027.727, 16.84020
1028.209, 16.94365
1028.691, 16.47105
1029.173, 14.43231
1029.656, 13.02012
1030.138, 13.91603
1030.620, 15.55317
1031.102, 16.28155
1031.584, 15.96095
1032.066, 15.41924
1032.548, 14.63832
1033.030, 13.94441
1033.512, 13.71080
1033.995, 13.65236
1034.477, 13.48697
1034.959, 13.19797
1035.441, 12.77586
1035.923, 11.95979
1036.405, 11.41466
1036.887, 11.35079
1037.369, 11.52783
1037.851, 11.51285
1038.334, 11.33054
1038.816, 11.06127
1039.298, 10.71298
1039.780, 10.32361
1040.262, 9.605087
1040.744, 9.101078
1041.226, 9.427155
1041.708, 10.66963
1042.191, 10.99215
1042.673, 10.31040
1043.155, 9.473080
1043.637, 8.774296
1044.119, 8.323227
1044.601, 8.417202
1045.083, 8.854031
1045.565, 9.182396
1046.047, 9.276772
1046.530, 9.264439
1047.012, 9.159821
1047.494, 8.952061
1047.976, 8.465160
1048.458, 7.837006
1048.940, 7.914639
1049.422, 8.754589
1049.904, 9.470860
1050.386, 9.276306
1050.869, 9.006901
1051.351, 9.215878
1051.833, 9.791557
1052.315, 10.34238
1052.797, 10.92048
1053.279, 10.99599
1053.761, 10.26222
1054.243, 9.415947
1054.726, 9.312191
1055.208, 9.667778
1055.690, 10.12531
1056.172, 10.69073
1056.654, 11.09961
1057.136, 11.33755
1057.618, 11.42763
1058.100, 11.38103
1058.583, 11.19840
1059.065, 10.66571
1059.547, 9.935162
1060.029, 9.762260
1060.511, 11.26198
1060.993, 12.61497
1061.475, 12.94831
1061.957, 12.73328
1062.439, 12.58545
1062.922, 12.51767
1063.404, 12.42070
1063.886, 12.29372
1064.368, 12.10036
1064.850, 11.70082
1065.332, 11.20138
1065.814, 10.64513
1066.296, 10.10187
1066.778, 9.974861
1067.261, 10.55725
1067.743, 10.85035
1068.225, 10.55568
1068.707, 9.943703
1069.189, 9.269768
1069.671, 8.712868
1070.153, 8.892509
1070.635, 10.33094
1071.118, 11.08593
1071.600, 9.526218
1072.082, 7.841812
1072.564, 7.367119
1073.046, 7.989082
1073.528, 8.178474
1074.010, 7.954277
1074.492, 7.672302
1074.974, 7.624432
1075.457, 7.514549
1075.939, 6.866096
1076.421, 6.065300
1076.903, 5.865154
1077.385, 6.715210
1077.867, 6.847755
1078.349, 6.007607
1078.831, 4.980614
1079.313, 4.578632
1079.796, 4.508621
1080.278, 4.301064
1080.760, 3.956650
1081.242, 3.690559
1081.724, 3.676689
1082.206, 3.649124
1082.688, 3.570454
1083.170, 3.379711
1083.652, 2.802471
1084.135, 2.028709
1084.617, 1.881611
1085.099, 2.608345
1085.581, 3.280140
1086.063, 3.275944
1086.545, 2.991009
1087.027, 2.681038
1087.509, 2.366920
1087.992, 2.092411
1088.474, 1.858532
1088.956, 1.620766
1089.438, 1.294640
1089.920, 1.093285
1090.402, 1.432041
1090.884, 1.897209
1091.366, 1.886822
1091.849, 0.9958500
1092.331, 0.5934330
1092.813, 0.7737770
1093.295, 1.124214
1093.777, 1.529598
1094.259, 1.808739
1094.741, 1.428005
1095.223, 0.6307140
1095.705, 0.1511040
1096.188, 0.3816180
1096.670, 0.7178040
1097.152, 1.152756
1097.634, 1.552456
1098.116, 1.796947
1098.598, 1.863003
1099.080, 1.532993
1099.562, 0.7975390
1100.044, 0.1705210
1100.527, 0.1185340
1101.009, 9.6046001E-02
1101.491, 0.3073880
1101.973, 0.8947600
1102.455, 0.9847340
1102.937, 0.5623090
1103.419, 1.8002000E-02
1103.901, 0.5899660
1104.384, 0.9315870
1104.866, 0.3073650
1105.348, 0.5158080
1105.830, 0.6959150
1106.312, 2.5986001E-02
1106.794, 0.3929440
1107.276, 0.4809610
1107.758, 0.4816440
1108.240, 0.4827040
1108.723, 0.4981920
1109.205, 0.5550350
1109.687, 0.6397740
1110.169, 0.7260970
1110.651, 0.8633610
1111.133, 0.8678670
1111.615, 0.6338580
1112.097, 0.4401630
1112.579, 0.5717430
1113.062, 0.9165730
1113.544, 1.068481
1114.026, 1.046719
1114.508, 0.9783820
1114.990, 1.086662
1115.472, 0.9432410
1115.954, 0.1482330
1116.436, 0.7358000
1116.919, 0.9319210
1117.401, 0.4907280
1117.883, 1.5471000E-02
1118.365, 0.4417130
1118.847, 0.7532440
1119.329, 0.7706700
1119.811, 0.6711860
1120.293, 0.5980340
1120.776, 0.5079350
1121.258, 0.1223620
1121.740, 0.6296310
1122.222, 0.9407790
1122.704, 0.5576020
1123.186, 6.3602000E-02
1123.668, 0.1800580
1124.150, 0.4250370
1124.632, 0.1794110
1125.115, 0.6982400
1125.597, 1.015799
1126.079, 0.5727520
1126.561, 0.2070790
1127.043, 0.2921370
1127.525, 0.5316450
1128.007, 0.4029960
1128.489, 8.9767002E-02
1128.971, 8.4256999E-02
1129.454, 2.8376000E-02
1129.936, 9.4916999E-02
1130.418, 5.6410000E-02
1130.900, 2.1887001E-02
1131.382, 0.1100960
1131.864, 0.2325380
1132.346, 5.9480999E-02
1132.828, 0.3277420
1133.311, 0.6599710
1133.793, 0.7606070
1134.275, 0.8796220
1134.757, 1.239218
1135.239, 1.462084
1135.721, 1.075954
1136.203, 0.1779500
1136.685, 0.3737530
1137.167, 0.5736140
1137.650, 0.6191600
1138.132, 0.5938870
1138.614, 0.4831940
1139.096, 0.1504190
1139.578, 0.2108460
1140.060, 0.2832510
1140.542, 6.1388001E-02
1141.024, 0.3603950
1141.506, 0.9991130
1141.989, 1.363157
1142.471, 0.6744630
1142.953, 9.9182002E-02
1143.435, 0.1736790
1143.917, 0.3519020
1144.399, 0.8450890
1144.881, 1.343706
1145.363, 1.495178
1145.846, 1.170889
1146.328, 0.6966480
1146.810, 0.2760930
1147.292, 1.9400000E-03
1147.774, 2.4219999E-02
1148.256, 0.2312010
1148.738, 0.7036820
1149.220, 1.526426
1149.703, 2.064125
1150.185, 2.037882
1150.667, 1.730040
1151.149, 1.550913
1151.631, 1.377144
1152.113, 0.9443660
1152.595, 3.6950000E-03
1153.077, 0.4267290
1153.559, 0.1178630
1154.042, 0.3561190
1154.524, 0.7501450
1155.006, 1.060444
1155.488, 1.334822
1155.970, 1.543768
1156.452, 1.587353
1156.934, 1.269621
1157.416, 1.099781
1157.898, 1.217554
1158.381, 1.355839
1158.863, 1.332975
1159.345, 1.159086
1159.827, 0.7112900
1160.309, 0.1296670
1160.791, 4.0881999E-02
1161.273, 0.9299950
1161.755, 1.677637
1162.238, 1.897715
1162.720, 1.739075
1163.202, 1.084633
1163.684, 0.1071110
1164.166, 6.1255999E-02
1164.648, 0.8874110
1165.130, 1.663818
1165.612, 1.910303
1166.094, 1.934082
1166.577, 1.743727
1167.059, 1.495487
1167.541, 1.448254
1168.023, 1.584078
1168.505, 1.707684
1168.987, 1.800295
1169.469, 1.778755
1169.951, 1.376905
1170.433, 1.050007
1170.916, 1.199760
1171.398, 1.599405
1171.880, 1.666088
1172.362, 1.405193
1172.844, 1.179499
1173.326, 1.051493
1173.808, 1.013561
1174.290, 1.058039
1174.773, 1.159365
1175.255, 1.306160
1175.737, 1.504503
1176.219, 1.908339
1176.701, 2.548237
1177.183, 2.700277
1177.665, 2.016960
1178.147, 1.339863
1178.630, 1.524450
1179.112, 2.073704
1179.594, 2.531208
1180.076, 2.877230
1180.558, 3.160807
1181.040, 3.403131
1181.522, 3.361509
1182.004, 2.810541
1182.486, 2.256647
1182.969, 2.232161
1183.451, 2.486877
1183.933, 2.755062
1184.415, 3.012438
1184.897, 3.255524
1185.379, 3.498882
1185.861, 3.641018
1186.343, 3.597996
1186.825, 3.457771
1187.308, 3.356569
1187.790, 3.240370
1188.272, 3.006723
1188.754, 2.553263
1189.236, 2.264969
1189.718, 2.155233
1190.200, 2.145260
1190.682, 2.349117
1191.165, 2.469692
1191.647, 1.889946
1192.129, 1.000769
1192.611, 0.6024970
1193.093, 1.132256
1193.575, 1.586641
1194.057, 2.011974
1194.539, 2.254932
1195.021, 1.981968
1195.504, 1.591127
1195.986, 1.770037
1196.468, 1.579990
1196.950, 1.479595
1197.432, 1.708691
1197.914, 1.436792
1198.396, 1.829018
1198.878, 2.236689
1199.360, 1.749758
1199.843, 1.042019
1200.325, 1.277502
1200.807, 2.191002
1201.289, 2.688541
1201.771, 2.428425
1202.253, 2.160112
1202.735, 1.917765
1203.217, 1.797392
1203.700, 1.980652
1204.182, 2.305408
1204.664, 2.648335
1205.146, 2.945417
1205.628, 2.858160
1206.110, 2.106457
1206.592, 1.560497
1207.074, 1.358120
1207.557, 1.342443
1208.039, 1.341255
1208.521, 1.396753
1209.003, 1.646807
1209.485, 2.076418
1209.967, 2.274260
1210.449, 2.164841
1210.931, 1.754267
1211.413, 0.9411070
1211.896, 0.2678240
1212.378, 0.6732350
1212.860, 1.532053
1213.342, 1.924828
1213.824, 1.747383
1214.306, 1.549412
1214.788, 1.345068
1215.270, 1.255713
1215.752, 1.338526
1216.235, 1.501944
1216.717, 1.745077
1217.199, 1.914413
1217.681, 1.664164
1218.163, 0.8871650
1218.645, 0.5881100
1219.127, 1.011076
1219.609, 1.519310
1220.092, 1.961823
1220.574, 2.282661
1221.056, 2.338655
1221.538, 2.218973
1222.020, 2.074224
1222.502, 1.937061
1222.984, 2.076830
1223.466, 2.635874
1223.948, 2.941544
1224.431, 2.653381
1224.913, 2.184425
1225.395, 2.091959
1225.877, 2.232933
1226.359, 2.474325
1226.841, 2.875563
1227.323, 2.788094
1227.805, 2.061369
1228.287, 1.424944
1228.770, 1.186768
1229.252, 1.212185
1229.734, 1.501320
1230.216, 1.831451
1230.698, 1.833029
1231.180, 1.321747
1231.662, 1.320400
1232.144, 1.960691
1232.627, 2.333284
1233.109, 1.787689
1233.591, 1.174452
1234.073, 1.716015
1234.555, 2.717337
1235.037, 3.244047
1235.519, 3.168047
1236.001, 2.779238
1236.484, 2.029203
1236.966, 1.526949
1237.448, 1.673481
1237.930, 2.050764
1238.412, 2.452509
1238.894, 2.742172
1239.376, 2.525908
1239.858, 1.686441
1240.340, 1.657627
1240.823, 2.489330
1241.305, 3.007383
1241.787, 2.269894
1242.269, 1.414318
1242.751, 1.575981
1243.233, 1.149797
1243.715, 1.017248
1244.197, 1.262911
1244.679, 1.107635
1245.162, 1.542713
1245.644, 2.028442
1246.126, 2.366386
1246.608, 2.535942
1247.090, 2.392296
1247.572, 2.171387
1248.054, 2.147682
1248.536, 2.379229
1249.019, 2.358343
1249.501, 2.109737
1249.983, 2.031723
1250.465, 2.700222
1250.947, 3.150518
1251.429, 2.550911
1251.911, 1.747898
1252.393, 1.598288
1252.875, 2.049154
1253.358, 2.225700
1253.840, 2.176458
1254.322, 2.227604
1254.804, 2.835653
1255.286, 3.189859
1255.768, 2.842268
1256.250, 2.317263
1256.732, 2.009794
1257.214, 1.899080
1257.697, 1.851604
1258.179, 1.898396
1258.661, 2.066069
1259.143, 2.674246
1259.625, 2.928516
1260.107, 2.574337
1260.589, 2.049086
1261.071, 1.636568
1261.554, 1.371435
1262.036, 1.429232
1262.518, 1.700111
1263.000, 1.819822
1263.482, 1.428045
1263.964, 1.217295
1264.446, 1.249363
1264.928, 1.452682
1265.411, 1.916399
1265.893, 2.428173
1266.375, 2.574085
1266.857, 2.425890
1267.339, 2.182480
1267.821, 1.742363
1268.303, 1.521317
1268.785, 1.586721
1269.267, 1.646225
1269.750, 1.457811
1270.232, 1.139980
1270.714, 0.7252520
1271.196, 0.3206620
1271.678, 0.2096000
1272.160, 0.5361080
1272.642, 0.6587810
1273.124, 0.5173510
1273.606, 0.5594900
1274.089, 1.529041
1274.571, 2.419603
1275.053, 2.115505
1275.535, 1.173082
1276.017, 0.5771080
1276.499, 0.3716640
1276.981, 0.4890560
1277.463, 0.9203990
1277.946, 1.193417
1278.428, 0.7555580
1278.910, 0.3328860
1279.392, 0.5174770
1279.874, 0.8736570
1280.356, 0.8507560
1280.838, 0.4624750
1281.320, 0.2404630
1281.802, 0.2019140
1282.285, 0.3929810
1282.767, 1.302217
1283.249, 1.835049
1283.731, 1.317419
1284.213, 0.5721970
1284.695, 0.2871070
1285.177, 0.3873790
1285.659, 0.5860460
1286.141, 0.8513360
1286.624, 1.065788
1287.106, 1.120197
1287.588, 1.204956
1288.070, 1.334473
1288.552, 1.514326
1289.034, 1.876894
1289.516, 2.233051
1289.998, 2.000488
1290.481, 1.416546
1290.963, 1.095860
1291.445, 1.539886
1291.927, 1.624725
1292.409, 1.239340
1292.891, 0.9167440
1293.373, 1.140722
1293.855, 1.562172
1294.338, 1.966122
1294.820, 2.170681
1295.302, 1.670006
1295.784, 6.9900001E-03
1296.266, 0.3656860
1296.748, 0.6185510
1297.230, 1.707531
1297.712, 2.328960
1298.194, 2.534956
1298.677, 2.002260
1299.159, 1.303497
1299.641, 1.121012
1300.123, 1.073166
1300.605, 1.113665
1301.087, 0.8027380
1301.569, 0.4271180
1302.051, 0.3656290
1302.533, 0.2400210
1303.016, 0.0000000E+00
##END=



