##NAMES=Tourmaline
##RRUFFID=R110133
##LOCALITY=Crystal Palace, King County, Washington, USA
##OWNER=RRUFF
##SOURCE=Bart Cannon
##DESCRIPTION=Masses of green acicular crystals associated with quartz
##STATUS=The identification of this mineral has been confirmed only by single crystal X-ray diffraction.
##URL=rruff.info/R110133
184.1699, 0.0000000E+00
184.6520, 0.7892150
185.1342, 1.441681
185.6163, 1.591766
186.0984, 1.391235
186.5805, 0.5113530
187.0626, 0.1303100
187.5447, 0.4748840
188.0269, 0.2944640
188.5090, 0.5508730
188.9911, 1.223236
189.4732, 1.384369
189.9553, 1.260040
190.4374, 1.177094
190.9196, 1.148590
191.4017, 1.362427
191.8838, 2.166199
192.3659, 3.564911
192.8480, 5.020660
193.3301, 6.414276
193.8123, 7.688904
194.2944, 8.594360
194.7765, 8.798615
195.2586, 8.926208
195.7407, 9.544312
196.2228, 10.65182
196.7050, 12.15192
197.1871, 14.19516
197.6692, 16.74789
198.1513, 18.97632
198.6334, 20.25339
199.1155, 21.55569
199.5977, 23.68158
200.0798, 26.63876
200.5619, 29.64630
201.0440, 31.78500
201.5261, 32.85626
202.0082, 34.46988
202.4904, 37.66193
202.9725, 40.86591
203.4546, 43.12729
203.9367, 44.41696
204.4188, 45.55826
204.9009, 47.61298
205.3831, 50.91388
205.8652, 54.11581
206.3473, 56.76538
206.8294, 59.59647
207.3115, 63.31036
207.7936, 67.86877
208.2758, 72.46469
208.7579, 75.84042
209.2400, 77.09070
209.7221, 79.10693
210.2042, 82.29068
210.6863, 85.80856
211.1685, 89.26770
211.6506, 92.52106
212.1327, 95.46228
212.6148, 97.96161
213.0969, 99.86484
213.5790, 101.5046
214.0612, 102.6810
214.5433, 103.7338
215.0254, 104.9543
215.5075, 106.4008
215.9896, 107.9270
216.4717, 109.3175
216.9539, 110.5064
217.4360, 111.7105
217.9181, 113.2559
218.4002, 114.6601
218.8823, 115.3941
219.3644, 115.3254
219.8466, 114.8214
220.3287, 114.2445
220.8108, 113.4922
221.2929, 113.2323
221.7750, 114.5699
222.2571, 116.0641
222.7393, 115.6086
223.2214, 112.5726
223.7035, 108.7794
224.1856, 106.5402
224.6677, 105.7196
225.1498, 104.9352
225.6320, 103.5867
226.1141, 102.1199
226.5962, 101.4687
227.0783, 102.0675
227.5604, 102.6389
228.0425, 101.5457
228.5247, 99.19974
229.0068, 97.19696
229.4889, 96.31729
229.9710, 96.20779
230.4531, 96.07074
230.9352, 95.77142
231.4174, 95.58405
231.8995, 95.73230
232.3816, 96.14841
232.8637, 96.67279
233.3458, 97.58295
233.8279, 98.61630
234.3101, 98.85953
234.7922, 97.79846
235.2743, 96.58417
235.7564, 96.36636
236.2385, 96.79312
236.7206, 96.91718
237.2028, 96.59747
237.6849, 95.60461
238.1670, 94.96420
238.6491, 95.66785
239.1312, 95.76312
239.6133, 94.78265
240.0955, 92.96301
240.5776, 90.36905
241.0597, 86.57962
241.5418, 82.05856
242.0239, 78.57632
242.5060, 76.89673
242.9882, 75.29453
243.4703, 73.25342
243.9524, 70.95044
244.4345, 68.63849
244.9166, 66.44110
245.3987, 64.35400
245.8809, 62.39795
246.3630, 60.58929
246.8451, 58.88834
247.3272, 57.47461
247.8093, 56.10471
248.2914, 54.43884
248.7736, 52.26859
249.2557, 49.75156
249.7378, 47.54990
250.2199, 45.69974
250.7020, 44.16577
251.1841, 43.07089
251.6663, 42.24564
252.1484, 41.48727
252.6305, 40.68890
253.1126, 39.94287
253.5947, 39.52448
254.0768, 40.04849
254.5590, 40.16730
255.0411, 39.40561
255.5232, 38.35480
256.0053, 37.65546
256.4874, 37.58191
256.9695, 37.95456
257.4517, 38.33960
257.9338, 38.88986
258.4159, 39.25394
258.8980, 39.65802
259.3801, 39.77646
259.8622, 38.91187
260.3444, 36.86377
260.8265, 34.65237
261.3086, 34.26935
261.7907, 37.95670
262.2728, 39.92688
262.7549, 38.84506
263.2371, 36.63190
263.7192, 35.18921
264.2013, 35.02048
264.6834, 35.37476
265.1655, 35.11829
265.6476, 33.82269
266.1298, 32.95654
266.6119, 32.99298
267.0940, 33.22330
267.5761, 32.87564
268.0582, 31.81815
268.5403, 30.69623
269.0225, 30.34177
269.5046, 31.03885
269.9867, 31.17300
270.4688, 30.61560
270.9509, 29.53955
271.4330, 27.84146
271.9152, 25.57150
272.3973, 23.40308
272.8794, 22.06198
273.3615, 21.62756
273.8436, 20.90344
274.3257, 19.32724
274.8079, 17.82947
275.2900, 17.48087
275.7721, 18.22742
276.2542, 18.64368
276.7363, 17.43964
277.2184, 14.83405
277.7006, 13.08969
278.1827, 13.15021
278.6648, 13.33908
279.1469, 12.26779
279.6290, 10.09229
280.1111, 8.183441
280.5933, 7.496643
281.0754, 7.672394
281.5575, 7.322296
282.0396, 6.261658
282.5217, 4.918030
283.0038, 3.382538
283.4860, 1.718994
283.9681, 0.2112730
284.4502, 1.100464
284.9323, 2.067413
285.4144, 2.417938
285.8965, 1.886108
286.3787, 1.413910
286.8608, 1.705841
287.3429, 2.526733
287.8250, 2.949554
288.3071, 2.439331
288.7892, 1.729401
289.2714, 2.078979
289.7535, 3.663239
290.2356, 4.798386
290.7177, 4.129044
291.1998, 2.395905
291.6819, 1.738739
292.1641, 3.044708
292.6462, 4.706955
293.1283, 4.884369
293.6104, 3.756805
294.0925, 2.458954
294.5746, 1.196503
295.0568, 0.1064450
295.5389, 0.4063420
296.0210, 0.1004030
296.5031, 0.2008970
296.9852, 0.5241390
297.4673, 1.882477
297.9495, 2.758057
298.4316, 2.311554
298.9137, 1.359787
299.3958, 1.113174
299.8779, 1.668686
300.3600, 2.599747
300.8422, 3.929443
301.3243, 5.406845
301.8064, 6.554306
302.2885, 7.087112
302.7706, 7.434769
303.2527, 8.070724
303.7349, 9.008209
304.2170, 10.08731
304.6991, 11.46890
305.1812, 12.82747
305.6633, 13.65109
306.1454, 13.67979
306.6276, 13.65520
307.1097, 14.16660
307.5918, 15.20050
308.0739, 16.60631
308.5560, 18.65161
309.0381, 20.76068
309.5203, 22.34222
310.0024, 23.37453
310.4845, 24.00816
310.9666, 24.34242
311.4487, 24.36435
311.9308, 23.88644
312.4130, 22.45065
312.8951, 21.13640
313.3772, 21.16048
313.8593, 22.31065
314.3414, 23.21860
314.8235, 23.20197
315.3057, 22.44307
315.7878, 21.26646
316.2699, 19.45189
316.7520, 17.82886
317.2341, 17.30815
317.7162, 17.44693
318.1984, 17.27878
318.6805, 16.26175
319.1626, 14.83392
319.6447, 13.72253
320.1268, 13.00775
320.6089, 12.21025
321.0911, 10.77374
321.5732, 9.162933
322.0553, 8.083572
322.5374, 7.866425
323.0195, 7.894363
323.5016, 7.408188
323.9838, 6.396500
324.4659, 5.805740
324.9480, 6.366257
325.4301, 7.278030
325.9122, 7.467896
326.3943, 6.737213
326.8765, 6.041336
327.3586, 6.221878
327.8407, 7.101501
328.3228, 7.646393
328.8049, 7.411133
329.2870, 7.067047
329.7692, 7.298019
330.2513, 8.060013
330.7334, 8.966476
331.2155, 9.852905
331.6976, 10.74748
332.1797, 11.79387
332.6619, 13.12901
333.1440, 14.26950
333.6261, 14.48552
334.1082, 14.16861
334.5903, 14.27951
335.0724, 15.49033
335.5546, 17.08862
336.0367, 18.01724
336.5188, 18.18372
337.0009, 18.59315
337.4830, 19.86839
337.9651, 21.78448
338.4473, 23.89491
338.9294, 26.21941
339.4115, 28.63422
339.8936, 31.21992
340.3757, 33.90726
340.8578, 36.03831
341.3400, 37.11569
341.8221, 37.74466
342.3042, 38.76031
342.7863, 40.16823
343.2684, 42.02032
343.7505, 44.43480
344.2327, 47.34756
344.7148, 50.73619
345.1969, 54.79312
345.6790, 58.71909
346.1611, 61.24969
346.6432, 62.64874
347.1254, 64.53345
347.6075, 67.76138
348.0896, 71.41283
348.5717, 74.15033
349.0538, 75.88675
349.5359, 78.00053
350.0181, 81.60300
350.5002, 86.40411
350.9823, 91.00302
351.4644, 95.50351
351.9465, 99.76187
352.4286, 103.6189
352.9108, 107.1056
353.3929, 110.4442
353.8750, 113.6489
354.3571, 116.7702
354.8392, 120.0268
355.3214, 123.5046
355.8035, 126.8540
356.2856, 130.0420
356.7677, 132.9697
357.2498, 135.5461
357.7319, 137.7911
358.2141, 139.5062
358.6962, 140.2290
359.1783, 139.7448
359.6604, 139.6294
360.1425, 140.5266
360.6246, 141.5779
361.1068, 142.1307
361.5889, 142.0854
362.0710, 141.3701
362.5531, 139.8641
363.0352, 137.5400
363.5173, 135.0410
363.9995, 132.5211
364.4816, 129.6862
364.9637, 126.1946
365.4458, 122.2679
365.9279, 118.5031
366.4100, 115.2531
366.8922, 112.2836
367.3743, 108.8696
367.8564, 104.2837
368.3385, 100.2356
368.8206, 97.41769
369.3027, 95.05243
369.7849, 92.21283
370.2670, 88.66386
370.7491, 84.88451
371.2312, 81.57729
371.7133, 79.08676
372.1954, 76.04852
372.6776, 71.82135
373.1597, 67.63998
373.6418, 64.14377
374.1239, 61.39737
374.6060, 59.31358
375.0881, 57.90341
375.5703, 57.11005
376.0524, 55.75555
376.5345, 53.08554
377.0166, 50.58533
377.4987, 48.65169
377.9808, 47.15585
378.4630, 45.97540
378.9451, 45.05948
379.4272, 44.18651
379.9093, 42.81660
380.3914, 40.47864
380.8735, 38.50430
381.3557, 37.07993
381.8378, 35.88684
382.3199, 34.78075
382.8020, 33.77841
383.2841, 32.73579
383.7662, 31.38379
384.2484, 29.56180
384.7305, 28.39020
385.2126, 28.73146
385.6947, 28.95853
386.1768, 28.34035
386.6589, 27.23267
387.1411, 26.45148
387.6232, 26.60674
388.1053, 27.33627
388.5874, 27.25421
389.0695, 25.90233
389.5516, 24.57999
390.0338, 23.28020
390.5159, 22.29594
390.9980, 22.14975
391.4801, 22.98401
391.9622, 23.84799
392.4443, 23.32289
392.9265, 21.21175
393.4086, 19.85966
393.8907, 20.44656
394.3728, 21.02695
394.8549, 20.27580
395.3370, 18.46967
395.8192, 16.82549
396.3013, 16.18033
396.7834, 16.28870
397.2655, 16.35089
397.7476, 16.31902
398.2297, 16.36580
398.7119, 16.92001
399.1940, 17.50571
399.6761, 17.38652
400.1582, 16.13963
400.6403, 14.67526
401.1224, 13.90800
401.6046, 13.80040
402.0867, 13.87714
402.5688, 14.13683
403.0509, 14.36314
403.5330, 14.25935
404.0151, 13.81819
404.4973, 13.43498
404.9794, 13.49104
405.4615, 13.65970
405.9436, 13.22192
406.4257, 12.01534
406.9078, 10.89706
407.3900, 10.72006
407.8721, 11.28288
408.3542, 11.45200
408.8363, 10.81157
409.3184, 10.06488
409.8005, 9.705475
410.2827, 9.631149
410.7648, 9.491409
411.2469, 9.134796
411.7290, 8.620270
412.2111, 8.017334
412.6932, 7.110229
413.1754, 6.640823
413.6575, 7.205063
414.1396, 8.017258
414.6217, 8.177612
415.1038, 7.565079
415.5859, 6.770584
416.0681, 6.382736
416.5502, 6.451721
417.0323, 6.388290
417.5144, 6.060608
417.9965, 5.759583
418.4786, 5.658005
418.9608, 5.664047
419.4429, 5.640717
419.9250, 5.529831
420.4071, 5.243347
420.8892, 4.486908
421.3713, 2.411346
421.8535, 1.198334
422.3356, 1.671936
422.8177, 2.433365
423.2998, 2.291107
423.7819, 1.174454
424.2640, 6.3750997E-02
424.7462, 0.5444180
425.2283, 0.2251430
425.7104, 0.1895290
426.1925, 1.048309
426.6746, 1.607803
427.1567, 1.385132
427.6389, 0.7885740
428.1210, 0.5079190
428.6031, 0.9231260
429.0852, 1.608322
429.5673, 1.655441
430.0494, 0.8786770
430.5316, 0.1403350
431.0137, 9.9991001E-02
431.4958, 0.4184880
431.9779, 1.516678
432.4600, 3.310669
432.9421, 4.559418
433.4243, 3.887527
433.9064, 1.792892
434.3885, 0.4436190
434.8706, 5.2703999E-02
435.3527, 0.1388400
435.8348, 0.8978730
436.3170, 1.844467
436.7991, 2.072495
437.2812, 1.001068
437.7633, 0.3499760
438.2454, 1.215225
438.7275, 1.585022
439.2097, 1.245712
439.6918, 0.1949160
440.1739, 1.903366
440.6560, 2.579147
441.1381, 2.212677
441.6202, 1.669830
442.1024, 0.9762270
442.5845, 0.3450320
443.0666, 0.1348110
443.5487, 0.3411870
444.0308, 0.4592130
444.5129, 4.2174999E-02
444.9951, 0.8179630
445.4772, 1.243652
445.9593, 0.8728330
446.4414, 0.5571290
446.9235, 0.7016300
447.4056, 1.020248
447.8878, 0.9819640
448.3699, 0.4174040
448.8520, 0.2229610
449.3341, 0.1997990
449.8162, 0.9119870
450.2983, 1.474060
450.7805, 0.8251650
451.2626, 0.3191990
451.7447, 0.9614560
452.2268, 2.370605
452.7089, 3.384811
453.1910, 3.161377
453.6732, 2.071274
454.1553, 1.728607
454.6374, 2.808151
455.1195, 3.487427
455.6016, 3.132706
456.0837, 2.532089
456.5659, 2.304291
457.0480, 2.574799
457.5301, 3.142838
458.0122, 4.025833
458.4943, 5.207642
458.9764, 5.636383
459.4586, 4.779144
459.9407, 3.905396
460.4228, 3.761917
460.9049, 4.044220
461.3870, 4.241760
461.8691, 4.246063
462.3513, 3.980423
462.8334, 2.972641
463.3155, 1.284851
463.7976, 0.6674960
464.2797, 2.228348
464.7618, 4.426285
465.2440, 5.305344
465.7261, 4.875565
466.2082, 4.199463
466.6903, 3.371017
467.1724, 2.625977
467.6545, 2.225449
468.1367, 2.193939
468.6188, 2.533813
469.1009, 3.368256
469.5830, 4.544449
470.0651, 5.301544
470.5472, 5.273895
471.0294, 5.346756
471.5115, 6.071259
471.9936, 6.882965
472.4757, 6.825150
472.9578, 5.730484
473.4399, 4.635132
473.9221, 4.866196
474.4042, 6.760757
474.8863, 8.021759
475.3684, 8.135468
475.8505, 8.248718
476.3326, 9.033615
476.8148, 10.05571
477.2969, 10.42690
477.7790, 9.692093
478.2611, 8.491302
478.7432, 8.259232
479.2253, 9.401688
479.7075, 10.37033
480.1896, 10.87340
480.6717, 11.26016
481.1538, 11.67581
481.6359, 12.13956
482.1180, 12.63330
482.6002, 13.09561
483.0823, 13.60503
483.5644, 14.33804
484.0465, 15.34247
484.5286, 16.35902
485.0107, 17.39409
485.4929, 18.31061
485.9750, 18.89835
486.4571, 19.07326
486.9392, 19.22473
487.4213, 19.52257
487.9034, 19.97563
488.3856, 20.69823
488.8677, 21.75467
489.3498, 22.66624
489.8319, 22.85252
490.3140, 22.34160
490.7961, 22.26100
491.2783, 23.36662
491.7604, 24.43625
492.2425, 24.66595
492.7246, 24.35739
493.2067, 24.08994
493.6888, 24.03932
494.1710, 24.25458
494.6531, 24.95845
495.1352, 26.59471
495.6173, 27.60857
496.0994, 27.22452
496.5815, 26.96387
497.0637, 27.74959
497.5458, 29.21193
498.0279, 30.48141
498.5100, 31.20345
498.9921, 31.41196
499.4742, 30.87576
499.9564, 29.02303
500.4385, 27.90811
500.9206, 28.25697
501.4027, 29.00890
501.8848, 29.67204
502.3669, 30.20705
502.8491, 30.65137
503.3312, 31.13786
503.8133, 31.52803
504.2954, 31.31561
504.7775, 30.34576
505.2596, 29.52559
505.7418, 29.43286
506.2239, 29.65210
506.7060, 29.46355
507.1881, 28.68027
507.6702, 28.26672
508.1523, 29.01144
508.6345, 30.31049
509.1166, 31.19630
509.5987, 31.53662
510.0808, 31.56531
510.5629, 31.38954
511.0450, 31.00021
511.5272, 30.66063
512.0093, 30.62312
512.4914, 30.38223
512.9735, 29.37796
513.4556, 28.25180
513.9377, 28.02769
514.4199, 28.90865
514.9020, 29.97295
515.3841, 29.98741
515.8662, 28.71530
516.3483, 28.01288
516.8304, 28.47388
517.3126, 28.88957
517.7947, 28.92751
518.2768, 28.71384
518.7589, 28.45058
519.2410, 28.21536
519.7231, 27.97466
520.2053, 27.58972
520.6874, 27.02681
521.1695, 26.84673
521.6516, 27.29814
522.1337, 27.95676
522.6158, 28.84641
523.0980, 29.70029
523.5801, 29.92793
524.0622, 28.93599
524.5443, 27.72533
525.0264, 27.38779
525.5085, 27.80486
525.9907, 28.25954
526.4728, 28.52396
526.9549, 28.56403
527.4370, 28.25642
527.9191, 27.51190
528.4012, 27.32019
528.8834, 28.17746
529.3655, 29.10905
529.8476, 29.51625
530.3297, 29.60042
530.8118, 29.88223
531.2939, 30.54492
531.7761, 31.22783
532.2582, 31.30371
532.7403, 30.53563
533.2224, 29.91389
533.7045, 29.13016
534.1866, 28.53268
534.6688, 28.68910
535.1509, 29.42007
535.6330, 30.06578
536.1151, 30.23221
536.5972, 29.97607
537.0793, 29.35588
537.5615, 28.22867
538.0436, 27.23138
538.5257, 26.69156
539.0078, 26.26151
539.4899, 25.59496
539.9720, 24.69716
540.4542, 23.90855
540.9363, 23.63892
541.4184, 23.46466
541.9005, 22.71992
542.3826, 21.40874
542.8647, 20.05922
543.3469, 18.79976
543.8290, 17.73532
544.3111, 17.37492
544.7932, 18.30513
545.2753, 18.53185
545.7574, 17.26497
546.2396, 15.50928
546.7217, 13.87161
547.2038, 12.56534
547.6859, 11.97603
548.1680, 12.44327
548.6501, 13.67584
549.1323, 14.42580
549.6144, 14.90750
550.0965, 14.45428
550.5786, 12.29091
551.0607, 9.843170
551.5428, 8.022354
552.0250, 6.937790
552.5071, 6.341934
552.9892, 6.160400
553.4713, 6.295074
553.9534, 6.485321
554.4355, 6.746628
554.9177, 6.988434
555.3998, 7.200897
555.8819, 7.365631
556.3640, 7.527756
556.8461, 7.689087
557.3282, 7.520660
557.8104, 6.717270
558.2925, 5.643463
558.7746, 4.508087
559.2567, 3.413193
559.7388, 2.973450
560.2209, 3.697479
560.7031, 5.110397
561.1852, 5.698898
561.6673, 4.772736
562.1494, 3.958862
562.6315, 3.198441
563.1136, 2.619003
563.5958, 2.430405
564.0779, 2.530899
564.5600, 2.588638
565.0421, 2.371048
565.5242, 1.932922
566.0063, 1.420914
566.4885, 0.7640380
566.9706, 0.2474370
567.4527, 0.1579900
567.9348, 0.3117520
568.4169, 4.1962001E-02
568.8990, 0.8262480
569.3812, 1.500610
569.8633, 1.759537
570.3454, 1.753357
570.8275, 1.655655
571.3096, 1.473770
571.7917, 1.260345
572.2739, 1.007141
572.7560, 0.7774510
573.2381, 0.6839290
573.7202, 0.7327730
574.2023, 0.8788760
574.6844, 1.290955
575.1666, 1.651001
575.6487, 1.661484
576.1308, 1.435928
576.6129, 1.294418
577.0950, 1.404755
577.5771, 1.674622
578.0593, 1.994278
578.5414, 2.661087
579.0235, 2.556076
579.5056, 0.4309540
579.9877, 1.367142
580.4698, 1.482422
580.9520, 0.4501500
581.4341, 0.3961330
581.9162, 0.4558260
582.3983, 8.4167004E-02
582.8804, 0.3925930
583.3625, 0.9448700
583.8447, 1.166397
584.3268, 0.8298650
584.8089, 0.4474790
585.2910, 0.7203520
585.7731, 1.542923
586.2552, 1.789001
586.7374, 0.4856110
587.2195, 0.5023500
587.7016, 0.4030760
588.1837, 2.124084
588.6658, 2.528381
589.1479, 1.041351
589.6301, 0.7692260
590.1122, 0.8295440
590.5943, 1.163437
591.0764, 1.985229
591.5585, 0.3571620
592.0406, 0.9775090
592.5228, 1.256104
593.0049, 0.9520420
593.4870, 0.5377960
593.9691, 0.1499940
594.4512, 6.3492000E-02
594.9333, 0.1647800
595.4155, 0.7077330
595.8976, 0.9750060
596.3797, 0.8763730
596.8618, 0.7756810
597.3439, 0.9990540
597.8260, 1.313004
598.3082, 1.142334
598.7903, 0.2584840
599.2724, 0.5270390
599.7545, 1.071213
600.2366, 1.317047
600.7188, 1.003510
601.2009, 0.2468110
601.6830, 0.3259430
602.1651, 0.2613680
602.6472, 0.2323910
603.1293, 0.3623500
603.6115, 0.2040710
604.0936, 0.5192410
604.5757, 0.2203370
605.0578, 6.1020002E-02
605.5399, 0.1556240
606.0220, 0.7456820
606.5042, 1.231186
606.9863, 1.345154
607.4684, 1.213486
607.9505, 0.9208680
608.4326, 0.4782260
608.9147, 0.3688660
609.3969, 0.8291320
609.8790, 1.460281
610.3611, 1.897385
610.8432, 2.146118
611.3253, 2.161865
611.8074, 1.924133
612.2896, 1.469269
612.7717, 0.5467070
613.2538, 0.5045930
613.7359, 1.117813
614.2180, 1.130157
614.7001, 0.7696230
615.1823, 0.2741090
615.6644, 0.3632350
616.1465, 1.003891
616.6286, 1.785950
617.1107, 2.364517
617.5928, 2.640518
618.0750, 2.692123
618.5571, 2.527573
619.0392, 2.164459
619.5213, 1.841461
620.0034, 1.747223
620.4855, 1.820999
620.9677, 1.836746
621.4498, 1.773163
621.9319, 2.177002
622.4140, 3.575287
622.8961, 5.328766
623.3782, 5.977600
623.8604, 5.145966
624.3425, 4.551086
624.8246, 4.145782
625.3067, 4.221100
625.7888, 5.438248
626.2709, 7.321060
626.7531, 8.673264
627.2352, 8.862000
627.7173, 8.465836
628.1994, 8.536316
628.6815, 9.163330
629.1636, 9.737640
629.6458, 10.05443
630.1279, 10.54433
630.6100, 11.70343
631.0921, 13.09558
631.5742, 13.83023
632.0563, 13.41405
632.5385, 13.14990
633.0206, 14.26065
633.5027, 16.11108
633.9848, 17.41887
634.4669, 18.00378
634.9490, 18.43980
635.4312, 19.14708
635.9133, 20.04912
636.3954, 20.78682
636.8775, 21.33012
637.3596, 21.71130
637.8417, 21.49202
638.3239, 21.40419
638.8060, 22.15894
639.2881, 23.53400
639.7702, 24.70311
640.2523, 25.12273
640.7344, 25.19559
641.2166, 25.72115
641.6987, 26.74069
642.1808, 27.89978
642.6629, 29.37184
643.1450, 30.53426
643.6271, 30.53882
644.1093, 29.74014
644.5914, 29.38400
645.0735, 29.79247
645.5556, 30.32111
646.0377, 30.78680
646.5198, 31.18552
647.0020, 31.48259
647.4841, 31.65683
647.9662, 31.76263
648.4483, 31.84254
648.9304, 31.90933
649.4125, 31.84676
649.8947, 31.16205
650.3768, 31.07536
650.8589, 32.57153
651.3410, 34.09152
651.8231, 34.50290
652.3052, 33.86583
652.7874, 33.00327
653.2695, 32.21941
653.7516, 31.47507
654.2337, 30.80161
654.7158, 30.15131
655.1979, 29.17812
655.6801, 27.69652
656.1622, 26.41489
656.6443, 26.26288
657.1264, 27.31332
657.6085, 27.41385
658.0906, 25.67708
658.5728, 24.31447
659.0549, 24.15585
659.5370, 24.43996
660.0191, 24.32347
660.5012, 23.71947
660.9833, 23.21016
661.4655, 23.41478
661.9476, 24.01358
662.4297, 23.96886
662.9118, 23.18082
663.3939, 22.53725
663.8760, 22.34041
664.3582, 22.36084
664.8403, 22.38298
665.3224, 22.40448
665.8045, 22.34962
666.2866, 22.11990
666.7687, 21.90173
667.2509, 21.77730
667.7330, 21.74211
668.2151, 21.77611
668.6972, 21.87703
669.1793, 22.10068
669.6614, 22.60046
670.1436, 23.31201
670.6257, 23.20822
671.1078, 21.57858
671.5899, 20.54660
672.0720, 21.35309
672.5541, 22.60406
673.0363, 23.18472
673.5184, 23.06926
674.0005, 22.94695
674.4826, 23.15457
674.9647, 23.45534
675.4468, 23.70653
675.9290, 23.85619
676.4111, 23.66298
676.8932, 23.04391
677.3753, 22.42848
677.8574, 22.32913
678.3395, 22.76329
678.8217, 23.26852
679.3038, 24.04449
679.7859, 24.63234
680.2680, 24.79213
680.7501, 24.84134
681.2322, 25.01141
681.7144, 25.35234
682.1965, 25.88731
682.6786, 26.79895
683.1607, 27.79517
683.6428, 28.34401
684.1249, 28.49236
684.6071, 28.53766
685.0892, 28.47021
685.5713, 28.70670
686.0534, 29.80013
686.5355, 31.80486
687.0176, 33.66402
687.4998, 35.69325
687.9819, 37.19170
688.4640, 37.59795
688.9461, 37.62984
689.4282, 37.95804
689.9103, 38.69038
690.3925, 39.59357
690.8746, 40.43698
691.3567, 41.37674
691.8388, 42.95226
692.3209, 45.20387
692.8030, 47.02225
693.2852, 47.93843
693.7673, 48.67667
694.2494, 50.13353
694.7315, 52.22992
695.2136, 53.67848
695.6957, 53.85822
696.1779, 54.09036
696.6600, 54.85410
697.1421, 55.88895
697.6242, 57.07440
698.1063, 58.26709
698.5884, 59.06320
699.0706, 59.07123
699.5527, 58.60774
700.0348, 58.70769
700.5169, 59.54388
700.9990, 59.78506
701.4811, 58.94142
701.9633, 57.76172
702.4454, 56.80351
702.9275, 56.02078
703.4096, 55.26750
703.8917, 54.86424
704.3738, 54.03575
704.8560, 51.95670
705.3381, 49.52817
705.8202, 47.88770
706.3023, 47.08952
706.7844, 46.43665
707.2665, 45.46257
707.7487, 44.15474
708.2308, 42.63106
708.7129, 40.96019
709.1950, 39.06723
709.6771, 36.64388
710.1592, 34.45528
710.6414, 33.14998
711.1235, 32.34810
711.6056, 31.29814
712.0877, 29.88516
712.5698, 28.36320
713.0519, 26.80544
713.5341, 25.28938
714.0162, 23.88492
714.4983, 22.60678
714.9804, 21.39058
715.4625, 20.29713
715.9446, 19.32889
716.4268, 18.54691
716.9089, 18.08447
717.3910, 17.32559
717.8731, 15.68849
718.3552, 14.31813
718.8373, 14.26837
719.3195, 14.76160
719.8016, 14.57300
720.2837, 13.42819
720.7658, 12.40076
721.2479, 12.05626
721.7300, 11.99477
722.2122, 12.01952
722.6943, 11.99055
723.1764, 11.44316
723.6585, 10.16852
724.1406, 8.605820
724.6227, 7.370438
725.1049, 6.432556
725.5870, 6.055573
726.0691, 6.526703
726.5512, 7.113068
727.0333, 7.777328
727.5154, 8.267456
727.9976, 8.346649
728.4797, 8.007324
728.9618, 7.671921
729.4439, 7.481842
729.9260, 7.422531
730.4081, 7.664276
730.8903, 7.989777
731.3724, 7.656555
731.8545, 6.501602
732.3366, 5.638748
732.8187, 6.433517
733.3008, 8.662201
733.7830, 9.433487
734.2651, 7.959763
734.7472, 6.733749
735.2293, 6.587708
735.7114, 6.640610
736.1935, 6.227356
736.6757, 5.452209
737.1578, 4.850830
737.6399, 4.361389
738.1220, 4.366516
738.6041, 5.768982
739.0862, 7.584320
739.5684, 8.016479
740.0505, 6.970276
740.5326, 5.805328
741.0147, 5.485992
741.4968, 5.795868
741.9789, 6.145508
742.4611, 6.614304
742.9432, 6.827515
743.4253, 6.617416
743.9074, 6.307297
744.3895, 6.027573
744.8716, 5.793213
745.3538, 5.636856
745.8359, 5.569977
746.3180, 5.553741
746.8001, 5.650681
747.2822, 5.735764
747.7643, 5.771423
748.2465, 5.680511
748.7286, 5.134979
749.2107, 3.986160
749.6928, 2.856705
750.1749, 2.839203
750.6570, 4.015320
751.1392, 4.541977
751.6213, 4.205658
752.1034, 3.707855
752.5855, 3.269882
753.0676, 2.841934
753.5497, 2.330688
754.0319, 1.729156
754.5140, 1.267410
754.9961, 1.126877
755.4782, 1.007828
755.9603, 0.6138460
756.4424, 0.1719820
756.9246, 0.1143800
757.4067, 0.4757540
757.8888, 0.7976990
758.3709, 0.6121060
758.8530, 0.1673580
759.3351, 0.5071870
759.8173, 1.809662
760.2994, 2.286667
760.7815, 1.173615
761.2636, 0.1519170
761.7457, 0.4155730
762.2278, 0.1281740
762.7100, 0.1895140
763.1921, 0.6614230
763.6742, 1.363663
764.1563, 1.832123
764.6384, 1.926102
765.1205, 1.183578
765.6027, 1.5838999E-02
766.0848, 0.6839290
766.5669, 0.3465580
767.0490, 0.3845210
767.5311, 0.8260350
768.0132, 0.9774480
768.4954, 0.6436310
768.9775, 0.3001860
769.4596, 0.6499180
769.9417, 0.4346620
770.4238, 2.064117
770.9059, 2.688278
771.3881, 2.066483
771.8702, 1.326538
772.3523, 4.9942002E-02
772.8344, 0.9306790
773.3165, 0.6266780
773.7986, 0.2039180
774.2808, 1.085678
774.7629, 1.792709
775.2450, 1.793640
775.7271, 0.1411440
776.2092, 1.849716
776.6913, 1.977478
777.1735, 0.6781920
777.6556, 0.3047180
778.1377, 0.5787660
778.6198, 0.4135590
779.1019, 1.9897001E-02
779.5840, 0.6563260
780.0662, 1.156616
780.5483, 1.440292
781.0304, 1.739182
781.5125, 2.275146
781.9946, 2.617294
782.4767, 2.509079
782.9589, 2.066849
783.4410, 1.397095
783.9231, 0.3846740
784.4052, 0.1322480
784.8873, 0.9909360
785.3694, 2.457993
785.8516, 2.509888
786.3337, 1.423630
786.8158, 0.4641270
787.2979, 0.1391910
787.7800, 0.1449430
788.2621, 8.4060997E-02
788.7443, 3.4194998E-02
789.2264, 2.0996001E-02
789.7085, 0.2097780
790.1906, 0.7197110
790.6727, 2.023270
791.1548, 3.270462
791.6370, 3.473129
792.1191, 2.786530
792.6012, 2.285477
793.0833, 2.434448
793.5654, 2.407013
794.0475, 1.589981
794.5297, 0.6560360
795.0118, 0.2586820
795.4939, 0.4185180
795.9760, 0.9460750
796.4581, 1.796509
796.9402, 2.568268
797.4224, 2.459564
797.9045, 1.648270
798.3866, 1.373352
798.8687, 1.776062
799.3508, 2.375900
799.8329, 3.001877
800.3151, 3.572006
800.7972, 3.947891
801.2793, 4.162857
801.7614, 4.041519
802.2435, 3.090134
802.7256, 2.440796
803.2078, 2.507385
803.6899, 2.981720
804.1720, 3.725174
804.6541, 4.604446
805.1362, 5.137573
805.6183, 4.805054
806.1005, 4.317886
806.5826, 4.546661
807.0647, 5.159439
807.5468, 5.399338
808.0289, 5.150665
808.5110, 4.679703
808.9932, 4.130432
809.4753, 3.635727
809.9574, 3.602524
810.4395, 4.172913
810.9216, 4.554398
811.4037, 4.621506
811.8859, 4.639603
812.3680, 4.658661
812.8501, 4.746841
813.3322, 5.057800
813.8143, 5.648483
814.2964, 6.082626
814.7786, 6.347977
815.2607, 6.337097
815.7428, 5.817581
816.2249, 5.062027
816.7070, 4.261047
817.1891, 3.577347
817.6713, 3.518112
818.1534, 4.743347
818.6355, 6.415039
819.1176, 6.717667
819.5997, 5.842819
820.0818, 5.371033
820.5640, 5.573227
821.0461, 6.108459
821.5282, 6.867310
822.0103, 7.656967
822.4924, 7.845108
822.9745, 7.135742
823.4567, 6.671768
823.9388, 6.498154
824.4209, 6.381241
824.9030, 6.187988
825.3851, 5.994339
825.8672, 6.027512
826.3494, 6.333603
826.8315, 6.419357
827.3136, 5.619995
827.7957, 4.805298
828.2778, 4.892746
828.7599, 5.430923
829.2421, 5.527313
829.7242, 5.030396
830.2063, 4.421188
830.6884, 3.920593
831.1705, 3.537094
831.6526, 3.297455
832.1348, 3.170624
832.6169, 3.116150
833.0990, 3.212570
833.5811, 3.400452
834.0632, 3.479004
834.5453, 3.481491
835.0275, 3.581314
835.5096, 3.789978
835.9917, 3.982361
836.4738, 4.196213
836.9559, 4.367783
837.4380, 4.531281
837.9202, 4.599014
838.4023, 4.313812
838.8844, 3.749771
839.3665, 3.608551
839.8486, 4.612213
840.3307, 5.782974
840.8129, 6.110352
841.2950, 5.878510
841.7771, 5.539413
842.2592, 5.235977
842.7413, 5.345886
843.2234, 5.988884
843.7056, 6.598511
844.1877, 5.963715
844.6698, 3.918152
845.1519, 3.223228
845.6340, 4.503464
846.1161, 5.617744
846.5983, 5.527641
847.0804, 4.978081
847.5625, 5.031288
848.0446, 5.686935
848.5267, 6.085907
849.0089, 6.089966
849.4910, 5.974731
849.9731, 5.607529
850.4552, 5.296242
850.9373, 5.450989
851.4194, 5.966660
851.9016, 6.330635
852.3837, 6.223587
852.8658, 5.822998
853.3479, 5.043816
853.8300, 4.306496
854.3121, 4.502014
854.7943, 5.475945
855.2764, 6.259476
855.7585, 6.424988
856.2406, 6.306412
856.7227, 6.383339
857.2048, 6.654678
857.6870, 6.444283
858.1691, 5.533974
858.6512, 4.966629
859.1333, 5.125214
859.6154, 5.523964
860.0975, 5.722107
860.5797, 5.675201
861.0618, 5.521301
861.5439, 4.960381
862.0260, 4.796188
862.5081, 5.720612
862.9902, 6.478302
863.4724, 5.957016
863.9545, 4.835938
864.4366, 4.401596
864.9187, 4.947029
865.4008, 5.499207
865.8829, 5.304184
866.3651, 4.886093
866.8472, 4.795975
867.3293, 4.944321
867.8114, 5.140068
868.2935, 5.316956
868.7756, 5.412178
869.2578, 5.351425
869.7399, 5.190826
870.2220, 4.974541
870.7041, 4.678192
871.1862, 5.050621
871.6683, 6.467857
872.1505, 7.445930
872.6326, 7.050491
873.1147, 5.881416
873.5968, 4.849365
874.0789, 3.906342
874.5610, 3.378349
875.0432, 3.466789
875.5253, 3.686653
876.0074, 4.240059
876.4895, 4.634293
876.9716, 4.214592
877.4537, 3.243835
877.9359, 2.771812
878.4180, 3.325836
878.9001, 3.984406
879.3822, 4.313202
879.8643, 4.337387
880.3464, 3.879295
880.8286, 3.175453
881.3107, 2.888550
881.7928, 3.238777
882.2749, 3.679581
882.7570, 3.489098
883.2391, 2.888412
883.7213, 2.626511
884.2034, 2.689629
884.6855, 2.920479
885.1676, 3.344696
885.6497, 3.634903
886.1318, 3.337936
886.6140, 2.683350
887.0961, 2.296982
887.5782, 2.176140
888.0603, 2.353256
888.5424, 3.220810
889.0245, 3.842117
889.5067, 3.767311
889.9888, 3.297203
890.4709, 2.594818
890.9530, 1.679626
891.4351, 1.269249
891.9172, 2.173233
892.3994, 2.779945
892.8815, 1.954437
893.3636, 0.8889470
893.8457, 0.9399870
894.3278, 1.826653
894.8099, 2.301361
895.2921, 1.781143
895.7742, 1.196274
896.2563, 1.688171
896.7384, 2.565025
897.2205, 2.518860
897.7026, 1.724861
898.1848, 1.137840
898.6669, 1.041901
899.1490, 0.8764500
899.6311, 1.9608000E-02
900.1132, 1.275154
900.5953, 1.309128
901.0775, 1.7952001E-02
901.5596, 0.9423070
902.0417, 1.140160
902.5238, 1.209000
903.0059, 1.581833
903.4880, 1.965279
903.9702, 1.678467
904.4523, 0.4223400
904.9344, 0.2976000
905.4165, 0.1001590
905.8986, 0.1371840
906.3807, 0.1825560
906.8629, 0.2205510
907.3450, 0.5893100
907.8271, 1.124771
908.3092, 1.096634
908.7913, 0.1030810
909.2734, 1.013573
909.7556, 0.7421800
910.2377, 0.1135030
910.7198, 0.2318880
911.2019, 0.3283540
911.6840, 0.3462450
912.1661, 0.3482590
912.6483, 0.3781810
913.1304, 0.5759580
913.6125, 0.7325440
914.0946, 0.1916960
914.5767, 0.6717220
915.0588, 0.3042980
915.5410, 1.388008
916.0231, 2.427902
916.5052, 1.472778
916.9873, 0.3024600
917.4694, 0.4378810
917.9515, 1.155060
918.4337, 1.843887
918.9158, 1.454636
919.3979, 0.8691020
919.8800, 0.2605670
920.3621, 0.1767960
920.8442, 0.1808930
921.3264, 0.2000730
921.8085, 0.4600300
922.2906, 0.6462940
922.7727, 0.6323090
923.2548, 0.2213520
923.7369, 0.1725770
924.2191, 0.4477540
924.7012, 0.5408100
925.1833, 0.3116680
925.6654, 0.2673950
926.1475, 0.8208080
926.6296, 1.501289
927.1118, 1.815140
927.5939, 1.328270
928.0760, 0.4768680
928.5581, 0.5514600
929.0402, 1.487793
929.5223, 1.660713
930.0045, 0.6758120
930.4866, 0.4409710
930.9687, 0.7543490
931.4508, 0.6087270
931.9329, 0.4400180
932.4150, 0.2965160
932.8972, 0.2670290
933.3793, 0.3572690
933.8614, 0.3875350
934.3435, 0.1906280
934.8256, 0.1502460
935.3077, 0.5080180
935.7899, 0.8633730
936.2720, 0.8813400
936.7541, 0.5114670
937.2362, 8.4518000E-02
937.7183, 0.9473500
938.2004, 1.595741
938.6826, 1.173889
939.1647, 0.3598020
939.6468, 1.070099
940.1289, 0.8045730
940.6110, 1.3794000E-02
941.0931, 2.096191
941.5753, 3.549271
942.0574, 2.233788
942.5395, 0.6582490
943.0216, 1.816887
943.5037, 0.5880660
943.9858, 0.3855290
944.4680, 0.7502590
944.9501, 1.001259
945.4322, 1.331070
945.9143, 1.637413
946.3964, 1.888268
946.8785, 2.020248
947.3607, 1.781647
947.8428, 0.7627790
948.3249, 6.4650998E-02
948.8070, 0.3942030
949.2891, 1.208939
949.7712, 2.153152
950.2534, 3.147102
950.7355, 4.320518
951.2176, 5.589951
951.6997, 6.232964
952.1818, 5.360100
952.6639, 3.995476
953.1461, 3.432076
953.6282, 3.503525
954.1103, 3.962624
954.5924, 4.710510
955.0745, 5.596611
955.5566, 6.557816
956.0388, 7.274918
956.5209, 7.147026
957.0030, 6.423882
957.4851, 6.498497
957.9672, 7.325058
958.4493, 7.752777
958.9315, 7.558228
959.4136, 7.256966
959.8957, 7.244843
960.3778, 7.346581
960.8599, 7.062546
961.3420, 6.242737
961.8242, 5.809547
962.3063, 5.849205
962.7884, 6.008179
963.2705, 6.464905
963.7526, 6.728600
964.2347, 5.997711
964.7169, 4.520142
965.1990, 4.140770
965.6811, 5.899063
966.1632, 7.148361
966.6453, 7.433151
967.1274, 7.621880
967.6096, 8.451187
968.0917, 9.321121
968.5738, 9.410767
969.0559, 8.667015
969.5380, 7.618729
970.0201, 5.762459
970.5023, 4.454376
970.9844, 4.367126
971.4665, 4.838127
971.9486, 5.639221
972.4307, 6.421684
972.9128, 6.773933
973.3950, 6.595261
973.8771, 6.214050
974.3592, 5.645088
974.8413, 5.133286
975.3234, 5.008255
975.8055, 5.167419
976.2877, 5.391357
976.7698, 5.613319
977.2519, 5.731750
977.7340, 5.692520
978.2161, 5.603165
978.6982, 5.610733
979.1804, 5.713539
979.6625, 5.918167
980.1446, 6.155479
980.6267, 6.189514
981.1088, 5.982635
981.5909, 5.640488
982.0731, 5.217422
982.5552, 4.907303
983.0373, 5.068565
983.5194, 5.678963
984.0015, 6.662643
984.4836, 8.012779
984.9658, 8.739487
985.4479, 8.469864
985.9300, 8.085915
986.4121, 8.403038
986.8942, 9.141953
987.3763, 9.446243
987.8585, 9.352127
988.3406, 9.059570
988.8227, 8.446907
989.3048, 7.911392
989.7869, 7.538635
990.2690, 7.481110
990.7512, 8.064148
991.2333, 9.192116
991.7154, 9.592133
992.1975, 8.532494
992.6796, 8.321045
993.1617, 9.736160
993.6439, 11.12771
994.1260, 11.83341
994.6081, 12.05303
995.0902, 11.89703
995.5723, 11.32372
996.0544, 11.16097
996.5366, 11.89069
997.0187, 12.37784
997.5008, 12.02848
997.9829, 11.80806
998.4650, 12.43600
998.9471, 13.50732
999.4293, 14.40967
999.9114, 15.07153
1000.393, 15.38168
1000.876, 14.83016
1001.358, 14.55962
1001.840, 15.17032
1002.322, 16.00613
1002.804, 16.50247
1003.286, 16.74236
1003.768, 17.07867
1004.250, 17.61701
1004.733, 18.04047
1005.215, 18.13986
1005.697, 18.10284
1006.179, 17.84724
1006.661, 17.68063
1007.143, 18.20792
1007.625, 19.19808
1008.107, 19.76045
1008.589, 19.49899
1009.072, 19.06256
1009.554, 19.00246
1010.036, 19.05914
1010.518, 18.62646
1011.000, 18.17836
1011.482, 18.97176
1011.964, 20.87296
1012.446, 22.30850
1012.929, 22.40166
1013.411, 21.97630
1013.893, 21.98944
1014.375, 22.21781
1014.857, 22.23061
1015.339, 22.04812
1015.821, 21.68813
1016.303, 21.21144
1016.785, 21.04703
1017.268, 21.54034
1017.750, 22.16545
1018.232, 22.15468
1018.714, 21.53225
1019.196, 19.84779
1019.678, 17.38337
1020.160, 16.89617
1020.642, 19.12676
1021.125, 21.54987
1021.607, 22.18951
1022.089, 21.52227
1022.571, 20.39952
1023.053, 18.85974
1023.535, 17.84493
1024.017, 17.40192
1024.499, 17.14829
1024.981, 16.97527
1025.464, 16.88823
1025.946, 16.91396
1026.428, 16.99071
1026.910, 16.94406
1027.392, 16.78188
1027.874, 16.36334
1028.356, 15.59830
1028.838, 15.00364
1029.321, 14.79231
1029.803, 14.69836
1030.285, 14.42598
1030.767, 14.07019
1031.249, 14.13728
1031.731, 14.89415
1032.213, 15.01717
1032.695, 14.29654
1033.177, 13.33793
1033.660, 12.13729
1034.142, 11.15605
1034.624, 10.88277
1035.106, 11.25146
1035.588, 11.89229
1036.070, 13.13586
1036.552, 13.88728
1037.034, 14.10067
1037.516, 13.74151
1037.999, 12.33412
1038.481, 10.82970
1038.963, 10.30386
1039.445, 10.63187
1039.927, 10.84560
1040.409, 10.89649
1040.891, 10.91836
1041.373, 10.80402
1041.855, 10.79937
1042.338, 11.31946
1042.820, 11.75736
1043.302, 11.23659
1043.784, 9.947716
1044.266, 9.355522
1044.748, 9.889732
1045.230, 10.47321
1045.712, 11.47450
1046.195, 12.00764
1046.677, 11.30711
1047.159, 10.29430
1047.641, 9.983849
1048.123, 10.23932
1048.605, 10.11062
1049.087, 8.872856
1049.569, 8.402977
1050.052, 9.606903
1050.534, 10.88004
1051.016, 11.62706
1051.498, 11.96689
1051.980, 11.91488
1052.462, 11.57336
1052.944, 11.44276
1053.426, 11.82745
1053.908, 11.95658
1054.391, 11.59104
1054.873, 11.02116
1055.355, 9.821236
1055.837, 8.854477
1056.319, 9.517761
1056.801, 11.46296
1057.283, 12.30558
1057.765, 10.93959
1058.248, 9.762108
1058.730, 9.246376
1059.212, 9.344528
1059.694, 10.79971
1060.176, 12.31709
1060.658, 12.07191
1061.140, 10.43606
1061.622, 9.625908
1062.104, 10.50775
1062.587, 11.47682
1063.069, 12.19753
1063.551, 12.63010
1064.033, 12.63148
1064.515, 12.35278
1064.997, 11.73056
1065.479, 10.96102
1065.961, 10.74174
1066.443, 11.54398
1066.926, 12.08566
1067.408, 11.69174
1067.890, 11.03476
1068.372, 10.32479
1068.854, 9.705833
1069.336, 9.336197
1069.818, 9.224174
1070.300, 9.201202
1070.782, 9.264229
1071.265, 9.175774
1071.747, 8.675606
1072.229, 8.156723
1072.711, 7.722862
1073.193, 7.530167
1073.675, 7.888985
1074.157, 8.528229
1074.639, 8.726479
1075.122, 8.245796
1075.604, 7.713593
1076.086, 7.501434
1076.568, 7.262756
1077.050, 6.628731
1077.532, 5.941803
1078.014, 5.520042
1078.496, 5.374687
1078.979, 5.537033
1079.461, 6.045555
1079.943, 6.167366
1080.425, 5.103340
1080.907, 4.132980
1081.389, 3.952194
1081.871, 4.211525
1082.353, 5.102684
1082.835, 6.049500
1083.318, 5.727745
1083.800, 3.865105
1084.282, 2.500603
1084.764, 2.834297
1085.246, 3.511925
1085.728, 4.165741
1086.210, 4.603775
1086.692, 4.645027
1087.175, 4.320656
1087.657, 3.661095
1088.139, 2.715553
1088.621, 1.928909
1089.103, 1.594788
1089.585, 1.299561
1090.067, 0.7640230
1090.549, 0.2690730
1091.031, 0.1494450
1091.514, 0.2528840
1091.996, 0.7326890
1092.478, 2.616959
1092.960, 3.282532
1093.442, 0.8715590
1093.924, 0.9542010
1094.406, 0.1935200
1094.888, 1.061470
1095.370, 1.676216
1095.853, 1.804626
1096.335, 1.561295
1096.817, 1.099510
1097.299, 0.9826660
1097.781, 1.567848
1098.263, 1.974998
1098.745, 1.829765
1099.227, 1.548660
1099.709, 1.168518
1100.192, 0.9116670
1100.674, 1.192284
1101.156, 1.783974
1101.638, 1.843040
1102.120, 0.9785540
1102.602, 0.4828870
1103.084, 1.317451
1103.566, 1.737175
1104.049, 0.4043270
1104.531, 1.075554
1105.013, 1.191154
1105.495, 0.3821490
1105.977, 9.2087001E-02
1106.459, 5.4020002E-03
1106.941, 0.1949920
1107.423, 1.298782
1107.906, 2.055534
1108.388, 2.079826
1108.870, 1.724525
1109.352, 0.8865510
1109.834, 2.5330000E-02
1110.316, 0.2076190
1110.798, 0.4275210
1111.280, 0.6775820
1111.762, 7.9108998E-02
1112.245, 0.4281310
1112.727, 0.3807980
1113.209, 0.9671940
1113.691, 0.1712720
1114.173, 0.9063570
1114.655, 0.6446230
1115.137, 0.8183900
1115.619, 1.539818
1116.102, 0.8732990
1116.584, 0.6137160
1117.066, 1.185471
1117.548, 1.560234
1118.030, 1.198181
1118.512, 0.7012250
1118.994, 0.7502670
1119.476, 1.125664
1119.958, 0.9106370
1120.441, 0.1517410
1120.923, 0.9302140
1121.405, 1.506844
1121.887, 1.822197
1122.369, 1.891594
1122.851, 1.575157
1123.333, 0.5978010
1123.815, 0.6663740
1124.297, 1.383614
1124.780, 1.518265
1125.262, 1.582481
1125.744, 1.642616
1126.226, 1.295242
1126.708, 0.2571790
1127.190, 0.4624250
1127.672, 0.2545240
1128.154, 0.4641490
1128.636, 1.187408
1129.119, 1.841637
1129.601, 1.639656
1130.083, 0.4571080
1130.565, 0.2140430
1131.047, 0.1951750
1131.529, 0.1287080
1132.011, 0.6601490
1132.493, 1.033508
1132.976, 0.8491290
1133.458, 0.2828370
1133.940, 0.2831120
1134.422, 0.8114010
1134.904, 0.7290570
1135.386, 3.5041999E-02
1135.868, 0.8217470
1136.350, 1.711578
1136.833, 2.433441
1137.315, 2.856735
1137.797, 2.970345
1138.279, 2.790276
1138.761, 2.284218
1139.243, 0.9683300
1139.725, 0.7795560
1140.207, 1.423096
1140.689, 0.8269880
1141.172, 0.1042630
1141.654, 0.9262240
1142.136, 1.434265
1142.618, 1.271637
1143.100, 0.8007280
1143.582, 0.4455570
1144.064, 0.3320850
1144.546, 1.038147
1145.029, 2.213821
1145.511, 2.642166
1145.993, 2.041138
1146.475, 1.250092
1146.957, 0.7451100
1147.439, 0.5785370
1147.921, 1.096596
1148.403, 1.728889
1148.885, 1.856773
1149.368, 1.543922
1149.850, 0.6449580
1150.332, 0.5295330
1150.814, 0.8107220
1151.296, 0.4390030
1151.778, 1.658676
1152.260, 1.978180
1152.742, 1.958160
1153.224, 1.819107
1153.707, 1.685387
1154.189, 1.728165
1154.671, 1.851166
1155.153, 1.786316
1155.635, 1.480141
1156.117, 1.260551
1156.599, 1.339005
1157.081, 1.361320
1157.563, 1.139801
1158.046, 0.9144210
1158.528, 0.8570560
1159.010, 0.8726500
1159.492, 0.8137970
1159.974, 0.6892620
1160.456, 0.6295320
1160.938, 0.5607830
1161.420, 0.7231450
1161.903, 1.236328
1162.385, 1.800323
1162.867, 2.667725
1163.349, 3.262726
1163.831, 2.785370
1164.313, 1.827568
1164.795, 1.941772
1165.277, 3.314308
1165.760, 4.181129
1166.242, 4.441994
1166.724, 4.514252
1167.206, 4.460159
1167.688, 4.194702
1168.170, 3.597656
1168.652, 2.972458
1169.134, 2.664436
1169.616, 2.671799
1170.099, 3.098015
1170.581, 3.982689
1171.063, 4.413399
1171.545, 4.332092
1172.027, 4.373260
1172.509, 4.809074
1172.991, 5.199585
1173.473, 5.180290
1173.956, 4.835091
1174.438, 4.141724
1174.920, 3.283325
1175.402, 2.873772
1175.884, 2.843239
1176.366, 3.146080
1176.848, 3.591522
1177.330, 3.142860
1177.813, 1.424713
1178.295, 0.1774440
1178.777, 1.200455
1179.259, 3.058929
1179.741, 4.386322
1180.223, 5.128014
1180.705, 4.860992
1181.187, 4.109421
1181.669, 3.909554
1182.151, 4.298363
1182.634, 4.438568
1183.116, 3.864075
1183.598, 3.320831
1184.080, 3.361275
1184.562, 3.442657
1185.044, 2.880692
1185.526, 2.424995
1186.008, 3.105598
1186.490, 4.409096
1186.973, 5.076866
1187.455, 4.875854
1187.937, 4.542915
1188.419, 3.903152
1188.901, 3.576408
1189.383, 3.920959
1189.865, 4.350258
1190.347, 4.744049
1190.830, 4.909637
1191.312, 4.487175
1191.794, 3.615883
1192.276, 3.118515
1192.758, 3.184982
1193.240, 3.169769
1193.722, 2.975983
1194.204, 2.960297
1194.687, 3.333359
1195.169, 3.484398
1195.651, 3.003036
1196.133, 2.109627
1196.615, 0.9760820
1197.097, 0.1835860
1197.579, 0.2134780
1198.061, 2.082726
1198.543, 2.866989
1199.026, 2.410225
1199.508, 1.864441
1199.990, 1.615784
1200.472, 1.667030
1200.954, 2.089081
1201.436, 2.452080
1201.918, 1.971153
1202.400, 1.088287
1202.883, 0.3669280
1203.365, 7.1109999E-03
1203.847, 0.6603470
1204.329, 2.089615
1204.811, 3.312233
1205.293, 3.949371
1205.775, 4.157265
1206.257, 3.785622
1206.740, 3.332634
1207.222, 3.046501
1207.704, 2.936119
1208.186, 3.166145
1208.668, 3.473122
1209.150, 3.510422
1209.632, 3.222038
1210.114, 2.783325
1210.596, 2.078613
1211.078, 1.757004
1211.561, 2.510818
1212.043, 2.881393
1212.525, 1.965775
1213.007, 1.029945
1213.489, 0.9027790
1213.971, 1.231834
1214.453, 1.511444
1214.935, 1.743324
1215.417, 1.968307
1215.900, 2.140396
1216.382, 2.562675
1216.864, 3.434334
1217.346, 3.614098
1217.828, 2.574547
1218.310, 1.700279
1218.792, 2.099617
1219.274, 3.074669
1219.757, 3.356682
1220.239, 3.059464
1220.721, 2.639809
1221.203, 2.183403
1221.685, 1.918358
1222.167, 1.851059
1222.649, 2.320045
1223.131, 3.350578
1223.614, 4.014488
1224.096, 3.445839
1224.578, 2.733688
1225.060, 3.501045
1225.542, 4.413666
1226.024, 3.468697
1226.506, 1.790161
1226.988, 1.332901
1227.470, 1.878151
1227.953, 1.894775
1228.435, 0.9414140
1228.917, 0.4865040
1229.399, 1.544022
1229.881, 2.548569
1230.363, 3.109261
1230.845, 3.333900
1231.327, 2.999077
1231.810, 2.578133
1232.292, 2.791794
1232.774, 3.498558
1233.256, 3.461266
1233.738, 3.800430
1234.220, 4.190361
1234.702, 3.751801
1235.184, 4.496140
1235.667, 3.744263
1236.149, 3.032265
1236.631, 3.176369
1237.113, 2.755112
1237.595, 3.385414
1238.077, 2.945778
1238.559, 3.212257
1239.041, 3.979149
1239.523, 4.122879
1240.005, 3.722816
1240.488, 3.410286
1240.970, 3.308861
1241.452, 3.131348
1241.934, 2.867409
1242.416, 2.853882
1242.898, 3.736862
1243.380, 4.563332
1243.862, 4.245110
1244.344, 3.423973
1244.827, 2.698349
1245.309, 2.191666
1245.791, 1.868729
1246.273, 1.707832
1246.755, 1.627777
1247.237, 1.596313
1247.719, 1.692627
1248.201, 1.839432
1248.684, 2.245773
1249.166, 3.609100
1249.648, 4.482056
1250.130, 3.731979
1250.612, 2.412613
1251.094, 1.920662
1251.576, 2.127266
1252.058, 2.237831
1252.541, 2.257156
1253.023, 2.141418
1253.505, 1.869217
1253.987, 1.723618
1254.469, 1.775200
1254.951, 1.777069
1255.433, 1.585754
1255.915, 1.286880
1256.397, 0.8209230
1256.880, 0.5449070
1257.362, 1.545853
1257.844, 3.021973
1258.326, 3.197342
1258.808, 2.405373
1259.290, 1.572548
1259.772, 0.9808730
1260.254, 0.8299710
1260.737, 1.280281
1261.219, 1.539742
1261.701, 0.7785800
1262.183, 0.2781910
1262.665, 1.089203
1263.147, 1.930695
1263.629, 1.686432
1264.111, 1.009079
1264.594, 0.7290500
1265.076, 0.8951340
1265.558, 1.692024
1266.040, 3.672638
1266.522, 4.136223
1267.004, 2.539345
1267.486, 1.337601
1267.968, 1.023849
1268.450, 1.054024
1268.932, 1.187332
1269.415, 1.287697
1269.897, 1.153923
1270.379, 0.9883730
1270.861, 1.334091
1271.343, 2.017540
1271.825, 2.812668
1272.307, 3.491165
1272.789, 3.283218
1273.271, 2.341911
1273.754, 1.807617
1274.236, 2.075455
1274.718, 2.305374
1275.200, 1.595428
1275.682, 1.110069
1276.164, 1.820923
1276.646, 2.665764
1277.128, 3.188683
1277.611, 3.187828
1278.093, 1.845772
1278.575, 0.1276700
1279.057, 0.3305210
1279.539, 1.589111
1280.021, 2.879807
1280.503, 3.483505
1280.985, 3.446556
1281.468, 2.565979
1281.950, 2.143700
1282.432, 1.492447
1282.914, 1.892967
1283.396, 1.345863
1283.878, 0.3017350
1284.360, 0.2636870
1284.842, 0.5513150
1285.324, 0.0000000E+00
##END=



