##NAMES=Tremolite
##RRUFFID=R060311
##IDEAL CHEMISTRY=[box]Ca_2_Mg_5_Si_8_O_22_(OH)_2_
##LOCALITY=Khyber Pass area, Khyber Agency, North-West Frontier Province, Pakistan
##OWNER=RRUFF
##SOURCE=Herb Obodda
##DESCRIPTION=Colorless fragment
##STATUS=The identification of this mineral has been confirmed by X-ray diffraction and chemical analysis
##URL=rruff.info/R060311
##MEASURED CHEMISTRY=[box](Ca_1.96_Mg_0.04_)_Σ=2_(Mg_4.97_Fe^3+^_0.03_)_Σ=5_(Si_7.97_Al_0.03_)_Σ=8_O_22_(OH)_2_
98.28284, 0.0000000E+00
98.76495, 1.618896
99.24707, 2.846680
99.72919, 6.256958
100.2113, 11.02185
100.6934, 12.74731
101.1755, 7.326538
101.6577, 2.574097
102.1398, 0.2401120
102.6219, 1.428223
103.1040, 0.4188230
103.5861, 6.264038
104.0682, 13.09155
104.5504, 19.18103
105.0325, 24.19946
105.5146, 28.93091
105.9967, 34.05872
106.4788, 39.06567
106.9609, 45.58716
107.4431, 55.23340
107.9252, 66.19153
108.4073, 75.63574
108.8894, 81.92090
109.3715, 87.63428
109.8536, 97.28601
110.3358, 111.1000
110.8179, 126.3347
111.3000, 141.7333
111.7821, 157.3434
112.2642, 173.4602
112.7463, 189.0138
113.2285, 206.1028
113.7106, 226.1464
114.1927, 248.8358
114.6748, 275.8739
115.1569, 308.8469
115.6390, 348.2334
116.1212, 398.9872
116.6033, 468.9592
117.0854, 540.7319
117.5675, 604.0027
118.0496, 654.2891
118.5317, 688.6193
119.0139, 700.4277
119.4960, 665.5177
119.9781, 632.7568
120.4602, 608.9227
120.9423, 593.5076
121.4244, 585.6577
121.9066, 586.3027
122.3887, 597.2217
122.8708, 589.4036
123.3529, 560.1152
123.8350, 519.8660
124.3171, 468.8696
124.7993, 409.2129
125.2814, 348.5312
125.7635, 293.5443
126.2456, 245.2659
126.7277, 202.2284
127.2098, 164.7214
127.6920, 132.3496
128.1741, 104.6364
128.6562, 81.72180
129.1383, 63.04626
129.6204, 49.30212
130.1025, 39.80652
130.5847, 31.70007
131.0668, 24.34814
131.5489, 17.58191
132.0310, 10.67371
132.5131, 2.529297
132.9952, 4.668091
133.4774, 9.451294
133.9595, 11.77856
134.4416, 12.26062
134.9237, 10.61462
135.4058, 6.309692
135.8879, 3.437744
136.3701, 4.491577
136.8522, 6.098022
137.3343, 7.126587
137.8164, 7.151978
138.2985, 5.136475
138.7806, 1.217041
139.2628, 15.47656
139.7449, 27.73108
140.2270, 34.90137
140.7091, 40.97595
141.1912, 49.59314
141.6733, 62.34314
142.1555, 78.25903
142.6376, 93.86865
143.1197, 111.8470
143.6018, 126.3562
144.0839, 138.5497
144.5660, 146.6195
145.0482, 147.2512
145.5303, 137.9423
146.0124, 119.9500
146.4945, 102.6241
146.9766, 83.87183
147.4587, 67.60669
147.9409, 55.32837
148.4230, 46.92017
148.9051, 41.77380
149.3872, 39.61743
149.8693, 40.92078
150.3514, 44.89587
150.8336, 52.06958
151.3157, 61.59485
151.7978, 72.84082
152.2799, 85.88831
152.7620, 100.5442
153.2441, 116.2397
153.7263, 133.4766
154.2084, 154.1387
154.6905, 177.0598
155.1726, 203.9081
155.6547, 238.0706
156.1368, 278.2317
156.6190, 329.3678
157.1011, 386.9264
157.5832, 454.9838
158.0653, 544.0190
158.5474, 669.8081
159.0295, 828.5083
159.5117, 971.1027
159.9938, 1140.359
160.4759, 1243.669
160.9580, 1229.907
161.4401, 1119.939
161.9222, 968.1973
162.4044, 816.4558
162.8865, 659.5859
163.3686, 529.8352
163.8507, 433.8958
164.3328, 355.7456
164.8149, 291.7280
165.2971, 239.8752
165.7792, 199.9829
166.2613, 171.7731
166.7434, 158.3082
167.2255, 150.3915
167.7076, 148.7380
168.1898, 151.1438
168.6719, 156.0251
169.1540, 163.1008
169.6361, 173.1893
170.1182, 187.5656
170.6003, 207.1575
171.0825, 229.7516
171.5646, 255.4117
172.0467, 283.9480
172.5288, 314.4238
173.0109, 346.2659
173.4930, 381.7227
173.9752, 425.2424
174.4573, 475.6053
174.9394, 533.4236
175.4215, 600.1047
175.9036, 674.6498
176.3857, 757.2803
176.8679, 855.7675
177.3500, 951.1654
177.8321, 1028.542
178.3142, 1092.486
178.7963, 1116.937
179.2784, 1078.045
179.7606, 980.4700
180.2427, 862.0032
180.7248, 712.7739
181.2069, 562.7126
181.6890, 435.7622
182.1711, 333.2924
182.6533, 251.2612
183.1354, 188.0811
183.6175, 144.9056
184.0996, 111.5073
184.5817, 92.60645
185.0638, 79.10254
185.5460, 66.62024
186.0281, 54.16760
186.5102, 43.05054
186.9923, 35.18909
187.4744, 31.21912
187.9565, 29.07776
188.4387, 29.34094
188.9208, 30.51941
189.4029, 31.27136
189.8850, 31.25964
190.3671, 31.56519
190.8492, 34.28076
191.3314, 42.07703
191.8135, 48.03455
192.2956, 53.12585
192.7777, 56.06226
193.2598, 55.18994
193.7419, 49.77661
194.2241, 41.15515
194.7062, 32.96985
195.1883, 25.33826
195.6704, 18.16956
196.1525, 10.65247
196.6346, 4.111572
197.1168, 3.2715000E-02
197.5989, 0.7946780
198.0810, 0.6536870
198.5631, 1.610718
199.0452, 0.6953130
199.5273, 1.104614
200.0095, 3.896362
200.4916, 8.264771
200.9737, 12.77368
201.4558, 16.66833
201.9379, 20.61841
202.4200, 26.78918
202.9022, 35.43201
203.3843, 45.08679
203.8664, 55.35583
204.3485, 66.28223
204.8306, 77.80713
205.3127, 89.67041
205.7949, 102.5005
206.2770, 117.0829
206.7591, 133.2356
207.2412, 151.2886
207.7233, 170.7427
208.2054, 191.9700
208.6876, 216.6323
209.1697, 244.7559
209.6518, 277.8922
210.1339, 316.6357
210.6160, 361.1394
211.0981, 410.4319
211.5803, 464.3030
212.0624, 522.6401
212.5445, 584.3301
213.0266, 655.5468
213.5087, 725.0139
213.9908, 783.4552
214.4730, 829.4845
214.9551, 863.4553
215.4372, 880.3218
215.9193, 876.5288
216.4014, 878.3396
216.8836, 889.1997
217.3657, 911.0135
217.8478, 946.1213
218.3299, 995.1035
218.8120, 1058.494
219.2941, 1137.898
219.7763, 1236.047
220.2584, 1339.593
220.7405, 1454.290
221.2226, 1569.213
221.7047, 1685.732
222.1868, 1802.378
222.6690, 1899.127
223.1511, 1946.242
223.6332, 1942.733
224.1153, 1885.245
224.5974, 1750.101
225.0795, 1586.318
225.5617, 1418.755
226.0438, 1257.520
226.5259, 1111.461
227.0080, 995.8679
227.4901, 916.9297
227.9722, 863.5642
228.4544, 839.8297
228.9365, 834.0876
229.4186, 840.4819
229.9007, 856.4038
230.3828, 879.5195
230.8649, 906.4320
231.3471, 949.0300
231.8292, 974.9956
232.3113, 988.3812
232.7934, 984.7574
233.2755, 958.1670
233.7576, 907.7574
234.2398, 839.6946
234.7219, 764.1929
235.2040, 672.6790
235.6861, 588.6992
236.1682, 510.8096
236.6503, 440.8529
237.1325, 381.5917
237.6146, 333.8181
238.0967, 294.7035
238.5788, 260.4209
239.0609, 231.4862
239.5430, 208.0629
240.0252, 191.4081
240.5073, 179.8577
240.9894, 172.3849
241.4715, 168.6923
241.9536, 168.0022
242.4357, 169.4525
242.9179, 173.1011
243.4000, 179.0381
243.8821, 186.5964
244.3642, 196.7800
244.8463, 210.3499
245.3284, 227.4760
245.8106, 248.7285
246.2927, 275.9078
246.7748, 309.1768
247.2569, 343.3075
247.7390, 378.4276
248.2211, 413.7819
248.7033, 450.9504
249.1854, 491.2163
249.6675, 525.6379
250.1496, 545.0000
250.6317, 550.6724
251.1138, 545.6912
251.5960, 529.0286
252.0781, 502.7061
252.5602, 466.8179
253.0423, 420.2588
253.5244, 371.6514
254.0065, 326.4688
254.4887, 285.1412
254.9708, 250.3868
255.4529, 224.1929
255.9350, 204.5769
256.4171, 189.5587
256.8992, 179.4077
257.3813, 172.3334
257.8635, 167.2826
258.3456, 164.4398
258.8277, 164.8615
259.3098, 169.3230
259.7919, 176.8813
260.2740, 186.2914
260.7562, 197.5599
261.2383, 210.9702
261.7204, 228.7825
262.2025, 248.1594
262.6846, 266.5912
263.1667, 285.5573
263.6489, 300.6373
264.1310, 306.5166
264.6131, 303.3961
265.0952, 290.1865
265.5773, 258.8123
266.0594, 219.9734
266.5416, 182.1290
267.0237, 146.6902
267.5058, 115.1726
267.9879, 89.66162
268.4700, 70.79724
268.9521, 55.41821
269.4343, 44.74243
269.9164, 36.05518
270.3985, 27.37537
270.8806, 18.14185
271.3627, 9.716797
271.8448, 4.035156
272.3270, 1.487549
272.8091, 0.5260010
273.2912, 2.676758
273.7733, 4.428833
274.2554, 4.929810
274.7375, 4.139282
275.2197, 3.718994
275.7018, 6.406494
276.1839, 13.09399
276.6660, 17.08044
277.1481, 13.95959
277.6302, 10.33801
278.1124, 9.822754
278.5945, 12.44214
279.0766, 15.49707
279.5587, 16.02380
280.0408, 13.62573
280.5229, 12.24634
281.0051, 13.34216
281.4872, 14.38867
281.9693, 14.41821
282.4514, 13.45081
282.9335, 11.91284
283.4156, 9.974731
283.8978, 7.615967
284.3799, 5.749634
284.8620, 5.099609
285.3441, 4.231201
285.8262, 3.105957
286.3083, 1.404663
286.7905, 1.501099
287.2726, 6.248779
287.7547, 12.63403
288.2368, 18.63098
288.7189, 23.64270
289.2010, 28.97620
289.6832, 36.16150
290.1653, 43.64075
290.6474, 49.18384
291.1295, 51.44971
291.6116, 50.87451
292.0938, 48.92737
292.5759, 43.63208
293.0580, 39.89465
293.5401, 38.61523
294.0222, 39.24878
294.5043, 41.38538
294.9865, 44.87500
295.4686, 49.33459
295.9507, 53.85217
296.4328, 58.38000
296.9149, 63.06970
297.3970, 66.96863
297.8792, 71.51575
298.3613, 78.15784
298.8434, 87.28333
299.3255, 97.77368
299.8076, 107.5585
300.2897, 115.3082
300.7719, 125.5383
301.2540, 139.9849
301.7361, 155.4414
302.2182, 171.4133
302.7003, 187.0266
303.1824, 200.0652
303.6646, 208.3281
304.1467, 212.2493
304.6288, 209.2001
305.1109, 195.4250
305.5930, 178.4274
306.0751, 159.6514
306.5573, 140.3816
307.0394, 122.6904
307.5215, 108.5038
308.0036, 97.87549
308.4857, 88.97681
308.9678, 82.08044
309.4500, 76.73291
309.9321, 73.61487
310.4142, 71.95227
310.8963, 70.45813
311.3784, 68.36682
311.8605, 65.61389
312.3427, 61.81274
312.8248, 57.68921
313.3069, 51.34949
313.7890, 40.50415
314.2711, 27.87781
314.7532, 16.57410
315.2354, 8.148315
315.7175, 2.344116
316.1996, 1.231323
316.6817, 0.4782710
317.1638, 0.7657470
317.6459, 3.989624
318.1281, 7.697144
318.6102, 9.657593
319.0923, 9.179810
319.5744, 7.183838
320.0565, 5.248413
320.5386, 3.974609
321.0208, 1.287964
321.5029, 4.219482
321.9850, 9.917969
322.4671, 14.39746
322.9492, 17.39417
323.4313, 19.24902
323.9135, 20.18799
324.3956, 19.96741
324.8777, 20.01282
325.3598, 21.25354
325.8419, 21.88464
326.3240, 20.55420
326.8062, 17.91089
327.2883, 15.65100
327.7704, 14.94141
328.2525, 15.79346
328.7346, 18.26868
329.2167, 23.15747
329.6989, 28.92627
330.1810, 35.27197
330.6631, 42.21997
331.1452, 49.88293
331.6273, 58.42358
332.1094, 67.64307
332.5916, 76.98999
333.0737, 87.91333
333.5558, 96.00647
334.0379, 100.6801
334.5200, 102.4374
335.0021, 100.9015
335.4843, 96.01111
335.9664, 90.48828
336.4485, 88.85864
336.9306, 91.97266
337.4127, 96.58716
337.8948, 103.0970
338.3770, 110.6300
338.8591, 117.7981
339.3412, 124.9689
339.8233, 134.3430
340.3055, 148.8628
340.7876, 169.0198
341.2697, 189.1208
341.7518, 209.1461
342.2339, 229.0022
342.7160, 250.0476
343.1982, 270.9655
343.6803, 289.0010
344.1624, 302.4519
344.6445, 311.6090
345.1266, 317.2290
345.6087, 317.7635
346.0909, 316.6348
346.5730, 312.4534
347.0551, 308.3994
347.5372, 308.6023
348.0193, 314.9500
348.5014, 325.5419
348.9836, 337.3845
349.4657, 350.7153
349.9478, 364.3472
350.4299, 381.1985
350.9120, 396.2754
351.3941, 405.7926
351.8763, 409.0366
352.3584, 407.5918
352.8405, 402.9484
353.3226, 395.0981
353.8047, 383.3171
354.2868, 365.5372
354.7690, 345.4917
355.2511, 323.5813
355.7332, 300.9062
356.2153, 281.7736
356.6974, 270.4111
357.1795, 265.0568
357.6617, 258.2021
358.1438, 247.5896
358.6259, 240.2646
359.1080, 240.9878
359.5901, 247.1974
360.0722, 255.3655
360.5544, 264.8970
361.0365, 275.0682
361.5186, 285.0084
362.0007, 294.6245
362.4828, 304.2867
362.9649, 312.8925
363.4471, 322.4838
363.9292, 335.0764
364.4113, 350.8157
364.8934, 370.0427
365.3755, 392.5869
365.8576, 418.6781
366.3398, 449.7246
366.8219, 486.8447
367.3040, 528.3944
367.7861, 573.9436
368.2682, 623.0325
368.7503, 670.7820
369.2325, 722.7850
369.7146, 770.2618
370.1967, 798.2584
370.6788, 805.1133
371.1609, 795.1431
371.6430, 764.8237
372.1252, 719.2098
372.6073, 676.1255
373.0894, 635.8199
373.5715, 600.5144
374.0536, 572.6648
374.5357, 551.9440
375.0179, 536.2983
375.5000, 526.8610
375.9821, 520.0676
376.4642, 507.9907
376.9463, 490.9736
377.4284, 469.7133
377.9106, 442.5535
378.3927, 411.6805
378.8748, 379.8433
379.3569, 347.3329
379.8390, 317.0155
380.3211, 292.7810
380.8033, 275.5227
381.2854, 260.2155
381.7675, 245.6750
382.2496, 233.6788
382.7317, 225.3538
383.2138, 220.8705
383.6960, 220.2556
384.1781, 223.7374
384.6602, 231.1957
385.1423, 240.8647
385.6244, 250.2319
386.1065, 264.0264
386.5887, 285.0728
387.0708, 311.2762
387.5529, 339.0436
388.0350, 366.7871
388.5171, 395.8378
388.9992, 429.1064
389.4814, 465.1887
389.9635, 508.6301
390.4456, 561.5986
390.9277, 620.3054
391.4098, 682.3931
391.8919, 747.0200
392.3741, 815.3328
392.8562, 890.2463
393.3383, 975.3401
393.8204, 1041.643
394.3025, 1098.754
394.7846, 1128.757
395.2668, 1124.461
395.7489, 1088.550
396.2310, 1023.363
396.7131, 928.2408
397.1952, 811.3328
397.6773, 699.6448
398.1595, 588.4402
398.6416, 492.2706
399.1237, 412.0237
399.6058, 345.6160
400.0879, 292.6309
400.5700, 252.4392
401.0522, 221.7374
401.5343, 196.8136
402.0164, 177.9604
402.4985, 163.0604
402.9806, 153.1409
403.4627, 146.4847
403.9449, 143.1156
404.4270, 142.4547
404.9091, 143.2570
405.3912, 144.7837
405.8733, 147.3536
406.3554, 151.7867
406.8376, 157.9546
407.3197, 166.1542
407.8018, 177.1036
408.2839, 189.8828
408.7660, 203.5209
409.2481, 217.8152
409.7303, 233.3173
410.2124, 250.2781
410.6945, 268.8005
411.1766, 290.3724
411.6587, 315.6598
412.1408, 344.0580
412.6230, 375.3096
413.1051, 409.0786
413.5872, 443.0624
414.0693, 478.0107
414.5514, 511.9945
415.0335, 543.2756
415.5157, 572.2632
415.9978, 593.2653
416.4799, 603.8027
416.9620, 602.2263
417.4441, 587.4395
417.9262, 555.7869
418.4084, 515.6127
418.8905, 467.5869
419.3726, 414.6301
419.8547, 363.9607
420.3368, 317.6375
420.8189, 275.8126
421.3011, 239.3646
421.7832, 208.5547
422.2653, 181.7302
422.7474, 159.2277
423.2295, 140.3611
423.7116, 124.7015
424.1938, 112.1061
424.6759, 102.2357
425.1580, 95.05420
425.6401, 90.43469
426.1222, 85.72400
426.6043, 78.60229
427.0865, 74.05432
427.5686, 74.74023
428.0507, 78.27600
428.5328, 81.11035
429.0149, 81.91687
429.4970, 82.36902
429.9792, 85.52222
430.4613, 92.80127
430.9434, 99.81189
431.4255, 105.2496
431.9076, 111.5894
432.3897, 120.7296
432.8719, 132.1903
433.3540, 144.2100
433.8361, 155.6731
434.3182, 166.3988
434.8003, 175.2078
435.2824, 182.4514
435.7646, 186.9004
436.2467, 190.3613
436.7288, 190.3364
437.2109, 183.6201
437.6930, 169.1777
438.1751, 150.1801
438.6573, 129.1859
439.1394, 105.8837
439.6215, 84.99109
440.1036, 66.99097
440.5857, 51.89856
441.0678, 39.49841
441.5500, 29.66333
442.0321, 21.96143
442.5142, 17.00671
442.9963, 13.68005
443.4784, 9.718384
443.9605, 4.887695
444.4427, 0.9322510
444.9248, 0.8332520
445.4069, 1.352905
445.8890, 2.335938
446.3711, 4.057861
446.8532, 5.678223
447.3354, 6.757080
447.8175, 7.388306
448.2996, 7.745483
448.7817, 7.849854
449.2638, 7.761230
449.7459, 7.352539
450.2281, 6.597900
450.7102, 6.695435
451.1923, 9.419678
451.6744, 11.48181
452.1565, 9.599365
452.6386, 5.148804
453.1208, 2.772705
453.6029, 5.194214
454.0850, 10.21472
454.5671, 11.70361
455.0492, 4.513184
455.5313, 0.7924800
456.0135, 4.188965
456.4956, 8.740356
456.9777, 8.854248
457.4598, 4.399658
457.9419, 5.5420000E-02
458.4240, 0.1086430
458.9062, 4.980347
459.3883, 7.819702
459.8704, 7.210693
460.3525, 6.001709
460.8346, 4.480835
461.3167, 2.828735
461.7989, 1.018066
462.2810, 0.9801030
462.7631, 2.541870
463.2452, 2.301636
463.7273, 0.2418210
464.2094, 1.626587
464.6916, 0.4882810
465.1737, 1.049194
465.6558, 1.671875
466.1379, 1.577759
466.6200, 1.698242
467.1021, 2.667725
467.5843, 4.112671
468.0664, 5.252319
468.5485, 6.035034
469.0306, 6.956665
469.5127, 8.714355
469.9948, 10.44055
470.4770, 10.66870
470.9591, 8.934692
471.4412, 7.315552
471.9233, 6.766968
472.4054, 7.066162
472.8875, 7.879272
473.3697, 9.161743
473.8518, 10.81628
474.3339, 12.82434
474.8160, 15.18884
475.2981, 17.46423
475.7802, 19.56812
476.2624, 21.65540
476.7445, 24.19446
477.2266, 26.69995
477.7087, 28.10986
478.1908, 27.99121
478.6729, 27.09729
479.1551, 26.78857
479.6372, 27.31140
480.1193, 27.83667
480.6014, 27.90405
481.0835, 28.36890
481.5656, 29.83313
482.0478, 32.12158
482.5299, 34.76733
483.0120, 37.55261
483.4941, 40.29395
483.9762, 42.12256
484.4583, 42.43518
484.9405, 43.09814
485.4226, 45.19348
485.9047, 47.29370
486.3868, 47.93787
486.8689, 47.09399
487.3510, 46.45056
487.8332, 48.40344
488.3153, 52.02820
488.7974, 52.21448
489.2795, 47.29822
489.7616, 42.65576
490.2437, 41.87830
490.7259, 43.43018
491.2080, 45.25659
491.6901, 47.13354
492.1722, 48.92163
492.6543, 50.54321
493.1364, 51.88647
493.6186, 52.61975
494.1007, 52.68958
494.5828, 52.14526
495.0649, 50.98120
495.5470, 49.16101
496.0291, 46.89856
496.5113, 43.95862
496.9934, 40.79614
497.4755, 37.48706
497.9576, 34.15784
498.4397, 31.11609
498.9218, 28.56616
499.4040, 26.20691
499.8861, 23.20874
500.3682, 17.45935
500.8503, 15.24011
501.3324, 19.09265
501.8145, 23.87000
502.2967, 26.05505
502.7788, 26.17932
503.2609, 27.15161
503.7430, 31.18164
504.2251, 37.34192
504.7072, 42.22180
505.1894, 45.75647
505.6715, 48.04456
506.1536, 47.11646
506.6357, 46.39124
507.1178, 49.05432
507.5999, 55.38452
508.0821, 62.27637
508.5642, 67.03357
509.0463, 70.33630
509.5284, 75.00476
510.0105, 81.81946
510.4926, 89.10815
510.9748, 95.77710
511.4569, 101.6250
511.9390, 106.7151
512.4211, 110.9663
512.9032, 115.6885
513.3853, 121.4049
513.8674, 127.0883
514.3495, 131.7334
514.8317, 135.4412
515.3138, 138.0739
515.7959, 139.0073
516.2780, 137.8091
516.7601, 136.7406
517.2422, 136.5149
517.7244, 135.9525
518.2065, 133.2435
518.6886, 130.4424
519.1707, 130.9261
519.6528, 135.7651
520.1349, 142.4320
520.6171, 147.0854
521.0992, 149.3296
521.5813, 150.7852
522.0634, 148.5612
522.5455, 148.7880
523.0276, 154.6016
523.5098, 164.2905
523.9919, 174.5795
524.4740, 184.0823
524.9561, 193.6439
525.4382, 204.2629
525.9203, 215.8379
526.4025, 229.6655
526.8846, 247.5469
527.3667, 265.6431
527.8488, 281.6758
528.3309, 295.3822
528.8130, 304.4492
529.2952, 306.7678
529.7773, 305.2443
530.2594, 303.6611
530.7415, 300.9937
531.2236, 291.8922
531.7057, 273.3572
532.1879, 248.9547
532.6700, 225.2482
533.1521, 201.6150
533.6342, 180.0457
534.1163, 161.2079
534.5984, 144.0219
535.0806, 128.0074
535.5627, 113.0566
536.0448, 98.94653
536.5269, 85.51721
537.0090, 73.22229
537.4911, 63.96118
537.9733, 59.35376
538.4554, 54.03992
538.9375, 45.61572
539.4196, 37.78137
539.9017, 33.33057
540.3839, 31.79358
540.8660, 30.37317
541.3481, 27.27429
541.8302, 23.09131
542.3123, 18.93396
542.7944, 14.74634
543.2766, 11.17737
543.7587, 8.431030
544.2408, 6.574097
544.7229, 5.886719
545.2050, 6.562622
545.6871, 6.680908
546.1693, 5.075684
546.6514, 2.906494
547.1335, 1.514282
547.6156, 0.8747560
548.0977, 1.7700000E-02
548.5798, 1.929932
549.0620, 4.302734
549.5441, 5.221558
550.0262, 3.413208
550.5083, 1.798706
550.9904, 0.3005370
551.4725, 0.9753420
551.9547, 1.863037
552.4368, 2.308105
552.9189, 2.346191
553.4010, 1.943481
553.8831, 1.290649
554.3652, 1.129639
554.8474, 1.565308
555.3295, 2.335205
555.8116, 3.765503
556.2937, 5.289673
556.7758, 6.680176
557.2579, 7.909668
557.7401, 8.650269
558.2222, 8.227539
558.7043, 7.059326
559.1864, 6.175781
559.6685, 5.624634
560.1506, 5.251099
560.6328, 5.195557
561.1149, 5.184326
561.5970, 4.264893
562.0791, 1.735596
562.5612, 0.5415040
563.0433, 2.109497
563.5255, 4.423950
564.0076, 6.294312
564.4897, 7.454956
564.9718, 7.444702
565.4539, 5.814087
565.9360, 3.444458
566.4182, 3.429932
566.9003, 8.045410
567.3824, 10.88342
567.8645, 10.26184
568.3466, 9.028076
568.8287, 9.031128
569.3109, 10.10339
569.7930, 10.93701
570.2751, 10.48987
570.7572, 9.537964
571.2393, 10.02454
571.7214, 12.13110
572.2036, 13.42419
572.6857, 12.84509
573.1678, 11.40442
573.6499, 9.900391
574.1320, 8.330566
574.6141, 7.992432
575.0963, 10.35071
575.5784, 13.19922
576.0605, 14.83020
576.5426, 15.30090
577.0247, 14.95288
577.5068, 13.85791
577.9890, 12.55359
578.4711, 12.04553
578.9532, 12.57800
579.4353, 13.35718
579.9174, 14.50476
580.3995, 15.75452
580.8817, 17.18384
581.3638, 18.58301
581.8459, 19.66785
582.3280, 20.32947
582.8101, 20.41650
583.2922, 19.39001
583.7744, 17.12988
584.2565, 15.42114
584.7386, 13.97876
585.2207, 13.87891
585.7029, 17.82812
586.1850, 23.65295
586.6671, 25.36719
587.1492, 18.32092
587.6313, 11.10608
588.1135, 10.65857
588.5956, 14.71973
589.0777, 18.32214
589.5598, 20.23120
590.0419, 20.89392
590.5240, 20.64709
591.0062, 19.45874
591.4883, 18.18298
591.9704, 16.77686
592.4525, 15.36035
592.9346, 13.26465
593.4167, 11.53931
593.8989, 11.51978
594.3810, 13.41187
594.8631, 16.17554
595.3452, 19.31006
595.8273, 22.60718
596.3094, 23.26831
596.7916, 19.81079
597.2737, 17.12427
597.7558, 18.52954
598.2379, 21.17261
598.7200, 21.95447
599.2021, 20.38110
599.6843, 18.57849
600.1664, 17.17285
600.6485, 16.38721
601.1306, 16.81445
601.6127, 18.34265
602.0948, 19.97119
602.5770, 21.33728
603.0591, 22.06812
603.5412, 21.04492
604.0233, 16.44348
604.5054, 12.94336
604.9875, 10.73682
605.4697, 9.440186
605.9518, 9.590454
606.4339, 10.33496
606.9160, 9.802246
607.3981, 6.935425
607.8802, 3.100098
608.3624, 0.5560300
608.8445, 0.6129150
609.3266, 1.064697
609.8087, 0.5429690
610.2908, 0.1381840
610.7729, 0.4899900
611.2551, 0.5192870
611.7372, 0.2353520
612.2193, 0.3951420
612.7014, 1.239258
613.1835, 2.204468
613.6656, 3.314819
614.1478, 4.988892
614.6299, 7.320190
615.1120, 8.958862
615.5941, 8.376709
616.0762, 5.577148
616.5583, 3.404541
617.0405, 1.676392
617.5226, 0.8094480
618.0047, 1.438965
618.4868, 2.610718
618.9689, 3.620728
619.4510, 4.261597
619.9332, 4.409424
620.4153, 3.613159
620.8974, 2.091431
621.3795, 1.131226
621.8616, 0.8096920
622.3438, 0.8854980
622.8259, 2.029053
623.3080, 2.853149
623.7901, 1.151733
624.2722, 3.303589
624.7543, 7.060181
625.2365, 9.471680
625.7186, 10.45032
626.2007, 8.950928
626.6828, 5.932617
627.1649, 3.871460
627.6470, 3.790283
628.1292, 4.991821
628.6113, 6.328003
629.0934, 7.553711
629.5755, 9.932251
630.0576, 15.83936
630.5397, 20.28687
631.0219, 20.10535
631.5040, 18.21301
631.9861, 19.06104
632.4682, 24.02551
632.9503, 29.32727
633.4324, 30.87866
633.9146, 29.97632
634.3967, 31.02429
634.8788, 34.57861
635.3609, 38.02234
635.8430, 39.65234
636.3251, 40.21277
636.8073, 41.78064
637.2894, 44.46704
637.7715, 47.70264
638.2536, 51.13989
638.7357, 55.31763
639.2178, 61.44067
639.7000, 68.69324
640.1821, 74.69324
640.6642, 78.08398
641.1463, 80.26624
641.6284, 84.08191
642.1105, 89.69836
642.5927, 95.99609
643.0748, 103.3616
643.5569, 110.7506
644.0390, 117.2444
644.5211, 123.4377
645.0032, 130.6219
645.4854, 139.5096
645.9675, 148.4949
646.4496, 156.7070
646.9317, 164.2781
647.4138, 170.8177
647.8959, 176.4723
648.3781, 183.4734
648.8602, 193.6005
649.3423, 206.2832
649.8244, 218.4091
650.3065, 230.0416
650.7886, 241.0431
651.2708, 249.8405
651.7529, 259.4397
652.2350, 272.7148
652.7171, 288.5430
653.1992, 303.3600
653.6813, 315.1969
654.1635, 325.5118
654.6456, 336.4216
655.1277, 347.8716
655.6098, 359.1356
656.0919, 369.7623
656.5740, 380.9532
657.0562, 393.1565
657.5383, 406.7546
658.0204, 423.2107
658.5025, 440.9880
658.9846, 463.4686
659.4667, 493.0940
659.9489, 526.8271
660.4310, 560.7473
660.9131, 595.0323
661.3952, 632.9976
661.8773, 677.1941
662.3594, 727.7537
662.8416, 785.1083
663.3237, 848.9246
663.8058, 921.6174
664.2879, 1005.384
664.7700, 1097.412
665.2521, 1193.307
665.7343, 1294.895
666.2164, 1408.137
666.6985, 1535.173
667.1806, 1674.482
667.6627, 1826.368
668.1448, 1989.658
668.6270, 2163.060
669.1091, 2344.908
669.5912, 2535.220
670.0733, 2734.398
670.5554, 2939.982
671.0375, 3141.372
671.5197, 3351.402
672.0018, 3533.139
672.4839, 3697.072
672.9660, 3821.267
673.4481, 3896.521
673.9302, 3918.645
674.4124, 3879.266
674.8945, 3768.799
675.3766, 3602.770
675.8587, 3386.994
676.3408, 3129.426
676.8229, 2862.426
677.3051, 2589.141
677.7872, 2324.713
678.2693, 2080.068
678.7514, 1855.556
679.2335, 1656.462
679.7156, 1482.585
680.1978, 1329.883
680.6799, 1201.030
681.1620, 1089.696
681.6441, 993.0969
682.1262, 909.2008
682.6083, 837.5864
683.0905, 778.0321
683.5726, 728.9757
684.0547, 688.0510
684.5368, 655.3876
685.0189, 626.3368
685.5010, 599.7620
685.9832, 577.5999
686.4653, 563.1179
686.9474, 554.9766
687.4295, 545.9393
687.9116, 534.0059
688.3937, 523.6672
688.8759, 517.7004
689.3580, 512.9705
689.8401, 506.9506
690.3222, 499.0999
690.8043, 489.6880
691.2864, 479.0076
691.7686, 466.3385
692.2507, 449.5840
692.7328, 428.2927
693.2149, 405.6702
693.6970, 381.3455
694.1791, 357.0665
694.6613, 334.1866
695.1434, 312.2635
695.6255, 289.9745
696.1076, 266.6552
696.5897, 244.0786
697.0718, 222.3390
697.5540, 202.0603
698.0361, 184.2896
698.5182, 168.8999
699.0003, 154.8898
699.4824, 141.6699
699.9645, 129.3927
700.4467, 118.6554
700.9288, 109.7809
701.4109, 101.4384
701.8930, 93.76599
702.3751, 86.38831
702.8572, 78.97656
703.3394, 71.82544
703.8215, 65.26843
704.3036, 59.18237
704.7857, 54.65027
705.2678, 54.12781
705.7499, 54.59045
706.2321, 51.23267
706.7142, 44.48218
707.1963, 38.57703
707.6784, 35.74500
708.1605, 34.66223
708.6426, 32.70703
709.1248, 29.50586
709.6069, 26.79053
710.0890, 25.32532
710.5711, 23.41479
711.0532, 20.08008
711.5353, 16.16040
712.0175, 12.69141
712.4996, 9.854370
712.9817, 7.454102
713.4638, 4.892944
713.9459, 2.943604
714.4280, 3.022827
714.9102, 4.860474
715.3923, 7.291504
715.8744, 9.990356
716.3565, 11.64709
716.8386, 9.985718
717.3207, 4.055542
717.8029, 1.723389
718.2850, 6.583618
718.7671, 10.39832
719.2492, 10.92590
719.7313, 9.875732
720.2134, 8.761230
720.6956, 7.777344
721.1777, 6.692139
721.6598, 5.085205
722.1419, 3.697754
722.6240, 3.768921
723.1061, 4.891602
723.5883, 5.664063
724.0704, 5.682739
724.5525, 4.598511
725.0346, 1.578369
725.5167, 3.271484
725.9988, 4.745483
726.4810, 0.1311040
726.9631, 4.328613
727.4452, 7.252075
727.9273, 9.070313
728.4094, 9.200928
728.8915, 8.351929
729.3737, 8.600464
729.8558, 10.97302
730.3379, 14.25952
730.8200, 17.66235
731.3021, 21.03296
731.7842, 24.02734
732.2664, 26.59912
732.7485, 28.50537
733.2306, 29.44592
733.7127, 29.70215
734.1948, 30.33203
734.6769, 30.98816
735.1591, 32.69836
735.6412, 35.65771
736.1233, 39.42102
736.6054, 44.53394
737.0875, 50.09509
737.5696, 54.32825
738.0518, 56.47900
738.5339, 58.48108
739.0160, 62.30359
739.4981, 66.86938
739.9802, 70.49805
740.4623, 72.99097
740.9445, 73.96057
741.4266, 73.11023
741.9087, 71.07361
742.3908, 69.09802
742.8729, 67.57739
743.3550, 64.28186
743.8372, 55.46082
744.3193, 49.41992
744.8014, 50.02014
745.2835, 53.54797
745.7656, 56.09363
746.2477, 57.10315
746.7299, 58.06873
747.2120, 59.63818
747.6941, 61.74146
748.1762, 64.52161
748.6583, 67.77759
749.1404, 71.13013
749.6226, 74.45044
750.1047, 76.93042
750.5868, 77.84705
751.0689, 77.15466
751.5510, 74.10986
752.0331, 67.29529
752.5153, 60.87109
752.9974, 55.27087
753.4795, 50.41504
753.9616, 46.83813
754.4437, 43.99487
754.9258, 40.20703
755.4080, 34.39612
755.8901, 28.55310
756.3722, 23.89380
756.8543, 20.12122
757.3364, 17.05310
757.8185, 14.52551
758.3007, 11.82349
758.7828, 8.473999
759.2649, 5.052002
759.7470, 2.648682
760.2291, 1.121948
760.7112, 1.375610
761.1934, 4.635864
761.6755, 7.818970
762.1576, 10.28381
762.6397, 11.48022
763.1218, 10.07458
763.6039, 5.605835
764.0861, 1.886719
764.5682, 0.1923830
765.0503, 0.2233890
765.5324, 0.6572270
766.0145, 2.242554
766.4966, 3.307007
766.9788, 3.589111
767.4609, 4.247437
767.9430, 6.866089
768.4251, 10.69214
768.9072, 11.60327
769.3893, 9.020630
769.8715, 6.479248
770.3536, 4.746094
770.8357, 3.432129
771.3178, 2.032104
771.7999, 0.7022710
772.2820, 0.2784420
772.7642, 2.389404
773.2463, 3.263306
773.7284, 0.8596190
774.2105, 2.410034
774.6926, 4.865845
775.1747, 6.213745
775.6569, 6.242920
776.1390, 4.752563
776.6211, 2.865723
777.1032, 2.294678
777.5853, 2.748657
778.0674, 2.392944
778.5496, 0.9439700
779.0317, 9.7778000E-02
779.5138, 0.8671880
779.9959, 2.434448
780.4780, 3.438721
780.9601, 3.840576
781.4423, 3.753174
781.9244, 2.992432
782.4065, 1.993652
782.8886, 0.4477540
783.3707, 0.9312740
783.8528, 1.384644
784.3350, 1.029907
784.8171, 0.4415280
785.2992, 0.1142580
785.7813, 0.3468020
786.2634, 2.046021
786.7455, 4.337524
787.2277, 4.893188
787.7098, 3.273926
788.1919, 0.9846190
788.6740, 0.8930660
789.1561, 2.356934
789.6382, 3.269165
790.1204, 2.974854
790.6025, 3.710083
791.0846, 6.266724
791.5667, 9.156860
792.0488, 12.39990
792.5309, 15.33020
793.0131, 16.59021
793.4952, 15.67590
793.9773, 15.27905
794.4594, 17.78943
794.9415, 20.43701
795.4236, 20.25708
795.9058, 18.16357
796.3879, 16.70020
796.8700, 16.57996
797.3521, 16.22913
797.8342, 13.61279
798.3163, 9.506226
798.7985, 8.294189
799.2806, 10.53247
799.7627, 12.26758
800.2448, 12.14905
800.7269, 12.06567
801.2090, 13.98950
801.6912, 17.41614
802.1733, 19.56641
802.6554, 18.67090
803.1375, 19.33142
803.6196, 23.35864
804.1017, 28.37634
804.5839, 32.73682
805.0660, 36.67029
805.5481, 41.21228
806.0302, 46.80042
806.5123, 51.99976
806.9944, 55.06226
807.4766, 56.77014
807.9587, 58.82190
808.4408, 61.30249
808.9229, 64.60535
809.4050, 69.06042
809.8871, 73.21204
810.3693, 75.49963
810.8514, 75.93274
811.3335, 74.23181
811.8156, 69.27393
812.2977, 64.06262
812.7798, 58.84167
813.2620, 53.68030
813.7441, 48.44495
814.2262, 43.29883
814.7083, 38.58569
815.1904, 34.17847
815.6725, 30.79211
816.1547, 29.02441
816.6368, 28.30603
817.1189, 28.35046
817.6010, 28.83496
818.0831, 29.15637
818.5652, 29.05298
819.0474, 28.48743
819.5295, 27.13159
820.0116, 24.96814
820.4937, 23.57605
820.9758, 23.13733
821.4579, 22.51965
821.9401, 21.07727
822.4222, 19.87097
822.9043, 20.47839
823.3864, 22.76208
823.8685, 22.99316
824.3506, 19.63013
824.8328, 16.51611
825.3149, 13.88403
825.7970, 12.01343
826.2791, 11.16724
826.7612, 11.23022
827.2433, 12.12683
827.7255, 13.94958
828.2076, 15.43774
828.6897, 15.04663
829.1718, 13.87415
829.6539, 13.87219
830.1360, 14.86682
830.6182, 15.48792
831.1003, 15.20483
831.5824, 15.01843
832.0645, 16.25427
832.5466, 18.61438
833.0287, 18.50037
833.5109, 15.16064
833.9930, 12.30469
834.4751, 9.959106
834.9572, 8.474731
835.4393, 9.031738
835.9214, 11.05066
836.4036, 12.32312
836.8857, 11.95422
837.3678, 11.98486
837.8499, 13.17627
838.3320, 14.81628
838.8141, 17.13843
839.2963, 19.11133
839.7784, 18.84900
840.2605, 16.03125
840.7426, 13.18665
841.2247, 12.59546
841.7068, 13.38684
842.1890, 14.21130
842.6711, 14.97607
843.1532, 15.07910
843.6353, 14.33203
844.1174, 13.46021
844.5995, 13.14612
845.0817, 13.23254
845.5638, 13.07739
846.0459, 12.81580
846.5280, 11.93726
847.0101, 9.004883
847.4922, 7.041748
847.9744, 9.211182
848.4565, 12.64819
848.9386, 12.36987
849.4207, 7.254150
849.9028, 3.921021
850.3849, 4.999390
850.8671, 7.461060
851.3492, 10.52954
851.8313, 13.36328
852.3134, 14.99487
852.7955, 15.30115
853.2776, 14.73096
853.7598, 13.36243
854.2419, 11.76440
854.7240, 10.44910
855.2061, 9.607300
855.6882, 10.71130
856.1703, 13.85376
856.6525, 15.43787
857.1346, 13.21655
857.6167, 9.069824
858.0988, 6.426758
858.5809, 5.288086
859.0630, 5.830933
859.5452, 10.02039
860.0273, 12.37915
860.5094, 9.603760
860.9915, 5.621460
861.4736, 3.535156
861.9557, 3.307129
862.4379, 4.270630
862.9200, 7.775391
863.4021, 10.43469
863.8842, 10.88025
864.3663, 10.17432
864.8484, 8.877319
865.3306, 7.276245
865.8127, 5.467163
866.2948, 3.503662
866.7769, 2.325562
867.2590, 3.457275
867.7411, 5.798462
868.2233, 7.365967
868.7054, 8.046143
869.1875, 7.152100
869.6696, 4.455933
870.1517, 1.884033
870.6339, 1.247192
871.1160, 2.257202
871.5981, 3.876465
872.0802, 6.687134
872.5623, 7.908203
873.0444, 6.409790
873.5266, 4.739990
874.0087, 4.431519
874.4908, 4.812256
874.9729, 4.777588
875.4550, 4.392334
875.9371, 3.205200
876.4193, 0.2948000
876.9014, 2.878052
877.3835, 2.577393
877.8656, 1.074463
878.3477, 7.0799999E-03
878.8298, 0.4206540
879.3120, 0.6074220
879.7941, 0.6290280
880.2762, 0.7773440
880.7583, 1.461792
881.2404, 2.403076
881.7225, 3.142700
882.2047, 3.650513
882.6868, 4.001709
883.1689, 4.229248
883.6510, 4.374268
884.1331, 4.036743
884.6152, 3.639038
885.0974, 7.552856
885.5795, 16.91150
886.0616, 22.02087
886.5437, 19.77368
887.0258, 14.77344
887.5079, 9.941650
887.9901, 5.587769
888.4722, 2.918213
888.9543, 2.585083
889.4364, 2.746216
889.9185, 5.132324
890.4006, 6.019287
890.8828, 2.008667
891.3649, 3.181152
891.8470, 4.665405
892.3291, 2.123047
892.8112, 0.2374270
893.2933, 0.3612060
893.7755, 0.2492680
894.2576, 1.854858
894.7397, 3.490723
895.2218, 2.271484
895.7039, 1.064453
896.1860, 3.107056
896.6682, 2.216064
897.1503, 8.6669996E-03
897.6324, 1.931519
898.1145, 3.558350
898.5966, 4.573120
899.0787, 5.126709
899.5609, 7.521729
900.0430, 12.71863
900.5251, 16.09436
901.0072, 12.40442
901.4893, 3.889648
901.9714, 2.261230
902.4536, 10.43677
902.9357, 14.51672
903.4178, 10.92969
903.8999, 7.387207
904.3820, 7.819580
904.8641, 10.86084
905.3463, 14.48096
905.8284, 18.82666
906.3105, 22.60535
906.7926, 26.08362
907.2747, 28.53711
907.7568, 29.93567
908.2390, 30.11389
908.7211, 28.07056
909.2032, 24.70593
909.6853, 22.56433
910.1674, 22.75220
910.6495, 23.47632
911.1317, 22.73303
911.6138, 22.52063
912.0959, 26.33936
912.5780, 32.32458
913.0601, 35.56494
913.5422, 34.99597
914.0244, 34.01990
914.5065, 35.47791
914.9886, 38.57458
915.4707, 41.59766
915.9528, 44.67529
916.4349, 48.88489
916.9171, 54.35474
917.3992, 60.60620
917.8813, 67.51196
918.3634, 74.53198
918.8455, 80.09521
919.3276, 83.62756
919.8098, 91.37292
920.2919, 105.7156
920.7740, 118.9353
921.2561, 129.2061
921.7382, 138.1503
922.2203, 144.9016
922.7025, 150.9073
923.1846, 162.8328
923.6667, 184.3599
924.1488, 204.3766
924.6309, 219.4700
925.1130, 235.6196
925.5952, 256.7594
926.0773, 279.8268
926.5594, 300.8997
927.0415, 319.5941
927.5236, 338.7173
928.0057, 361.0352
928.4879, 381.9185
928.9700, 399.0583
929.4521, 412.6300
929.9342, 423.1233
930.4163, 430.2538
930.8984, 433.7062
931.3806, 433.2903
931.8627, 428.3926
932.3448, 418.7789
932.8269, 404.0492
933.3090, 381.8333
933.7911, 353.4954
934.2733, 324.6244
934.7554, 296.3755
935.2375, 268.7987
935.7196, 241.6737
936.2017, 216.4036
936.6838, 197.3640
937.1660, 184.8402
937.6481, 171.3114
938.1302, 155.9796
938.6123, 143.1091
939.0944, 134.1293
939.5765, 128.0834
940.0587, 124.2773
940.5408, 122.5385
941.0229, 121.8815
941.5050, 122.9495
941.9871, 124.2557
942.4692, 125.6873
942.9514, 126.9585
943.4335, 127.9634
943.9156, 128.9054
944.3977, 129.6606
944.8798, 130.2512
945.3619, 132.0360
945.8441, 136.7903
946.3262, 140.7606
946.8083, 143.6332
947.2904, 144.3422
947.7725, 141.5308
948.2546, 135.9607
948.7368, 129.3649
949.2189, 122.0461
949.7010, 113.7190
950.1831, 103.3663
950.6652, 92.89197
951.1473, 84.05591
951.6295, 76.35315
952.1116, 68.75500
952.5937, 61.26746
953.0758, 55.06531
953.5579, 50.78931
954.0400, 47.22986
954.5222, 42.40723
955.0043, 37.34888
955.4864, 35.58569
955.9685, 36.57861
956.4506, 35.31580
956.9327, 30.30725
957.4149, 24.99487
957.8970, 22.42310
958.3791, 21.78479
958.8612, 20.51208
959.3433, 18.46802
959.8254, 17.33289
960.3076, 17.37488
960.7897, 17.97119
961.2718, 19.13318
961.7539, 20.19019
962.2360, 20.27087
962.7181, 19.41467
963.2003, 18.55591
963.6824, 18.45276
964.1645, 16.70410
964.6466, 10.77734
965.1287, 6.052979
965.6108, 6.251465
966.0930, 9.048706
966.5751, 11.41748
967.0572, 13.37280
967.5393, 13.97607
968.0214, 12.01978
968.5035, 10.16638
968.9857, 9.548462
969.4678, 8.914185
969.9499, 6.814697
970.4320, 4.029907
970.9141, 2.343872
971.3962, 2.218506
971.8784, 2.810913
972.3605, 4.723022
972.8426, 6.164795
973.3247, 5.470459
973.8068, 3.843872
974.2889, 3.036011
974.7711, 2.898193
975.2532, 1.643066
975.7353, 1.835205
976.2174, 4.608032
976.6995, 3.085083
977.1816, 9.2896000E-02
977.6638, 1.818237
978.1459, 1.949829
978.6280, 0.3377690
979.1101, 4.577271
979.5922, 7.136597
980.0743, 5.266357
980.5565, 1.263062
981.0386, 1.578857
981.5207, 3.374023
982.0028, 4.552124
982.4849, 5.087524
982.9670, 4.165894
983.4492, 1.499512
983.9313, 0.8060300
984.4134, 0.6618650
984.8955, 1.208008
985.3776, 2.742065
985.8597, 3.959595
986.3419, 3.685547
986.8240, 1.466797
987.3061, 0.1292720
987.7882, 1.116577
988.2703, 2.779663
988.7524, 3.100952
989.2346, 2.225586
989.7167, 1.648560
990.1988, 1.196289
990.6809, 1.755493
991.1630, 4.545410
991.6451, 6.124756
992.1273, 3.765869
992.6094, 0.1181640
993.0915, 0.8491210
993.5736, 0.9866940
994.0557, 3.132080
994.5378, 7.255249
995.0200, 9.181763
995.5021, 6.794800
995.9842, 3.953369
996.4663, 2.721680
996.9484, 2.384155
997.4305, 1.813110
997.9127, 0.9415280
998.3948, 0.4163820
998.8769, 3.836548
999.3590, 5.703247
999.8411, 4.185181
1000.323, 1.380615
1000.805, 2.014526
1001.287, 5.144775
1001.770, 6.381592
1002.252, 5.288330
1002.734, 4.033447
1003.216, 2.734009
1003.698, 2.452026
1004.180, 5.102295
1004.662, 8.152222
1005.144, 7.643555
1005.627, 5.182495
1006.109, 6.218872
1006.591, 12.80969
1007.073, 19.46216
1007.555, 21.73877
1008.037, 22.89575
1008.519, 26.37048
1009.001, 30.69604
1009.483, 32.97253
1009.966, 33.53442
1010.448, 35.09705
1010.930, 38.94629
1011.412, 43.51660
1011.894, 46.61182
1012.376, 49.81433
1012.858, 56.29089
1013.340, 64.81897
1013.823, 71.82971
1014.305, 77.14209
1014.787, 83.68616
1015.269, 93.11365
1015.751, 104.2627
1016.233, 115.7733
1016.715, 127.6444
1017.197, 140.2913
1017.679, 153.3267
1018.162, 165.3597
1018.644, 176.0282
1019.126, 185.2334
1019.608, 192.7482
1020.090, 199.6304
1020.572, 207.8795
1021.054, 215.9230
1021.536, 224.0723
1022.018, 233.3582
1022.501, 241.8165
1022.983, 251.5236
1023.465, 262.0190
1023.947, 272.7574
1024.429, 284.9025
1024.911, 301.8772
1025.393, 323.8694
1025.875, 342.7194
1026.358, 358.0780
1026.840, 373.6915
1027.322, 391.2135
1027.804, 406.3282
1028.286, 416.1527
1028.768, 420.4052
1029.250, 417.8820
1029.732, 407.9514
1030.214, 396.7850
1030.697, 385.6232
1031.179, 368.7321
1031.661, 343.8456
1032.143, 314.0983
1032.625, 280.2773
1033.107, 244.5487
1033.589, 212.8196
1034.071, 184.7283
1034.553, 162.6536
1035.036, 147.8357
1035.518, 136.3328
1036.000, 128.8719
1036.482, 121.7748
1036.964, 111.7998
1037.446, 99.95654
1037.928, 89.20325
1038.410, 79.17041
1038.893, 71.95654
1039.375, 68.77637
1039.857, 66.21460
1040.339, 63.73914
1040.821, 61.35571
1041.303, 58.34009
1041.785, 55.50317
1042.267, 55.46387
1042.750, 58.92297
1043.232, 62.78284
1043.714, 68.74072
1044.196, 72.77283
1044.678, 71.20068
1045.160, 69.90491
1045.642, 73.07983
1046.124, 79.84277
1046.606, 88.05078
1047.089, 97.66040
1047.571, 108.4985
1048.053, 120.4757
1048.535, 133.4460
1049.017, 148.3486
1049.499, 163.4108
1049.981, 175.6382
1050.463, 187.4840
1050.945, 204.4470
1051.428, 227.7310
1051.910, 253.1609
1052.392, 279.0900
1052.874, 308.1190
1053.356, 340.5465
1053.838, 377.0588
1054.320, 419.9584
1054.802, 466.5551
1055.285, 511.3568
1055.767, 553.3262
1056.249, 598.7422
1056.731, 651.7123
1057.213, 704.1162
1057.695, 756.8969
1058.177, 804.5237
1058.659, 845.9596
1059.141, 877.8031
1059.624, 894.8544
1060.106, 896.1516
1060.588, 885.8212
1061.070, 865.4479
1061.552, 833.2550
1062.034, 785.5171
1062.516, 728.6917
1062.998, 663.3042
1063.480, 594.6780
1063.963, 529.0332
1064.445, 467.9927
1064.927, 415.2020
1065.409, 373.9429
1065.891, 338.5458
1066.373, 307.1510
1066.855, 280.5504
1067.337, 260.6472
1067.820, 245.3291
1068.302, 232.0503
1068.784, 220.1068
1069.266, 207.9965
1069.748, 194.8225
1070.230, 182.0928
1070.712, 171.3923
1071.194, 160.3842
1071.677, 146.4910
1072.159, 131.5173
1072.641, 118.0327
1073.123, 106.2174
1073.605, 95.09656
1074.087, 84.17188
1074.569, 74.24353
1075.051, 65.66150
1075.533, 58.23157
1076.016, 52.20911
1076.498, 46.99084
1076.980, 42.24988
1077.462, 37.60730
1077.944, 31.85205
1078.426, 23.83203
1078.908, 17.36230
1079.390, 14.88391
1079.873, 13.75586
1080.355, 12.17810
1080.837, 11.06580
1081.319, 11.83154
1081.801, 14.12268
1082.283, 17.01501
1082.765, 20.74878
1083.247, 21.70703
1083.729, 15.76733
1084.212, 9.550049
1084.694, 6.826172
1085.176, 5.803589
1085.658, 4.120239
1086.140, 2.547363
1086.622, 3.807617
1087.104, 8.676514
1087.586, 12.99353
1088.068, 15.31592
1088.551, 16.27271
1089.033, 14.50073
1089.515, 13.02600
1089.997, 15.47864
1090.479, 19.83264
1090.961, 21.75110
1091.443, 20.59436
1091.925, 19.94238
1092.408, 22.31982
1092.890, 23.84070
1093.372, 23.47803
1093.854, 21.18372
1094.336, 15.39392
1094.818, 8.478882
1095.300, 3.622192
1095.782, 1.154419
1096.265, 0.1816410
1096.747, 0.3702390
1097.229, 0.2269290
1097.711, 0.5937500
1098.193, 0.9775390
1098.675, 0.3820800
1099.157, 2.083618
1099.639, 2.364258
1100.121, 1.414795
1100.604, 0.7315670
1101.086, 0.8225100
1101.568, 0.6033940
1102.050, 0.4567870
1102.532, 1.554321
1103.014, 3.064209
1103.496, 3.824463
1103.978, 2.023682
1104.460, 1.228149
1104.943, 3.014282
1105.425, 2.770752
1105.907, 2.034058
1106.389, 1.690186
1106.871, 5.8104999E-02
1107.353, 4.391602
1107.835, 9.244385
1108.317, 13.61951
1108.800, 16.91626
1109.282, 17.88428
1109.764, 16.35754
1110.246, 15.00867
1110.728, 14.71326
1111.210, 13.67590
1111.692, 12.52209
1112.174, 9.586670
1112.656, 1.162476
1113.139, 7.584595
1113.621, 9.658203
1114.103, 5.621582
1114.585, 2.444336
1115.067, 0.4777830
1115.549, 1.159790
1116.031, 2.441162
1116.513, 3.413452
1116.995, 3.797852
1117.478, 4.202637
1117.960, 5.491699
1118.442, 7.142944
1118.924, 7.354370
1119.406, 5.464111
1119.888, 4.824219
1120.370, 6.234497
1120.852, 7.195923
1121.335, 6.891479
1121.817, 6.523193
1122.299, 6.763062
1122.781, 7.541016
1123.263, 8.734253
1123.745, 10.33972
1124.227, 12.66260
1124.709, 16.43188
1125.192, 18.06360
1125.674, 16.34521
1126.156, 14.69922
1126.638, 14.54456
1127.120, 15.55481
1127.602, 17.45947
1128.084, 20.11133
1128.566, 23.11755
1129.048, 26.74072
1129.531, 27.96338
1130.013, 26.24451
1130.495, 25.26965
1130.977, 26.23792
1131.459, 28.00122
1131.941, 29.65857
1132.423, 31.38501
1132.905, 33.49170
1133.387, 35.99780
1133.870, 39.44629
1134.352, 43.77686
1134.834, 46.52161
1135.316, 47.23645
1135.798, 48.63879
1136.280, 52.22131
1136.762, 56.89917
1137.244, 61.50378
1137.727, 65.91663
1138.209, 69.63037
1138.691, 72.82300
1139.173, 76.51367
1139.655, 80.56335
1140.137, 83.11292
1140.619, 83.72144
1141.101, 85.50867
1141.583, 91.61279
1142.066, 98.33179
1142.548, 99.31836
1143.030, 97.09998
1143.512, 96.38721
1143.994, 97.06738
1144.476, 98.03003
1144.958, 99.11926
1145.440, 100.9771
1145.922, 103.9857
1146.405, 107.0768
1146.887, 110.4635
1147.369, 112.2568
1147.851, 109.5957
1148.333, 104.3672
1148.815, 98.10803
1149.297, 92.17249
1149.779, 89.29028
1150.262, 89.97974
1150.744, 90.79749
1151.226, 89.53955
1151.708, 88.30225
1152.190, 88.14929
1152.672, 88.88159
1153.154, 91.90503
1153.636, 94.75293
1154.119, 93.36340
1154.601, 88.25269
1155.083, 83.81543
1155.565, 81.34619
1156.047, 79.22705
1156.529, 76.80408
1157.011, 74.69128
1157.493, 73.69641
1157.975, 72.78430
1158.458, 70.70569
1158.940, 68.10815
1159.422, 66.86340
1159.904, 67.36304
1160.386, 65.86560
1160.868, 58.93750
1161.350, 54.85205
1161.832, 56.24500
1162.314, 58.32812
1162.797, 60.85864
1163.279, 61.82703
1163.761, 58.05481
1164.243, 50.97534
1164.725, 46.14685
1165.207, 43.60449
1165.689, 42.94336
1166.171, 45.42041
1166.654, 45.81091
1167.136, 42.12659
1167.618, 38.46594
1168.100, 37.53699
1168.582, 38.26599
1169.064, 39.13782
1169.546, 39.87500
1170.028, 38.85156
1170.510, 36.04382
1170.993, 33.25464
1171.475, 30.98450
1171.957, 30.83813
1172.439, 33.39697
1172.921, 35.69238
1173.403, 34.76184
1173.885, 32.38879
1174.367, 32.19690
1174.849, 33.24146
1175.332, 32.50098
1175.814, 30.81995
1176.296, 31.56799
1176.778, 34.88000
1177.260, 37.95947
1177.742, 39.42432
1178.224, 39.71387
1178.706, 38.40442
1179.189, 37.21997
1179.671, 38.82312
1180.153, 41.68567
1180.635, 44.61255
1181.117, 46.52502
1181.599, 45.18652
1182.081, 40.66553
1182.563, 35.63757
1183.046, 30.71362
1183.528, 26.83167
1184.010, 25.16272
1184.492, 24.33606
1184.974, 23.62817
1185.456, 23.14160
1185.938, 23.42908
1186.420, 23.95715
1186.902, 23.39868
1187.385, 21.43811
1187.867, 19.09937
1188.349, 14.11243
1188.831, 12.52820
1189.313, 18.13794
1189.795, 24.21521
1190.277, 28.62805
1190.759, 30.98914
1191.241, 29.97583
1191.724, 26.61438
1192.206, 25.38342
1192.688, 27.31628
1193.170, 26.96643
1193.652, 22.94714
1194.134, 20.73950
1194.616, 22.02283
1195.098, 23.36694
1195.581, 22.72034
1196.063, 23.85657
1196.545, 22.16357
1197.027, 23.87866
1197.509, 23.80286
1197.991, 22.17188
1198.473, 23.44983
1198.955, 27.48877
1199.438, 28.27405
1199.920, 24.34302
1200.402, 19.24854
1200.884, 15.22058
1201.366, 12.70605
1201.848, 13.56750
1202.330, 15.49829
1202.812, 13.41113
1203.294, 9.330200
1203.776, 6.908203
1204.259, 6.553223
1204.741, 8.755737
1205.223, 13.02100
1205.705, 15.09229
1206.187, 11.69092
1206.669, 7.747314
1207.151, 6.440674
1207.633, 6.202026
1208.116, 5.951904
1208.598, 5.976685
1209.080, 7.120483
1209.562, 8.790649
1210.044, 9.323242
1210.526, 8.345703
1211.008, 7.398438
1211.490, 6.775635
1211.973, 6.165649
1212.455, 5.466675
1212.937, 4.770264
1213.419, 3.707397
1213.901, 3.057251
1214.383, 3.683472
1214.865, 5.306396
1215.347, 7.236694
1215.829, 9.839111
1216.312, 9.892822
1216.794, 6.624146
1217.276, 5.112183
1217.758, 6.662598
1218.240, 6.970581
1218.722, 3.545166
1219.204, 0.5220950
1219.686, 3.121460
1220.168, 0.2977290
1220.651, 1.001709
1221.133, 0.5286870
1221.615, 3.755615
1222.097, 3.668579
1222.579, 2.524780
1223.061, 0.8868410
1223.543, 1.492065
1224.025, 4.715820
1224.508, 7.447144
1224.990, 8.946777
1225.472, 8.824097
1225.954, 4.645508
1226.436, 0.3613280
1226.918, 1.948853
1227.400, 5.970459
1227.882, 5.823120
1228.365, 1.637695
1228.847, 0.9746090
1229.329, 0.2901610
1229.811, 1.2210000E-03
1230.293, 1.595581
1230.775, 3.098999
1231.257, 4.738525
1231.739, 5.114990
1232.221, 2.243408
1232.703, 1.623657
1233.186, 3.695923
1233.668, 4.155396
1234.150, 4.027710
1234.632, 2.843506
1235.114, 3.171387
1235.596, 5.552979
1236.078, 6.888916
1236.560, 6.368530
1237.043, 5.417969
1237.525, 4.841187
1238.007, 4.348022
1238.489, 3.593384
1238.971, 2.567993
1239.453, 0.6577150
1239.935, 1.446777
1240.417, 0.9705810
1240.900, 1.536865
1241.382, 4.048462
1241.864, 5.842407
1242.346, 5.895874
1242.828, 3.649048
1243.310, 1.333008
1243.792, 0.1308590
1244.274, 0.2789310
1244.756, 2.768311
1245.239, 5.907349
1245.721, 9.134521
1246.203, 11.24854
1246.685, 9.855225
1247.167, 5.625854
1247.649, 2.782593
1248.131, 2.124634
1248.613, 2.556885
1249.095, 5.825195
1249.578, 7.215088
1250.060, 4.193848
1250.542, 1.960571
1251.024, 3.564453
1251.506, 6.516235
1251.988, 7.960693
1252.470, 8.181763
1252.952, 7.982910
1253.435, 7.192993
1253.917, 6.797485
1254.399, 6.950439
1254.881, 7.564453
1255.363, 8.151123
1255.845, 8.916626
1256.327, 9.890259
1256.809, 10.67859
1257.292, 10.22363
1257.774, 9.241943
1258.256, 9.755493
1258.738, 10.56250
1259.220, 12.52429
1259.702, 16.19958
1260.184, 19.63611
1260.666, 22.18018
1261.148, 22.86658
1261.630, 21.20984
1262.113, 20.10315
1262.595, 21.73938
1263.077, 21.66309
1263.559, 18.56519
1264.041, 16.08630
1264.523, 15.48633
1265.005, 14.54199
1265.487, 11.97021
1265.970, 11.98743
1266.452, 11.69666
1266.934, 10.69495
1267.416, 10.86267
1267.898, 10.02783
1268.380, 9.217773
1268.862, 9.259644
1269.344, 8.627197
1269.827, 6.573486
1270.309, 4.044678
1270.791, 1.600708
1271.273, 8.8013001E-02
1271.755, 0.2674560
1272.237, 1.864746
1272.719, 4.162720
1273.201, 6.222412
1273.683, 6.499878
1274.166, 5.280273
1274.648, 2.933105
1275.130, 9.8266996E-02
1275.612, 1.219482
1276.094, 0.1326900
1276.576, 2.009766
1277.058, 6.274902
1277.540, 9.380127
1278.022, 9.213623
1278.505, 8.292114
1278.987, 8.133789
1279.469, 8.382080
1279.951, 8.007813
1280.433, 7.252808
1280.915, 6.816772
1281.397, 7.652100
1281.879, 8.604370
1282.362, 9.747681
1282.844, 9.654785
1283.326, 8.054199
1283.808, 6.808472
1284.290, 6.547241
1284.772, 6.089478
1285.254, 3.891968
1285.736, 0.0000000E+00
##END=



