##NAMES=Trilithionite
##RRUFFID=R040101
##IDEAL CHEMISTRY=KLi_1.5_Al_1.5_(Si_3_Al)O_10_F_2_
##LOCALITY=Zambezi Region, Mozambique
##OWNER=RRUFF
##SOURCE=University of Arizona Mineral Museum
##DESCRIPTION=Aggregate of purple hexagonal plates, polytype is 2M1
##STATUS=The identification of this mineral has been confirmed by X-ray diffraction and chemical analysis
##URL=rruff.info/R040101
##MEASURED CHEMISTRY=(K_0.84_Li_0.13_Na_0.02_)(Li_0.54_Al_0.44_Mn_0.02_)_3_(Si_0.82_Al_0.18_)_4_O_10_F_2.00_
152.0027, 0.0000000E+00
152.4848, 11.56567
152.9669, 26.52563
153.4491, 30.85938
153.9312, 21.05200
154.4133, 25.62622
154.8954, 42.02637
155.3775, 46.81348
155.8596, 41.13940
156.3418, 22.15796
156.8239, 0.4221190
157.3060, 4.621582
157.7881, 9.648438
158.2702, 26.25928
158.7523, 20.99219
159.2345, 9.877441
159.7166, 4.956543
160.1987, 2.271973
160.6808, 3.421387
161.1629, 16.68604
161.6451, 38.58057
162.1272, 48.24487
162.6093, 36.39551
163.0914, 17.73315
163.5735, 3.777344
164.0556, 5.290039
164.5378, 8.154053
165.0199, 0.7673340
165.5020, 20.05029
165.9841, 30.73071
166.4662, 22.23535
166.9483, 11.12012
167.4305, 9.319336
167.9126, 17.36133
168.3947, 30.38574
168.8768, 44.88721
169.3589, 60.84546
169.8410, 79.78711
170.3232, 107.4321
170.8053, 133.5073
171.2874, 149.7607
171.7695, 155.7461
172.2516, 160.5977
172.7337, 172.3157
173.2159, 191.1011
173.6980, 209.9475
174.1801, 224.7854
174.6622, 241.3311
175.1443, 264.6250
175.6264, 294.8022
176.1085, 325.2881
176.5907, 349.7231
177.0728, 367.8604
177.5549, 383.0396
178.0370, 396.1245
178.5191, 405.6133
179.0012, 408.4841
179.4834, 404.9380
179.9655, 401.0854
180.4476, 404.0959
180.9297, 415.2451
181.4118, 424.5935
181.8939, 431.2739
182.3761, 435.1975
182.8582, 437.5873
183.3403, 438.0796
183.8224, 432.8596
184.3045, 413.1776
184.7866, 374.8821
185.2688, 349.7565
185.7509, 356.3021
186.2330, 366.9397
186.7151, 368.9763
187.1972, 360.8508
187.6793, 348.8818
188.1615, 335.2537
188.6436, 317.0863
189.1257, 311.0291
189.6078, 325.3109
190.0899, 351.2830
190.5720, 383.3159
191.0542, 419.8840
191.5363, 463.3805
192.0184, 511.0540
192.5005, 559.2062
192.9826, 606.2317
193.4647, 657.9636
193.9469, 711.3225
194.4290, 765.1853
194.9111, 815.9817
195.3932, 860.1384
195.8753, 892.4531
196.3574, 912.2253
196.8396, 925.3604
197.3217, 927.7202
197.8038, 927.5200
198.2859, 929.0221
198.7680, 931.7427
199.2501, 931.6008
199.7323, 924.6040
200.2144, 910.2955
200.6965, 892.1521
201.1786, 866.6289
201.6607, 839.6733
202.1428, 811.4060
202.6250, 783.0931
203.1071, 757.9143
203.5892, 739.1577
204.0713, 727.2653
204.5534, 716.5149
205.0355, 708.4969
205.5177, 700.1936
205.9998, 685.6027
206.4819, 668.4038
206.9640, 659.7123
207.4461, 670.9138
207.9282, 702.5498
208.4104, 733.4823
208.8925, 761.0977
209.3746, 790.6033
209.8567, 832.0190
210.3388, 876.8318
210.8209, 916.6350
211.3030, 944.5011
211.7852, 960.7368
212.2673, 974.4978
212.7494, 986.5951
213.2315, 995.0184
213.7136, 1000.347
214.1957, 1001.578
214.6779, 997.4285
215.1600, 989.3945
215.6421, 976.6138
216.1242, 944.8677
216.6063, 881.6282
217.0884, 814.1499
217.5706, 749.0728
218.0527, 686.6890
218.5348, 627.3442
219.0169, 571.7388
219.4990, 519.2080
219.9811, 466.3167
220.4633, 410.6345
220.9454, 358.3435
221.4275, 312.0205
221.9096, 269.4264
222.3917, 226.9105
222.8738, 181.4489
223.3560, 137.2260
223.8381, 108.4749
224.3202, 103.5475
224.8023, 98.49695
225.2844, 86.85999
225.7665, 70.92078
226.2487, 52.33252
226.7308, 30.82922
227.2129, 9.260864
227.6950, 5.942017
228.1771, 13.04309
228.6592, 17.87646
229.1414, 20.22534
229.6235, 22.28931
230.1056, 27.23779
230.5877, 36.86487
231.0698, 45.85889
231.5519, 45.30261
232.0341, 32.74609
232.5162, 19.78870
232.9983, 6.799438
233.4804, 3.788086
233.9625, 9.498413
234.4446, 9.586792
234.9268, 6.890869
235.4089, 2.114868
235.8910, 6.028076
236.3731, 5.348511
236.8552, 14.10620
237.3373, 38.94946
237.8195, 60.61365
238.3016, 77.97729
238.7837, 93.37036
239.2658, 106.9900
239.7479, 118.9664
240.2300, 135.7489
240.7122, 160.6177
241.1943, 188.8583
241.6764, 218.8075
242.1585, 250.0061
242.6406, 277.2614
243.1227, 291.4495
243.6049, 296.3606
244.0870, 314.8679
244.5691, 356.0234
245.0512, 402.5533
245.5333, 437.1592
246.0154, 463.2810
246.4975, 497.8184
246.9797, 551.8359
247.4618, 620.6827
247.9439, 692.0421
248.4260, 764.3252
248.9081, 841.1858
249.3902, 924.3093
249.8724, 1013.413
250.3545, 1109.525
250.8366, 1209.849
251.3187, 1318.327
251.8008, 1439.105
252.2829, 1571.333
252.7651, 1719.147
253.2472, 1888.736
253.7293, 2076.457
254.2114, 2276.512
254.6935, 2488.817
255.1756, 2712.395
255.6578, 2945.692
256.1399, 3188.655
256.6220, 3440.404
257.1041, 3704.285
257.5862, 3975.197
258.0684, 4244.628
258.5505, 4519.055
259.0326, 4782.750
259.5147, 5032.402
259.9968, 5265.278
260.4789, 5462.070
260.9611, 5613.782
261.4432, 5726.139
261.9253, 5821.947
262.4074, 5918.447
262.8895, 5967.849
263.3716, 5952.116
263.8537, 5875.944
264.3358, 5743.230
264.8180, 5550.765
265.3001, 5316.190
265.7822, 5063.207
266.2643, 4784.624
266.7464, 4511.078
267.2285, 4247.676
267.7107, 3992.375
268.1928, 3741.792
268.6749, 3495.570
269.1570, 3256.623
269.6391, 3030.286
270.1212, 2818.505
270.6034, 2614.770
271.0855, 2414.688
271.5676, 2224.434
272.0497, 2048.904
272.5318, 1888.533
273.0139, 1747.186
273.4961, 1628.882
273.9782, 1535.804
274.4603, 1440.343
274.9424, 1333.692
275.4245, 1234.462
275.9066, 1151.373
276.3888, 1082.420
276.8709, 1022.665
277.3530, 969.8759
277.8351, 923.5803
278.3172, 877.9031
278.7993, 831.3639
279.2815, 785.4573
279.7636, 738.0264
280.2457, 692.4016
280.7278, 653.0125
281.2099, 621.9148
281.6920, 595.7019
282.1742, 565.3271
282.6563, 522.0768
283.1384, 488.6689
283.6205, 471.7725
284.1026, 461.6244
284.5847, 451.2869
285.0669, 438.2407
285.5490, 420.8677
286.0311, 395.6082
286.5132, 355.9316
286.9953, 326.2446
287.4774, 315.2260
287.9596, 307.4535
288.4417, 292.1058
288.9238, 269.9882
289.4059, 251.4150
289.8880, 249.9824
290.3701, 267.1227
290.8523, 271.3323
291.3344, 249.6000
291.8165, 227.1195
292.2986, 214.4886
292.7807, 209.1824
293.2628, 203.9471
293.7450, 193.3163
294.2271, 179.8878
294.7092, 172.7994
295.1913, 175.2289
295.6734, 175.6909
296.1555, 166.6049
296.6377, 153.3861
297.1198, 142.7743
297.6019, 136.6609
298.0840, 134.6292
298.5661, 137.4688
299.0482, 145.7822
299.5304, 153.3807
300.0125, 159.4270
300.4946, 162.3489
300.9767, 159.7661
301.4588, 150.3009
301.9409, 140.2401
302.4231, 134.7421
302.9052, 132.5939
303.3873, 128.0265
303.8694, 117.8710
304.3515, 107.8218
304.8336, 106.0325
305.3158, 112.4128
305.7979, 117.8796
306.2800, 120.0343
306.7621, 119.3942
307.2442, 116.4026
307.7263, 111.0946
308.2085, 103.9376
308.6906, 93.67188
309.1727, 80.49036
309.6548, 74.36938
310.1369, 80.10706
310.6190, 89.29822
311.1012, 99.08337
311.5833, 108.0955
312.0654, 112.0524
312.5475, 107.3285
313.0296, 95.68066
313.5117, 88.40588
313.9939, 87.95544
314.4760, 88.10144
314.9581, 88.03455
315.4402, 87.47620
315.9223, 85.94043
316.4044, 83.22375
316.8866, 79.84485
317.3687, 76.84680
317.8508, 74.24927
318.3329, 72.03369
318.8150, 70.31665
319.2971, 68.85449
319.7793, 68.90833
320.2614, 69.83691
320.7435, 67.79297
321.2256, 56.62463
321.7077, 32.96790
322.1898, 21.13538
322.6720, 31.66919
323.1541, 44.15649
323.6362, 53.75000
324.1183, 59.67090
324.6004, 61.92737
325.0826, 60.23218
325.5647, 55.05872
326.0468, 47.44812
326.5289, 33.25867
327.0110, 24.62646
327.4931, 30.83105
327.9753, 41.52539
328.4574, 45.02319
328.9395, 36.94238
329.4216, 23.38391
329.9037, 9.214600
330.3858, 6.263794
330.8680, 11.89880
331.3501, 5.245483
331.8322, 24.79883
332.3143, 25.51978
332.7964, 6.389648
333.2785, 10.52124
333.7606, 7.449463
334.2427, 7.608276
334.7249, 12.00171
335.2070, 0.1832280
335.6891, 14.22058
336.1712, 18.25098
336.6533, 13.96313
337.1354, 11.05017
337.6176, 14.03162
338.0997, 17.04163
338.5818, 13.47156
339.0639, 4.106445
339.5460, 3.756836
340.0281, 5.787354
340.5103, 3.058228
340.9924, 0.4198000
341.4745, 1.585938
341.9566, 4.153931
342.4387, 8.780640
342.9208, 13.86414
343.4030, 16.55981
343.8851, 15.91931
344.3672, 14.00879
344.8493, 14.36902
345.3314, 18.79285
345.8135, 21.58289
346.2957, 25.32617
346.7778, 25.59009
347.2599, 16.69385
347.7420, 0.4234620
348.2241, 15.00281
348.7062, 21.98804
349.1884, 20.60291
349.6705, 21.32104
350.1526, 26.54089
350.6347, 31.36682
351.1168, 34.60376
351.5989, 36.74915
352.0811, 37.71069
352.5632, 36.85657
353.0453, 37.33264
353.5274, 47.28125
354.0095, 70.68420
354.4916, 89.43909
354.9738, 93.61609
355.4559, 94.80457
355.9380, 100.6385
356.4201, 112.0696
356.9022, 125.7314
357.3843, 140.6553
357.8665, 155.9253
358.3486, 166.7733
358.8307, 170.7277
359.3128, 174.0293
359.7949, 184.0352
360.2770, 198.1625
360.7592, 207.5361
361.2413, 202.9203
361.7234, 197.1599
362.2055, 204.2001
362.6876, 223.2390
363.1697, 244.0876
363.6519, 261.9591
364.1340, 277.4280
364.6161, 292.1820
365.0982, 305.1217
365.5803, 319.3024
366.0624, 335.6460
366.5446, 353.6975
367.0267, 373.1023
367.5088, 393.6049
367.9909, 415.2146
368.4730, 437.4435
368.9551, 459.9125
369.4373, 484.9318
369.9194, 515.9503
370.4015, 546.0461
370.8836, 572.4172
371.3657, 594.6017
371.8478, 611.6494
372.3300, 621.8065
372.8121, 627.4893
373.2942, 643.0237
373.7763, 677.6835
374.2584, 708.0946
374.7405, 724.3474
375.2227, 737.2649
375.7048, 759.8892
376.1869, 796.0183
376.6690, 833.4204
377.1511, 856.4241
377.6332, 864.4233
378.1154, 871.7610
378.5975, 880.9956
379.0796, 889.1799
379.5617, 894.5270
380.0438, 897.1833
380.5259, 897.9810
381.0081, 892.3564
381.4902, 886.9817
381.9723, 895.2719
382.4544, 918.4541
382.9365, 939.7213
383.4186, 947.9297
383.9008, 947.3145
384.3829, 952.2438
384.8650, 966.1595
385.3471, 980.4409
385.8292, 993.6382
386.3113, 1004.303
386.7935, 1007.191
387.2756, 1000.318
387.7577, 993.7885
388.2398, 1001.835
388.7219, 1030.851
389.2040, 1057.766
389.6862, 1078.343
390.1683, 1099.721
390.6504, 1129.027
391.1325, 1162.686
391.6146, 1190.693
392.0967, 1205.084
392.5789, 1209.191
393.0610, 1222.514
393.5431, 1245.310
394.0252, 1277.172
394.5073, 1327.503
394.9894, 1380.854
395.4716, 1422.855
395.9537, 1449.803
396.4358, 1469.097
396.9179, 1486.362
397.4000, 1501.391
397.8821, 1521.161
398.3643, 1549.430
398.8464, 1578.256
399.3285, 1605.866
399.8106, 1630.550
400.2927, 1646.120
400.7748, 1642.429
401.2570, 1632.766
401.7391, 1634.878
402.2212, 1647.954
402.7033, 1657.887
403.1854, 1657.997
403.6675, 1650.484
404.1497, 1640.239
404.6317, 1626.231
405.1139, 1613.030
405.5960, 1606.146
406.0781, 1598.203
406.5602, 1578.949
407.0423, 1547.524
407.5244, 1514.595
408.0066, 1492.587
408.4887, 1483.847
408.9708, 1460.738
409.4529, 1411.761
409.9350, 1362.324
410.4171, 1320.666
410.8993, 1283.840
411.3814, 1245.756
411.8635, 1202.531
412.3456, 1159.188
412.8277, 1124.903
413.3098, 1101.133
413.7920, 1081.565
414.2741, 1077.394
414.7562, 1067.821
415.2383, 1035.724
415.7204, 983.8928
416.2025, 934.5541
416.6847, 902.2573
417.1668, 882.5349
417.6489, 866.2207
418.1310, 853.9502
418.6131, 840.8345
419.0952, 827.5347
419.5774, 809.9832
420.0595, 778.8274
420.5416, 722.8507
421.0237, 671.6274
421.5058, 640.0747
421.9879, 622.5895
422.4701, 611.1639
422.9522, 603.8169
423.4343, 597.0435
423.9164, 586.5618
424.3985, 571.4545
424.8806, 556.5917
425.3628, 546.8734
425.8449, 532.4918
426.3270, 501.4983
426.8091, 463.1862
427.2912, 437.1896
427.7733, 435.0142
428.2555, 446.2272
428.7376, 444.9241
429.2197, 426.8994
429.7018, 406.2349
430.1839, 376.5363
430.6660, 351.2009
431.1482, 342.9208
431.6303, 350.2352
432.1124, 356.1648
432.5945, 348.1971
433.0766, 329.7479
433.5587, 308.6229
434.0409, 283.7466
434.5230, 261.8110
435.0051, 247.8042
435.4872, 239.2260
435.9693, 229.8381
436.4514, 218.2340
436.9336, 207.9087
437.4157, 202.4113
437.8978, 198.8481
438.3799, 190.8726
438.8620, 176.8246
439.3441, 162.8879
439.8263, 156.6283
440.3084, 160.1136
440.7905, 158.8975
441.2726, 151.8967
441.7547, 142.1636
442.2368, 129.0490
442.7190, 114.4487
443.2011, 101.2273
443.6832, 90.76636
444.1653, 82.39404
444.6474, 75.53955
445.1295, 71.58203
445.6117, 64.62830
446.0938, 47.81628
446.5759, 32.95862
447.0580, 28.75061
447.5401, 33.50098
448.0222, 37.68042
448.5044, 35.93286
448.9865, 29.74573
449.4686, 20.36938
449.9507, 7.479492
450.4328, 1.431152
450.9149, 1.137451
451.3971, 4.464355
451.8792, 7.309326
452.3613, 6.298462
452.8434, 4.605835
453.3255, 0.9879150
453.8076, 2.194214
454.2898, 0.6998290
454.7719, 5.485352
455.2540, 11.04626
455.7361, 11.05310
456.2182, 5.413940
456.7003, 5.1146999E-02
457.1825, 9.383179
457.6646, 13.76416
458.1467, 6.351318
458.6288, 4.603394
459.1109, 9.623047
459.5930, 6.014526
460.0752, 0.8516850
460.5573, 4.848755
461.0394, 5.971924
461.5215, 6.258057
462.0036, 5.503052
462.4857, 3.982178
462.9679, 2.403564
463.4500, 0.2727050
463.9321, 3.791260
464.4142, 12.60022
464.8963, 21.51489
465.3784, 26.93799
465.8606, 29.24536
466.3427, 29.78552
466.8248, 29.13379
467.3069, 25.72766
467.7890, 15.82654
468.2711, 5.432617
468.7533, 13.08264
469.2354, 6.346680
469.7175, 26.36682
470.1996, 29.44836
470.6817, 21.89124
471.1638, 21.64075
471.6460, 39.04675
472.1281, 63.70154
472.6102, 68.61316
473.0923, 42.45203
473.5744, 28.87854
474.0565, 47.08374
474.5387, 68.78992
475.0208, 78.68005
475.5029, 77.48303
475.9850, 74.20593
476.4671, 71.71448
476.9492, 71.27686
477.4313, 77.82458
477.9135, 91.29980
478.3956, 97.37366
478.8777, 86.25745
479.3598, 67.25488
479.8419, 60.76172
480.3240, 70.43579
480.8062, 78.24768
481.2883, 82.65015
481.7704, 82.38257
482.2525, 72.80371
482.7346, 56.39368
483.2167, 43.49341
483.6989, 42.38110
484.1810, 50.33289
484.6631, 52.76025
485.1452, 44.62463
485.6273, 39.31348
486.1094, 39.70288
486.5916, 42.63562
487.0737, 46.38953
487.5558, 50.40161
488.0379, 53.61389
488.5200, 57.71497
489.0021, 60.32019
489.4843, 50.14819
489.9664, 23.34119
490.4485, 4.270020
490.9306, 9.997925
491.4127, 30.84509
491.8948, 43.16382
492.3770, 45.74316
492.8591, 42.68494
493.3412, 28.31348
493.8233, 12.63000
494.3054, 9.267578
494.7875, 18.99292
495.2697, 31.83020
495.7518, 39.84631
496.2339, 43.21387
496.7160, 44.08911
497.1981, 41.16565
497.6802, 37.29187
498.1624, 31.50610
498.6445, 25.84399
499.1266, 22.46948
499.6087, 21.68323
500.0908, 21.52307
500.5729, 19.70032
501.0551, 16.92432
501.5372, 17.04724
502.0193, 21.35681
502.5014, 24.05127
502.9835, 21.00757
503.4656, 14.17041
503.9478, 8.410767
504.4299, 3.618164
504.9120, 0.3143310
505.3941, 1.530273
505.8762, 1.644775
506.3583, 1.345337
506.8405, 7.176636
507.3226, 12.91492
507.8047, 16.54138
508.2868, 17.80444
508.7689, 12.74170
509.2510, 8.160034
509.7332, 22.51367
510.2153, 24.13989
510.6974, 19.47168
511.1795, 12.90576
511.6616, 5.860107
512.1437, 0.9379880
512.6259, 2.381592
513.1080, 7.982910
513.5901, 9.170227
514.0722, 5.003235
514.5543, 0.1976320
515.0364, 5.125122
515.5186, 8.741150
516.0007, 8.754333
516.4828, 2.331421
516.9649, 2.065613
517.4470, 1.173157
517.9291, 2.689880
518.4113, 8.701172
518.8934, 15.76227
519.3755, 19.54559
519.8576, 15.71509
520.3397, 6.192017
520.8218, 4.356018
521.3040, 18.46692
521.7861, 26.20782
522.2682, 18.52704
522.7503, 7.574585
523.2324, 2.417847
523.7145, 4.178894
524.1967, 9.613342
524.6788, 19.37891
525.1609, 30.47559
525.6430, 35.90076
526.1251, 35.68292
526.6072, 34.52997
527.0894, 34.79028
527.5715, 35.62781
528.0536, 34.83478
528.5357, 31.49243
529.0178, 29.19922
529.4999, 29.86102
529.9821, 30.64197
530.4642, 28.25488
530.9463, 23.88135
531.4284, 21.85870
531.9105, 25.01245
532.3926, 31.17426
532.8748, 33.93927
533.3569, 32.01910
533.8390, 31.07648
534.3211, 28.28888
534.8032, 29.81586
535.2853, 43.56744
535.7675, 66.59351
536.2496, 84.43567
536.7317, 90.45551
537.2138, 89.11414
537.6959, 79.31555
538.1780, 64.03235
538.6602, 56.50446
539.1423, 62.87311
539.6244, 75.57782
540.1065, 85.52466
540.5886, 92.74689
541.0707, 96.27100
541.5529, 91.84174
542.0350, 89.28717
542.5171, 95.07953
542.9992, 105.7004
543.4813, 115.5295
543.9634, 122.3267
544.4456, 126.6749
544.9277, 129.6845
545.4098, 131.3185
545.8919, 128.7927
546.3740, 119.3384
546.8561, 110.7159
547.3383, 109.5563
547.8204, 113.4470
548.3025, 116.1414
548.7846, 115.7661
549.2667, 116.0389
549.7488, 118.9155
550.2310, 123.3112
550.7131, 127.1953
551.1952, 130.4070
551.6773, 135.2575
552.1594, 144.6868
552.6415, 158.1307
553.1237, 165.9437
553.6058, 164.3071
554.0879, 162.8076
554.5700, 165.2502
555.0521, 167.4629
555.5342, 165.4438
556.0164, 158.8448
556.4985, 150.9443
556.9806, 140.8209
557.4627, 132.0489
557.9448, 132.9112
558.4269, 143.1390
558.9091, 152.2582
559.3912, 155.2961
559.8733, 154.4384
560.3554, 154.0819
560.8375, 155.0632
561.3196, 154.4860
561.8018, 151.5875
562.2839, 147.6097
562.7660, 142.8267
563.2481, 137.6105
563.7302, 132.2607
564.2123, 126.9106
564.6945, 122.6202
565.1766, 123.1635
565.6587, 128.9734
566.1408, 125.2347
566.6229, 104.1016
567.1050, 81.78876
567.5872, 71.93323
568.0693, 72.49359
568.5514, 76.83649
569.0335, 89.73846
569.5156, 99.75610
569.9977, 97.93518
570.4799, 90.66400
570.9620, 88.19995
571.4441, 92.50659
571.9262, 97.30328
572.4083, 96.18555
572.8904, 89.69659
573.3726, 85.05408
573.8547, 84.69476
574.3368, 81.18915
574.8189, 67.29340
575.3010, 53.75525
575.7831, 51.47455
576.2653, 60.83209
576.7474, 69.11633
577.2295, 68.58051
577.7116, 63.43439
578.1937, 58.34229
578.6758, 53.76147
579.1580, 50.61389
579.6401, 48.83032
580.1222, 48.01459
580.6042, 48.00452
581.0864, 50.31067
581.5685, 49.33698
582.0506, 45.35370
582.5327, 38.57190
583.0148, 22.98456
583.4969, 6.155334
583.9791, 1.862427
584.4612, 15.78388
584.9433, 34.25201
585.4254, 43.19806
585.9075, 43.86908
586.3896, 41.77563
586.8718, 37.21399
587.3539, 31.11456
587.8360, 23.11157
588.3181, 14.21667
588.8002, 8.550842
589.2823, 9.232361
589.7645, 8.091858
590.2466, 1.609558
590.7287, 5.550720
591.2108, 9.714172
591.6929, 10.78918
592.1750, 10.36346
592.6572, 9.067261
593.1393, 7.464478
593.6214, 7.894409
594.1035, 10.92975
594.5856, 18.37878
595.0677, 9.950195
595.5499, 4.428528
596.0320, 1.659912
596.5141, 9.874146
596.9962, 3.949585
597.4783, 3.636353
597.9604, 3.597900
598.4426, 4.306519
598.9247, 2.295532
599.4068, 5.527710
599.8889, 7.583618
600.3710, 12.23108
600.8531, 11.17065
601.3353, 11.89758
601.8174, 18.35535
602.2995, 21.68164
602.7816, 20.08533
603.2637, 25.09387
603.7458, 18.58081
604.2280, 22.40540
604.7101, 17.03796
605.1922, 17.62500
605.6743, 41.62878
606.1564, 67.72778
606.6385, 74.80579
607.1207, 67.83154
607.6028, 61.42090
608.0849, 61.04150
608.5670, 65.51294
609.0491, 74.38306
609.5313, 88.97046
610.0134, 96.79688
610.4955, 92.73914
610.9776, 88.81702
611.4597, 86.94250
611.9418, 88.08081
612.4240, 94.30603
612.9061, 106.2170
613.3882, 118.1760
613.8703, 127.4384
614.3524, 134.4497
614.8345, 138.8586
615.3167, 141.2231
615.7988, 144.2822
616.2809, 149.1104
616.7630, 156.5952
617.2451, 169.3011
617.7272, 191.1941
618.2094, 206.8972
618.6915, 210.5035
619.1736, 214.1594
619.6557, 222.4034
620.1378, 233.5172
620.6199, 244.6888
621.1021, 255.0876
621.5842, 265.1262
622.0663, 274.1989
622.5484, 283.3412
623.0305, 296.1774
623.5126, 312.7008
623.9948, 325.6218
624.4769, 329.4180
624.9590, 328.6702
625.4411, 336.8699
625.9232, 364.9104
626.4053, 381.7478
626.8875, 377.7322
627.3696, 373.2712
627.8517, 380.1940
628.3338, 394.4862
628.8159, 406.8682
629.2980, 414.0000
629.7802, 417.5839
630.2623, 418.3845
630.7444, 417.0348
631.2265, 414.8654
631.7086, 412.0271
632.1907, 410.4606
632.6729, 412.3949
633.1550, 415.9297
633.6371, 413.5255
634.1192, 398.5403
634.6013, 387.5391
635.0834, 383.0940
635.5656, 380.4634
636.0477, 377.3123
636.5298, 373.5364
637.0119, 369.3960
637.4940, 364.6838
637.9761, 360.7012
638.4583, 361.3586
638.9404, 364.1182
639.4225, 359.2433
639.9046, 344.8835
640.3867, 328.7531
640.8688, 317.0778
641.3510, 307.7390
641.8331, 292.9373
642.3152, 262.9414
642.7973, 243.0599
643.2794, 242.9633
643.7615, 244.8445
644.2437, 237.2819
644.7258, 221.8136
645.2079, 205.5447
645.6900, 191.8842
646.1721, 178.1787
646.6542, 160.2146
647.1364, 139.8391
647.6185, 122.3191
648.1006, 108.2866
648.5827, 97.37634
649.0648, 90.36450
649.5469, 86.39551
650.0291, 80.37756
650.5112, 69.43384
650.9933, 60.98389
651.4754, 58.06665
651.9575, 54.74561
652.4396, 47.07874
652.9218, 36.66272
653.4039, 25.19385
653.8860, 11.99939
654.3681, 0.4145510
654.8502, 2.936157
655.3323, 0.8779300
655.8145, 0.3615720
656.2966, 2.087036
656.7787, 4.062744
657.2608, 3.382813
657.7429, 1.110474
658.2250, 0.4738770
658.7072, 2.645996
659.1893, 4.712402
659.6714, 5.960327
660.1535, 7.643066
660.6356, 11.16101
661.1177, 15.62976
661.5999, 19.35156
662.0820, 22.76440
662.5641, 22.60388
663.0462, 11.91223
663.5283, 3.112915
664.0104, 9.560669
664.4926, 6.196167
664.9747, 4.1382000E-02
665.4568, 4.625610
665.9389, 7.543457
666.4210, 7.945435
666.9031, 5.909790
667.3853, 1.104004
667.8674, 11.56274
668.3495, 21.83167
668.8316, 22.07983
669.3137, 16.93030
669.7958, 16.12109
670.2780, 23.19446
670.7601, 31.63623
671.2422, 36.91663
671.7243, 41.48547
672.2064, 49.17993
672.6885, 59.75598
673.1707, 70.47571
673.6528, 79.99524
674.1349, 87.68054
674.6170, 90.51367
675.0991, 85.62952
675.5812, 90.87842
676.0634, 115.4410
676.5455, 137.6978
677.0276, 140.0354
677.5097, 134.6682
677.9918, 142.5441
678.4739, 170.5978
678.9561, 195.0319
679.4382, 200.6990
679.9203, 204.2153
680.4024, 222.1865
680.8845, 250.9780
681.3666, 277.7035
681.8488, 296.6520
682.3309, 313.5515
682.8130, 338.5640
683.2951, 371.2644
683.7772, 396.4806
684.2593, 410.7867
684.7415, 427.0555
685.2236, 449.4954
685.7057, 478.6664
686.1878, 518.5669
686.6699, 573.5120
687.1520, 617.8014
687.6342, 633.8163
688.1163, 653.7183
688.5984, 699.1067
689.0805, 758.2715
689.5626, 813.1084
690.0447, 858.1525
690.5269, 899.3654
691.0090, 942.0522
691.4911, 985.3499
691.9732, 1021.970
692.4553, 1051.933
692.9374, 1099.816
693.4196, 1178.492
693.9017, 1268.339
694.3838, 1345.377
694.8659, 1408.796
695.3480, 1466.806
695.8301, 1517.259
696.3123, 1565.713
696.7944, 1605.844
697.2765, 1649.631
697.7586, 1715.643
698.2407, 1800.399
698.7228, 1871.659
699.2050, 1904.177
699.6871, 1920.671
700.1692, 1944.707
700.6513, 1974.345
701.1334, 2008.867
701.6155, 2047.240
702.0977, 2070.305
702.5798, 2056.931
703.0619, 2015.300
703.5440, 2000.857
704.0261, 2034.714
704.5082, 2045.404
704.9904, 2003.015
705.4725, 1952.667
705.9546, 1925.760
706.4367, 1914.700
706.9188, 1894.246
707.4009, 1855.626
707.8831, 1812.292
708.3652, 1769.370
708.8473, 1726.028
709.3294, 1681.579
709.8115, 1635.717
710.2936, 1588.342
710.7758, 1539.262
711.2579, 1489.307
711.7400, 1441.872
712.2221, 1396.883
712.7042, 1340.730
713.1863, 1269.126
713.6685, 1199.718
714.1506, 1144.804
714.6327, 1097.416
715.1148, 1039.812
715.5969, 968.3889
716.0790, 898.0142
716.5612, 825.4069
717.0433, 758.6427
717.5254, 704.1099
718.0075, 657.2134
718.4896, 610.9689
718.9717, 563.4991
719.4539, 515.9531
719.9360, 468.2059
720.4181, 421.3538
720.9002, 374.9135
721.3823, 330.2231
721.8644, 295.5491
722.3465, 274.1052
722.8286, 261.4805
723.3107, 254.5669
723.7928, 253.3647
724.2750, 237.0575
724.7571, 190.1328
725.2392, 156.3380
725.7213, 155.2206
726.2034, 163.3951
726.6855, 166.2513
727.1677, 163.2992
727.6498, 156.1277
728.1319, 139.0638
728.6140, 125.1018
729.0961, 124.2927
729.5782, 128.4923
730.0604, 127.5135
730.5425, 120.7180
731.0246, 112.3665
731.5067, 104.4031
731.9888, 99.50610
732.4709, 105.5234
732.9531, 121.6604
733.4352, 129.8988
733.9173, 126.3766
734.3994, 123.0402
734.8815, 126.9446
735.3636, 136.3536
735.8458, 146.8297
736.3279, 159.9750
736.8100, 170.7488
737.2921, 175.7764
737.7742, 182.6533
738.2563, 195.3834
738.7385, 211.3669
739.2206, 226.6644
739.7027, 240.5015
740.1848, 255.3240
740.6669, 274.2275
741.1490, 286.8248
741.6312, 311.5265
742.1133, 333.4277
742.5954, 351.5819
743.0775, 357.9490
743.5596, 378.4460
744.0417, 393.3439
744.5239, 408.3668
745.0060, 431.3324
745.4881, 439.6781
745.9702, 462.0780
746.4523, 478.7267
746.9344, 496.8938
747.4166, 503.3397
747.8987, 501.4781
748.3808, 507.5106
748.8629, 535.1510
749.3450, 552.9047
749.8271, 547.8242
750.3093, 536.8511
750.7914, 531.6814
751.2735, 531.8346
751.7556, 533.8256
752.2377, 537.8572
752.7198, 538.8087
753.2020, 530.5399
753.6841, 515.5829
754.1662, 497.8937
754.6483, 478.5032
755.1304, 461.1449
755.6125, 447.4041
756.0947, 437.9346
756.5768, 434.7584
757.0589, 438.5295
757.5410, 440.5278
758.0231, 443.1193
758.5052, 438.9603
758.9874, 422.5452
759.4695, 400.9250
759.9516, 379.8938
760.4337, 359.6096
760.9158, 343.5054
761.3979, 336.6572
761.8801, 328.3401
762.3622, 312.4561
762.8443, 294.3750
763.3264, 279.8953
763.8085, 268.9562
764.2906, 258.4587
764.7728, 247.3215
765.2549, 233.7156
765.7370, 211.1078
766.2191, 184.4507
766.7012, 170.6560
767.1833, 171.0526
767.6655, 171.9523
768.1476, 165.5125
768.6297, 154.8276
769.1118, 145.4101
769.5939, 136.0720
770.0760, 130.8962
770.5582, 134.5737
771.0403, 136.2570
771.5224, 132.4816
772.0045, 123.9206
772.4866, 109.2809
772.9688, 88.30060
773.4509, 73.45691
773.9330, 72.19305
774.4151, 71.42041
774.8972, 63.56860
775.3793, 54.13269
775.8615, 50.91913
776.3436, 53.26849
776.8257, 53.41321
777.3078, 46.12646
777.7899, 36.11969
778.2720, 26.30951
778.7542, 18.45740
779.2363, 22.69086
779.7184, 39.60126
780.2005, 54.01245
780.6826, 56.52838
781.1647, 51.19263
781.6469, 46.41760
782.1290, 42.14893
782.6111, 38.10968
783.0932, 33.57941
783.5753, 31.66016
784.0574, 36.53711
784.5396, 41.61206
785.0217, 35.00342
785.5038, 15.14099
785.9859, 9.143005
786.4680, 38.81604
786.9501, 59.83655
787.4323, 45.70062
787.9144, 21.95215
788.3965, 17.66150
788.8786, 31.43628
789.3607, 40.47742
789.8428, 29.77667
790.3250, 16.25763
790.8071, 19.18756
791.2892, 31.31616
791.7713, 38.78998
792.2534, 40.37085
792.7355, 41.09668
793.2177, 44.01971
793.6998, 44.84332
794.1819, 33.45795
794.6640, 9.056274
795.1461, 6.506165
795.6282, 11.76440
796.1104, 13.44513
796.5925, 12.51331
797.0746, 11.15918
797.5567, 12.34271
798.0388, 16.16028
798.5209, 19.36829
799.0031, 27.58563
799.4852, 28.84564
799.9673, 12.45758
800.4494, 4.772400
800.9315, 8.381836
801.4136, 1.286194
801.8958, 4.449341
802.3779, 5.201721
802.8600, 3.362305
803.3421, 3.415283
803.8242, 9.432861
804.3063, 5.287964
804.7885, 5.355103
805.2706, 10.21216
805.7527, 4.914246
806.2348, 2.425232
806.7169, 1.424316
807.1990, 5.448425
807.6812, 9.995178
808.1633, 12.12372
808.6454, 7.991150
809.1275, 4.573303
809.6096, 17.12402
810.0917, 20.93518
810.5739, 17.08765
811.0560, 13.41620
811.5381, 9.878357
812.0202, 6.457581
812.5023, 2.318115
812.9844, 0.5299070
813.4666, 0.7905880
813.9487, 0.7286380
814.4308, 2.378357
814.9129, 4.177734
815.3950, 5.685486
815.8771, 7.949341
816.3593, 8.741150
816.8414, 4.852661
817.3235, 0.4760130
817.8056, 2.737000
818.2877, 1.166321
818.7698, 1.908752
819.2520, 5.485779
819.7341, 9.306885
820.2162, 13.08197
820.6983, 16.87561
821.1804, 22.09320
821.6625, 28.13947
822.1447, 30.01923
822.6268, 24.07300
823.1089, 14.52155
823.5910, 9.958008
824.0731, 10.06458
824.5552, 6.701660
825.0374, 1.325867
825.5195, 8.336487
826.0016, 12.87189
826.4837, 12.68591
826.9658, 2.516785
827.4479, 19.28607
827.9301, 28.99261
828.4122, 16.66321
828.8943, 7.875305
829.3764, 11.35449
829.8585, 16.54132
830.3406, 15.40833
830.8228, 9.685547
831.3049, 5.861938
831.7870, 5.516479
832.2691, 6.186096
832.7512, 7.288879
833.2333, 8.997803
833.7155, 13.71765
834.1976, 18.40332
834.6797, 16.07922
835.1618, 5.212830
835.6439, 3.853760
836.1260, 0.4660640
836.6082, 6.847900
837.0903, 6.347351
837.5724, 0.9164430
838.0545, 2.577637
838.5366, 2.558350
839.0187, 0.5745850
839.5009, 7.292297
839.9830, 14.38300
840.4651, 12.13495
840.9472, 1.483215
841.4293, 2.823242
841.9114, 19.88239
842.3936, 32.38428
842.8757, 29.26141
843.3578, 18.98370
843.8399, 14.76160
844.3220, 17.02301
844.8041, 22.03217
845.2863, 34.69171
845.7684, 41.03357
846.2505, 33.22668
846.7326, 22.15381
847.2147, 15.79456
847.6968, 13.65259
848.1790, 13.75653
848.6611, 17.40210
849.1432, 20.76819
849.6253, 25.80402
850.1074, 27.65582
850.5895, 20.22052
851.0717, 8.664368
851.5538, 1.176697
852.0359, 0.3469850
852.5180, 1.720764
853.0001, 8.910828
853.4822, 15.70172
853.9644, 17.55890
854.4465, 15.63336
854.9286, 9.460449
855.4107, 0.6271360
855.8928, 3.931458
856.3749, 0.9447020
856.8571, 9.159546
857.3392, 14.20508
857.8213, 16.84631
858.3034, 13.81909
858.7855, 4.865784
859.2676, 0.9279790
859.7498, 0.1074830
860.2319, 4.329773
860.7140, 7.483337
861.1961, 9.631653
861.6782, 7.356812
862.1603, 1.148682
862.6425, 5.080566
863.1245, 0.4826660
863.6066, 6.661621
864.0887, 12.16339
864.5709, 15.72369
865.0530, 17.45642
865.5351, 15.43243
866.0172, 16.51099
866.4993, 28.72504
866.9814, 35.74713
867.4636, 24.94128
867.9457, 9.566711
868.4278, 6.628784
868.9099, 16.28143
869.3920, 20.08521
869.8741, 5.203308
870.3563, 4.549133
870.8384, 4.613464
871.3205, 18.01782
871.8026, 24.48907
872.2847, 23.98297
872.7668, 18.37695
873.2490, 7.390930
873.7311, 0.5042720
874.2132, 3.382996
874.6953, 10.69684
875.1774, 10.89594
875.6595, 8.167480
876.1417, 13.92603
876.6238, 29.00281
877.1059, 41.27759
877.5880, 41.39618
878.0701, 34.67462
878.5522, 27.13043
879.0344, 20.24445
879.5165, 20.69110
879.9986, 28.21448
880.4807, 34.03754
880.9628, 33.83472
881.4449, 30.44452
881.9271, 26.73541
882.4092, 23.24902
882.8913, 27.60352
883.3734, 41.23346
883.8555, 48.72424
884.3376, 45.32922
884.8198, 41.50470
885.3019, 45.91840
885.7840, 54.64325
886.2661, 55.21942
886.7482, 40.76215
887.2303, 37.77466
887.7125, 54.41437
888.1946, 69.15436
888.6767, 71.81665
889.1588, 69.69141
889.6409, 72.13672
890.1230, 79.06769
890.6052, 83.86377
891.0873, 84.62634
891.5694, 85.61407
892.0515, 83.56506
892.5336, 85.60559
893.0157, 101.5270
893.4979, 123.1437
893.9800, 134.2623
894.4621, 130.4563
894.9442, 126.4412
895.4263, 125.3255
895.9084, 127.9066
896.3906, 137.5189
896.8727, 149.8677
897.3548, 159.9749
897.8369, 167.1546
898.3190, 172.7983
898.8011, 176.7642
899.2833, 181.3276
899.7654, 188.1072
900.2475, 196.5746
900.7296, 206.6668
901.2117, 217.9845
901.6938, 229.5477
902.1760, 241.2413
902.6581, 254.5636
903.1402, 272.5313
903.6223, 290.7543
904.1044, 299.2803
904.5865, 301.4711
905.0687, 309.1910
905.5508, 323.4847
906.0329, 337.5148
906.5150, 347.7352
906.9971, 355.1321
907.4792, 360.4172
907.9614, 363.9891
908.4435, 368.0051
908.9256, 372.2587
909.4077, 384.6187
909.8898, 409.0288
910.3719, 428.0889
910.8541, 425.2094
911.3362, 408.8934
911.8183, 409.2059
912.3004, 432.0217
912.7825, 437.6720
913.2646, 418.6406
913.7468, 400.1352
914.2289, 393.0049
914.7110, 391.2372
915.1931, 387.6108
915.6752, 382.1892
916.1573, 379.3621
916.6395, 382.4301
917.1216, 381.6264
917.6037, 376.8805
918.0858, 367.3567
918.5679, 347.9666
919.0500, 325.1614
919.5322, 312.0313
920.0143, 311.5336
920.4964, 303.8986
920.9785, 279.4219
921.4606, 259.6581
921.9427, 255.1630
922.4249, 253.3528
922.9070, 242.6825
923.3891, 226.0846
923.8712, 213.7057
924.3533, 207.8875
924.8354, 204.9953
925.3176, 207.7068
925.7997, 208.7935
926.2818, 202.9336
926.7639, 193.7228
927.2460, 184.8444
927.7281, 177.2026
928.2103, 171.9010
928.6924, 171.9575
929.1745, 170.1370
929.6566, 160.0731
930.1387, 147.6873
930.6208, 137.8578
931.1030, 131.0074
931.5851, 125.5291
932.0672, 121.9095
932.5493, 122.3676
933.0314, 133.8382
933.5135, 144.5173
933.9957, 135.7793
934.4778, 119.6886
934.9599, 116.3450
935.4420, 125.4946
935.9241, 137.8773
936.4063, 149.1263
936.8884, 157.6566
937.3705, 163.7007
937.8526, 166.7570
938.3347, 163.9570
938.8168, 157.3445
939.2990, 151.1208
939.7811, 147.0785
940.2632, 151.4764
940.7453, 168.8939
941.2274, 189.0389
941.7095, 196.9852
942.1917, 196.2424
942.6738, 199.5275
943.1559, 206.5651
943.6380, 212.0119
944.1201, 214.3831
944.6022, 216.3806
945.0844, 220.5954
945.5665, 224.8507
946.0486, 221.0936
946.5307, 210.4065
947.0128, 211.9051
947.4949, 227.0733
947.9771, 242.9092
948.4592, 254.9022
948.9413, 262.0800
949.4234, 262.1803
949.9055, 257.6130
950.3876, 260.1172
950.8698, 270.2839
951.3519, 283.3912
951.8340, 300.7034
952.3161, 311.9307
952.7982, 310.6106
953.2803, 304.3140
953.7625, 303.9757
954.2446, 309.3519
954.7267, 313.8430
955.2088, 318.3864
955.6909, 318.4705
956.1730, 312.8027
956.6552, 303.7695
957.1373, 291.6606
957.6194, 278.4712
958.1015, 268.4222
958.5836, 262.3057
959.0657, 252.8059
959.5479, 236.3401
960.0300, 224.5504
960.5121, 222.3821
960.9942, 221.8547
961.4763, 217.0990
961.9584, 209.8577
962.4406, 205.4177
962.9227, 207.0110
963.4048, 200.3095
963.8869, 176.1255
964.3690, 157.9041
964.8511, 155.0822
965.3333, 155.6539
965.8154, 150.3574
966.2975, 140.9183
966.7796, 133.9500
967.2617, 131.3767
967.7438, 124.9971
968.2260, 109.8802
968.7081, 96.84003
969.1902, 91.93011
969.6723, 89.34918
970.1544, 82.39551
970.6365, 71.02679
971.1187, 61.22925
971.6008, 54.30090
972.0829, 47.53674
972.5650, 38.00140
973.0471, 31.68317
973.5292, 34.94244
974.0114, 40.62683
974.4935, 39.55145
974.9756, 30.86176
975.4577, 24.32666
975.9398, 21.11096
976.4219, 20.65906
976.9041, 25.27911
977.3862, 30.00507
977.8683, 33.78046
978.3504, 34.95801
978.8325, 29.10699
979.3146, 16.20856
979.7968, 10.65942
980.2789, 25.84534
980.7610, 34.91858
981.2431, 23.69580
981.7252, 10.49890
982.2073, 6.353271
982.6895, 9.453491
983.1716, 18.28534
983.6537, 32.12402
984.1358, 38.69952
984.6179, 26.34558
985.1000, 16.40662
985.5822, 20.65955
986.0643, 26.90680
986.5464, 26.41266
987.0285, 20.43890
987.5106, 9.880493
987.9927, 4.976074
988.4749, 10.58118
988.9570, 10.92316
989.4391, 26.28229
989.9212, 13.92053
990.4033, 5.223450
990.8854, 15.16907
991.3676, 16.80267
991.8497, 14.21356
992.3318, 8.155640
992.8139, 4.665894
993.2960, 11.45990
993.7781, 14.90173
994.2603, 2.652100
994.7424, 11.74768
995.2245, 14.62665
995.7066, 9.226440
996.1887, 5.746033
996.6708, 6.936523
997.1530, 5.777039
997.6351, 7.191650
998.1172, 15.65222
998.5993, 4.147522
999.0814, 11.20074
999.5635, 12.30536
1000.046, 3.797852
1000.528, 1.588196
1001.010, 10.61053
1001.492, 16.75806
1001.974, 7.452393
1002.456, 0.8306880
1002.938, 13.89032
1003.420, 29.65430
1003.903, 26.72186
1004.385, 11.77643
1004.867, 6.972961
1005.349, 19.21564
1005.831, 31.20587
1006.313, 36.40790
1006.795, 37.63147
1007.277, 32.40411
1007.759, 27.26135
1008.242, 31.48840
1008.724, 41.22815
1009.206, 43.71143
1009.688, 34.31042
1010.170, 28.78430
1010.652, 37.95349
1011.134, 48.29010
1011.616, 53.98865
1012.099, 55.57831
1012.581, 51.02008
1013.063, 43.50830
1013.545, 41.26660
1014.027, 47.24078
1014.509, 51.57556
1014.991, 47.10095
1015.473, 43.89685
1015.955, 50.83368
1016.438, 58.63116
1016.920, 58.53186
1017.402, 51.47278
1017.884, 39.98444
1018.366, 23.04840
1018.848, 14.64917
1019.330, 30.90686
1019.812, 42.84009
1020.294, 32.78284
1020.777, 15.63031
1021.259, 1.751709
1021.741, 6.905518
1022.223, 7.158325
1022.705, 3.200256
1023.187, 8.958740
1023.669, 2.210510
1024.151, 8.734253
1024.634, 5.684753
1025.116, 21.43433
1025.598, 20.80176
1026.080, 8.880371
1026.562, 2.347351
1027.044, 11.80566
1027.526, 13.67432
1028.008, 0.2780150
1028.490, 12.64655
1028.973, 17.28589
1029.455, 18.93127
1029.937, 23.05298
1030.419, 26.26935
1030.901, 18.51703
1031.383, 3.837646
1031.865, 13.34033
1032.347, 7.366638
1032.830, 22.61090
1033.312, 18.89337
1033.794, 12.36847
1034.276, 15.69159
1034.758, 22.49945
1035.240, 18.72217
1035.722, 1.773376
1036.204, 5.414063
1036.687, 9.667419
1037.169, 18.39020
1037.651, 10.72058
1038.133, 2.342102
1038.615, 2.859863
1039.097, 7.396423
1039.579, 8.435974
1040.061, 5.774231
1040.543, 4.002075
1041.026, 3.574341
1041.508, 3.202576
1041.990, 2.712830
1042.472, 2.237183
1042.954, 0.4196780
1043.436, 5.6334998E-02
1043.918, 6.249146
1044.400, 18.51318
1044.882, 24.81116
1045.365, 23.50189
1045.847, 19.77332
1046.329, 11.40643
1046.811, 6.970398
1047.293, 11.14313
1047.775, 17.29926
1048.257, 16.65771
1048.739, 10.66541
1049.222, 12.43481
1049.704, 25.31842
1050.186, 32.53363
1050.668, 31.64325
1051.150, 29.96039
1051.632, 30.99677
1052.114, 31.04944
1052.596, 23.79785
1053.078, 13.11139
1053.561, 14.85004
1054.043, 30.31665
1054.525, 40.12653
1055.007, 43.20221
1055.489, 43.84705
1055.971, 42.85181
1056.453, 45.40472
1056.935, 55.88464
1057.417, 67.47314
1057.900, 62.88763
1058.382, 43.86591
1058.864, 30.64062
1059.346, 23.53363
1059.828, 23.59174
1060.310, 30.77148
1060.792, 34.07648
1061.274, 25.74860
1061.757, 13.21558
1062.239, 6.333862
1062.721, 5.485352
1063.203, 16.50806
1063.685, 35.02673
1064.167, 39.24701
1064.649, 27.99408
1065.131, 21.92999
1065.614, 31.81390
1066.096, 42.48004
1066.578, 32.99164
1067.060, 15.18121
1067.542, 8.954895
1068.024, 11.88049
1068.506, 23.18640
1068.988, 38.50592
1069.470, 43.22858
1069.953, 32.61163
1070.435, 22.46588
1070.917, 26.52271
1071.399, 36.06647
1071.881, 44.93213
1072.363, 51.22644
1072.845, 50.33093
1073.327, 45.28125
1073.809, 42.42743
1074.292, 43.50812
1074.774, 47.87268
1075.256, 57.51428
1075.738, 65.98346
1076.220, 69.22296
1076.702, 69.63470
1077.184, 70.19653
1077.666, 68.82593
1078.148, 59.17932
1078.631, 43.33264
1079.113, 35.78943
1079.595, 44.83185
1080.077, 51.89386
1080.559, 47.38733
1081.041, 43.85748
1081.523, 50.17059
1082.005, 58.45868
1082.488, 60.99280
1082.970, 58.83435
1083.452, 58.42389
1083.934, 59.66302
1084.416, 65.10706
1084.898, 82.86108
1085.380, 93.44128
1085.862, 88.06085
1086.344, 79.83136
1086.827, 76.56116
1087.309, 77.01056
1087.791, 79.33038
1088.273, 83.85889
1088.755, 85.87445
1089.237, 82.37177
1089.719, 83.84406
1090.201, 95.56384
1090.683, 105.9573
1091.166, 109.0143
1091.648, 109.3958
1092.130, 113.6039
1092.612, 120.4832
1093.094, 121.5939
1093.576, 116.3538
1094.058, 113.7573
1094.540, 115.1520
1095.023, 120.0771
1095.505, 128.7597
1095.987, 134.8104
1096.469, 132.2855
1096.951, 126.3545
1097.433, 128.1310
1097.915, 136.5389
1098.397, 149.2421
1098.880, 164.2569
1099.362, 171.3283
1099.844, 168.9457
1100.326, 163.3671
1100.808, 157.8365
1101.290, 155.7073
1101.772, 164.3416
1102.254, 176.6121
1102.736, 179.9152
1103.219, 178.7624
1103.701, 181.9388
1104.183, 189.7764
1104.665, 198.9907
1105.147, 208.1315
1105.629, 213.3591
1106.111, 209.1439
1106.593, 204.2715
1107.075, 205.1682
1107.558, 209.2316
1108.040, 214.0106
1108.522, 219.6400
1109.004, 228.1235
1109.486, 238.8752
1109.968, 245.4558
1110.450, 242.3604
1110.932, 242.0415
1111.415, 251.8544
1111.897, 260.6312
1112.379, 261.0050
1112.861, 259.5216
1113.343, 263.6874
1113.825, 271.7938
1114.307, 276.5776
1114.789, 277.8751
1115.271, 274.2194
1115.754, 260.3672
1116.236, 252.8103
1116.718, 260.2578
1117.200, 264.6003
1117.682, 252.8050
1118.164, 233.8978
1118.646, 222.7712
1119.128, 219.3408
1119.610, 220.4129
1120.093, 227.2673
1120.575, 222.1964
1121.057, 202.0148
1121.539, 190.2450
1122.021, 196.4925
1122.503, 207.5468
1122.985, 211.7983
1123.467, 209.7569
1123.950, 199.7581
1124.432, 184.8034
1124.914, 176.6064
1125.396, 173.5433
1125.878, 167.7951
1126.360, 157.9891
1126.842, 146.6461
1127.324, 134.9713
1127.807, 124.9669
1128.289, 117.3188
1128.771, 113.8548
1129.253, 122.2484
1129.735, 132.3728
1130.217, 126.8228
1130.699, 111.3672
1131.181, 103.8616
1131.663, 108.3953
1132.146, 113.9559
1132.628, 119.6658
1133.110, 119.4692
1133.592, 105.7166
1134.074, 91.16980
1134.556, 85.10107
1135.038, 81.90387
1135.520, 72.85828
1136.002, 59.68182
1136.485, 53.87878
1136.967, 59.78583
1137.449, 63.79938
1137.931, 64.69525
1138.413, 65.93774
1138.895, 70.74573
1139.377, 70.79755
1139.859, 57.44666
1140.342, 41.57080
1140.824, 43.66846
1141.306, 61.37250
1141.788, 63.44025
1142.270, 48.90643
1142.752, 38.10052
1143.234, 33.09375
1143.716, 29.74713
1144.198, 26.42529
1144.681, 23.85840
1145.163, 22.78235
1145.645, 22.51599
1146.127, 21.69489
1146.609, 20.77588
1147.091, 19.83130
1147.573, 20.03607
1148.055, 28.26605
1148.537, 41.48187
1149.020, 41.17731
1149.502, 18.84467
1149.984, 4.7667999E-02
1150.466, 9.951050
1150.948, 22.56299
1151.430, 16.89185
1151.912, 5.901428
1152.394, 1.401428
1152.877, 2.986145
1153.359, 6.770203
1153.841, 26.20996
1154.323, 34.55719
1154.805, 18.82721
1155.287, 8.329590
1155.769, 11.81513
1156.251, 14.40753
1156.734, 10.29980
1157.216, 4.926086
1157.698, 1.939758
1158.180, 1.067078
1158.662, 1.993103
1159.144, 4.880310
1159.626, 3.161804
1160.108, 4.476624
1160.590, 5.876343
1161.073, 1.042664
1161.555, 9.445740
1162.037, 16.82050
1162.519, 18.48193
1163.001, 8.028870
1163.483, 6.018066
1163.965, 3.575989
1164.447, 8.214844
1164.929, 9.759094
1165.412, 4.057861
1165.894, 2.529663
1166.376, 6.392944
1166.858, 10.16675
1167.340, 11.48462
1167.822, 11.49017
1168.304, 11.27570
1168.786, 9.711487
1169.269, 4.649902
1169.751, 0.8812260
1170.233, 3.910950
1170.715, 5.407959
1171.197, 8.225647
1171.679, 12.06494
1172.161, 12.10645
1172.643, 5.125793
1173.125, 0.7659910
1173.608, 8.146790
1174.090, 8.972229
1174.572, 4.314270
1175.054, 15.66089
1175.536, 13.54022
1176.018, 2.787170
1176.500, 9.150208
1176.982, 21.64032
1177.464, 25.63165
1177.947, 21.15424
1178.429, 16.34192
1178.911, 12.36542
1179.393, 17.75769
1179.875, 34.70294
1180.357, 46.30890
1180.839, 38.89044
1181.321, 23.80817
1181.804, 13.20709
1182.286, 7.686951
1182.768, 10.12695
1183.250, 15.85699
1183.732, 16.86877
1184.214, 13.71729
1184.696, 11.00391
1185.178, 10.02594
1185.661, 9.430969
1186.143, 8.594055
1186.625, 8.115723
1187.107, 5.156189
1187.589, 6.207642
1188.071, 22.24408
1188.553, 37.95953
1189.035, 33.73218
1189.517, 16.85474
1190.000, 9.255554
1190.482, 11.90228
1190.964, 18.57245
1191.446, 32.03278
1191.928, 34.91779
1192.410, 23.06000
1192.892, 12.66858
1193.374, 11.36511
1193.856, 12.66620
1194.339, 9.216431
1194.821, 5.620483
1195.303, 15.07947
1195.785, 30.18030
1196.267, 29.16345
1196.749, 18.78925
1197.231, 19.85510
1197.713, 32.44128
1198.196, 41.85699
1198.678, 42.42462
1199.160, 39.00806
1199.642, 32.59625
1200.124, 25.55219
1200.606, 16.22357
1201.088, 9.881897
1201.570, 13.64972
1202.052, 20.40192
1202.535, 20.09161
1203.017, 13.87671
1203.499, 10.51196
1203.981, 10.33771
1204.463, 11.99786
1204.945, 16.77661
1205.427, 19.03729
1205.909, 17.50049
1206.391, 14.23920
1206.874, 9.682617
1207.356, 8.139832
1207.838, 16.00507
1208.320, 26.86322
1208.802, 22.18829
1209.284, 9.010254
1209.766, 9.333984
1210.248, 18.72852
1210.731, 22.04834
1211.213, 18.82391
1211.695, 17.63879
1212.177, 22.08051
1212.659, 26.22461
1213.141, 26.17365
1213.623, 25.66937
1214.105, 29.10602
1214.588, 30.15350
1215.070, 19.64630
1215.552, 6.882019
1216.034, 9.231934
1216.516, 21.91260
1216.998, 25.13556
1217.480, 16.88245
1217.962, 15.53046
1218.444, 22.66589
1218.927, 28.51166
1219.409, 31.61194
1219.891, 30.91626
1220.373, 24.81873
1220.855, 20.17169
1221.337, 24.52673
1221.819, 33.58020
1222.301, 33.41809
1222.783, 25.84760
1223.266, 23.63922
1223.748, 25.44763
1224.230, 20.25226
1224.712, 10.51086
1225.194, 9.256653
1225.676, 20.11584
1226.158, 27.78943
1226.640, 23.68042
1227.122, 17.53467
1227.605, 6.742371
1228.087, 1.515930
1228.569, 13.19354
1229.051, 26.70911
1229.533, 27.42841
1230.015, 22.28143
1230.497, 29.45233
1230.979, 49.01349
1231.462, 47.84576
1231.944, 24.30115
1232.426, 10.48157
1232.908, 9.426758
1233.390, 13.56372
1233.872, 19.90918
1234.354, 26.92828
1234.836, 34.13342
1235.318, 37.29242
1235.801, 27.94275
1236.283, 15.23090
1236.765, 7.165100
1237.247, 4.251221
1237.729, 12.39581
1238.211, 23.81421
1238.693, 21.33521
1239.175, 4.728210
1239.657, 5.000244
1240.140, 2.325256
1240.622, 3.564209
1241.104, 16.88000
1241.586, 23.06354
1242.068, 15.57172
1242.550, 8.513611
1243.032, 9.427246
1243.514, 15.96271
1243.997, 26.21613
1244.479, 37.07880
1244.961, 39.32794
1245.443, 34.62146
1245.925, 27.22687
1246.407, 19.05133
1246.889, 14.51471
1247.371, 14.39612
1247.854, 19.02979
1248.336, 28.46558
1248.818, 36.01691
1249.300, 36.98395
1249.782, 36.03833
1250.264, 32.89142
1250.746, 30.67230
1251.228, 32.95630
1251.710, 35.53369
1252.193, 33.18341
1252.675, 28.59967
1253.157, 28.56671
1253.639, 33.02698
1254.121, 30.82086
1254.603, 21.10724
1255.085, 21.04010
1255.567, 33.74585
1256.049, 45.06073
1256.532, 49.77472
1257.014, 45.22589
1257.496, 28.62866
1257.978, 13.70026
1258.460, 18.60052
1258.942, 28.39313
1259.424, 26.20380
1259.906, 21.70300
1260.389, 29.72211
1260.871, 40.47406
1261.353, 33.39380
1261.835, 11.50775
1262.317, 3.477234
1262.799, 17.38123
1263.281, 25.38287
1263.763, 25.78979
1264.245, 24.21173
1264.728, 20.39703
1265.210, 21.05371
1265.692, 30.02325
1266.174, 34.04382
1266.656, 19.16547
1267.138, 0.3597410
1267.620, 0.3955690
1268.102, 10.85419
1268.584, 21.95172
1269.067, 19.72772
1269.549, 12.38000
1270.031, 0.0000000E+00
##END=



