##NAMES=Trilithionite
##RRUFFID=R060004
##IDEAL CHEMISTRY=KLi_1.5_Al_1.5_(Si_3_Al)O_10_F_2_
##LOCALITY=Mount Begbie, Revelstoke, British Columbia, Canada
##OWNER=RRUFF
##SOURCE=Bob Downs
##DESCRIPTION=Aggregate of coarse purple crystals associated with elbaite, R060003
##STATUS=The identification of this mineral has been confirmed by X-ray diffraction and chemical analysis
##URL=rruff.info/R060004
##MEASURED CHEMISTRY=(K_0.99_[box]_0.01_)(Li_0.56_Al_0.43_Mn_0.01_)_3_(Si_0.85_Al_0.15_)_4_O_10_(F_0.54_(OH)_0.46_)_2_
112.8305, 0.0000000E+00
113.3126, 9.7397000E-02
113.7947, 0.1131970
114.2769, 0.1313710
114.7590, 3.7280999E-02
115.2411, 3.5510000E-03
115.7232, 8.0302998E-02
116.2053, 0.2905650
116.6874, 0.4972150
117.1695, 0.5956610
117.6517, 0.5906070
118.1338, 0.5512280
118.6159, 0.4340210
119.0980, 0.3281750
119.5801, 0.2936940
120.0622, 0.3689840
120.5444, 0.5162850
121.0265, 0.7177350
121.5086, 0.9729920
121.9907, 1.153385
122.4728, 1.203449
122.9549, 1.142147
123.4371, 1.030727
123.9192, 0.9051780
124.4013, 0.8309440
124.8834, 0.8088870
125.3655, 0.8111500
125.8476, 0.8098220
126.3298, 0.7468030
126.8119, 0.6361960
127.2940, 0.6923520
127.7761, 0.7408490
128.2582, 0.8026390
128.7404, 1.004940
129.2225, 1.178852
129.7046, 1.326904
130.1867, 1.407532
130.6688, 1.410091
131.1509, 1.415878
131.6331, 1.348164
132.1152, 1.260380
132.5973, 1.237309
133.0794, 1.325764
133.5615, 1.513233
134.0436, 1.540688
134.5258, 1.135834
135.0079, 0.7920880
135.4900, 0.5686110
135.9721, 0.4591330
136.4542, 0.4520190
136.9363, 0.5544360
137.4184, 0.7543640
137.9006, 0.8548130
138.3827, 0.8278500
138.8648, 0.7539790
139.3469, 0.6656760
139.8290, 0.5646020
140.3111, 0.4348680
140.7933, 0.2316440
141.2754, 2.1774000E-02
141.7575, 0.1554340
142.2396, 4.2293999E-02
142.7217, 0.1379240
143.2038, 0.1723400
143.6860, 1.7879000E-02
144.1681, 0.1442600
144.6502, 0.1359440
145.1323, 1.7937001E-02
145.6144, 8.4953003E-02
146.0965, 0.1184200
146.5787, 9.7561002E-02
147.0608, 6.8530999E-02
147.5429, 3.0602001E-02
148.0250, 1.3611000E-02
148.5071, 7.0854001E-02
148.9892, 0.1343270
149.4714, 0.1858670
149.9535, 0.2101140
150.4356, 0.2059170
150.9177, 0.1907580
151.3998, 0.1644550
151.8819, 0.1260030
152.3641, 5.5222001E-02
152.8462, 3.7326999E-02
153.3283, 0.1121600
153.8104, 0.1134990
154.2925, 7.9309996E-03
154.7746, 6.2008001E-02
155.2568, 4.8950002E-02
155.7389, 1.4217000E-02
156.2210, 0.1420860
156.7031, 0.3267170
157.1852, 0.5205920
157.6673, 0.6471140
158.1495, 0.6460490
158.6316, 0.6741560
159.1137, 0.6827430
159.5958, 0.7397380
160.0779, 0.9356990
160.5600, 1.306122
161.0422, 1.768143
161.5243, 2.151665
162.0064, 2.423515
162.4885, 2.708527
162.9706, 3.008038
163.4527, 3.340164
163.9349, 3.763329
164.4170, 4.341370
164.8991, 4.957966
165.3812, 5.389473
165.8633, 5.590603
166.3454, 5.782898
166.8276, 6.103844
167.3097, 6.539467
167.7918, 6.956425
168.2739, 7.254715
168.7560, 7.542004
169.2381, 7.947388
169.7203, 8.513538
170.2024, 9.096230
170.6845, 9.561722
171.1666, 9.853504
171.6487, 10.15736
172.1308, 10.51793
172.6130, 10.92637
173.0951, 11.39097
173.5772, 11.92041
174.0593, 12.48330
174.5414, 13.02417
175.0235, 13.51789
175.5057, 14.04010
175.9878, 14.67311
176.4699, 15.30624
176.9520, 15.83981
177.4341, 16.22541
177.9162, 16.49432
178.3984, 16.75081
178.8805, 17.06386
179.3626, 17.26236
179.8447, 17.32347
180.3268, 17.26689
180.8089, 17.11013
181.2911, 16.86092
181.7732, 16.52966
182.2553, 16.16903
182.7374, 15.84060
183.2195, 15.41658
183.7016, 14.85086
184.1838, 14.17236
184.6659, 13.41796
185.1480, 12.59312
185.6301, 11.71461
186.1122, 10.96175
186.5943, 10.40498
187.0765, 9.873516
187.5586, 9.278019
188.0407, 8.646481
188.5228, 8.075733
189.0049, 7.641644
189.4870, 7.332108
189.9692, 7.006916
190.4513, 6.635876
190.9334, 6.276146
191.4155, 5.963951
191.8976, 5.698795
192.3797, 5.458290
192.8619, 5.246311
193.3440, 5.047451
193.8261, 4.820961
194.3082, 4.525295
194.7903, 4.231953
195.2724, 4.020409
195.7546, 3.896866
196.2367, 3.804802
196.7188, 3.729736
197.2009, 3.661346
197.6830, 3.586849
198.1651, 3.508549
198.6473, 3.414433
199.1294, 3.272644
199.6115, 3.067669
200.0936, 2.882488
200.5757, 2.742031
201.0578, 2.633793
201.5400, 2.562145
202.0221, 2.572250
202.5042, 2.600708
202.9863, 2.407719
203.4684, 1.802681
203.9505, 1.276955
204.4327, 1.006599
204.9148, 0.8922040
205.3969, 0.7945520
205.8790, 0.6318930
206.3611, 0.4243050
206.8432, 0.2753140
207.3254, 0.2181430
207.8075, 0.1923940
208.2896, 0.1932600
208.7717, 0.2160030
209.2538, 0.2581370
209.7359, 0.3203810
210.2181, 0.4020160
210.7002, 0.4754410
211.1823, 0.5171010
211.6644, 0.5646670
212.1465, 0.6298480
212.6286, 0.7034340
213.1108, 0.7757570
213.5929, 0.8416180
214.0750, 0.8977930
214.5571, 0.9246030
215.0392, 0.9132960
215.5213, 0.8852040
216.0035, 0.8474660
216.4856, 0.7974590
216.9677, 0.7320100
217.4498, 0.6506460
217.9319, 0.5521430
218.4140, 0.4035840
218.8961, 0.1395800
219.3783, 9.5016003E-02
219.8604, 0.2342340
220.3425, 0.2957000
220.8246, 0.3458600
221.3067, 0.4385680
221.7888, 0.5519220
222.2710, 0.5547710
222.7531, 0.3651660
223.2352, 0.1581880
223.7173, 4.2537998E-02
224.1994, 3.3990000E-03
224.6815, 9.0934999E-02
225.1637, 0.2911000
225.6458, 0.5898060
226.1279, 0.8958280
226.6100, 1.208492
227.0921, 1.528446
227.5742, 1.875553
228.0564, 2.242989
228.5385, 2.564575
229.0206, 2.754906
229.5027, 2.896458
229.9848, 3.163830
230.4669, 3.631050
230.9491, 4.142071
231.4312, 4.549633
231.9133, 4.853588
232.3954, 5.190716
232.8775, 5.660477
233.3596, 6.182838
233.8418, 6.648861
234.3239, 7.034554
234.8060, 7.390656
235.2881, 7.752552
235.7702, 8.114567
236.2523, 8.537689
236.7345, 9.088036
237.2166, 9.691170
237.6987, 10.28643
238.1808, 10.86381
238.6629, 11.42498
239.1451, 11.94638
239.6272, 12.40738
240.1093, 12.94166
240.5914, 13.66164
241.0735, 14.42813
241.5556, 15.13674
242.0378, 15.76457
242.5199, 16.37006
243.0020, 17.04821
243.4841, 17.82326
243.9662, 18.56635
244.4483, 19.22838
244.9305, 19.86977
245.4126, 20.52749
245.8947, 21.20904
246.3768, 21.90921
246.8589, 22.63674
247.3410, 23.42465
247.8232, 24.13065
248.3053, 24.68183
248.7874, 25.19999
249.2695, 25.74956
249.7516, 26.34579
250.2337, 26.97433
250.7159, 27.62893
251.1980, 28.34386
251.6801, 28.98899
252.1622, 29.44879
252.6443, 29.93406
253.1264, 30.55033
253.6086, 31.31976
254.0907, 32.22388
254.5728, 33.26311
255.0549, 34.53659
255.5370, 35.65038
256.0191, 36.49005
256.5013, 37.29430
256.9834, 38.17928
257.4655, 39.15554
257.9476, 40.17017
258.4297, 41.17511
258.9118, 42.19869
259.3940, 43.09377
259.8761, 43.84428
260.3582, 44.50913
260.8403, 45.17889
261.3224, 45.81253
261.8045, 46.26588
262.2867, 46.40014
262.7688, 46.19205
263.2509, 45.77114
263.7330, 45.24792
264.2151, 44.47486
264.6972, 43.30453
265.1794, 41.80093
265.6615, 40.15126
266.1436, 38.51379
266.6257, 36.88562
267.1078, 35.19306
267.5899, 33.32616
268.0721, 31.49938
268.5542, 29.82751
269.0363, 28.27976
269.5184, 26.72976
270.0005, 25.08845
270.4826, 23.36625
270.9648, 21.80682
271.4469, 20.42734
271.9290, 19.15041
272.4111, 17.98434
272.8932, 16.90273
273.3753, 15.82552
273.8575, 14.69479
274.3396, 13.55138
274.8217, 12.61893
275.3038, 12.01575
275.7859, 11.43582
276.2680, 10.73973
276.7502, 10.00168
277.2323, 9.382915
277.7144, 8.975822
278.1965, 8.709435
278.6786, 8.355114
279.1607, 7.857079
279.6429, 7.391190
280.1250, 7.014091
280.6071, 6.709591
281.0892, 6.441624
281.5713, 6.192738
282.0534, 5.970375
282.5356, 5.802708
283.0177, 5.701511
283.4998, 5.577354
283.9819, 5.362427
284.4640, 5.129246
284.9461, 5.004154
285.4283, 5.031487
285.9104, 5.114681
286.3925, 5.118355
286.8746, 5.037880
287.3567, 4.958965
287.8388, 4.919529
288.3210, 4.882793
288.8031, 4.776382
289.2852, 4.578533
289.7673, 4.413982
290.2494, 4.457668
290.7315, 4.689590
291.2137, 4.837997
291.6958, 4.817886
292.1779, 4.714897
292.6600, 4.588100
293.1421, 4.443535
293.6242, 4.373375
294.1064, 4.513653
294.5885, 4.808693
295.0706, 4.967014
295.5527, 4.858372
296.0348, 4.677315
296.5169, 4.582863
296.9991, 4.573570
297.4812, 4.587643
297.9633, 4.609592
298.4454, 4.630478
298.9275, 4.620644
299.4096, 4.565647
299.8918, 4.494957
300.3739, 4.404591
300.8560, 4.303902
301.3381, 4.273312
301.8202, 4.406078
302.3023, 4.583160
302.7845, 4.554123
303.2666, 4.222862
303.7487, 3.923767
304.2308, 3.907433
304.7129, 4.092884
305.1950, 4.185215
305.6772, 4.065399
306.1593, 3.844986
306.6414, 3.688766
307.1235, 3.601616
307.6056, 3.509926
308.0877, 3.362732
308.5699, 3.188438
309.0520, 3.061684
309.5341, 3.014698
310.0162, 2.975128
310.4983, 2.842224
310.9804, 2.630917
311.4626, 2.450611
311.9447, 2.346931
312.4268, 2.291229
312.9089, 2.228783
313.3910, 2.144459
313.8731, 2.101791
314.3553, 2.209084
314.8374, 2.410408
315.3195, 2.522610
315.8016, 2.428364
316.2837, 2.275791
316.7658, 2.252869
317.2480, 2.367630
317.7301, 2.430485
318.2122, 2.272205
318.6943, 1.992775
319.1764, 1.842873
319.6585, 1.918053
320.1407, 2.029694
320.6228, 2.046459
321.1049, 1.975567
321.5870, 1.857258
322.0691, 1.674324
322.5512, 1.484715
323.0334, 1.387600
323.5155, 1.401760
323.9976, 1.446148
324.4797, 1.498211
324.9618, 1.549629
325.4439, 1.574314
325.9261, 1.562931
326.4082, 1.525734
326.8903, 1.477821
327.3724, 1.421928
327.8545, 1.337120
328.3366, 1.160408
328.8188, 0.9653050
329.3009, 0.9032330
329.7830, 1.023483
330.2651, 1.147121
330.7472, 1.068024
331.2293, 0.8258590
331.7115, 0.6325870
332.1936, 0.5366670
332.6757, 0.5010300
333.1578, 0.5184100
333.6399, 0.5874100
334.1220, 0.6065330
334.6042, 0.4784970
335.0863, 0.2473640
335.5684, 9.3662001E-02
336.0505, 7.5839996E-02
336.5326, 8.2180001E-02
337.0147, 4.6496999E-02
337.4969, 2.5715001E-02
337.9790, 0.1125260
338.4611, 0.2108880
338.9432, 0.3110200
339.4253, 0.4013140
339.9074, 0.5027200
340.3896, 0.5472450
340.8717, 0.4327890
341.3538, 0.2511410
341.8359, 0.2110980
342.3180, 0.3961180
342.8001, 0.6474420
343.2822, 0.7303920
343.7643, 0.6348000
344.2465, 0.5430070
344.7286, 0.4881630
345.2107, 0.4538800
345.6928, 0.4111900
346.1749, 0.3566930
346.6570, 0.3396000
347.1392, 0.4271770
347.6213, 0.6206970
348.1034, 0.7144700
348.5855, 0.6496730
349.0676, 0.5350950
349.5497, 0.4149700
350.0319, 0.3001210
350.5140, 0.2264900
350.9961, 0.2261660
351.4782, 0.2779880
351.9603, 0.2803540
352.4424, 0.1960910
352.9246, 0.1168630
353.4067, 9.2876002E-02
353.8888, 8.9377999E-02
354.3709, 3.8509000E-02
354.8530, 8.8734001E-02
355.3351, 0.2559360
355.8173, 0.3940580
356.2994, 0.4894600
356.7815, 0.5895350
357.2636, 0.7283630
357.7457, 0.8571280
358.2278, 0.8997310
358.7100, 0.8528900
359.1921, 0.8233340
359.6742, 0.9408760
360.1563, 1.247189
360.6384, 1.443577
361.1205, 1.462299
361.6027, 1.445072
362.0848, 1.434570
362.5669, 1.449837
363.0490, 1.529579
363.5311, 1.709244
364.0132, 1.971020
364.4954, 2.166237
364.9775, 2.204201
365.4596, 2.286224
365.9417, 2.498692
366.4238, 2.764168
366.9059, 2.967335
367.3881, 3.062447
367.8702, 3.104916
368.3523, 3.207996
368.8344, 3.394844
369.3165, 3.612637
369.7986, 3.909161
370.2808, 4.201752
370.7629, 4.418526
371.2450, 4.557087
371.7271, 4.675171
372.2092, 4.835098
372.6913, 5.046886
373.1735, 5.242580
373.6556, 5.385487
374.1377, 5.549587
374.6198, 5.775684
375.1019, 6.043720
375.5840, 6.307774
376.0662, 6.539284
376.5483, 6.743076
377.0304, 6.938114
377.5125, 7.133224
377.9946, 7.303883
378.4767, 7.413162
378.9589, 7.513130
379.4410, 7.653969
379.9231, 7.852345
380.4052, 8.091324
380.8873, 8.353889
381.3694, 8.651901
381.8516, 8.931751
382.3337, 9.211880
382.8158, 9.454544
383.2979, 9.626297
383.7800, 9.735561
384.2621, 9.821033
384.7443, 9.883312
385.2264, 9.933475
385.7085, 10.12756
386.1906, 10.57987
386.6727, 11.01461
387.1548, 11.32980
387.6370, 11.55862
388.1191, 11.73335
388.6012, 11.84465
389.0833, 11.95583
389.5654, 12.20380
390.0475, 12.62735
390.5297, 13.01159
391.0118, 13.24063
391.4939, 13.43251
391.9760, 13.67382
392.4581, 13.97592
392.9402, 14.30732
393.4224, 14.66751
393.9045, 15.04764
394.3866, 15.35939
394.8687, 15.54202
395.3508, 15.72645
395.8329, 16.04408
396.3151, 16.45427
396.7972, 16.82833
397.2793, 17.09367
397.7614, 17.30652
398.2435, 17.47018
398.7256, 17.59469
399.2078, 17.89463
399.6899, 18.15671
400.1720, 18.36901
400.6541, 18.41357
401.1362, 18.64888
401.6183, 18.81153
402.1005, 18.97670
402.5826, 19.25461
403.0647, 19.33303
403.5468, 19.61398
404.0289, 19.81856
404.5110, 19.75195
404.9932, 19.82616
405.4753, 19.80992
405.9574, 19.63923
406.4395, 19.41567
406.9216, 19.22571
407.4037, 19.07665
407.8859, 18.94751
408.3680, 18.83414
408.8501, 18.72234
409.3322, 18.51053
409.8143, 18.14898
410.2964, 17.76976
410.7786, 17.41862
411.2607, 17.07595
411.7428, 16.70498
412.2249, 16.29588
412.7070, 15.86523
413.1891, 15.43144
413.6713, 14.95163
414.1534, 14.54810
414.6355, 14.29378
415.1176, 14.05855
415.5997, 13.73059
416.0818, 13.31639
416.5640, 12.92020
417.0461, 12.65059
417.5282, 12.51207
418.0103, 12.24694
418.4924, 11.69922
418.9745, 11.18938
419.4567, 10.79322
419.9388, 10.47469
420.4209, 10.17385
420.9030, 9.866230
421.3851, 9.571579
421.8672, 9.341640
422.3494, 9.210129
422.8315, 9.055275
423.3136, 8.810974
423.7957, 8.581459
424.2778, 8.440762
424.7599, 8.383804
425.2421, 8.345829
425.7242, 8.253208
426.2063, 8.119507
426.6884, 8.092262
427.1705, 8.242287
427.6526, 8.381653
428.1348, 8.427299
428.6169, 8.413292
429.0990, 8.378204
429.5811, 8.321548
430.0632, 8.282394
430.5453, 8.311993
431.0275, 8.411144
431.5096, 8.546448
431.9917, 8.737953
432.4738, 8.933418
432.9559, 9.081654
433.4380, 9.182976
433.9202, 9.262325
434.4023, 9.302753
434.8844, 9.337044
435.3665, 9.418613
435.8486, 9.551998
436.3307, 9.738640
436.8129, 10.01196
437.2950, 10.34112
437.7771, 10.59698
438.2592, 10.76080
438.7413, 10.87618
439.2234, 10.95068
439.7056, 10.99696
440.1877, 11.04886
440.6698, 11.12334
441.1519, 11.18384
441.6340, 11.15526
442.1161, 10.97125
442.5983, 10.87906
443.0804, 10.99238
443.5625, 11.13855
444.0446, 11.18479
444.5267, 11.13062
445.0089, 11.04184
445.4910, 10.95807
445.9731, 10.88286
446.4552, 10.87021
446.9373, 10.99706
447.4194, 11.09458
447.9016, 11.16723
448.3837, 11.20538
448.8658, 11.16621
449.3479, 11.02786
449.8300, 10.83547
450.3121, 10.67793
450.7943, 10.57427
451.2764, 10.46952
451.7585, 10.37475
452.2406, 10.27676
452.7227, 10.15404
453.2048, 10.02259
453.6870, 9.923611
454.1691, 9.892567
454.6512, 9.892361
455.1333, 9.812820
455.6154, 9.619473
456.0975, 9.455887
456.5797, 9.419411
457.0618, 9.397446
457.5439, 9.279404
458.0260, 9.052006
458.5081, 8.847748
458.9902, 8.812195
459.4724, 8.887943
459.9545, 8.849010
460.4366, 8.632938
460.9187, 8.410172
461.4008, 8.334595
461.8829, 8.351967
462.3651, 8.331814
462.8472, 8.224037
463.3293, 8.101742
463.8114, 8.028280
464.2935, 7.988396
464.7756, 7.926533
465.2578, 7.821671
465.7399, 7.687258
466.2220, 7.538818
466.7041, 7.362623
467.1862, 7.226793
467.6683, 7.121132
468.1505, 7.071238
468.6326, 7.117300
469.1147, 7.247208
469.5968, 7.408478
470.0789, 7.574160
470.5610, 7.732851
471.0432, 7.806879
471.5253, 7.695944
472.0074, 7.622406
472.4895, 7.638817
472.9716, 7.687983
473.4537, 7.729925
473.9359, 7.747280
474.4180, 7.715294
474.9001, 7.581730
475.3822, 7.323078
475.8643, 7.167845
476.3464, 7.263395
476.8286, 7.306759
477.3107, 7.201698
477.7928, 6.980331
478.2749, 6.688902
478.7570, 6.336191
479.2391, 5.965174
479.7213, 5.646257
480.2034, 5.380856
480.6855, 5.144743
481.1676, 4.936783
481.6497, 4.751554
482.1318, 4.615013
482.6140, 4.511868
483.0961, 4.336723
483.5782, 3.976734
484.0603, 3.539782
484.5424, 3.191792
485.0245, 2.940695
485.5067, 2.725027
485.9888, 2.522118
486.4709, 2.327318
486.9530, 2.124641
487.4351, 1.888885
487.9172, 1.699503
488.3994, 1.617399
488.8815, 1.582270
489.3636, 1.516409
489.8457, 1.404541
490.3278, 1.271381
490.8099, 1.138264
491.2921, 1.006371
491.7742, 0.8672280
492.2563, 0.6877610
492.7384, 0.5405940
493.2205, 0.4878330
493.7026, 0.4682750
494.1848, 0.3861870
494.6669, 0.2084220
495.1490, 2.8309999E-03
495.6311, 0.1482240
496.1132, 0.2052250
496.5953, 0.2675460
497.0775, 0.3520850
497.5596, 0.4265210
498.0417, 0.4914440
498.5238, 0.5352990
499.0059, 0.5291370
499.4880, 0.4422910
499.9702, 0.3269390
500.4523, 0.2937390
500.9344, 0.3552760
501.4165, 0.4200670
501.8986, 0.4775350
502.3807, 0.5145950
502.8629, 0.5129970
503.3450, 0.4741730
503.8271, 0.4362950
504.3092, 0.3861890
504.7913, 0.3612690
505.2734, 0.4720230
505.7556, 0.7221340
506.2377, 0.8670370
506.7198, 0.7311530
507.2019, 0.4067460
507.6840, 0.1837730
508.1661, 7.6660000E-02
508.6482, 2.5010999E-02
509.1303, 4.5418002E-02
509.6125, 9.6271999E-02
510.0946, 0.1378750
510.5767, 0.1605700
511.0588, 0.1643980
511.5409, 0.1535340
512.0231, 0.1277280
512.5052, 3.6511999E-02
512.9873, 0.2126290
513.4694, 0.4178100
513.9515, 0.5023170
514.4337, 0.5399800
514.9158, 0.6254600
515.3979, 0.7823830
515.8800, 0.9434300
516.3621, 1.018759
516.8442, 0.9994750
517.3264, 0.9838830
517.8085, 0.9503960
518.2906, 0.9521120
518.7727, 1.028297
519.2548, 1.147743
519.7369, 1.257900
520.2191, 1.339211
520.7012, 1.411726
521.1833, 1.491390
521.6654, 1.579620
522.1475, 1.692184
522.6296, 1.843664
523.1118, 1.998285
523.5939, 2.087656
524.0760, 2.126055
524.5581, 2.248816
525.0402, 2.603245
525.5223, 2.939293
526.0045, 3.067797
526.4866, 3.027903
526.9687, 2.936287
527.4508, 2.838322
527.9329, 2.745411
528.4150, 2.674150
528.8972, 2.595196
529.3793, 2.618662
529.8614, 2.819664
530.3435, 3.046270
530.8256, 3.226822
531.3077, 3.361567
531.7899, 3.471031
532.2720, 3.564240
532.7541, 3.652618
533.2362, 3.771358
533.7183, 3.940224
534.2004, 4.084169
534.6826, 4.089745
535.1647, 4.148287
535.6468, 4.430321
536.1289, 4.893154
536.6110, 5.309174
537.0931, 5.540644
537.5753, 5.641750
538.0574, 5.668234
538.5395, 5.612934
539.0216, 5.643181
539.5037, 5.851631
539.9858, 6.165428
540.4680, 6.479500
540.9501, 6.810444
541.4322, 7.068628
541.9143, 7.157715
542.3964, 7.210037
542.8785, 7.368332
543.3607, 7.626398
543.8428, 7.881721
544.3249, 8.062435
544.8070, 8.201332
545.2891, 8.421371
545.7712, 8.871172
546.2534, 9.195400
546.7355, 9.247238
547.2176, 9.274570
547.6997, 9.470114
548.1818, 9.828453
548.6639, 10.22926
549.1461, 10.58673
549.6282, 10.90306
550.1103, 11.18263
550.5924, 11.42893
551.0745, 11.63051
551.5566, 11.68803
552.0388, 11.76187
552.5209, 12.02717
553.0030, 12.48831
553.4851, 12.89062
553.9672, 13.04408
554.4493, 13.06695
554.9315, 13.17632
555.4136, 13.38437
555.8957, 13.59250
556.3778, 13.74398
556.8599, 13.86647
557.3420, 14.03943
557.8242, 14.31811
558.3063, 14.51280
558.7884, 14.52887
559.2705, 14.47699
559.7526, 14.45460
560.2347, 14.46727
560.7169, 14.46716
561.1990, 14.41594
561.6811, 14.33252
562.1632, 14.31651
562.6453, 14.48268
563.1274, 14.50021
563.6096, 14.24589
564.0917, 13.90922
564.5738, 13.64457
565.0559, 13.46058
565.5380, 13.25514
566.0201, 12.95361
566.5023, 12.57288
566.9844, 12.14523
567.4665, 11.65612
567.9486, 11.19536
568.4307, 10.82449
568.9128, 10.48201
569.3950, 10.07484
569.8771, 9.594261
570.3592, 9.146843
570.8413, 8.792931
571.3234, 8.463037
571.8055, 8.088024
572.2877, 7.672192
572.7698, 7.255796
573.2519, 6.858202
573.7340, 6.488670
574.2161, 6.182030
574.6982, 6.040474
575.1804, 5.776186
575.6625, 5.248011
576.1446, 4.729301
576.6267, 4.411224
577.1088, 4.247013
577.5909, 4.075006
578.0731, 3.799164
578.5552, 3.465401
579.0373, 3.162954
579.5194, 2.886034
580.0015, 2.676846
580.4836, 2.579752
580.9658, 2.519985
581.4479, 2.450554
581.9300, 2.383522
582.4121, 2.321573
582.8942, 2.295116
583.3763, 2.236193
583.8585, 2.029221
584.3406, 1.722202
584.8227, 1.506533
585.3048, 1.457390
585.7869, 1.507414
586.2690, 1.575321
586.7512, 1.671860
587.2333, 1.706413
587.7154, 1.601135
588.1975, 1.522383
588.6796, 1.575640
589.1617, 1.692783
589.6438, 1.745565
590.1259, 1.689962
590.6080, 1.612436
591.0901, 1.654032
591.5723, 1.835112
592.0544, 1.941677
592.5365, 1.920971
593.0186, 1.892740
593.5007, 1.918865
593.9828, 1.971252
594.4650, 2.001408
594.9471, 1.987768
595.4292, 1.982529
595.9113, 2.064375
596.3934, 2.186243
596.8755, 2.203423
597.3577, 2.092487
597.8398, 1.970554
598.3219, 1.930288
598.8040, 1.961592
599.2861, 1.995291
599.7682, 2.033190
600.2504, 2.071247
600.7325, 2.094992
601.2146, 2.128166
601.6967, 2.198790
602.1788, 2.304649
602.6609, 2.420853
603.1431, 2.530828
603.6252, 2.631247
604.1073, 2.700865
604.5894, 2.725388
605.0715, 2.756374
605.5536, 2.809771
606.0358, 2.871843
606.5179, 2.953817
607.0000, 3.045643
607.4821, 3.082876
607.9642, 2.946852
608.4464, 2.796707
608.9285, 2.878883
609.4106, 3.149452
609.8927, 3.331470
610.3748, 3.306643
610.8569, 3.191174
611.3391, 3.160532
611.8212, 3.251493
612.3033, 3.282682
612.7854, 3.215769
613.2675, 3.132963
613.7496, 3.049503
614.2318, 2.980961
614.7139, 2.961201
615.1960, 2.999102
615.6781, 3.037495
616.1602, 2.990917
616.6423, 2.854843
617.1245, 2.727108
617.6066, 2.584549
618.0887, 2.494034
618.5708, 2.556688
619.0529, 2.664635
619.5350, 2.658579
620.0172, 2.491013
620.4993, 2.306356
620.9814, 2.167585
621.4635, 2.071245
621.9456, 2.024734
622.4277, 2.023655
622.9099, 2.027372
623.3920, 2.015446
623.8741, 1.980572
624.3562, 1.895695
624.8383, 1.656078
625.3204, 1.522623
625.8026, 1.595881
626.2847, 1.685959
626.7668, 1.657564
627.2489, 1.538099
627.7310, 1.436768
628.2131, 1.417675
628.6953, 1.435379
629.1774, 1.406216
629.6595, 1.328478
630.1416, 1.252821
630.6237, 1.181372
631.1058, 1.125929
631.5880, 1.111212
632.0701, 1.122799
632.5522, 1.115284
633.0343, 1.097603
633.5164, 1.041094
633.9985, 0.8927990
634.4807, 0.7104760
634.9628, 0.5866180
635.4449, 0.5373610
635.9270, 0.5137040
636.4091, 0.4717060
636.8912, 0.4138220
637.3734, 0.3741190
637.8555, 0.4159260
638.3376, 0.3700160
638.8197, 0.1255170
639.3018, 0.1414220
639.7839, 0.3035850
640.2661, 0.3534470
640.7482, 0.3451230
641.2303, 0.2596470
641.7124, 0.1730480
642.1945, 0.2356830
642.6766, 0.4325700
643.1588, 0.5912590
643.6409, 0.6534770
644.1230, 0.6662410
644.6051, 0.6803420
645.0872, 0.6953140
645.5693, 0.7182460
646.0515, 0.7897640
646.5336, 0.8234040
647.0157, 0.7459640
647.4978, 0.6273310
647.9799, 0.5660650
648.4620, 0.5833260
648.9442, 0.6206170
649.4263, 0.6177230
649.9084, 0.5791650
650.3905, 0.5528140
650.8726, 0.5540030
651.3547, 0.5260280
651.8369, 0.4371530
652.3190, 0.3157790
652.8011, 0.1716860
653.2832, 4.8159999E-03
653.7653, 0.1047670
654.2474, 5.1135998E-02
654.7296, 1.2999000E-02
655.2117, 8.2096003E-02
655.6938, 0.2946450
656.1759, 0.4738660
656.6580, 0.5600010
657.1401, 0.6130260
657.6223, 0.7245080
658.1044, 0.9117010
658.5865, 1.053446
659.0686, 1.111984
659.5507, 1.165770
660.0328, 1.229691
660.5150, 1.300009
660.9971, 1.372646
661.4792, 1.446037
661.9613, 1.518612
662.4434, 1.582710
662.9255, 1.646093
663.4077, 1.727240
663.8898, 1.826504
664.3719, 1.935080
664.8540, 2.056015
665.3361, 2.172638
665.8182, 2.249315
666.3004, 2.262739
666.7825, 2.321705
667.2646, 2.456118
667.7467, 2.608032
668.2288, 2.745592
668.7109, 2.882364
669.1931, 3.055353
669.6752, 3.273798
670.1573, 3.482830
670.6394, 3.579781
671.1215, 3.581385
671.6036, 3.736904
672.0858, 4.109627
672.5679, 4.435764
673.0500, 4.538641
673.5321, 4.561852
674.0142, 4.707350
674.4963, 4.980673
674.9785, 5.346512
675.4606, 5.917917
675.9427, 6.472254
676.4248, 6.781483
676.9069, 6.923225
677.3890, 7.095581
677.8712, 7.380028
678.3533, 7.761118
678.8354, 8.236860
679.3175, 8.824165
679.7996, 9.336258
680.2817, 9.721342
680.7639, 10.11205
681.2460, 10.51192
681.7281, 10.96386
682.2102, 11.52584
682.6923, 12.21000
683.1744, 12.94557
683.6566, 13.70441
684.1387, 14.49108
684.6208, 15.33375
685.1029, 16.21574
685.5850, 17.08087
686.0671, 17.89644
686.5493, 18.70549
687.0314, 19.57014
687.5135, 20.47604
687.9956, 21.49940
688.4777, 22.71527
688.9598, 23.96152
689.4420, 25.14606
689.9241, 26.36953
690.4062, 27.76984
690.8883, 29.36106
691.3704, 30.96779
691.8525, 32.36086
692.3347, 33.71617
692.8168, 35.42972
693.2989, 37.48775
693.7810, 39.59719
694.2631, 41.66317
694.7452, 43.70641
695.2274, 45.73058
695.7095, 47.70435
696.1916, 49.89193
696.6737, 52.39749
697.1558, 54.94333
697.6379, 57.49701
698.1201, 60.03683
698.6022, 62.48260
699.0843, 64.86916
699.5664, 67.39400
700.0485, 70.25320
700.5306, 73.33976
701.0128, 76.33561
701.4949, 79.23922
701.9770, 82.29841
702.4591, 85.56210
702.9412, 89.02694
703.4233, 92.70152
703.9055, 96.60639
704.3876, 100.4748
704.8697, 104.3027
705.3518, 108.1333
705.8339, 112.0524
706.3160, 115.9017
706.7982, 119.4997
707.2803, 122.8208
707.7624, 125.9344
708.2445, 128.9625
708.7266, 131.7168
709.2087, 133.6880
709.6909, 134.8868
710.1730, 135.2446
710.6551, 134.7412
711.1372, 133.4053
711.6193, 131.2212
712.1014, 128.1917
712.5836, 124.3389
713.0657, 119.2470
713.5478, 113.8318
714.0299, 108.3431
714.5120, 102.7206
714.9941, 96.77254
715.4763, 90.54036
715.9584, 84.36781
716.4405, 78.42451
716.9226, 72.74538
717.4047, 67.46719
717.8868, 62.59053
718.3690, 57.98954
718.8511, 53.66863
719.3332, 49.61416
719.8153, 45.84826
720.2974, 42.36799
720.7795, 39.16614
721.2617, 36.29980
721.7438, 33.62045
722.2259, 31.03955
722.7080, 28.66963
723.1901, 26.65888
723.6722, 24.95977
724.1544, 23.35982
724.6365, 21.74946
725.1186, 20.20303
725.6007, 18.84371
726.0828, 17.68694
726.5649, 16.62142
727.0471, 15.66727
727.5292, 14.75214
728.0113, 13.80683
728.4934, 12.88652
728.9755, 12.07085
729.4576, 11.37705
729.9398, 10.72963
730.4219, 10.07428
730.9040, 9.478464
731.3861, 9.026146
731.8682, 8.667889
732.3503, 8.296852
732.8325, 7.875731
733.3146, 7.437134
733.7967, 7.004019
734.2788, 6.582941
734.7609, 6.289862
735.2430, 6.157808
735.7252, 6.055454
736.2073, 5.951956
736.6894, 5.846998
737.1715, 5.724110
737.6536, 5.585714
738.1357, 5.503675
738.6179, 5.552244
739.1000, 5.595991
739.5821, 5.534388
740.0642, 5.434317
740.5463, 5.397436
741.0284, 5.437979
741.5106, 5.491402
741.9927, 5.501785
742.4748, 5.487539
742.9569, 5.519796
743.4390, 5.611954
743.9211, 5.656443
744.4033, 5.578693
744.8854, 5.531990
745.3675, 5.720797
745.8496, 6.049101
746.3317, 6.185802
746.8138, 5.950361
747.2960, 5.773596
747.7781, 5.866314
748.2602, 6.020252
748.7423, 6.016233
749.2244, 5.888718
749.7065, 5.816481
750.1887, 5.895157
750.6708, 6.031523
751.1529, 6.081409
751.6350, 6.045469
752.1171, 5.982492
752.5992, 5.892334
753.0814, 5.789213
753.5635, 5.685513
754.0456, 5.569162
754.5277, 5.408871
755.0098, 5.192183
755.4919, 4.996880
755.9741, 4.853531
756.4562, 4.707487
756.9383, 4.488699
757.4204, 4.276989
757.9025, 4.206734
758.3846, 4.282032
758.8668, 4.341433
759.3489, 4.221731
759.8310, 3.990715
760.3131, 3.854158
760.7952, 3.813589
761.2773, 3.709570
761.7595, 3.481052
762.2416, 3.209866
762.7237, 2.960512
763.2058, 2.734026
763.6879, 2.587433
764.1700, 2.637321
764.6522, 2.606819
765.1343, 2.351456
765.6164, 2.078880
766.0985, 1.982965
766.5806, 2.022673
767.0627, 2.025381
767.5449, 1.901962
768.0270, 1.727360
768.5091, 1.573593
768.9912, 1.444412
769.4733, 1.360363
769.9554, 1.324469
770.4376, 1.295860
770.9197, 1.249929
771.4018, 1.210772
771.8839, 1.235796
772.3660, 1.370266
772.8481, 1.426750
773.3303, 1.327181
773.8124, 1.248133
774.2945, 1.235626
774.7766, 1.282583
775.2587, 1.412237
775.7408, 1.623062
776.2230, 1.779932
776.7051, 1.747688
777.1872, 1.649647
777.6693, 1.636103
778.1514, 1.688477
778.6335, 1.719872
779.1157, 1.706167
779.5978, 1.719618
780.0799, 1.842056
780.5620, 2.051836
781.0441, 2.168514
781.5262, 2.151182
782.0084, 2.137527
782.4905, 2.135038
782.9726, 2.153460
783.4547, 2.217966
783.9368, 2.306459
784.4189, 2.358665
784.9011, 2.346510
785.3832, 2.339111
785.8653, 2.393187
786.3474, 2.451088
786.8295, 2.441717
787.3116, 2.378819
787.7938, 2.314432
788.2759, 2.272234
788.7580, 2.253891
789.2401, 2.270578
789.7222, 2.320276
790.2043, 2.364740
790.6865, 2.420006
791.1686, 2.396568
791.6507, 2.203527
792.1328, 1.981939
792.6149, 1.940496
793.0970, 2.081142
793.5792, 2.119164
794.0613, 1.922029
794.5434, 1.767704
795.0255, 1.830006
795.5076, 1.915140
795.9897, 1.801359
796.4719, 1.513514
796.9540, 1.244787
797.4361, 1.104691
797.9182, 1.029587
798.4003, 0.9451830
798.8824, 0.8536640
799.3646, 0.7584900
799.8467, 0.6598990
800.3288, 0.5730840
800.8109, 0.5062680
801.2930, 0.4535900
801.7751, 0.3980690
802.2573, 0.3219780
802.7394, 0.3048760
803.2215, 0.4495390
803.7036, 0.5320360
804.1857, 0.4498060
804.6678, 0.2986340
805.1500, 0.1748220
805.6321, 8.9954004E-02
806.1142, 2.5291000E-02
806.5963, 2.2586999E-02
807.0784, 5.9898000E-02
807.5605, 9.6224003E-02
808.0427, 0.1244380
808.5248, 0.1314510
809.0069, 0.1147590
809.4890, 7.1659997E-02
809.9711, 6.4519998E-03
810.4532, 9.2687003E-02
810.9354, 0.1057590
811.4175, 3.4430999E-02
811.8996, 2.2330999E-02
812.3817, 5.6410000E-02
812.8638, 7.1503997E-02
813.3459, 4.3409999E-02
813.8281, 1.0165000E-02
814.3102, 6.6785000E-02
814.7923, 0.2540010
815.2744, 0.3618660
815.7565, 0.2809810
816.2386, 0.2030550
816.7208, 0.2418210
817.2029, 0.3360920
817.6850, 0.4060340
818.1671, 0.4336660
818.6492, 0.4366500
819.1313, 0.4238810
819.6135, 0.3977770
820.0956, 0.3540330
820.5777, 0.2991450
821.0598, 0.2619770
821.5419, 0.2483700
822.0240, 0.2535630
822.5062, 0.2779070
822.9883, 0.3129420
823.4704, 0.3310810
823.9525, 0.3280480
824.4346, 0.3173080
824.9167, 0.2963540
825.3989, 0.2698790
825.8810, 0.2362440
826.3631, 0.2004110
826.8452, 0.1621450
827.3273, 0.1200630
827.8094, 0.1058020
828.2916, 0.1748230
828.7737, 0.2309600
829.2558, 0.1876190
829.7379, 9.0931997E-02
830.2200, 1.5685000E-02
830.7021, 2.4274999E-02
831.1843, 6.0178000E-02
831.6664, 0.1215790
832.1485, 0.1794760
832.6306, 0.1442780
833.1127, 2.3583001E-02
833.5948, 4.1769999E-03
834.0770, 0.1345020
834.5591, 0.2440860
835.0412, 0.2154940
835.5233, 0.1072130
836.0054, 5.3943001E-02
836.4875, 5.0416999E-02
836.9697, 0.1189390
837.4518, 0.3587290
837.9339, 0.5454510
838.4160, 0.5702320
838.8981, 0.5260640
839.3802, 0.5178410
839.8624, 0.5523710
840.3445, 0.5638280
840.8266, 0.4770080
841.3087, 0.4047350
841.7908, 0.4810780
842.2729, 0.6201550
842.7551, 0.6635180
843.2372, 0.6058540
843.7193, 0.5595630
844.2014, 0.5956880
844.6835, 0.6684730
845.1656, 0.6840720
845.6478, 0.6418430
846.1299, 0.6498230
846.6120, 0.7315020
847.0941, 0.7800840
847.5762, 0.7252690
848.0583, 0.6457230
848.5405, 0.6649670
849.0226, 0.7992140
849.5047, 0.8755440
849.9868, 0.8293770
850.4689, 0.8120930
850.9510, 0.9089380
851.4332, 1.005408
851.9153, 0.9781950
852.3974, 0.8654270
852.8795, 0.8098700
853.3616, 0.8848620
853.8438, 0.9692440
854.3259, 0.9397900
854.8080, 0.8776180
855.2901, 0.9276640
855.7722, 1.060292
856.2543, 1.123745
856.7365, 1.058014
857.2186, 0.9470370
857.7007, 0.8851710
858.1828, 0.8707430
858.6649, 0.9073230
859.1470, 1.011372
859.6292, 1.058553
860.1113, 0.9989470
860.5934, 0.9158950
861.0755, 0.8715390
861.5576, 0.8644100
862.0397, 0.8893700
862.5219, 1.000096
863.0040, 1.052094
863.4861, 0.9791260
863.9682, 0.9103030
864.4503, 0.9296890
864.9324, 0.9868300
865.4146, 0.9968400
865.8967, 0.9434400
866.3788, 0.8970040
866.8609, 0.9200510
867.3430, 0.9502010
867.8251, 0.9102900
868.3073, 0.8362720
868.7894, 0.8003310
869.2715, 0.8148590
869.7536, 0.8588720
870.2357, 0.9220820
870.7178, 0.9885870
871.2000, 1.027436
871.6821, 1.038914
872.1642, 1.028014
872.6463, 0.9802180
873.1284, 0.9363880
873.6105, 0.9336240
874.0927, 0.9412190
874.5748, 0.8976680
875.0569, 0.7880710
875.5390, 0.7250500
876.0211, 0.7721510
876.5032, 0.7897450
876.9854, 0.7349030
877.4675, 0.6652130
877.9496, 0.6221000
878.4317, 0.6023250
878.9138, 0.5829940
879.3959, 0.5515580
879.8781, 0.5325260
880.3602, 0.5543530
880.8423, 0.5794440
881.3244, 0.5822960
881.8065, 0.5595730
882.2886, 0.4943800
882.7708, 0.3890750
883.2529, 0.3016060
883.7350, 0.2881020
884.2171, 0.3287320
884.6992, 0.4039170
885.1813, 0.5020690
885.6635, 0.5079890
886.1456, 0.3903230
886.6277, 0.2608940
887.1098, 0.2013440
887.5919, 0.1973650
888.0740, 0.2023220
888.5562, 0.2065450
889.0383, 0.2484590
889.5204, 0.3620830
890.0025, 0.4575590
890.4846, 0.4882000
890.9667, 0.4845280
891.4489, 0.4848590
891.9310, 0.4973420
892.4131, 0.5145580
892.8952, 0.5159690
893.3773, 0.5345360
893.8594, 0.6094010
894.3416, 0.6868240
894.8237, 0.7201330
895.3058, 0.7258290
895.7879, 0.7371320
896.2700, 0.7657000
896.7521, 0.7944980
897.2343, 0.8103310
897.7164, 0.8192310
898.1985, 0.8124840
898.6806, 0.8060260
899.1627, 0.8622080
899.6448, 0.9900800
900.1270, 1.109872
900.6091, 1.153172
901.0912, 1.142368
901.5733, 1.120728
902.0554, 1.087731
902.5375, 1.122068
903.0197, 1.241254
903.5018, 1.381377
903.9839, 1.527028
904.4660, 1.650625
904.9481, 1.697907
905.4302, 1.656882
905.9124, 1.651493
906.3945, 1.703925
906.8766, 1.762384
907.3587, 1.841791
907.8408, 1.901995
908.3229, 1.902606
908.8051, 1.864257
909.2872, 1.837155
909.7693, 1.822265
910.2514, 1.844539
910.7335, 1.950125
911.2156, 2.060683
911.6978, 2.137678
912.1799, 2.171564
912.6620, 2.137954
913.1441, 2.045098
913.6262, 1.959835
914.1083, 1.928532
914.5905, 1.922161
915.0726, 1.899008
915.5547, 1.871531
916.0368, 1.885919
916.5189, 1.935764
917.0010, 1.939782
917.4832, 1.854830
917.9652, 1.749913
918.4473, 1.733739
918.9294, 1.795454
919.4116, 1.820639
919.8937, 1.809343
920.3758, 1.754993
920.8579, 1.642823
921.3400, 1.522182
921.8221, 1.434228
922.3043, 1.373577
922.7864, 1.307296
923.2685, 1.206952
923.7506, 1.156330
924.2327, 1.180490
924.7148, 1.212583
925.1970, 1.268070
925.6791, 1.306111
926.1612, 1.262856
926.6433, 1.143680
927.1254, 1.074250
927.6075, 1.146687
928.0897, 1.202147
928.5718, 1.158472
929.0539, 1.097745
929.5360, 1.099595
930.0181, 1.130497
930.5002, 1.108337
930.9824, 1.014286
931.4645, 0.9263900
931.9466, 0.9258000
932.4287, 0.9482190
932.9108, 0.8862610
933.3929, 0.7896350
933.8751, 0.7994280
934.3572, 0.9193450
934.8393, 1.000300
935.3214, 0.9417560
935.8035, 0.8288350
936.2856, 0.8087700
936.7678, 0.8694320
937.2499, 0.9263970
937.7320, 0.9764730
938.2141, 1.039419
938.6962, 1.126122
939.1783, 1.170500
939.6605, 1.085031
940.1426, 0.9001350
940.6247, 0.8101810
941.1068, 0.8559600
941.5889, 0.8666670
942.0710, 0.7833090
942.5532, 0.7440840
943.0353, 0.8569770
943.5174, 1.030652
943.9995, 1.115262
944.4816, 1.103646
944.9637, 1.100509
945.4459, 1.118417
945.9280, 1.133779
946.4101, 1.151830
946.8922, 1.155906
947.3743, 1.125611
947.8564, 1.073272
948.3386, 1.021223
948.8207, 0.9700060
949.3028, 0.9539660
949.7849, 1.015467
950.2670, 1.090049
950.7491, 1.130412
951.2313, 1.154105
951.7134, 1.205992
952.1955, 1.275024
952.6776, 1.283189
953.1597, 1.171214
953.6418, 1.056038
954.1240, 1.075249
954.6061, 1.162112
955.0882, 1.189791
955.5703, 1.165463
956.0524, 1.148722
956.5345, 1.158370
957.0167, 1.176524
957.4988, 1.193669
957.9809, 1.194182
958.4630, 1.113082
958.9451, 0.9613790
959.4272, 0.8957090
959.9094, 0.9382980
960.3915, 0.9809280
960.8736, 0.9751770
961.3557, 0.9271680
961.8378, 0.8380180
962.3199, 0.7101020
962.8021, 0.6193940
963.2842, 0.5688710
963.7663, 0.5468830
964.2484, 0.5674880
964.7305, 0.5875050
965.2126, 0.5835750
965.6948, 0.5576490
966.1769, 0.5093070
966.6590, 0.4256170
967.1411, 0.3705410
967.6232, 0.3804760
968.1053, 0.3699350
968.5875, 0.2808330
969.0696, 0.1977770
969.5517, 0.2132970
970.0338, 0.2879550
970.5159, 0.2944210
970.9980, 0.1783720
971.4802, 8.9130998E-02
971.9623, 6.6155002E-02
972.4444, 8.5646003E-02
972.9265, 0.1921540
973.4086, 0.3005320
973.8907, 0.2624740
974.3729, 0.1043110
974.8550, 3.0840000E-02
975.3371, 0.1721740
975.8192, 0.3119190
976.3013, 0.2764840
976.7834, 0.1718990
977.2656, 0.1021090
977.7477, 6.3983999E-02
978.2298, 3.4839999E-02
978.7119, 5.4670000E-03
979.1940, 3.4542002E-02
979.6761, 0.1004180
980.1583, 0.1645980
980.6404, 0.2045800
981.1225, 0.2091550
981.6046, 0.1082700
982.0867, 7.3390998E-02
982.5688, 0.1523080
983.0510, 5.9457999E-02
983.5331, 6.7643002E-02
984.0152, 7.1799003E-02
984.4973, 9.8649999E-03
984.9794, 6.8044998E-02
985.4615, 0.1004800
985.9437, 5.7351999E-02
986.4258, 7.3040999E-02
986.9079, 0.1547980
987.3900, 0.1101630
987.8721, 2.1599999E-03
988.3542, 7.5470001E-02
988.8364, 0.1233970
989.3185, 0.1610000
989.8006, 0.1898170
990.2827, 0.1961530
990.7648, 0.1641040
991.2469, 0.1457150
991.7291, 0.1816100
992.2112, 0.2473730
992.6933, 0.2913800
993.1754, 0.3122730
993.6575, 0.3205730
994.1396, 0.3362990
994.6218, 0.3004800
995.1039, 0.1138500
995.5860, 3.5317000E-02
996.0681, 4.7979999E-02
996.5502, 0.2714500
997.0323, 0.3783940
997.5145, 0.3210200
997.9966, 0.2843480
998.4787, 0.2822430
998.9608, 0.2991920
999.4429, 0.3507510
999.9250, 0.4023620
1000.407, 0.4210050
1000.889, 0.4130170
1001.371, 0.4105090
1001.854, 0.4354920
1002.336, 0.4180070
1002.818, 0.2692860
1003.300, 0.1474890
1003.782, 0.1829210
1004.264, 0.2703160
1004.746, 0.2674730
1005.228, 0.1845980
1005.710, 0.1486310
1006.193, 0.2290140
1006.675, 0.2984270
1007.157, 0.2592880
1007.639, 0.1949970
1008.121, 0.1803460
1008.603, 0.1954940
1009.085, 0.2128610
1009.567, 0.2183880
1010.049, 0.1766230
1010.532, 4.0808000E-02
1011.014, 6.8397999E-02
1011.496, 2.9300000E-03
1011.978, 0.1460640
1012.460, 0.2041960
1012.942, 0.2002100
1013.424, 0.2210240
1013.906, 0.2856970
1014.389, 0.3499800
1014.871, 0.3859140
1015.353, 0.3915690
1015.835, 0.3529760
1016.317, 0.2856620
1016.799, 0.2120700
1017.281, 0.1444070
1017.763, 0.1278980
1018.245, 0.1741600
1018.728, 0.2385710
1019.210, 0.2829150
1019.692, 0.3135300
1020.174, 0.3506980
1020.656, 0.3871360
1021.138, 0.3712270
1021.620, 0.3054790
1022.102, 0.2770650
1022.585, 0.3199020
1023.067, 0.3850210
1023.549, 0.4324250
1024.031, 0.4445780
1024.513, 0.3241270
1024.995, 7.7165000E-02
1025.477, 2.0419999E-03
1025.959, 0.1254070
1026.442, 0.2070600
1026.924, 0.1291740
1027.406, 7.6520001E-03
1027.888, 2.5750000E-02
1028.370, 1.3607000E-02
1028.852, 5.3296998E-02
1029.334, 9.9648997E-02
1029.816, 8.9786001E-02
1030.298, 1.8140000E-03
1030.781, 7.1488999E-02
1031.263, 8.7410003E-02
1031.745, 7.3417000E-02
1032.227, 6.2020998E-02
1032.709, 5.1770002E-02
1033.191, 2.6089000E-02
1033.673, 2.5823001E-02
1034.155, 5.4995999E-02
1034.637, 5.2402999E-02
1035.120, 4.0275000E-02
1035.602, 3.4437999E-02
1036.084, 1.4087000E-02
1036.566, 6.1236002E-02
1037.048, 0.1852860
1037.530, 0.2377820
1038.012, 0.1918490
1038.494, 0.1302890
1038.977, 1.7578000E-02
1039.459, 5.4235999E-02
1039.941, 1.0690000E-03
1040.423, 8.4034003E-02
1040.905, 6.0557000E-02
1041.387, 6.0658999E-02
1041.869, 0.1155940
1042.351, 5.0174002E-02
1042.833, 1.6148999E-02
1043.316, 3.5797000E-02
1043.798, 6.8810999E-02
1044.280, 9.1251999E-02
1044.762, 0.1154440
1045.244, 0.1690820
1045.726, 0.2526640
1046.208, 0.3220210
1046.690, 0.3420260
1047.172, 0.3973470
1047.655, 0.5522370
1048.137, 0.6764740
1048.619, 0.6838580
1049.101, 0.6471280
1049.583, 0.6536600
1050.065, 0.7028050
1050.547, 0.7411760
1051.029, 0.7536780
1051.512, 0.7692600
1051.994, 0.7818840
1052.476, 0.8104150
1052.958, 0.8773060
1053.440, 0.9543270
1053.922, 1.010727
1054.404, 1.047128
1054.886, 1.098793
1055.369, 1.187449
1055.851, 1.263065
1056.333, 1.302778
1056.815, 1.339611
1057.297, 1.392292
1057.779, 1.450431
1058.261, 1.498833
1058.743, 1.539210
1059.225, 1.587646
1059.708, 1.649542
1060.190, 1.715579
1060.672, 1.785613
1061.154, 1.856123
1061.636, 1.922143
1062.118, 1.989902
1062.600, 2.064609
1063.082, 2.147691
1063.564, 2.243863
1064.047, 2.368825
1064.529, 2.465653
1065.011, 2.483346
1065.493, 2.502396
1065.975, 2.597513
1066.457, 2.698598
1066.939, 2.693950
1067.421, 2.620002
1067.904, 2.631721
1068.386, 2.790436
1068.868, 2.951265
1069.350, 3.073250
1069.832, 3.173143
1070.314, 3.248105
1070.796, 3.317340
1071.278, 3.397064
1071.760, 3.489225
1072.243, 3.598375
1072.725, 3.731005
1073.207, 3.839035
1073.689, 3.880001
1074.171, 3.916170
1074.653, 3.981103
1075.135, 4.061011
1075.617, 4.137318
1076.099, 4.216444
1076.582, 4.323668
1077.064, 4.467911
1077.546, 4.590572
1078.028, 4.650845
1078.510, 4.701571
1078.992, 4.793599
1079.474, 4.870832
1079.956, 4.847842
1080.439, 4.777743
1080.921, 4.784162
1081.403, 4.892340
1081.885, 4.988908
1082.367, 4.986377
1082.849, 5.009647
1083.331, 5.172024
1083.813, 5.339677
1084.295, 5.368092
1084.778, 5.329220
1085.260, 5.367222
1085.742, 5.500305
1086.224, 5.625834
1086.706, 5.713346
1087.188, 5.762781
1087.670, 5.730921
1088.152, 5.704483
1088.635, 5.775582
1089.117, 5.879930
1089.599, 5.896742
1090.081, 5.831453
1090.563, 5.826641
1091.045, 5.974525
1091.527, 6.096432
1092.009, 6.086979
1092.491, 6.058544
1092.974, 6.091352
1093.456, 6.143916
1093.938, 6.155731
1094.420, 6.129166
1094.902, 6.109501
1095.384, 6.114089
1095.866, 6.133315
1096.348, 6.216149
1096.830, 6.249977
1097.313, 6.111717
1097.795, 5.934458
1098.277, 5.862705
1098.759, 5.872221
1099.241, 5.844451
1099.723, 5.742091
1100.205, 5.667801
1100.687, 5.686969
1101.170, 5.696453
1101.652, 5.634891
1102.134, 5.564533
1102.616, 5.564619
1103.098, 5.641445
1103.580, 5.668653
1104.062, 5.648982
1104.544, 5.419022
1105.026, 5.478987
1105.509, 5.434017
1105.991, 5.392748
1106.473, 5.520622
1106.955, 5.370149
1107.437, 5.513833
1107.919, 5.549016
1108.401, 5.642954
1108.883, 5.332352
1109.365, 5.400953
1109.848, 5.450413
1110.330, 5.466061
1110.812, 5.462728
1111.294, 5.419270
1111.776, 5.382158
1112.258, 5.426439
1112.740, 5.528069
1113.222, 5.548363
1113.705, 5.439249
1114.187, 5.338338
1114.669, 5.204262
1115.151, 5.138561
1115.633, 5.234684
1116.115, 5.353304
1116.597, 5.384605
1117.079, 5.353811
1117.562, 5.325785
1118.044, 5.304956
1118.526, 5.263466
1119.008, 5.196599
1119.490, 5.117077
1119.972, 5.000337
1120.454, 4.910300
1120.936, 4.904732
1121.418, 4.943497
1121.901, 4.936795
1122.383, 4.873152
1122.865, 4.781975
1123.347, 4.645055
1123.829, 4.536043
1124.311, 4.478534
1124.793, 4.387248
1125.275, 4.131035
1125.757, 4.128456
1126.240, 4.082141
1126.722, 3.995207
1127.204, 3.756152
1127.686, 3.713516
1128.168, 3.592842
1128.650, 3.469085
1129.132, 3.455096
1129.614, 3.243701
1130.097, 3.233696
1130.579, 3.137782
1131.061, 3.076976
1131.543, 2.936954
1132.025, 2.821399
1132.507, 2.785165
1132.989, 2.705702
1133.471, 2.439191
1133.953, 2.283790
1134.436, 2.150488
1134.918, 2.081990
1135.400, 2.029495
1135.882, 1.913087
1136.364, 1.755901
1136.846, 1.671269
1137.328, 1.652688
1137.810, 1.633359
1138.292, 1.605523
1138.775, 1.560669
1139.257, 1.493993
1139.739, 1.418015
1140.221, 1.342514
1140.703, 1.267721
1141.185, 1.184195
1141.667, 1.104310
1142.149, 1.084246
1142.632, 1.104147
1143.114, 1.068512
1143.596, 0.9648080
1144.078, 0.8734940
1144.560, 0.8427250
1145.042, 0.8283420
1145.524, 0.7806120
1146.006, 0.7150040
1146.489, 0.6428590
1146.971, 0.5767190
1147.453, 0.5492150
1147.935, 0.5513830
1148.417, 0.5359790
1148.899, 0.4885310
1149.381, 0.4614320
1149.863, 0.5274990
1150.345, 0.5811860
1150.828, 0.4948020
1151.310, 0.3703170
1151.792, 0.3237140
1152.274, 0.3304260
1152.756, 0.3385730
1153.238, 0.3333350
1153.720, 0.3012360
1154.202, 0.2153250
1154.684, 0.1666330
1155.167, 0.2597270
1155.649, 0.3382320
1156.131, 0.2606430
1156.613, 0.1476450
1157.095, 0.1466170
1157.577, 0.2240780
1158.059, 0.2593780
1158.541, 0.2279380
1159.024, 0.1773230
1159.506, 9.2242002E-02
1159.988, 2.8646000E-02
1160.470, 1.3600000E-04
1160.952, 6.1400002E-04
1161.434, 5.4967001E-02
1161.916, 0.1198880
1162.398, 0.1344540
1162.880, 9.8185003E-02
1163.363, 4.6207000E-02
1163.845, 5.5048000E-02
1164.327, 0.1072160
1164.809, 8.7130003E-02
1165.291, 5.5757999E-02
1165.773, 2.6037000E-02
1166.255, 5.8200001E-04
1166.737, 2.4901001E-02
1167.219, 4.3320000E-02
1167.702, 4.6716001E-02
1168.184, 3.3922002E-02
1168.666, 1.3274000E-02
1169.148, 1.8633001E-02
1169.630, 4.2431001E-02
1170.112, 5.3482998E-02
1170.594, 6.4153001E-02
1171.076, 8.2622997E-02
1171.559, 9.4782002E-02
1172.041, 8.0858000E-02
1172.523, 4.8386998E-02
1173.005, 2.3941999E-02
1173.487, 7.6009999E-03
1173.969, 4.6620001E-03
1174.451, 1.4280000E-02
1174.933, 1.6348001E-02
1175.416, 4.9040001E-03
1175.898, 1.2364000E-02
1176.380, 2.9658001E-02
1176.862, 5.3408999E-02
1177.344, 0.1274990
1177.826, 0.1976980
1178.308, 7.8841001E-02
1178.790, 0.1308530
1179.272, 0.1449700
1179.755, 1.6556000E-02
1180.237, 0.1181820
1180.719, 7.7094004E-02
1181.201, 8.9779999E-03
1181.683, 3.5730000E-03
1182.165, 7.7699998E-04
1182.647, 3.6827002E-02
1183.129, 6.6096999E-02
1183.611, 1.2721000E-02
1184.094, 7.3326997E-02
1184.576, 0.1021670
1185.058, 7.2201997E-02
1185.540, 4.3237999E-02
1186.022, 3.7269000E-02
1186.504, 2.5211001E-02
1186.986, 4.6978001E-02
1187.468, 7.4770004E-02
1187.951, 4.4535000E-02
1188.433, 0.1810720
1188.915, 0.2358510
1189.397, 0.2228780
1189.879, 0.1765250
1190.361, 0.1023570
1190.843, 6.0835000E-02
1191.325, 9.4532996E-02
1191.807, 0.1002190
1192.290, 4.5903001E-02
1192.772, 2.2640000E-03
1193.254, 1.7801000E-02
1193.736, 2.1939999E-03
1194.218, 8.3912000E-02
1194.700, 0.1945930
1195.182, 0.2003680
1195.664, 8.7426998E-02
1196.146, 4.6052001E-02
1196.629, 8.7061003E-02
1197.111, 0.1519430
1197.593, 0.2402720
1198.075, 0.2869350
1198.557, 0.2574900
1199.039, 0.1979110
1199.521, 0.1549620
1200.003, 0.1290490
1200.486, 0.1285730
1200.968, 0.1470290
1201.450, 0.1401000
1201.932, 0.1161540
1202.414, 0.1433610
1202.896, 0.2253000
1203.378, 0.2797100
1203.860, 0.2611420
1204.343, 0.2209100
1204.825, 0.2037740
1205.307, 0.2049290
1205.789, 0.2332770
1206.271, 0.2657030
1206.753, 0.2623510
1207.235, 0.2353190
1207.717, 0.2124030
1208.199, 0.2019540
1208.682, 0.2113630
1209.164, 0.2544760
1209.646, 0.2850260
1210.128, 0.2744080
1210.610, 0.2512280
1211.092, 0.2200100
1211.574, 0.1948010
1212.056, 0.1867170
1212.538, 0.1952380
1213.021, 0.2244510
1213.503, 0.2773060
1213.985, 0.3043340
1214.467, 0.3001790
1214.949, 0.2701370
1215.431, 0.1704270
1215.913, 0.1228850
1216.395, 0.2002180
1216.878, 0.2983150
1217.360, 0.3244030
1217.842, 0.3004290
1218.324, 0.2816140
1218.806, 0.2682910
1219.288, 0.2486620
1219.770, 0.2196420
1220.252, 0.2578130
1220.734, 0.3761980
1221.217, 0.4310670
1221.699, 0.3547640
1222.181, 0.2624830
1222.663, 0.2734250
1223.145, 0.3376190
1223.627, 0.3811830
1224.109, 0.3950740
1224.591, 0.3263050
1225.073, 0.2162250
1225.556, 0.1717000
1226.038, 0.2032950
1226.520, 0.2819800
1227.002, 0.3933140
1227.484, 0.4631270
1227.966, 0.4132060
1228.448, 0.3391290
1228.930, 0.3030570
1229.413, 0.2756790
1229.895, 0.2254710
1230.377, 0.1737960
1230.859, 0.1390700
1231.341, 0.1305060
1231.823, 0.1838740
1232.305, 0.3378170
1232.787, 0.4243380
1233.270, 0.3650980
1233.752, 0.3170790
1234.234, 0.2985260
1234.716, 0.2985950
1235.198, 0.2515490
1235.680, 0.2054960
1236.162, 0.2281570
1236.644, 0.3144880
1237.126, 0.3618170
1237.609, 0.3606890
1238.091, 0.3629920
1238.573, 0.3770970
1239.055, 0.3296060
1239.537, 0.1908660
1240.019, 9.3468003E-02
1240.501, 0.1149850
1240.983, 0.1791850
1241.465, 0.2091940
1241.948, 0.2302650
1242.430, 0.2660770
1242.912, 0.2936180
1243.394, 0.2632800
1243.876, 0.1940420
1244.358, 0.1436000
1244.840, 0.1171880
1245.322, 7.4160002E-02
1245.805, 7.8349998E-03
1246.287, 5.5606999E-02
1246.769, 1.4629000E-02
1247.251, 4.9501002E-02
1247.733, 0.1301340
1248.215, 0.1896510
1248.697, 0.1811440
1249.179, 0.1459620
1249.661, 0.1465850
1250.144, 0.1775000
1250.626, 0.1822920
1251.108, 0.1439890
1251.590, 0.1296360
1252.072, 0.1449300
1252.554, 0.1692470
1253.036, 0.2213550
1253.518, 0.2324910
1254.000, 0.1478630
1254.483, 6.4630002E-02
1254.965, 0.1110340
1255.447, 0.2333830
1255.929, 0.2568560
1256.411, 0.1991800
1256.893, 0.1752060
1257.375, 0.1786020
1257.857, 0.1610080
1258.340, 0.1178280
1258.822, 8.1031002E-02
1259.304, 6.5381996E-02
1259.786, 5.9640002E-02
1260.268, 5.8784001E-02
1260.750, 6.0568001E-02
1261.232, 5.0484002E-02
1261.714, 4.5329001E-02
1262.197, 7.4593000E-02
1262.679, 0.1129600
1263.161, 0.1266710
1263.643, 0.1160980
1264.125, 9.3640998E-02
1264.607, 5.5034000E-02
1265.089, 4.6516001E-02
1265.571, 0.1030050
1266.053, 0.1504230
1266.536, 0.1884010
1267.018, 0.1962100
1267.500, 0.1419920
1267.982, 7.0995003E-02
1268.464, 6.2876999E-02
1268.946, 9.3482003E-02
1269.428, 0.1455950
1269.910, 0.2186670
1270.392, 0.2558680
1270.875, 0.2596480
1271.357, 0.2486100
1271.839, 0.2238840
1272.321, 0.2041290
1272.803, 0.1931700
1273.285, 0.1711840
1273.767, 0.1198530
1274.249, 7.3334999E-02
1274.732, 8.5584998E-02
1275.214, 0.1167500
1275.696, 0.1273480
1276.178, 0.1213410
1276.660, 8.2836002E-02
1277.142, 3.2889001E-02
1277.624, 2.2810999E-02
1278.106, 5.4689001E-02
1278.589, 9.2866004E-02
1279.071, 0.1388920
1279.553, 0.1661320
1280.035, 0.1561520
1280.517, 0.1432710
1280.999, 0.1344820
1281.481, 0.1287420
1281.963, 0.1275010
1282.445, 0.1271670
1282.927, 0.1222170
1283.410, 0.1091260
1283.892, 9.2042997E-02
1284.374, 6.8889000E-02
1284.856, 3.7149001E-02
1285.338, 2.2800000E-04
1285.820, 4.7579999E-03
1286.302, 2.7544999E-02
1286.784, 6.0761999E-02
1287.267, 6.0936000E-02
1287.749, 2.6474001E-02
1288.231, 1.4148000E-02
1288.713, 0.0000000E+00
##END=



