##NAMES=Triphylite
##RRUFFID=R050257
##IDEAL CHEMISTRY=LiFe^2+^PO_4_
##LOCALITY=Palermo mine, North Groton, Grafton County, New Hampshire, USA
##OWNER=RRUFF
##SOURCE=Marcus Origlieri
##DESCRIPTION=Dark gray massive
##STATUS=The identification of this mineral has been confirmed by X-ray diffraction and chemical analysis
##URL=rruff.info/R050257
##MEASURED CHEMISTRY=Li_1.00_(Fe^2+^_0.73_Mn^2+^_0.19_Mg_0.08_)_Î£=1_P_1.00_O_4_
103.8984, 0.0000000E+00
104.3806, 1.062302
104.8627, 0.1504950
105.3448, 1.952695
105.8269, 4.500843
106.3090, 6.342752
106.7911, 9.842857
107.2733, 11.49450
107.7554, 10.37482
108.2375, 8.405669
108.7196, 8.861075
109.2017, 9.017126
109.6838, 5.053277
110.1659, 3.526444
110.6481, 8.470405
111.1302, 12.21433
111.6123, 15.21349
112.0944, 12.84955
112.5765, 8.823257
113.0586, 4.102101
113.5408, 0.2169050
114.0229, 2.372619
114.5050, 0.1762150
114.9871, 3.586622
115.4692, 5.913218
115.9513, 6.433088
116.4335, 6.393061
116.9156, 6.473181
117.3977, 6.455694
117.8798, 5.463421
118.3619, 1.361181
118.8440, 3.243256
119.3262, 5.915731
119.8083, 4.773842
120.2904, 2.210119
120.7725, 0.5930080
121.2546, 3.632345
121.7367, 6.179329
122.2189, 7.519707
122.7010, 7.985809
123.1831, 8.260101
123.6652, 8.366230
124.1473, 8.555271
124.6294, 8.849182
125.1115, 8.976814
125.5937, 10.17409
126.0758, 14.52457
126.5579, 21.54148
127.0400, 28.60778
127.5221, 33.15351
128.0043, 36.49857
128.4864, 42.35517
128.9685, 52.49752
129.4506, 64.33337
129.9327, 72.51610
130.4148, 76.92835
130.8969, 80.94471
131.3791, 87.87115
131.8612, 97.35618
132.3433, 106.4941
132.8254, 113.6421
133.3075, 119.5722
133.7896, 129.1438
134.2718, 143.0974
134.7539, 158.2424
135.2360, 170.1481
135.7181, 178.2363
136.2002, 185.8414
136.6823, 193.4717
137.1645, 200.8236
137.6466, 212.1384
138.1287, 229.2757
138.6108, 249.1143
139.0929, 263.0573
139.5750, 268.7720
140.0572, 274.1323
140.5393, 283.8824
141.0214, 299.8019
141.5035, 314.8028
141.9856, 327.0203
142.4677, 337.2505
142.9499, 353.3681
143.4320, 376.8831
143.9141, 404.1987
144.3962, 432.0478
144.8783, 460.7523
145.3604, 489.8898
145.8425, 519.9050
146.3247, 550.7094
146.8068, 581.4391
147.2889, 617.0877
147.7710, 650.1064
148.2531, 671.8060
148.7352, 673.3527
149.2174, 672.0702
149.6995, 672.2629
150.1816, 675.3375
150.6637, 676.9276
151.1458, 672.8734
151.6279, 667.3604
152.1101, 669.0742
152.5922, 683.5930
153.0743, 701.7267
153.5564, 719.7119
154.0385, 736.8656
154.5206, 754.5479
155.0028, 774.3111
155.4849, 795.3221
155.9670, 813.4885
156.4491, 832.0575
156.9312, 845.2411
157.4133, 849.1591
157.8955, 842.6089
158.3776, 827.1001
158.8597, 802.6627
159.3418, 769.1998
159.8239, 727.7162
160.3060, 671.5338
160.7882, 609.5827
161.2703, 551.3978
161.7524, 503.4573
162.2345, 457.3116
162.7166, 407.0420
163.1987, 350.3747
163.6808, 299.5470
164.1630, 261.8675
164.6451, 233.4169
165.1272, 207.6013
165.6093, 182.1593
166.0914, 157.8951
166.5735, 134.9845
167.0557, 112.6701
167.5378, 93.53308
168.0199, 80.67111
168.5020, 72.88579
168.9841, 66.54767
169.4662, 59.55669
169.9484, 52.99973
170.4305, 48.20673
170.9126, 46.67296
171.3947, 45.25073
171.8768, 40.52774
172.3589, 33.28841
172.8411, 27.02931
173.3232, 24.27293
173.8053, 23.97823
174.2874, 24.53961
174.7695, 26.99155
175.2516, 29.07536
175.7338, 26.60892
176.2159, 19.51022
176.6980, 13.36098
177.1801, 15.17758
177.6622, 22.33611
178.1443, 27.42706
178.6264, 24.03415
179.1086, 17.13591
179.5907, 16.69821
180.0728, 23.67593
180.5549, 32.60648
181.0370, 37.77162
181.5191, 39.67538
182.0013, 40.86398
182.4834, 41.92696
182.9655, 43.22856
183.4476, 45.86966
183.9297, 50.02017
184.4118, 55.30128
184.8940, 60.93303
185.3761, 67.03345
185.8582, 74.38089
186.3403, 84.89908
186.8224, 97.61433
187.3046, 108.0266
187.7867, 115.4449
188.2688, 120.4770
188.7509, 123.1055
189.2330, 123.1455
189.7151, 124.9413
190.1973, 131.3274
190.6794, 142.2911
191.1615, 158.2621
191.6436, 181.7896
192.1257, 209.7139
192.6078, 230.3304
193.0900, 243.0550
193.5721, 253.6947
194.0542, 267.1505
194.5363, 283.3464
195.0184, 302.3877
195.5005, 325.7325
195.9826, 352.3089
196.4648, 374.8958
196.9469, 393.1150
197.4290, 407.7586
197.9111, 419.5146
198.3932, 428.2068
198.8753, 434.9645
199.3575, 440.9342
199.8396, 446.0771
200.3217, 446.1548
200.8038, 441.4337
201.2859, 431.2078
201.7680, 412.4315
202.2502, 382.8780
202.7323, 354.2173
203.2144, 332.5892
203.6965, 319.4375
204.1786, 301.7317
204.6607, 278.0724
205.1429, 251.3257
205.6250, 227.2386
206.1071, 206.0329
206.5892, 187.5010
207.0713, 172.6691
207.5534, 162.8509
208.0356, 149.8880
208.5177, 132.0614
208.9998, 111.4866
209.4819, 93.81274
209.9640, 79.36743
210.4461, 67.03581
210.9282, 56.26314
211.4104, 46.87851
211.8925, 39.43968
212.3746, 34.06512
212.8567, 30.78526
213.3388, 29.85753
213.8209, 33.44083
214.3031, 35.56587
214.7852, 30.24763
215.2673, 12.77882
215.7494, 1.605637
216.2315, 1.119659
216.7136, 10.31435
217.1958, 16.91399
217.6779, 20.54170
218.1600, 22.16994
218.6421, 22.10155
219.1242, 18.72995
219.6063, 17.68169
220.0885, 20.88150
220.5706, 28.26518
221.0527, 32.55693
221.5348, 32.49556
222.0169, 30.98468
222.4990, 30.85188
222.9812, 31.81262
223.4633, 35.08224
223.9454, 41.84496
224.4275, 52.57184
224.9096, 59.11005
225.3917, 59.80533
225.8739, 58.60020
226.3560, 60.55318
226.8381, 66.86052
227.3202, 74.17200
227.8023, 81.47482
228.2844, 88.27765
228.7665, 97.42850
229.2487, 110.3804
229.7308, 124.5297
230.2129, 135.6081
230.6950, 141.0891
231.1771, 147.4590
231.6592, 156.8227
232.1414, 169.5712
232.6235, 184.0412
233.1056, 200.3758
233.5877, 218.2692
234.0698, 236.7665
234.5519, 256.2294
235.0341, 275.6609
235.5162, 294.8548
235.9983, 313.4892
236.4804, 332.4395
236.9625, 352.0828
237.4446, 371.8709
237.9268, 391.5493
238.4089, 414.7653
238.8910, 432.9787
239.3731, 442.1029
239.8552, 438.3323
240.3373, 433.6858
240.8195, 427.5085
241.3016, 420.1365
241.7837, 413.2364
242.2658, 406.8286
242.7479, 401.5041
243.2300, 397.5439
243.7122, 395.0854
244.1943, 393.7624
244.6764, 393.9657
245.1585, 395.2789
245.6406, 396.0225
246.1227, 394.5781
246.6048, 394.7684
247.0870, 399.0759
247.5691, 409.9841
248.0512, 419.7829
248.5333, 428.2889
249.0154, 435.3624
249.4975, 440.4012
249.9797, 442.7438
250.4618, 444.0305
250.9439, 445.8466
251.4260, 450.9978
251.9081, 450.2598
252.3902, 441.3794
252.8724, 425.5814
253.3545, 410.9936
253.8366, 399.9122
254.3187, 386.8629
254.8008, 367.6477
255.2829, 339.0834
255.7651, 311.4482
256.2472, 284.6829
256.7293, 259.1949
257.2114, 239.3309
257.6935, 228.1067
258.1756, 218.0676
258.6577, 203.3647
259.1399, 180.9596
259.6220, 161.5286
260.1041, 146.9344
260.5862, 136.5802
261.0683, 125.8495
261.5504, 114.3999
262.0326, 103.1664
262.5147, 92.76974
262.9968, 83.48096
263.4789, 74.41576
263.9610, 65.14732
264.4431, 55.84985
264.9253, 49.25174
265.4074, 46.74461
265.8895, 44.46031
266.3716, 38.48969
266.8537, 27.07352
267.3358, 18.42198
267.8180, 14.74139
268.3001, 15.25407
268.7822, 13.02116
269.2643, 6.727737
269.7464, 0.3131260
270.2285, 2.706406
270.7107, 1.535797
271.1928, 0.3513640
271.6749, 7.0500001E-03
272.1570, 0.2863920
272.6391, 0.4095000
273.1212, 2.829636
273.6034, 4.439011
274.0855, 2.174026
274.5676, 4.814545
275.0497, 10.20016
275.5318, 12.42772
276.0139, 12.02592
276.4961, 12.23497
276.9782, 13.47452
277.4603, 14.03848
277.9424, 11.79646
278.4245, 6.447662
278.9066, 1.882156
279.3888, 1.417038
279.8709, 3.283905
280.3530, 1.657654
280.8351, 4.530365
281.3172, 9.866714
281.7993, 8.043259
282.2815, 1.027496
282.7636, 8.583664
283.2457, 12.85011
283.7278, 14.14273
284.2099, 12.47554
284.6920, 7.251770
285.1741, 2.811630
285.6563, 4.299423
286.1384, 11.26199
286.6205, 16.49823
287.1026, 17.95169
287.5847, 16.89684
288.0668, 16.81825
288.5490, 17.79321
289.0311, 19.41167
289.5132, 21.59053
289.9953, 24.08365
290.4774, 25.84354
290.9595, 26.82637
291.4417, 26.80644
291.9238, 24.65907
292.4059, 20.43788
292.8880, 16.38249
293.3701, 14.37340
293.8522, 13.91579
294.3344, 13.41104
294.8165, 12.48303
295.2986, 11.35208
295.7807, 10.93091
296.2628, 11.11476
296.7449, 10.16562
297.2271, 4.533737
297.7092, 3.319016
298.1913, 7.110214
298.6734, 3.749985
299.1555, 2.706970
299.6376, 7.039978
300.1198, 9.257843
300.6019, 10.03842
301.0840, 8.744766
301.5661, 6.705917
302.0482, 6.251251
302.5303, 8.296753
303.0125, 11.17316
303.4946, 13.64198
303.9767, 15.66571
304.4588, 16.89133
304.9409, 15.98268
305.4230, 14.39523
305.9052, 13.84679
306.3873, 14.55734
306.8694, 16.70378
307.3515, 21.30461
307.8336, 27.79083
308.3157, 34.25169
308.7979, 39.67479
309.2800, 44.39467
309.7621, 48.49298
310.2442, 51.45445
310.7263, 54.96252
311.2084, 60.22012
311.6906, 66.89011
312.1727, 74.10154
312.6548, 82.38618
313.1369, 90.54124
313.6190, 96.72844
314.1011, 98.74249
314.5833, 103.6819
315.0654, 118.7613
315.5475, 139.2351
316.0296, 155.0003
316.5117, 156.1412
316.9938, 155.7466
317.4760, 162.0847
317.9580, 179.1420
318.4402, 194.2830
318.9223, 202.4543
319.4044, 206.3019
319.8865, 210.0395
320.3686, 214.1475
320.8507, 218.9494
321.3329, 225.8004
321.8150, 236.8852
322.2971, 242.5380
322.7792, 237.6658
323.2613, 227.1670
323.7434, 217.7735
324.2256, 209.7910
324.7077, 203.6773
325.1898, 201.2392
325.6719, 204.9838
326.1540, 201.8395
326.6361, 184.8123
327.1183, 162.9637
327.6004, 146.3594
328.0825, 139.6004
328.5646, 133.0538
329.0467, 124.3989
329.5288, 112.9557
330.0110, 104.6161
330.4931, 101.7637
330.9752, 100.2707
331.4573, 96.27132
331.9394, 88.48541
332.4215, 80.01579
332.9037, 70.91205
333.3858, 61.38185
333.8679, 53.11157
334.3500, 45.26454
334.8321, 39.53123
335.3142, 38.16454
335.7964, 43.89294
336.2785, 46.98279
336.7606, 45.13928
337.2427, 39.20517
337.7248, 34.86935
338.2069, 32.53571
338.6891, 30.59724
339.1712, 27.54865
339.6533, 23.34950
340.1354, 22.14721
340.6175, 25.16670
341.0996, 30.32547
341.5818, 31.08756
342.0639, 26.89143
342.5460, 21.98473
343.0281, 19.29919
343.5102, 18.67829
343.9923, 16.98116
344.4745, 13.65385
344.9566, 9.562309
345.4387, 5.779984
345.9208, 2.402153
346.4029, 0.6612930
346.8850, 2.485077
347.3672, 6.726196
347.8493, 9.423309
348.3314, 10.24837
348.8135, 9.644356
349.2956, 7.155930
349.7777, 3.378235
350.2599, 0.7015530
350.7419, 1.092621
351.2241, 3.098381
351.7062, 4.410446
352.1883, 4.912369
352.6704, 4.922081
353.1525, 4.491203
353.6346, 3.782646
354.1168, 3.119675
354.5989, 3.449799
355.0810, 3.395447
355.5631, 0.6936190
356.0452, 4.579285
356.5273, 8.968338
357.0095, 9.415733
357.4916, 8.216324
357.9737, 7.907143
358.4558, 11.01526
358.9379, 13.79454
359.4200, 13.68194
359.9022, 11.10193
360.3843, 8.987587
360.8664, 9.249092
361.3485, 10.17919
361.8306, 10.44704
362.3127, 9.615692
362.7949, 8.255333
363.2770, 5.879776
363.7591, 2.934822
364.2412, 1.042648
364.7233, 1.363892
365.2054, 2.253662
365.6876, 2.961739
366.1697, 3.861404
366.6518, 3.848885
367.1339, 2.131989
367.6160, 0.5522840
368.0981, 2.545181
368.5803, 3.836884
369.0624, 4.420792
369.5445, 4.097450
370.0266, 2.350861
370.5087, 1.313332
370.9908, 1.095627
371.4730, 1.524765
371.9551, 2.410988
372.4372, 3.942200
372.9193, 5.594261
373.4014, 7.214455
373.8835, 8.787338
374.3657, 10.63510
374.8478, 13.08118
375.3299, 15.25182
375.8120, 15.78607
376.2941, 14.14851
376.7762, 13.71025
377.2584, 15.37849
377.7405, 18.83408
378.2226, 22.71062
378.7047, 27.28363
379.1868, 31.10025
379.6689, 32.38087
380.1511, 31.38263
380.6332, 31.57547
381.1153, 33.80757
381.5974, 37.08827
382.0795, 39.21768
382.5616, 40.33005
383.0438, 41.76846
383.5259, 44.15468
384.0080, 47.53688
384.4901, 52.79771
384.9722, 60.89771
385.4543, 67.88081
385.9364, 67.07721
386.4185, 61.28500
386.9007, 58.66779
387.3828, 65.92192
387.8649, 77.11531
388.3470, 85.98459
388.8291, 92.06667
389.3112, 97.01056
389.7934, 100.9654
390.2755, 104.6303
390.7576, 108.9186
391.2397, 114.5017
391.7218, 120.5816
392.2039, 126.1332
392.6861, 131.3524
393.1682, 138.5640
393.6503, 153.1031
394.1324, 167.5960
394.6145, 176.2999
395.0966, 170.1158
395.5788, 167.0231
396.0609, 171.8262
396.5430, 182.9671
397.0251, 194.7068
397.5072, 208.6809
397.9893, 221.1415
398.4715, 230.1936
398.9536, 232.5998
399.4357, 237.6960
399.9178, 248.0527
400.3999, 260.3156
400.8820, 268.3375
401.3642, 269.1566
401.8463, 270.2573
402.3284, 273.8566
402.8105, 280.2068
403.2926, 286.8378
403.7747, 293.8641
404.2569, 300.9124
404.7390, 308.0401
405.2211, 315.6557
405.7032, 321.4179
406.1853, 323.7043
406.6674, 323.9062
407.1496, 329.6783
407.6317, 341.9941
408.1138, 354.0793
408.5959, 359.9915
409.0780, 360.5972
409.5602, 362.1790
410.0423, 365.1860
410.5244, 370.3882
411.0065, 379.0477
411.4886, 391.1357
411.9707, 405.9848
412.4529, 428.1985
412.9350, 452.0551
413.4171, 464.2136
413.8992, 461.9549
414.3813, 458.7547
414.8634, 467.5085
415.3456, 484.5054
415.8277, 501.9951
416.3098, 515.9587
416.7919, 529.4520
417.2740, 546.1656
417.7561, 565.8568
418.2382, 584.1000
418.7203, 594.1388
419.2025, 603.3817
419.6846, 618.4142
420.1667, 648.9874
420.6488, 677.0641
421.1309, 695.2460
421.6130, 706.0599
422.0952, 720.5985
422.5773, 742.7961
423.0594, 767.3324
423.5415, 792.6750
424.0236, 822.1105
424.5057, 845.4102
424.9879, 858.5935
425.4700, 866.8282
425.9521, 878.1688
426.4342, 892.5682
426.9163, 910.0447
427.3984, 930.9572
427.8806, 955.6435
428.3627, 981.4477
428.8448, 1009.904
429.3269, 1037.001
429.8090, 1056.827
430.2911, 1067.360
430.7733, 1084.689
431.2554, 1114.943
431.7375, 1151.944
432.2196, 1175.354
432.7017, 1183.929
433.1838, 1192.310
433.6660, 1212.631
434.1481, 1241.644
434.6302, 1265.238
435.1123, 1281.301
435.5944, 1294.012
436.0765, 1307.685
436.5587, 1322.250
437.0408, 1337.538
437.5229, 1357.474
438.0050, 1375.872
438.4871, 1381.416
438.9692, 1373.825
439.4514, 1371.128
439.9335, 1394.942
440.4156, 1427.470
440.8977, 1447.575
441.3798, 1436.502
441.8619, 1424.402
442.3441, 1427.183
442.8262, 1441.111
443.3083, 1451.501
443.7904, 1459.096
444.2725, 1457.613
444.7546, 1442.158
445.2368, 1404.107
445.7189, 1369.345
446.2010, 1341.973
446.6831, 1319.267
447.1652, 1297.504
447.6473, 1279.884
448.1295, 1258.902
448.6116, 1232.864
449.0937, 1201.409
449.5758, 1168.314
450.0579, 1134.140
450.5400, 1097.874
451.0221, 1057.383
451.5042, 1011.636
451.9864, 969.1932
452.4685, 931.4572
452.9506, 897.6984
453.4327, 865.7664
453.9148, 835.7579
454.3969, 807.1650
454.8791, 782.1127
455.3612, 758.8900
455.8433, 728.8165
456.3254, 690.4108
456.8075, 652.4789
457.2896, 628.9944
457.7718, 615.0412
458.2539, 598.2487
458.7360, 569.4670
459.2181, 537.9256
459.7002, 513.9349
460.1823, 496.7952
460.6645, 481.1400
461.1466, 465.0129
461.6287, 447.9411
462.1108, 428.8648
462.5929, 404.7240
463.0750, 384.1503
463.5572, 374.6740
464.0393, 371.1307
464.5214, 363.2785
465.0035, 341.8488
465.4856, 321.7260
465.9677, 309.3981
466.4499, 307.3725
466.9320, 301.9012
467.4141, 290.8297
467.8962, 277.5238
468.3783, 264.7201
468.8604, 251.9932
469.3426, 240.4713
469.8247, 230.3247
470.3068, 221.2956
470.7889, 211.8475
471.2710, 201.4660
471.7531, 192.6466
472.2353, 187.4957
472.7174, 185.8793
473.1995, 182.2198
473.6816, 175.9977
474.1637, 168.9198
474.6458, 163.7416
475.1280, 160.0955
475.6101, 155.3823
476.0922, 146.9907
476.5743, 137.9664
477.0564, 135.0869
477.5385, 137.4350
478.0207, 138.8782
478.5028, 135.8310
478.9849, 130.0988
479.4670, 123.0670
479.9491, 114.1760
480.4312, 106.3373
480.9134, 101.5108
481.3955, 98.42923
481.8776, 95.63127
482.3597, 93.91078
482.8418, 91.52560
483.3239, 86.96574
483.8060, 79.72404
484.2881, 74.65714
484.7703, 74.72388
485.2524, 76.00743
485.7345, 75.51224
486.2166, 70.60689
486.6987, 68.09698
487.1808, 69.82867
487.6630, 74.04391
488.1451, 75.14609
488.6272, 72.30467
489.1093, 68.29381
489.5914, 64.01929
490.0735, 59.49811
490.5557, 55.41048
491.0378, 51.97127
491.5199, 48.39854
492.0020, 42.90526
492.4841, 35.96275
492.9662, 31.43883
493.4484, 31.49408
493.9305, 33.26439
494.4126, 31.47037
494.8947, 26.67830
495.3768, 22.41574
495.8589, 21.48833
496.3411, 22.06525
496.8232, 21.84627
497.3053, 20.35658
497.7874, 19.10341
498.2695, 19.83711
498.7516, 21.15538
499.2338, 21.19554
499.7159, 18.93324
500.1980, 15.67961
500.6801, 11.28183
501.1622, 5.970474
501.6443, 1.673553
502.1265, 0.8615260
502.6086, 2.636551
503.0907, 4.192993
503.5728, 6.089134
504.0549, 6.552811
504.5370, 5.003540
505.0192, 2.450012
505.5013, 0.2187650
505.9834, 1.921631
506.4655, 2.834641
506.9476, 1.668701
507.4297, 1.021469
507.9119, 1.689667
508.3940, 7.7209003E-02
508.8761, 1.478241
509.3582, 0.7160800
509.8403, 1.674454
510.3224, 3.165527
510.8046, 3.346466
511.2867, 2.833954
511.7688, 2.221603
512.2509, 1.466705
512.7330, 0.4495090
513.2151, 1.489624
513.6973, 3.270844
514.1794, 3.779160
514.6615, 3.111588
515.1436, 2.645355
515.6257, 4.047348
516.1078, 5.276978
516.5900, 4.627045
517.0721, 2.1164000E-02
517.5542, 3.410446
518.0363, 4.414429
518.5184, 3.695694
519.0005, 2.411003
519.4827, 1.158890
519.9648, 2.887711
520.4469, 1.180405
520.9290, 3.861404
521.4111, 7.643509
521.8932, 10.01520
522.3754, 11.47047
522.8575, 12.49364
523.3396, 13.11842
523.8217, 12.10349
524.3038, 8.726044
524.7859, 4.943810
525.2681, 4.172302
525.7502, 5.939003
526.2323, 7.424248
526.7144, 7.135315
527.1965, 5.903244
527.6786, 4.531555
528.1608, 3.103531
528.6429, 2.589523
529.1250, 5.213890
529.6071, 8.326241
530.0892, 9.059723
530.5714, 5.764214
531.0535, 2.395882
531.5356, 0.4746860
532.0176, 0.4536130
532.4998, 1.142868
532.9819, 3.467911
533.4640, 3.781143
533.9461, 0.9757390
534.4282, 10.62212
534.9103, 13.57196
535.3925, 5.338890
535.8746, 3.805023
536.3567, 7.247406
536.8388, 3.641541
537.3209, 1.1551000E-02
537.8030, 4.197884
538.2852, 6.845268
538.7673, 2.485321
539.2494, 8.631149
539.7315, 16.15663
540.2136, 14.93805
540.6957, 8.670593
541.1779, 4.000412
541.6600, 1.008942
542.1421, 0.3787380
542.6242, 3.749176
543.1063, 9.304993
543.5884, 15.41743
544.0706, 22.44357
544.5527, 27.45790
545.0348, 26.18130
545.5169, 22.62314
545.9990, 22.13419
546.4811, 29.53426
546.9633, 36.75269
547.4454, 40.77094
547.9275, 42.06787
548.4096, 45.58231
548.8917, 53.98651
549.3738, 61.76244
549.8560, 66.17026
550.3381, 66.04030
550.8202, 67.25818
551.3023, 69.39005
551.7844, 73.60838
552.2665, 83.14316
552.7487, 98.26253
553.2308, 108.7861
553.7129, 110.7935
554.1950, 108.8059
554.6771, 111.7184
555.1592, 119.1585
555.6414, 128.1563
556.1235, 136.9408
556.6056, 146.2493
557.0877, 157.4836
557.5698, 170.8147
558.0519, 183.6971
558.5341, 192.4274
559.0162, 200.8954
559.4983, 212.9902
559.9804, 232.6635
560.4625, 252.0936
560.9446, 268.1722
561.4268, 282.5468
561.9089, 299.8231
562.3910, 319.9807
562.8731, 343.9183
563.3552, 373.4120
563.8373, 408.3236
564.3195, 437.5145
564.8016, 458.4830
565.2837, 478.5686
565.7658, 501.7387
566.2479, 528.1672
566.7300, 562.9087
567.2122, 608.6694
567.6943, 656.1108
568.1764, 688.9644
568.6585, 711.4105
569.1406, 738.4312
569.6227, 780.3862
570.1049, 827.1524
570.5870, 867.9258
571.0691, 902.6964
571.5512, 934.3415
572.0333, 962.4743
572.5154, 988.9481
572.9976, 1015.856
573.4797, 1045.729
573.9618, 1068.126
574.4439, 1077.848
574.9260, 1080.315
575.4081, 1081.362
575.8903, 1084.201
576.3724, 1081.549
576.8545, 1072.617
577.3366, 1057.859
577.8187, 1037.121
578.3008, 1008.605
578.7830, 980.5383
579.2651, 956.7273
579.7472, 936.7534
580.2293, 915.7874
580.7114, 893.4835
581.1935, 876.3450
581.6757, 872.5243
582.1578, 878.3939
582.6399, 884.9617
583.1220, 888.2119
583.6041, 897.5798
584.0862, 924.9619
584.5684, 963.5104
585.0505, 1001.181
585.5326, 1026.510
586.0147, 1056.739
586.4968, 1104.000
586.9789, 1165.270
587.4611, 1216.971
587.9432, 1256.470
588.4253, 1286.026
588.9074, 1306.943
589.3895, 1320.554
589.8716, 1319.454
590.3538, 1303.270
590.8359, 1272.762
591.3180, 1224.811
591.8001, 1158.699
592.2822, 1092.506
592.7643, 1029.423
593.2465, 970.0694
593.7286, 914.7630
594.2107, 862.3711
594.6928, 811.9684
595.1749, 761.9465
595.6570, 712.9230
596.1392, 664.2072
596.6213, 616.4891
597.1034, 575.4249
597.5854, 548.8171
598.0676, 526.0243
598.5497, 499.4083
599.0318, 465.7489
599.5139, 432.4553
599.9960, 398.9219
600.4781, 366.7516
600.9603, 338.2842
601.4424, 314.4179
601.9245, 291.7658
602.4066, 268.7040
602.8887, 247.1480
603.3708, 234.6833
603.8530, 232.6268
604.3351, 229.9303
604.8172, 219.7275
605.2993, 204.3357
605.7814, 192.0352
606.2635, 182.8631
606.7457, 176.2767
607.2278, 172.2567
607.7099, 170.4918
608.1920, 170.9556
608.6741, 174.2778
609.1563, 177.9539
609.6384, 177.6220
610.1205, 177.6064
610.6026, 184.0533
611.0847, 204.8049
611.5668, 225.2440
612.0490, 240.4159
612.5311, 252.3845
613.0132, 269.3334
613.4953, 292.4201
613.9774, 318.9364
614.4595, 346.4793
614.9417, 375.2357
615.4238, 412.6738
615.9059, 459.6239
616.3880, 510.8742
616.8701, 562.1508
617.3522, 614.3766
617.8344, 671.1310
618.3165, 733.9703
618.7986, 798.5349
619.2807, 854.8881
619.7628, 909.8604
620.2449, 975.9005
620.7271, 1066.790
621.2092, 1161.045
621.6913, 1247.242
622.1734, 1328.222
622.6555, 1415.866
623.1376, 1512.543
623.6198, 1615.305
624.1019, 1724.623
624.5840, 1841.923
625.0661, 1958.112
625.5482, 2072.947
626.0303, 2185.086
626.5125, 2300.273
626.9946, 2418.908
627.4767, 2519.393
627.9588, 2602.226
628.4409, 2658.354
628.9230, 2676.364
629.4052, 2657.387
629.8873, 2604.889
630.3694, 2514.943
630.8515, 2397.113
631.3336, 2249.564
631.8157, 2079.381
632.2979, 1906.994
632.7800, 1732.082
633.2621, 1562.034
633.7442, 1402.085
634.2263, 1250.710
634.7084, 1114.815
635.1906, 994.3939
635.6727, 889.3120
636.1548, 799.7441
636.6369, 727.8711
637.1190, 661.5306
637.6011, 601.7792
638.0833, 547.8217
638.5654, 499.0687
639.0475, 455.9966
639.5296, 419.2529
640.0117, 389.7488
640.4938, 365.3474
640.9760, 343.8525
641.4581, 325.1274
641.9402, 307.6144
642.4223, 291.8127
642.9044, 276.0558
643.3865, 257.7891
643.8687, 237.5837
644.3508, 221.0856
644.8329, 212.8703
645.3150, 206.2215
645.7971, 197.7555
646.2792, 186.5293
646.7614, 177.1908
647.2435, 170.5612
647.7256, 164.3464
648.2077, 156.3667
648.6898, 146.4847
649.1719, 135.8082
649.6541, 124.1345
650.1362, 112.1733
650.6183, 99.00967
651.1004, 86.04253
651.5825, 78.01717
652.0646, 81.05836
652.5468, 85.80793
653.0289, 84.77070
653.5110, 79.11053
653.9931, 72.92070
654.4752, 67.22506
654.9573, 61.68440
655.4395, 55.38507
655.9216, 47.85970
656.4037, 44.48667
656.8858, 48.84151
657.3679, 52.90872
657.8500, 50.28161
658.3322, 39.24126
658.8143, 33.23009
659.2964, 33.92788
659.7785, 35.72078
660.2606, 30.27652
660.7427, 19.78217
661.2249, 13.09643
661.7070, 13.74545
662.1891, 15.89152
662.6712, 13.23189
663.1533, 7.608894
663.6354, 2.934761
664.1175, 0.7626040
664.5996, 4.5669999E-02
665.0817, 0.9494930
665.5638, 3.339478
666.0460, 3.907867
666.5281, 0.2836990
667.0102, 2.361694
667.4923, 1.599861
667.9744, 2.849731
668.4565, 5.349274
668.9387, 5.704895
669.4208, 4.911842
669.9029, 3.357170
670.3850, 1.258171
670.8671, 0.6732640
671.3492, 2.525764
671.8314, 3.212662
672.3135, 0.1705930
672.7956, 4.902977
673.2777, 6.669907
673.7598, 1.653633
674.2419, 2.964294
674.7241, 4.055885
675.2062, 2.670990
675.6883, 0.9491880
676.1704, 2.412743
676.6525, 4.029488
677.1346, 2.455391
677.6168, 1.459496
678.0989, 2.811089
678.5810, 0.8200760
679.0631, 0.3805920
679.5452, 2.660057
680.0273, 8.442825
680.5095, 8.374344
680.9916, 2.563644
681.4737, 1.665253
681.9558, 5.607094
682.4379, 15.81186
682.9200, 16.97777
683.4022, 5.367783
683.8843, 4.646904
684.3664, 5.988922
684.8485, 3.020294
685.3306, 0.1255950
685.8127, 3.578217
686.2949, 6.267654
686.7770, 8.517906
687.2591, 9.788887
687.7412, 8.371899
688.2233, 3.317001
688.7054, 1.472244
689.1876, 5.946053
689.6697, 13.00811
690.1518, 14.02112
690.6339, 9.729382
691.1160, 4.371429
691.5981, 1.792732
692.0803, 6.586372
692.5624, 6.630753
693.0445, 2.615891
693.5266, 0.2705760
694.0087, 5.8289999E-03
694.4908, 2.082268
694.9730, 6.295021
695.4551, 13.89629
695.9372, 16.68790
696.4193, 11.95417
696.9014, 6.016922
697.3835, 3.582977
697.8657, 4.969475
698.3478, 6.463554
698.8299, 8.012505
699.3120, 9.100525
699.7941, 8.690628
700.2762, 7.297325
700.7584, 6.356422
701.2405, 6.376251
701.7226, 6.650879
702.2047, 6.629562
702.6868, 6.463615
703.1689, 6.422070
703.6511, 6.548119
704.1332, 6.822361
704.6153, 7.181541
705.0974, 7.696777
705.5795, 8.621040
706.0616, 10.31384
706.5438, 11.64964
707.0259, 12.24437
707.5080, 12.17049
707.9901, 11.28400
708.4722, 9.552643
708.9543, 8.966248
709.4365, 12.29512
709.9186, 17.05421
710.4007, 19.03698
710.8828, 18.04467
711.3649, 16.23287
711.8470, 14.07823
712.3292, 12.14720
712.8113, 11.11358
713.2934, 12.01136
713.7755, 11.14012
714.2576, 5.902477
714.7397, 0.7293210
715.2219, 0.3675800
715.7040, 3.432693
716.1861, 7.922752
716.6682, 13.19160
717.1503, 17.99381
717.6324, 20.61327
718.1146, 21.20810
718.5967, 20.20049
719.0788, 16.48322
719.5609, 13.26410
720.0430, 14.80780
720.5251, 19.19793
721.0073, 22.39016
721.4894, 20.38079
721.9715, 19.39085
722.4536, 23.50369
722.9357, 31.12364
723.4178, 33.80865
723.9000, 28.75182
724.3821, 24.00464
724.8642, 22.82703
725.3463, 24.67733
725.8284, 24.77772
726.3105, 23.04074
726.7927, 21.32276
727.2748, 20.20935
727.7569, 20.19586
728.2390, 23.00024
728.7211, 28.68091
729.2032, 33.45496
729.6853, 35.40457
730.1674, 35.47752
730.6495, 33.87239
731.1317, 29.67995
731.6138, 26.46098
732.0959, 23.37468
732.5780, 22.09346
733.0601, 25.02001
733.5422, 33.53602
734.0244, 38.73255
734.5065, 39.52800
734.9886, 37.98846
735.4707, 35.73651
735.9528, 33.30874
736.4349, 33.08168
736.9171, 36.69833
737.3992, 40.27317
737.8813, 40.01834
738.3634, 37.64232
738.8455, 35.86301
739.3276, 34.45730
739.8098, 33.82407
740.2919, 35.89346
740.7740, 39.15958
741.2561, 38.49919
741.7382, 31.00570
742.2203, 24.90020
742.7025, 23.22620
743.1846, 25.29186
743.6667, 29.85722
744.1488, 36.66516
744.6309, 41.85920
745.1130, 42.67736
745.5952, 41.21089
746.0773, 38.83744
746.5594, 35.48895
747.0415, 32.83806
747.5236, 32.84577
748.0057, 33.15058
748.4879, 32.58238
748.9700, 31.03387
749.4521, 29.71144
749.9342, 26.90739
750.4163, 25.84505
750.8984, 30.72343
751.3806, 41.29031
751.8627, 44.61264
752.3448, 39.86176
752.8269, 33.06339
753.3090, 29.33627
753.7911, 27.73444
754.2733, 27.23713
754.7554, 27.94616
755.2375, 28.21888
755.7196, 26.97516
756.2017, 25.09309
756.6838, 23.32376
757.1660, 21.53761
757.6481, 19.95164
758.1302, 18.48967
758.6123, 17.51198
759.0944, 17.76891
759.5765, 19.40384
760.0587, 20.03709
760.5408, 18.50871
761.0229, 17.18161
761.5050, 20.36338
761.9871, 26.43497
762.4692, 31.61088
762.9514, 35.02602
763.4335, 36.56169
763.9156, 34.15208
764.3977, 29.82836
764.8798, 28.30131
765.3619, 34.01756
765.8441, 37.98260
766.3262, 38.17305
766.8083, 35.66737
767.2904, 33.94144
767.7725, 32.89648
768.2546, 31.98933
768.7368, 31.34340
769.2189, 30.56760
769.7010, 28.08891
770.1831, 24.45728
770.6652, 22.24133
771.1473, 23.69039
771.6295, 26.35508
772.1116, 28.49997
772.5937, 30.05205
773.0758, 32.70555
773.5579, 40.66085
774.0400, 45.39959
774.5222, 42.29170
775.0043, 31.60911
775.4864, 26.32016
775.9685, 27.08273
776.4506, 29.33969
776.9327, 30.46806
777.4149, 30.52943
777.8970, 28.88103
778.3791, 25.62340
778.8612, 24.13023
779.3433, 28.35295
779.8254, 34.03123
780.3076, 38.57506
780.7897, 42.38444
781.2718, 41.36265
781.7539, 30.92962
782.2360, 20.46429
782.7181, 16.71216
783.2003, 20.67924
783.6824, 23.20351
784.1645, 23.83390
784.6466, 24.47417
785.1287, 28.40157
785.6108, 33.50244
786.0930, 34.74014
786.5751, 30.57551
787.0572, 26.54936
787.5393, 26.87755
788.0214, 28.77216
788.5035, 29.52428
788.9857, 27.68684
789.4678, 26.30318
789.9499, 25.40841
790.4320, 25.01123
790.9141, 25.52546
791.3962, 27.05559
791.8784, 26.86775
792.3605, 24.08805
792.8426, 21.22367
793.3247, 22.18880
793.8068, 25.29997
794.2889, 27.08251
794.7711, 25.92262
795.2531, 24.35271
795.7352, 23.07118
796.2173, 22.36508
796.6995, 22.90129
797.1816, 29.25381
797.6637, 28.69873
798.1458, 16.37359
798.6279, 0.1840740
799.1100, 4.449120
799.5922, 2.009933
800.0743, 8.525444
800.5564, 12.43318
801.0385, 14.53161
801.5206, 15.84158
802.0027, 16.10569
802.4849, 14.78944
802.9670, 8.253464
803.4491, 3.887939
803.9312, 5.808357
804.4133, 11.67070
804.8954, 15.97414
805.3776, 19.37494
805.8597, 19.24066
806.3418, 13.30880
806.8239, 5.126923
807.3060, 3.616173
807.7881, 8.069572
808.2703, 12.89011
808.7524, 16.91068
809.2345, 19.78545
809.7166, 19.48739
810.1987, 17.03458
810.6808, 14.84472
811.1630, 13.85744
811.6451, 13.40729
812.1272, 13.55653
812.6093, 13.83867
813.0914, 12.66656
813.5735, 9.169891
814.0557, 8.143295
814.5378, 12.53321
815.0199, 19.30502
815.5020, 20.94798
815.9841, 18.34949
816.4662, 14.89703
816.9484, 10.78895
817.4305, 8.245682
817.9126, 8.910667
818.3947, 12.27509
818.8768, 16.71048
819.3589, 24.95096
819.8411, 30.73287
820.3232, 31.74513
820.8053, 29.17194
821.2874, 29.56631
821.7695, 33.15439
822.2516, 34.87628
822.7338, 31.23138
823.2159, 25.12028
823.6980, 20.20953
824.1801, 17.10641
824.6622, 18.08336
825.1443, 29.16956
825.6265, 39.69077
826.1086, 43.62474
826.5907, 41.53999
827.0728, 40.12251
827.5549, 39.40234
828.0370, 39.96617
828.5192, 42.49653
829.0013, 45.82933
829.4834, 46.40807
829.9655, 44.92154
830.4476, 43.49292
830.9297, 43.47710
831.4119, 44.10213
831.8940, 45.06149
832.3761, 46.14556
832.8582, 46.08523
833.3403, 40.29877
833.8224, 37.42779
834.3046, 41.16509
834.7867, 50.41324
835.2688, 58.77724
835.7509, 66.84829
836.2330, 71.78325
836.7151, 70.77992
837.1973, 66.38735
837.6794, 64.15896
838.1615, 64.01588
838.6436, 64.92276
839.1257, 67.06969
839.6078, 69.39746
840.0900, 70.92859
840.5721, 71.88512
841.0542, 74.35009
841.5363, 80.92710
842.0184, 84.41018
842.5005, 81.73761
842.9827, 74.63863
843.4648, 69.07538
843.9469, 65.11063
844.4290, 64.22592
844.9111, 70.37714
845.3932, 77.75520
845.8754, 79.21616
846.3575, 76.18140
846.8396, 73.61572
847.3217, 72.92381
847.8038, 73.54903
848.2859, 76.59683
848.7681, 80.75703
849.2502, 80.55469
849.7323, 74.91614
850.2144, 70.36548
850.6965, 69.97775
851.1786, 71.60074
851.6608, 70.77490
852.1429, 67.91623
852.6250, 64.56378
853.1071, 60.05522
853.5892, 56.64882
854.0714, 56.73651
854.5535, 59.08441
855.0356, 59.30798
855.5177, 55.69403
855.9998, 52.58704
856.4819, 50.88556
856.9641, 49.89137
857.4462, 48.27020
857.9283, 45.87250
858.4104, 42.99301
858.8925, 39.21831
859.3746, 35.64714
859.8568, 32.57735
860.3389, 30.57475
860.8210, 30.85551
861.3030, 38.75865
861.7852, 42.81624
862.2673, 38.66945
862.7494, 30.64595
863.2315, 28.59322
863.7136, 33.30144
864.1957, 35.99617
864.6779, 34.59549
865.1600, 29.72287
865.6421, 18.70879
866.1242, 5.215149
866.6063, 2.165176
867.0884, 5.196411
867.5706, 11.70323
868.0527, 10.22235
868.5348, 4.462982
869.0169, 0.3414460
869.4990, 2.366318
869.9811, 2.230087
870.4633, 2.042236
870.9454, 7.077301
871.4275, 6.434937
871.9096, 2.032135
872.3917, 0.9272770
872.8738, 6.495987
873.3560, 10.83302
873.8381, 6.436462
874.3202, 1.803635
874.8023, 8.068481
875.2844, 10.94460
875.7665, 11.98483
876.2487, 9.765152
876.7308, 7.416946
877.2129, 9.348740
877.6950, 15.14583
878.1771, 18.26059
878.6592, 17.79221
879.1414, 15.56815
879.6235, 12.28388
880.1056, 8.731064
880.5877, 5.556061
881.0698, 2.350601
881.5519, 1.638199
882.0341, 6.133102
882.5162, 11.17294
882.9983, 13.63034
883.4804, 13.34911
883.9625, 12.29498
884.4446, 10.27371
884.9268, 9.251450
885.4089, 13.82428
885.8910, 19.24173
886.3731, 16.13748
886.8552, 3.550690
887.3373, 4.618652
887.8195, 2.224045
888.3016, 11.25917
888.7837, 15.00269
889.2658, 13.10590
889.7479, 13.22418
890.2300, 16.11729
890.7122, 17.79160
891.1943, 14.57393
891.6764, 8.630341
892.1585, 4.748810
892.6406, 2.938812
893.1227, 3.241974
893.6049, 9.286713
894.0870, 14.12387
894.5691, 12.81778
895.0512, 6.027832
895.5333, 1.417938
896.0154, 0.6929320
896.4976, 1.203064
896.9797, 0.1113280
897.4618, 2.449921
897.9439, 4.082947
898.4260, 4.885254
898.9081, 4.280670
899.3903, 1.140350
899.8724, 2.692139
900.3545, 6.443146
900.8366, 10.03879
901.3187, 13.22748
901.8008, 16.07635
902.2830, 18.79050
902.7651, 22.29495
903.2472, 24.69815
903.7293, 20.90726
904.2114, 12.01877
904.6935, 4.709503
905.1757, 0.4401860
905.6578, 0.5045780
906.1399, 11.92831
906.6220, 29.26019
907.1041, 41.25507
907.5862, 42.30206
908.0684, 42.40063
908.5505, 39.93100
909.0326, 39.13187
909.5147, 46.32132
909.9968, 60.85648
910.4789, 71.16650
910.9611, 75.75983
911.4432, 78.53619
911.9253, 82.52066
912.4074, 86.95334
912.8895, 90.61777
913.3716, 92.59329
913.8538, 97.36160
914.3359, 106.5708
914.8180, 117.5040
915.3001, 129.1524
915.7822, 141.5011
916.2643, 151.8515
916.7465, 160.0533
917.2286, 168.8369
917.7107, 179.4448
918.1928, 192.1329
918.6749, 207.9753
919.1570, 226.6537
919.6392, 245.0997
920.1213, 260.5414
920.6034, 277.5522
921.0855, 298.5804
921.5676, 322.1641
922.0497, 341.1465
922.5319, 355.4017
923.0140, 372.7870
923.4961, 399.0762
923.9782, 427.0657
924.4603, 447.9889
924.9424, 464.9777
925.4246, 483.2167
925.9067, 505.0128
926.3888, 526.3092
926.8708, 542.2819
927.3530, 559.9308
927.8351, 593.2582
928.3172, 643.6699
928.7993, 692.2860
929.2814, 735.5717
929.7635, 776.0498
930.2457, 811.4246
930.7278, 848.3913
931.2099, 895.2261
931.6920, 956.1245
932.1741, 1021.945
932.6563, 1086.590
933.1384, 1160.319
933.6205, 1249.952
934.1026, 1356.846
934.5847, 1477.104
935.0668, 1610.763
935.5490, 1753.776
936.0311, 1885.976
936.5132, 2035.699
936.9953, 2232.600
937.4774, 2480.889
937.9595, 2777.742
938.4417, 3103.647
938.9238, 3502.357
939.4059, 3989.805
939.8880, 4560.315
940.3701, 5190.148
940.8522, 5876.288
941.3344, 6655.397
941.8165, 7545.032
942.2986, 8538.079
942.7807, 9628.646
943.2628, 10815.08
943.7449, 12088.78
944.2271, 13461.26
944.7092, 14929.75
945.1913, 16480.70
945.6734, 18124.07
946.1555, 19890.28
946.6376, 21765.50
947.1198, 23714.49
947.6019, 25744.39
948.0840, 27858.15
948.5661, 30197.18
949.0482, 32573.63
949.5303, 34816.08
950.0125, 37152.48
950.4946, 38588.75
950.9767, 39031.83
951.4588, 38579.10
951.9409, 37187.00
952.4230, 34859.97
952.9052, 32081.85
953.3873, 28838.18
953.8694, 25547.82
954.3515, 22314.38
954.8336, 19311.70
955.3157, 16677.51
955.7979, 14414.49
956.2800, 12408.95
956.7621, 10663.25
957.2442, 9121.749
957.7263, 7787.430
958.2084, 6653.641
958.6906, 5696.752
959.1727, 4909.391
959.6548, 4231.082
960.1369, 3657.311
960.6190, 3163.859
961.1011, 2746.244
961.5833, 2396.699
962.0654, 2113.251
962.5475, 1917.629
963.0296, 1744.426
963.5117, 1593.296
963.9938, 1459.338
964.4760, 1337.184
964.9581, 1227.732
965.4402, 1143.549
965.9223, 1088.749
966.4044, 1038.691
966.8865, 970.8246
967.3687, 904.1233
967.8508, 857.3133
968.3329, 835.1741
968.8150, 809.3836
969.2971, 777.3530
969.7792, 747.8329
970.2614, 725.3387
970.7435, 709.2072
971.2256, 697.9774
971.7077, 691.1723
972.1898, 685.8437
972.6719, 686.3490
973.1541, 682.0109
973.6362, 664.5563
974.1183, 638.4338
974.6004, 616.0387
975.0825, 597.5190
975.5646, 580.5538
976.0468, 563.9606
976.5289, 551.0836
977.0110, 547.9465
977.4931, 551.1747
977.9752, 554.8428
978.4573, 557.8334
978.9395, 560.1715
979.4216, 559.6647
979.9037, 560.3258
980.3858, 565.4895
980.8679, 575.9156
981.3500, 584.2783
981.8322, 589.6538
982.3143, 599.4821
982.7964, 622.5399
983.2785, 652.2178
983.7606, 680.9572
984.2427, 708.1639
984.7249, 733.6634
985.2070, 753.6024
985.6891, 776.8367
986.1712, 804.1721
986.6533, 837.4546
987.1354, 883.6649
987.6176, 940.9867
988.0997, 999.3832
988.5818, 1056.232
989.0639, 1111.946
989.5460, 1163.423
990.0281, 1215.051
990.5103, 1273.011
990.9924, 1336.550
991.4745, 1409.903
991.9566, 1495.423
992.4387, 1586.955
992.9208, 1681.301
993.4029, 1777.195
993.8850, 1863.904
994.3671, 1942.140
994.8492, 2030.039
995.3314, 2147.292
995.8135, 2271.207
996.2956, 2389.017
996.7777, 2501.915
997.2598, 2619.780
997.7419, 2746.221
998.2241, 2864.618
998.7062, 2966.562
999.1883, 3056.535
999.6704, 3140.401
1000.153, 3216.639
1000.635, 3284.738
1001.117, 3365.852
1001.599, 3406.040
1002.081, 3380.159
1002.563, 3315.789
1003.045, 3236.046
1003.527, 3140.371
1004.009, 3027.717
1004.492, 2897.315
1004.974, 2746.664
1005.456, 2556.670
1005.938, 2355.336
1006.420, 2163.629
1006.902, 1985.091
1007.384, 1811.954
1007.866, 1635.005
1008.349, 1479.457
1008.831, 1356.244
1009.313, 1257.036
1009.795, 1157.063
1010.277, 1057.639
1010.759, 964.0988
1011.241, 874.7961
1011.723, 798.0536
1012.205, 744.7201
1012.688, 703.6240
1013.170, 657.1439
1013.652, 599.8680
1014.134, 555.4373
1014.616, 525.7039
1015.098, 506.3522
1015.580, 499.1329
1016.062, 496.9402
1016.544, 487.3410
1017.027, 469.7551
1017.509, 450.8838
1017.991, 431.5208
1018.473, 413.7707
1018.955, 400.2843
1019.437, 388.5765
1019.919, 367.6235
1020.401, 337.8264
1020.884, 307.5890
1021.366, 279.6860
1021.848, 253.6766
1022.330, 230.5165
1022.812, 208.5904
1023.294, 185.4516
1023.776, 156.6170
1024.258, 134.2504
1024.740, 120.3986
1025.223, 109.3465
1025.705, 96.37381
1026.187, 82.17215
1026.669, 68.31699
1027.151, 54.94272
1027.633, 43.31656
1028.115, 34.68408
1028.597, 27.23706
1029.079, 19.70541
1029.562, 12.52222
1030.044, 7.917267
1030.526, 6.094543
1031.008, 4.009247
1031.490, 0.5443420
1031.972, 2.863922
1032.454, 3.446930
1032.936, 3.285248
1033.419, 5.702362
1033.901, 13.54758
1034.383, 18.91412
1034.865, 20.53754
1035.347, 20.86996
1035.829, 21.33923
1036.311, 22.00473
1036.793, 23.04630
1037.276, 24.48538
1037.758, 26.30164
1038.240, 30.22644
1038.722, 32.82742
1039.204, 30.95291
1039.686, 26.33115
1040.168, 24.41418
1040.650, 26.12598
1041.132, 25.52286
1041.615, 20.81714
1042.097, 15.56769
1042.579, 13.72314
1043.061, 14.51028
1043.543, 17.56000
1044.025, 24.02618
1044.507, 26.85020
1044.989, 22.64722
1045.471, 17.56586
1045.954, 14.96548
1046.436, 14.20303
1046.918, 12.01218
1047.400, 8.346375
1047.882, 2.896149
1048.364, 7.895325
1048.846, 16.95465
1049.328, 17.57458
1049.811, 14.46481
1050.293, 16.93167
1050.775, 26.65591
1051.257, 35.39883
1051.739, 42.04871
1052.221, 49.32904
1052.703, 59.80768
1053.185, 72.76541
1053.667, 87.43210
1054.150, 103.7755
1054.632, 122.6186
1055.114, 142.7415
1055.596, 167.1925
1056.078, 198.5479
1056.560, 234.8275
1057.042, 266.9473
1057.524, 297.1728
1058.006, 337.0623
1058.489, 391.5917
1058.971, 456.2906
1059.453, 533.8766
1059.935, 617.3047
1060.417, 696.9457
1060.899, 766.5757
1061.381, 855.7206
1061.863, 964.5247
1062.346, 1082.597
1062.828, 1196.673
1063.310, 1318.417
1063.792, 1469.284
1064.274, 1643.335
1064.756, 1807.891
1065.238, 1942.224
1065.720, 2083.364
1066.203, 2240.717
1066.685, 2406.938
1067.167, 2580.522
1067.649, 2751.598
1068.131, 2885.893
1068.613, 2978.794
1069.095, 3013.904
1069.577, 2980.669
1070.059, 2884.853
1070.542, 2723.313
1071.024, 2500.373
1071.506, 2265.769
1071.988, 2020.077
1072.470, 1783.397
1072.952, 1563.718
1073.434, 1367.674
1073.916, 1209.633
1074.398, 1082.252
1074.881, 976.0027
1075.363, 893.3972
1075.845, 822.9697
1076.327, 765.1233
1076.809, 717.8253
1077.291, 678.9792
1077.773, 649.0006
1078.255, 631.8732
1078.738, 627.0217
1079.220, 625.8380
1079.702, 623.9169
1080.184, 625.8560
1080.666, 636.7021
1081.148, 650.6040
1081.630, 652.6556
1082.112, 643.0392
1082.594, 624.7328
1083.077, 598.1223
1083.559, 563.3337
1084.041, 513.4475
1084.523, 460.4408
1085.005, 417.2968
1085.487, 386.3529
1085.969, 349.2678
1086.451, 302.9591
1086.933, 264.4493
1087.416, 246.8082
1087.898, 237.4663
1088.380, 215.8920
1088.862, 187.8188
1089.344, 166.2289
1089.826, 161.8669
1090.308, 154.9661
1090.790, 142.1942
1091.272, 127.4948
1091.755, 113.4166
1092.237, 100.9118
1092.719, 94.68948
1093.201, 94.71323
1093.683, 94.54262
1094.165, 91.75189
1094.647, 86.43738
1095.129, 75.71791
1095.612, 62.98160
1096.094, 59.03104
1096.576, 64.14412
1097.058, 65.39685
1097.540, 59.39354
1098.022, 51.16138
1098.504, 43.67116
1098.986, 37.63417
1099.469, 34.51567
1099.951, 35.18552
1100.433, 32.07658
1100.915, 23.48375
1101.397, 17.14496
1101.879, 17.96808
1102.361, 22.45885
1102.843, 25.67603
1103.325, 27.44011
1103.807, 27.62709
1104.290, 25.54405
1104.772, 22.74055
1105.254, 19.04666
1105.736, 15.61729
1106.218, 13.10518
1106.700, 11.44847
1107.182, 13.33981
1107.664, 18.13367
1108.147, 20.63974
1108.629, 16.60095
1109.111, 11.31870
1109.593, 5.014679
1110.075, 0.5132450
1110.557, 0.4273530
1111.039, 5.120285
1111.521, 6.905853
1112.004, 2.549011
1112.486, 0.3624110
1112.968, 9.393372
1113.450, 19.93611
1113.932, 18.69926
1114.414, 5.271225
1114.896, 4.6000001E-05
1115.378, 4.469894
1115.860, 8.667435
1116.343, 8.946671
1116.825, 6.910858
1117.307, 2.918594
1117.789, 1.192627
1118.271, 2.431427
1118.753, 1.012695
1119.235, 5.131653
1119.717, 10.25655
1120.199, 14.86638
1120.682, 18.99239
1121.164, 21.47871
1121.646, 17.22136
1122.128, 8.200226
1122.610, 1.785339
1123.092, 1.932663
1123.574, 4.327667
1124.056, 9.873199
1124.539, 14.91888
1125.021, 13.22212
1125.503, 6.430649
1125.985, 6.381271
1126.467, 13.89151
1126.949, 20.53186
1127.431, 21.05232
1127.913, 18.92191
1128.396, 14.23927
1128.878, 8.800400
1129.360, 7.886185
1129.842, 11.57410
1130.324, 15.48172
1130.806, 18.73688
1131.288, 21.50267
1131.770, 24.74908
1132.252, 26.98686
1132.734, 25.88799
1133.217, 21.01685
1133.699, 19.76376
1134.181, 22.91495
1134.663, 25.55632
1135.145, 25.88577
1135.627, 24.15932
1136.109, 18.43097
1136.591, 11.63043
1137.074, 8.867783
1137.556, 14.96744
1138.038, 17.09697
1138.520, 13.75394
1139.002, 9.848846
1139.484, 8.797134
1139.966, 9.944412
1140.448, 13.48924
1140.931, 18.20552
1141.413, 19.88956
1141.895, 12.89197
1142.377, 8.760956
1142.859, 11.27379
1143.341, 14.20244
1143.823, 7.379639
1144.305, 5.267960
1144.787, 6.938774
1145.270, 2.788025
1145.752, 10.72659
1146.234, 8.595337
1146.716, 4.339096
1147.198, 0.7010800
1147.680, 4.500671
1148.162, 1.077866
1148.644, 8.516724
1149.126, 15.70795
1149.609, 19.20599
1150.091, 19.35611
1150.573, 13.82997
1151.055, 7.253372
1151.537, 2.006821
1152.019, 1.635612
1152.501, 0.1412960
1152.983, 6.517685
1153.466, 11.27232
1153.948, 11.94838
1154.430, 10.51469
1154.912, 7.630920
1155.394, 4.624397
1155.876, 2.479691
1156.358, 1.038338
1156.840, 2.430023
1157.322, 7.210587
1157.805, 10.33426
1158.287, 8.144424
1158.769, 3.911057
1159.251, 1.2291000E-02
1159.733, 2.983849
1160.215, 3.622040
1160.697, 1.062233
1161.179, 2.709236
1161.661, 8.007828
1162.144, 13.63958
1162.626, 20.67555
1163.108, 25.72184
1163.590, 21.67230
1164.072, 11.20876
1164.554, 5.636612
1165.036, 11.71581
1165.518, 13.22906
1166.000, 6.453575
1166.483, 0.2101360
1166.965, 4.779266
1167.447, 15.78777
1167.929, 22.80033
1168.411, 25.24046
1168.893, 25.82142
1169.375, 23.73535
1169.857, 21.20795
1170.340, 17.77139
1170.822, 15.69514
1171.304, 19.83690
1171.786, 27.53339
1172.268, 31.58569
1172.750, 30.33580
1173.232, 30.39627
1173.714, 35.69324
1174.197, 40.93643
1174.679, 45.06718
1175.161, 47.01016
1175.643, 40.79985
1176.125, 29.17863
1176.607, 23.93081
1177.089, 30.22916
1177.571, 37.39415
1178.053, 41.29259
1178.536, 44.14502
1179.018, 47.24871
1179.500, 50.23228
1179.982, 50.71169
1180.464, 49.26556
1180.946, 49.92592
1181.428, 58.26942
1181.910, 63.49615
1182.392, 56.85966
1182.875, 46.69637
1183.357, 39.87598
1183.839, 36.59444
1184.321, 39.79785
1184.803, 48.70356
1185.285, 54.67746
1185.767, 49.14469
1186.249, 43.08392
1186.732, 43.28087
1187.214, 46.03477
1187.696, 46.29310
1188.178, 43.90552
1188.660, 42.74348
1189.142, 42.99106
1189.624, 42.86426
1190.106, 33.06317
1190.589, 30.48173
1191.071, 60.11681
1191.553, 100.7581
1192.035, 101.7375
1192.517, 59.66961
1192.999, 35.51369
1193.481, 37.66605
1193.963, 45.51810
1194.445, 44.36566
1194.927, 39.98579
1195.410, 36.13858
1195.892, 32.93269
1196.374, 29.78642
1196.856, 26.54072
1197.338, 26.46152
1197.820, 31.28236
1198.302, 33.73077
1198.784, 21.54417
1199.267, 7.940987
1199.749, 7.205940
1200.231, 18.15948
1200.713, 22.35902
1201.195, 19.15903
1201.677, 15.74645
1202.159, 13.84035
1202.641, 12.31783
1203.124, 9.935097
1203.606, 7.574097
1204.088, 6.904602
1204.570, 8.062820
1205.052, 6.391045
1205.534, 1.222130
1206.016, 5.1483002E-02
1206.498, 7.811646
1206.980, 16.67332
1207.463, 19.26993
1207.945, 17.97552
1208.427, 15.02585
1208.909, 10.00853
1209.391, 9.366882
1209.873, 13.79298
1210.355, 14.85775
1210.837, 3.881721
1211.319, 7.851166
1211.802, 6.882668
1212.284, 0.5040820
1212.766, 4.489716
1213.248, 3.559868
1213.730, 2.463348
1214.212, 1.145287
1214.694, 0.3510440
1215.176, 1.323181
1215.659, 2.355850
1216.141, 0.9517900
1216.623, 1.394157
1217.105, 1.458107
1217.587, 1.999771
1218.069, 2.950996
1218.551, 1.225533
1219.033, 1.120819
1219.516, 3.945129
1219.998, 5.455452
1220.480, 1.570580
1220.962, 4.516525
1221.444, 3.901382
1221.926, 6.134842
1222.408, 10.25476
1222.890, 6.432869
1223.372, 1.938293
1223.854, 4.054016
1224.337, 7.681076
1224.819, 7.398491
1225.301, 4.197853
1225.783, 2.511322
1226.265, 2.520866
1226.747, 3.559952
1227.229, 5.732582
1227.711, 7.338562
1228.193, 6.823837
1228.676, 5.054688
1229.158, 2.200439
1229.640, 1.322914
1230.122, 3.940666
1230.604, 5.569603
1231.086, 7.325844
1231.568, 9.724197
1232.050, 10.06345
1232.533, 1.558731
1233.015, 6.396164
1233.497, 2.770622
1233.979, 9.051949
1234.461, 10.69791
1234.943, 1.714081
1235.425, 5.073929
1235.907, 6.786552
1236.390, 5.597351
1236.872, 7.6874003E-02
1237.354, 5.033119
1237.836, 4.056625
1238.318, 1.524384
1238.800, 6.381699
1239.282, 10.47338
1239.764, 10.30271
1240.246, 3.926353
1240.729, 2.710648
1241.211, 4.697289
1241.693, 5.189522
1242.175, 6.307785
1242.657, 8.067284
1243.139, 11.00701
1243.621, 14.84042
1244.103, 15.43992
1244.585, 9.978516
1245.068, 6.076942
1245.550, 10.63014
1246.032, 16.77802
1246.514, 20.03494
1246.996, 20.55061
1247.478, 17.95777
1247.960, 13.01608
1248.442, 10.68713
1248.925, 13.28066
1249.407, 17.09566
1249.889, 21.98244
1250.371, 25.65347
1250.853, 25.59826
1251.335, 23.16383
1251.817, 27.32006
1252.299, 36.12175
1252.781, 41.20655
1253.264, 37.74405
1253.746, 33.94006
1254.228, 33.10677
1254.710, 32.08267
1255.192, 27.89991
1255.674, 22.22434
1256.156, 23.13056
1256.638, 28.76092
1257.120, 33.23262
1257.603, 33.88696
1258.085, 34.03049
1258.567, 33.63684
1259.049, 34.03233
1259.531, 36.45253
1260.013, 40.18355
1260.495, 43.48454
1260.977, 46.49989
1261.460, 49.23936
1261.942, 52.33134
1262.424, 53.10751
1262.906, 50.31290
1263.388, 48.42059
1263.870, 52.00510
1264.352, 57.40936
1264.834, 57.90923
1265.317, 53.88315
1265.799, 48.27579
1266.281, 37.75536
1266.763, 35.47249
1267.245, 43.62570
1267.727, 51.68047
1268.209, 48.80348
1268.691, 43.25635
1269.173, 45.30874
1269.656, 51.35699
1270.138, 55.13751
1270.620, 55.29017
1271.102, 50.69701
1271.584, 41.97949
1272.066, 35.41727
1272.548, 40.65268
1273.030, 48.51947
1273.512, 51.66583
1273.995, 51.09309
1274.477, 48.28792
1274.959, 42.02370
1275.441, 38.46864
1275.923, 37.80424
1276.405, 38.90065
1276.887, 45.74956
1277.369, 50.63007
1277.852, 45.75330
1278.334, 38.80592
1278.816, 39.61494
1279.298, 47.37352
1279.780, 49.80338
1280.262, 47.34396
1280.744, 44.72987
1281.226, 46.53992
1281.708, 47.09974
1282.191, 42.00181
1282.673, 36.51346
1283.155, 37.42858
1283.637, 43.31473
1284.119, 46.36906
1284.601, 46.46239
1285.083, 45.23645
1285.565, 41.30086
1286.047, 39.47224
1286.530, 42.08781
1287.012, 44.53322
1287.494, 39.86043
1287.976, 31.89327
1288.458, 30.73663
1288.940, 35.31425
1289.422, 39.21112
1289.904, 41.01291
1290.386, 40.53447
1290.869, 37.04228
1291.351, 33.46775
1291.833, 33.66872
1292.315, 34.90871
1292.797, 31.19521
1293.279, 24.95325
1293.761, 27.02702
1294.243, 44.36501
1294.726, 46.81649
1295.208, 29.87118
1295.690, 14.45715
1296.172, 22.70306
1296.654, 36.42317
1297.136, 38.52550
1297.618, 33.22757
1298.100, 32.56984
1298.583, 37.24902
1299.065, 40.16486
1299.547, 40.90430
1300.029, 40.82660
1300.511, 42.26707
1300.993, 41.64026
1301.475, 32.72165
1301.957, 23.22923
1302.439, 25.07063
1302.922, 36.41965
1303.404, 39.90396
1303.886, 35.47124
1304.368, 30.85060
1304.850, 29.88426
1305.332, 29.77044
1305.814, 29.65147
1306.296, 30.12337
1306.778, 32.23451
1307.261, 35.34425
1307.743, 37.80665
1308.225, 39.66447
1308.707, 41.49978
1309.189, 43.78909
1309.671, 45.73009
1310.153, 47.54331
1310.635, 48.13342
1311.118, 44.64764
1311.600, 40.66499
1312.082, 41.24231
1312.564, 45.43116
1313.046, 49.93417
1313.528, 54.55580
1314.010, 59.41694
1314.492, 64.74171
1314.974, 68.55915
1315.457, 65.76932
1315.939, 64.68816
1316.421, 74.47027
1316.903, 89.38004
1317.385, 100.4274
1317.867, 108.1658
1318.349, 0.7317790
1318.831, 0.0000000E+00
##END=



