##NAMES=Triphylite
##RRUFFID=R050424
##IDEAL CHEMISTRY=LiFe^2+^PO_4_
##LOCALITY=Karibib, Namibia
##OWNER=RRUFF
##SOURCE=John Lucking
##DESCRIPTION=Lime-green fine-grained massive
##STATUS=The identification of this mineral has been confirmed by X-ray diffraction and chemical analysis
##URL=rruff.info/R050424
##MEASURED CHEMISTRY=Li_1.00_(Fe^2+^_0.70_Mn^2+^_0.28_Mg_0.02_)_Î£=1_P_1.00_O_4_
54.29523, 0.0000000E+00
54.77734, 12.79799
55.25946, 11.00294
55.74158, 11.03137
56.22369, 15.10702
56.70581, 17.96988
57.18793, 17.01543
57.67004, 18.52026
58.15216, 14.11096
58.63428, 14.50638
59.11639, 20.86707
59.59851, 22.85240
60.08063, 10.11306
60.56274, 1.446225
61.04486, 1.743600
61.52698, 10.79203
62.00909, 28.23015
62.49121, 38.31580
62.97333, 38.07273
63.45544, 34.76519
63.93756, 24.40059
64.41968, 13.86744
64.90179, 9.051921
65.38391, 13.80401
65.86603, 24.50492
66.34814, 37.90441
66.83026, 65.69099
67.31238, 83.39358
67.79449, 84.16672
68.27661, 73.66244
68.75873, 60.01107
69.24084, 47.62986
69.72296, 36.92632
70.20508, 29.83792
70.68719, 25.61134
71.16931, 24.57653
71.65143, 29.32424
72.13354, 38.57642
72.61566, 47.45012
73.09778, 49.21887
73.57990, 44.24393
74.06201, 39.04131
74.54413, 34.13109
75.02625, 29.38054
75.50836, 22.06555
75.99048, 11.28022
76.47260, 4.921612
76.95471, 17.14573
77.43683, 41.19920
77.91895, 56.80625
78.40106, 51.44958
78.88318, 34.06432
79.36530, 26.26089
79.84741, 34.85547
80.32953, 47.60064
80.81165, 55.32483
81.29376, 62.28578
81.77588, 64.04902
82.25800, 65.65144
82.74011, 65.47301
83.22223, 60.18533
83.70435, 46.60263
84.18646, 37.30704
84.66858, 38.31962
85.15070, 43.35167
85.63281, 51.10876
86.11493, 53.28344
86.59705, 48.25563
87.07916, 43.70877
87.56128, 40.54078
88.04340, 37.82754
88.52551, 36.34822
89.00763, 36.73609
89.48975, 36.66994
89.97186, 33.09655
90.45398, 20.06042
90.93610, 14.47387
91.41821, 23.30301
91.90033, 36.59199
92.38245, 45.21717
92.86456, 45.02094
93.34668, 38.13320
93.82880, 31.50894
94.31091, 23.39543
94.79303, 17.57027
95.27515, 14.79581
95.75726, 14.50183
96.23938, 16.57084
96.72150, 21.43456
97.20361, 28.05878
97.68573, 28.68658
98.16785, 18.60242
98.64996, 8.832713
99.13208, 2.710413
99.61420, 6.5287001E-02
100.0963, 0.8391720
100.5784, 0.1891450
101.0605, 1.830109
101.5427, 3.723276
102.0248, 5.345657
102.5069, 6.958533
102.9890, 8.589157
103.4711, 10.26030
103.9532, 12.30030
104.4354, 15.16864
104.9175, 18.69086
105.3996, 21.78556
105.8817, 27.30824
106.3638, 30.95534
106.8459, 25.40388
107.3281, 8.154277
107.8102, 8.294107
108.2923, 10.32821
108.7744, 3.077821
109.2565, 2.285998
109.7386, 1.422664
110.2208, 9.480103
110.7029, 10.04130
111.1850, 1.527662
111.6671, 13.18245
112.1492, 17.88017
112.6313, 16.21485
113.1135, 10.86661
113.5956, 0.3901940
114.0777, 15.81505
114.5598, 22.58668
115.0419, 12.95156
115.5240, 2.059462
116.0062, 1.438520
116.4883, 1.302204
116.9704, 4.640978
117.4525, 3.276186
117.9346, 3.349354
118.4167, 7.691013
118.8989, 8.275537
119.3810, 7.733122
119.8631, 5.335072
120.3452, 1.845100
120.8273, 0.1220510
121.3094, 4.076458
121.7916, 18.50509
122.2737, 24.59393
122.7558, 13.52042
123.2379, 1.253525
123.7200, 4.273155
124.2021, 1.689831
124.6843, 5.977745
125.1664, 15.14491
125.6485, 28.04055
126.1306, 37.73980
126.6127, 41.66552
127.0948, 44.75605
127.5770, 50.72800
128.0591, 60.33218
128.5412, 71.59400
129.0233, 80.69791
129.5054, 81.90209
129.9875, 90.66725
130.4697, 112.8683
130.9518, 139.0692
131.4339, 160.9573
131.9160, 175.7897
132.3981, 186.1081
132.8802, 196.7964
133.3624, 207.8846
133.8445, 219.3044
134.3266, 229.2882
134.8087, 240.3579
135.2908, 255.1866
135.7729, 274.7605
136.2551, 298.0378
136.7372, 323.2252
137.2193, 352.2657
137.7014, 379.7682
138.1835, 402.8428
138.6656, 424.1185
139.1478, 447.2614
139.6299, 473.2072
140.1120, 503.1389
140.5941, 540.1922
141.0762, 581.1587
141.5583, 631.7753
142.0405, 695.1588
142.5226, 769.4329
143.0047, 850.3080
143.4868, 936.7729
143.9689, 1028.855
144.4510, 1127.804
144.9332, 1236.171
145.4153, 1344.499
145.8974, 1457.346
146.3795, 1569.272
146.8616, 1659.937
147.3438, 1724.479
147.8259, 1756.095
148.3080, 1750.788
148.7901, 1698.964
149.2722, 1632.893
149.7543, 1565.968
150.2365, 1498.854
150.7186, 1441.408
151.2007, 1395.048
151.6828, 1363.873
152.1649, 1351.116
152.6470, 1359.228
153.1292, 1377.757
153.6113, 1405.205
154.0934, 1441.664
154.5755, 1468.639
155.0576, 1485.535
155.5397, 1483.254
156.0219, 1452.605
156.5040, 1389.838
156.9861, 1305.377
157.4682, 1202.026
157.9503, 1077.342
158.4324, 961.4973
158.9146, 865.9566
159.3967, 785.2331
159.8788, 717.2189
160.3609, 662.8069
160.8430, 616.5493
161.3251, 574.6021
161.8073, 538.5967
162.2894, 499.3940
162.7715, 447.4220
163.2536, 394.6306
163.7357, 349.6778
164.2178, 315.5278
164.7000, 287.5092
165.1821, 258.3739
165.6642, 224.9845
166.1463, 199.4524
166.6284, 189.0158
167.1105, 185.6390
167.5927, 184.8783
168.0748, 185.5275
168.5569, 185.3101
169.0390, 180.2005
169.5211, 167.5270
170.0032, 155.1094
170.4854, 142.9920
170.9675, 132.5417
171.4496, 125.3760
171.9317, 121.3499
172.4138, 118.4184
172.8959, 113.1555
173.3781, 104.0518
173.8602, 96.09651
174.3423, 89.46870
174.8244, 83.81847
175.3065, 80.02832
175.7886, 78.41942
176.2708, 76.84235
176.7529, 71.14330
177.2350, 56.25352
177.7171, 49.01059
178.1992, 58.85754
178.6813, 70.87273
179.1635, 72.69839
179.6456, 61.16452
180.1277, 44.73764
180.6098, 38.04308
181.0919, 46.84401
181.5740, 53.15588
182.0562, 55.68692
182.5383, 56.68370
183.0204, 57.50925
183.5025, 58.57269
183.9846, 59.26875
184.4667, 58.39185
184.9489, 54.45573
185.4310, 52.06119
185.9131, 52.95941
186.3952, 54.08058
186.8773, 52.82314
187.3594, 48.80186
187.8416, 44.04265
188.3237, 41.53378
188.8058, 42.39929
189.2879, 43.42261
189.7700, 44.79398
190.2521, 46.14752
190.7343, 46.13847
191.2164, 45.05052
191.6985, 45.63397
192.1806, 52.47673
192.6627, 71.18617
193.1448, 82.44504
193.6270, 82.34256
194.1091, 79.31033
194.5912, 78.09956
195.0733, 79.61411
195.5554, 82.42488
196.0375, 84.85886
196.5197, 86.98157
197.0018, 88.51248
197.4839, 88.18243
197.9660, 88.37370
198.4481, 91.16460
198.9302, 96.27635
199.4124, 101.4186
199.8945, 104.0717
200.3766, 103.6821
200.8587, 102.8456
201.3408, 105.5785
201.8229, 104.6764
202.3051, 92.49066
202.7872, 71.47365
203.2693, 52.88304
203.7514, 48.98256
204.2335, 64.05122
204.7156, 65.45833
205.1978, 39.65446
205.6799, 15.23323
206.1620, 6.153488
206.6441, 10.60375
207.1262, 19.18521
207.6083, 24.91656
208.0905, 28.06693
208.5726, 22.89948
209.0547, 4.325302
209.5368, 25.23271
210.0189, 23.77162
210.5010, 6.511444
210.9832, 8.468323
211.4653, 7.078491
211.9474, 9.942642
212.4295, 17.42422
212.9116, 6.964386
213.3937, 3.347397
213.8759, 8.534943
214.3580, 9.728958
214.8401, 10.06526
215.3222, 11.63322
215.8043, 13.90456
216.2864, 12.71701
216.7686, 0.7376860
217.2507, 6.434967
217.7328, 3.027084
218.2149, 6.644211
218.6970, 15.90941
219.1791, 21.23753
219.6613, 23.65215
220.1434, 27.14317
220.6255, 36.40063
221.1076, 41.21495
221.5897, 36.25270
222.0718, 27.70889
222.5540, 23.69423
223.0361, 27.74716
223.5182, 36.48288
224.0003, 41.20589
224.4824, 38.63046
224.9645, 35.80753
225.4467, 33.52855
225.9288, 30.80655
226.4109, 25.32480
226.8930, 16.62949
227.3751, 8.338425
227.8572, 7.327606
228.3394, 21.11369
228.8215, 29.98077
229.3036, 29.54173
229.7857, 27.39320
230.2678, 29.04112
230.7499, 35.76752
231.2321, 45.88814
231.7142, 57.77884
232.1963, 73.90466
232.6784, 84.96378
233.1605, 87.87329
233.6426, 89.07108
234.1248, 90.74887
234.6069, 94.06267
235.0890, 101.2132
235.5711, 115.8849
236.0532, 141.7569
236.5353, 156.0434
237.0175, 148.1493
237.4996, 140.2195
237.9817, 142.5211
238.4638, 153.7426
238.9459, 166.4279
239.4280, 173.9799
239.9102, 176.1019
240.3923, 184.9111
240.8744, 212.6040
241.3565, 234.4627
241.8386, 238.5450
242.3207, 232.0483
242.8029, 228.9165
243.2850, 238.3677
243.7671, 258.8029
244.2492, 278.9958
244.7313, 297.3907
245.2134, 317.6798
245.6956, 346.1196
246.1777, 375.1889
246.6598, 394.0029
247.1419, 397.0194
247.6240, 389.7266
248.1061, 388.2094
248.5883, 397.5777
249.0704, 404.8090
249.5525, 409.9954
250.0346, 411.8424
250.5167, 409.1798
250.9988, 402.1910
251.4810, 390.6363
251.9631, 375.0674
252.4452, 353.8094
252.9273, 333.6562
253.4094, 315.7597
253.8915, 298.5964
254.3737, 280.9922
254.8558, 262.8564
255.3379, 245.2002
255.8200, 229.4290
256.3021, 216.1838
256.7842, 202.0338
257.2664, 183.6818
257.7485, 167.1399
258.2306, 155.5261
258.7127, 148.3236
259.1948, 142.6035
259.6769, 135.5499
260.1591, 127.2308
260.6412, 121.5976
261.1233, 118.4967
261.6054, 118.6815
262.0875, 125.9140
262.5696, 136.2835
263.0518, 141.8709
263.5339, 136.3620
264.0160, 123.3812
264.4981, 116.2426
264.9802, 117.7561
265.4623, 119.9651
265.9445, 121.2599
266.4266, 121.0468
266.9087, 118.4548
267.3908, 112.4342
267.8729, 104.6015
268.3550, 96.79633
268.8372, 88.58794
269.3193, 80.70259
269.8014, 70.93240
270.2835, 62.05461
270.7656, 59.19470
271.2477, 64.15675
271.7299, 67.61804
272.2120, 56.31897
272.6941, 30.40744
273.1762, 14.72853
273.6583, 20.62785
274.1404, 33.56769
274.6226, 41.55331
275.1047, 44.09433
275.5868, 43.59203
276.0689, 39.24039
276.5510, 32.58253
277.0331, 29.34398
277.5153, 31.34219
277.9974, 36.03923
278.4795, 37.85280
278.9616, 36.83521
279.4437, 41.18393
279.9258, 58.60727
280.4080, 81.21912
280.8901, 97.19138
281.3722, 105.6742
281.8543, 110.5299
282.3364, 113.5063
282.8185, 114.7215
283.3007, 114.6189
283.7828, 110.7074
284.2649, 107.9431
284.7470, 110.8242
285.2291, 118.3709
285.7112, 126.2625
286.1934, 133.7403
286.6755, 141.3567
287.1576, 147.2542
287.6397, 148.3989
288.1218, 147.7510
288.6039, 146.2081
289.0861, 145.4761
289.5682, 150.1512
290.0503, 163.1102
290.5324, 176.7077
291.0145, 175.8233
291.4966, 154.2584
291.9788, 136.8561
292.4609, 130.5310
292.9430, 129.5471
293.4251, 128.8777
293.9072, 127.1602
294.3893, 123.1667
294.8715, 114.6176
295.3536, 100.5318
295.8357, 93.84958
296.3178, 100.0096
296.7999, 109.7093
297.2820, 118.7626
297.7642, 124.6125
298.2463, 124.4082
298.7284, 115.8939
299.2105, 100.6246
299.6926, 91.64391
300.1747, 97.09743
300.6569, 99.30740
301.1390, 92.95712
301.6211, 81.99930
302.1032, 71.49767
302.5853, 63.79541
303.0674, 58.15973
303.5496, 52.60522
304.0317, 46.63045
304.5138, 41.68047
304.9959, 37.98050
305.4780, 35.05069
305.9601, 33.91428
306.4423, 33.98918
306.9244, 31.99480
307.4065, 22.09726
307.8886, 1.338684
308.3707, 10.33830
308.8528, 5.401917
309.3350, 2.302185
309.8171, 9.770309
310.2992, 16.16110
310.7813, 20.62845
311.2634, 22.11163
311.7455, 21.39943
312.2277, 22.41994
312.7098, 26.96599
313.1919, 30.05666
313.6740, 29.52664
314.1561, 27.06818
314.6382, 24.24318
315.1204, 21.30142
315.6025, 19.33554
316.0846, 20.73447
316.5667, 26.12984
317.0488, 29.85605
317.5309, 29.19948
318.0131, 27.07390
318.4952, 25.41586
318.9773, 25.58548
319.4594, 27.22163
319.9415, 32.96001
320.4236, 41.70995
320.9058, 44.40189
321.3879, 38.32303
321.8700, 29.18718
322.3521, 19.98355
322.8342, 11.28366
323.3163, 5.953766
323.7985, 7.388962
324.2806, 11.08450
324.7627, 11.96962
325.2448, 9.926208
325.7269, 6.854904
326.2090, 2.835571
326.6912, 0.9826510
327.1733, 1.108459
327.6554, 4.070618
328.1375, 10.67619
328.6196, 19.37000
329.1017, 28.10710
329.5839, 31.87312
330.0660, 28.53072
330.5481, 21.21271
331.0302, 15.13304
331.5123, 9.424347
331.9944, 7.238724
332.4766, 12.35620
332.9587, 18.77428
333.4408, 22.12616
333.9229, 21.55075
334.4050, 16.85477
334.8871, 6.347275
335.3693, 11.38364
335.8514, 16.29715
336.3335, 4.343918
336.8156, 22.62979
337.2977, 27.96156
337.7798, 24.30231
338.2620, 19.43784
338.7441, 17.52632
339.2262, 17.79518
339.7083, 18.12651
340.1904, 20.23582
340.6725, 19.25426
341.1547, 11.85490
341.6368, 3.364868
342.1189, 0.3390660
342.6010, 1.266220
343.0831, 1.900314
343.5652, 9.713837
344.0474, 36.62225
344.5295, 47.14133
345.0116, 24.15367
345.4937, 1.004913
345.9758, 6.910614
346.4579, 2.318741
346.9401, 6.527100
347.4222, 18.81810
347.9043, 30.35123
348.3864, 28.88071
348.8685, 10.07864
349.3506, 5.696899
349.8328, 5.530396
350.3149, 1.815857
350.7970, 6.183304
351.2791, 5.952103
351.7612, 3.008469
352.2433, 5.014893
352.7255, 15.54204
353.2076, 15.67845
353.6897, 2.196167
354.1718, 23.16205
354.6539, 24.97311
355.1360, 8.312622
355.6182, 5.403702
356.1003, 10.89507
356.5824, 11.52969
357.0645, 9.186493
357.5466, 4.472275
358.0287, 1.8936001E-02
358.5109, 2.796341
358.9930, 3.708405
359.4751, 5.0476000E-02
359.9572, 10.00566
360.4393, 21.68063
360.9214, 38.76074
361.4036, 55.18604
361.8857, 60.65157
362.3678, 51.22920
362.8499, 33.44896
363.3320, 18.81322
363.8141, 6.491699
364.2963, 0.3518830
364.7784, 0.3349300
365.2605, 4.003128
365.7426, 9.608414
366.2247, 15.25084
366.7068, 18.69572
367.1890, 15.56242
367.6711, 6.844269
368.1532, 10.91667
368.6353, 39.90527
369.1174, 64.81020
369.5995, 79.54266
370.0817, 85.34399
370.5638, 81.63248
371.0459, 67.00320
371.5280, 50.44093
372.0101, 46.47307
372.4922, 56.35938
372.9744, 61.15387
373.4565, 54.64517
373.9386, 43.58206
374.4207, 34.00906
374.9028, 25.77032
375.3849, 15.74216
375.8671, 6.324860
376.3492, 28.51624
376.8313, 23.64549
377.3134, 13.01000
377.7955, 47.14900
378.2776, 54.52586
378.7598, 40.35405
379.2419, 30.60110
379.7240, 28.94554
380.2061, 27.82094
380.6882, 21.30362
381.1703, 12.81952
381.6525, 11.14755
382.1346, 19.77144
382.6167, 31.79245
383.0988, 36.33524
383.5809, 28.54793
384.0630, 24.71669
384.5452, 27.74644
385.0273, 32.36058
385.5094, 35.87468
385.9915, 37.89265
386.4736, 38.82289
386.9557, 38.87660
387.4379, 38.34830
387.9200, 39.46381
388.4021, 43.44710
388.8842, 47.59009
389.3663, 51.11279
389.8484, 54.68161
390.3306, 59.37909
390.8127, 65.38739
391.2948, 71.43703
391.7769, 76.31506
392.2590, 80.05463
392.7411, 81.64786
393.2233, 78.36488
393.7054, 74.69034
394.1875, 73.64836
394.6696, 74.38095
395.1517, 77.18440
395.6339, 82.72858
396.1160, 90.14664
396.5981, 98.98218
397.0802, 109.3278
397.5623, 118.3369
398.0444, 125.3439
398.5266, 129.6438
399.0087, 129.5234
399.4908, 122.3865
399.9729, 118.2012
400.4550, 122.6560
400.9371, 131.9834
401.4193, 140.3458
401.9014, 145.9068
402.3835, 151.1158
402.8656, 159.8465
403.3477, 172.3195
403.8298, 182.7399
404.3120, 189.6837
404.7941, 195.1167
405.2762, 200.0066
405.7583, 203.7713
406.2404, 205.5728
406.7225, 205.7665
407.2047, 205.8323
407.6868, 207.9847
408.1689, 210.6039
408.6510, 218.2178
409.1331, 239.4392
409.6152, 258.8401
410.0974, 264.6304
410.5795, 259.5376
411.0616, 256.9317
411.5437, 266.3495
412.0258, 284.3047
412.5079, 303.8739
412.9901, 328.4358
413.4722, 348.9580
413.9543, 353.7868
414.4364, 354.9544
414.9185, 366.4629
415.4006, 392.6553
415.8828, 418.9300
416.3649, 431.3937
416.8470, 436.3183
417.3291, 452.7563
417.8112, 486.1933
418.2933, 520.9581
418.7755, 540.3364
419.2576, 544.5341
419.7397, 557.6127
420.2218, 589.1685
420.7039, 621.2958
421.1860, 640.9586
421.6682, 653.7792
422.1503, 673.4080
422.6324, 706.4269
423.1145, 747.6016
423.5966, 785.3583
424.0787, 813.6438
424.5609, 850.4161
425.0430, 903.5671
425.5251, 957.6733
426.0072, 1002.808
426.4893, 1039.829
426.9714, 1074.529
427.4536, 1110.329
427.9357, 1147.888
428.4178, 1187.889
428.8999, 1227.341
429.3820, 1276.056
429.8641, 1343.861
430.3463, 1418.542
430.8284, 1489.291
431.3105, 1554.111
431.7926, 1617.756
432.2747, 1684.498
432.7568, 1752.988
433.2390, 1818.317
433.7211, 1878.932
434.2032, 1938.210
434.6853, 1999.862
435.1674, 2065.453
435.6495, 2137.880
436.1317, 2232.780
436.6138, 2318.494
437.0959, 2374.089
437.5780, 2410.037
438.0601, 2446.714
438.5422, 2491.107
439.0244, 2539.392
439.5065, 2585.701
439.9886, 2629.446
440.4707, 2672.727
440.9528, 2722.868
441.4349, 2766.070
441.9171, 2795.515
442.3992, 2812.792
442.8813, 2822.250
443.3634, 2826.021
443.8455, 2824.325
444.3276, 2820.513
444.8098, 2820.759
445.2919, 2798.889
445.7740, 2727.860
446.2561, 2648.125
446.7382, 2586.717
447.2203, 2543.722
447.7025, 2500.025
448.1846, 2447.705
448.6667, 2386.284
449.1488, 2311.672
449.6309, 2222.557
450.1130, 2135.999
450.5952, 2060.722
451.0773, 1994.203
451.5594, 1929.413
452.0415, 1867.243
452.5236, 1804.976
453.0057, 1743.042
453.4879, 1680.167
453.9700, 1612.907
454.4521, 1542.033
454.9342, 1475.549
455.4163, 1420.351
455.8984, 1375.949
456.3806, 1330.326
456.8627, 1285.146
457.3448, 1237.051
457.8269, 1181.287
458.3090, 1125.296
458.7911, 1077.804
459.2733, 1040.775
459.7554, 1005.223
460.2375, 958.2205
460.7196, 900.2458
461.2017, 849.9218
461.6838, 809.1033
462.1660, 774.9911
462.6481, 751.1268
463.1302, 731.6594
463.6123, 703.8220
464.0944, 658.3655
464.5765, 612.3619
465.0587, 580.1445
465.5408, 559.5972
466.0229, 545.3217
466.5050, 536.4006
466.9871, 527.9276
467.4692, 515.2065
467.9514, 498.8512
468.4335, 477.6745
468.9156, 445.0167
469.3977, 412.8844
469.8798, 385.0388
470.3619, 362.7164
470.8441, 350.3001
471.3262, 350.3177
471.8083, 354.2066
472.2904, 341.5138
472.7725, 301.6670
473.2546, 274.1918
473.7368, 275.3600
474.2189, 279.1319
474.7010, 275.0779
475.1831, 263.0315
475.6652, 246.0859
476.1473, 223.7477
476.6295, 201.6449
477.1116, 187.3766
477.5937, 180.5280
478.0758, 177.3891
478.5579, 179.1717
479.0400, 181.8425
479.5222, 179.0808
480.0043, 170.9435
480.4864, 160.9854
480.9685, 145.8106
481.4506, 132.2814
481.9327, 129.2514
482.4149, 133.6629
482.8970, 133.8594
483.3791, 123.0492
483.8612, 106.3526
484.3433, 98.62155
484.8254, 108.1818
485.3076, 111.8173
485.7897, 108.1001
486.2718, 99.79367
486.7539, 84.85190
487.2360, 66.26334
487.7181, 52.48541
488.2003, 50.09763
488.6824, 55.00336
489.1645, 58.80289
489.6466, 61.94241
490.1287, 60.47263
490.6108, 49.80136
491.0930, 36.67993
491.5751, 29.78687
492.0572, 29.40146
492.5393, 29.33948
493.0214, 26.17798
493.5035, 23.28900
493.9857, 23.84888
494.4678, 27.93179
494.9499, 35.60251
495.4320, 47.84210
495.9141, 61.36624
496.3962, 66.93076
496.8784, 58.37482
497.3605, 50.78217
497.8426, 43.45856
498.3247, 37.58566
498.8068, 33.76663
499.2889, 32.12277
499.7711, 33.27582
500.2532, 39.05093
500.7353, 46.06998
501.2174, 43.41882
501.6995, 28.22974
502.1816, 17.34271
502.6638, 16.71506
503.1459, 21.53601
503.6280, 27.64185
504.1101, 34.91245
504.5922, 40.81879
505.0743, 43.99582
505.5565, 45.63022
506.0386, 46.55658
506.5207, 46.95728
507.0028, 47.38504
507.4849, 48.16245
507.9670, 48.97122
508.4492, 48.94730
508.9313, 46.07541
509.4134, 46.29227
509.8955, 59.16278
510.3776, 66.43039
510.8597, 51.39832
511.3419, 21.44934
511.8240, 3.776398
512.3061, 13.29936
512.7882, 10.45062
513.2703, 2.707458
513.7524, 29.58087
514.2346, 40.84973
514.7167, 20.41202
515.1988, 7.155212
515.6809, 21.01457
516.1630, 22.46057
516.6451, 19.48286
517.1273, 12.34638
517.6094, 3.535400
518.0915, 7.537506
518.5736, 18.82306
519.0557, 23.19742
519.5378, 17.34402
520.0200, 7.725922
520.5021, 5.158661
520.9842, 13.99359
521.4663, 15.31573
521.9484, 3.409760
522.4305, 8.957733
522.9127, 18.82716
523.3948, 24.96185
523.8769, 24.40675
524.3590, 15.41248
524.8411, 5.500122
525.3232, 7.372849
525.8054, 20.61769
526.2875, 27.39839
526.7696, 23.81285
527.2517, 16.53954
527.7338, 7.900391
528.2159, 0.5588680
528.6981, 3.708984
529.1802, 5.203171
529.6623, 12.21896
530.1444, 4.667908
530.6265, 7.946411
531.1086, 7.156677
531.5908, 10.49002
532.0729, 29.58969
532.5550, 33.58997
533.0371, 22.23573
533.5192, 15.14537
534.0013, 17.55991
534.4835, 17.67232
534.9656, 11.08504
535.4477, 2.371613
535.9298, 3.231750
536.4119, 4.915710
536.8940, 7.030518
537.3762, 17.34335
537.8583, 30.75732
538.3404, 28.95715
538.8225, 9.265594
539.3046, 8.502182
539.7867, 13.99124
540.2689, 10.41656
540.7510, 5.241470
541.2331, 2.549438
541.7152, 9.236481
542.1973, 13.27280
542.6794, 16.49771
543.1616, 20.40283
543.6437, 24.99930
544.1258, 29.29889
544.6079, 32.47446
545.0900, 35.74084
545.5721, 43.35648
546.0543, 58.08963
546.5364, 68.88101
547.0185, 72.01880
547.5006, 72.56357
547.9827, 72.17831
548.4648, 71.53043
548.9470, 72.32004
549.4291, 75.22046
549.9112, 79.87778
550.3933, 85.59750
550.8754, 92.71341
551.3575, 103.8594
551.8397, 120.7447
552.3218, 135.7432
552.8039, 138.3015
553.2860, 125.5641
553.7681, 124.1371
554.2502, 141.1373
554.7324, 159.3426
555.2145, 174.0318
555.6966, 186.7585
556.1787, 198.6687
556.6608, 210.5222
557.1429, 224.9881
557.6251, 245.5915
558.1072, 271.6533
558.5893, 298.6889
559.0714, 327.1422
559.5535, 354.7368
560.0356, 378.6433
560.5178, 401.9413
560.9999, 429.6263
561.4820, 461.9696
561.9641, 498.0511
562.4462, 540.2977
562.9283, 584.2422
563.4105, 625.7245
563.8926, 664.9084
564.3747, 704.0481
564.8568, 744.7396
565.3389, 786.9463
565.8210, 830.6948
566.3032, 875.1584
566.7853, 923.3377
567.2674, 980.4744
567.7495, 1037.057
568.2316, 1085.651
568.7137, 1130.168
569.1959, 1181.117
569.6780, 1246.136
570.1601, 1311.747
570.6422, 1366.083
571.1243, 1412.200
571.6064, 1458.010
572.0886, 1505.602
572.5707, 1550.650
573.0528, 1590.606
573.5349, 1624.761
574.0170, 1637.900
574.4991, 1621.958
574.9813, 1597.487
575.4634, 1572.754
575.9455, 1537.787
576.4276, 1480.626
576.9097, 1401.514
577.3918, 1312.184
577.8740, 1218.526
578.3561, 1123.027
578.8382, 1031.215
579.3203, 942.7432
579.8024, 862.8843
580.2845, 792.8765
580.7667, 732.0659
581.2488, 682.8828
581.7309, 645.7052
582.2130, 608.9413
582.6951, 565.8400
583.1772, 527.5547
583.6594, 504.1993
584.1415, 489.5423
584.6236, 468.7718
585.1057, 437.4781
585.5878, 410.2460
586.0699, 408.6776
586.5521, 433.7911
587.0342, 452.4793
587.5163, 465.5134
587.9984, 471.8687
588.4805, 463.4249
588.9626, 450.7907
589.4448, 447.6516
589.9269, 457.0428
590.4090, 464.4590
590.8911, 460.2310
591.3732, 452.9305
591.8553, 454.1684
592.3375, 462.6545
592.8196, 468.6715
593.3017, 466.8703
593.7838, 459.5509
594.2659, 451.5409
594.7480, 442.0291
595.2302, 433.9811
595.7123, 427.0347
596.1944, 422.0705
596.6765, 425.0713
597.1586, 428.4220
597.6407, 418.6220
598.1229, 389.1152
598.6050, 357.2995
599.0871, 339.5973
599.5692, 330.2231
600.0513, 315.4357
600.5334, 293.4100
601.0156, 271.1586
601.4977, 252.6662
601.9798, 238.3118
602.4619, 229.6125
602.9440, 229.6570
603.4261, 231.2752
603.9083, 236.6334
604.3904, 241.5229
604.8725, 239.4861
605.3546, 234.6890
605.8367, 239.1699
606.3188, 261.3433
606.8010, 288.6719
607.2831, 302.4031
607.7652, 304.7974
608.2473, 310.3044
608.7294, 320.3518
609.2115, 338.8652
609.6937, 369.7433
610.1758, 412.2383
610.6579, 459.5836
611.1400, 511.4646
611.6221, 567.7158
612.1042, 624.0663
612.5864, 687.9490
613.0685, 767.4922
613.5506, 861.0336
614.0327, 958.9519
614.5148, 1054.058
614.9969, 1151.650
615.4791, 1262.236
615.9612, 1385.874
616.4433, 1521.754
616.9254, 1671.238
617.4075, 1828.568
617.8896, 1988.772
618.3718, 2153.050
618.8539, 2323.090
619.3360, 2490.858
619.8181, 2673.237
620.3002, 2877.429
620.7823, 3098.035
621.2645, 3328.462
621.7466, 3568.662
622.2287, 3824.645
622.7108, 4101.944
623.1929, 4397.027
623.6750, 4696.575
624.1572, 5000.882
624.6393, 5310.558
625.1214, 5640.213
625.6035, 5956.743
626.0856, 6238.458
626.5677, 6483.290
627.0499, 6658.543
627.5320, 6794.234
628.0141, 6820.995
628.4962, 6681.575
628.9783, 6424.639
629.4604, 6096.760
629.9426, 5717.933
630.4247, 5307.239
630.9068, 4874.063
631.3889, 4428.609
631.8710, 4009.479
632.3531, 3618.780
632.8353, 3239.615
633.3174, 2846.979
633.7995, 2485.918
634.2816, 2199.946
634.7637, 1980.748
635.2458, 1784.169
635.7280, 1607.240
636.2101, 1447.381
636.6922, 1303.835
637.1743, 1176.941
637.6564, 1068.149
638.1385, 976.8452
638.6207, 899.4633
639.1028, 835.2776
639.5849, 780.6805
640.0670, 719.8442
640.5491, 648.2523
641.0313, 587.5234
641.5134, 548.5710
641.9955, 516.4282
642.4776, 474.7430
642.9597, 427.0226
643.4418, 391.7896
643.9240, 384.7986
644.4061, 378.0281
644.8882, 353.6132
645.3703, 322.4754
645.8524, 300.9254
646.3345, 290.4505
646.8167, 280.6475
647.2988, 263.6202
647.7809, 241.6170
648.2630, 222.0338
648.7451, 205.1500
649.2272, 190.2118
649.7094, 178.0429
650.1915, 166.5727
650.6736, 154.6059
651.1557, 142.0086
651.6378, 127.8615
652.1199, 106.1230
652.6021, 90.28381
653.0842, 89.87421
653.5663, 96.52490
654.0484, 102.3858
654.5305, 105.0790
655.0126, 102.0686
655.4948, 90.96234
655.9769, 74.54495
656.4590, 59.92912
656.9411, 46.93759
657.4232, 36.54437
657.9053, 29.23801
658.3875, 24.23387
658.8696, 21.76631
659.3517, 21.21494
659.8338, 20.93985
660.3159, 20.94026
660.7980, 20.97502
661.2802, 21.30753
661.7623, 21.43423
662.2444, 20.26042
662.7265, 18.31165
663.2086, 17.96848
663.6907, 21.00368
664.1729, 24.41037
664.6550, 19.34662
665.1371, 5.355316
665.6192, 6.668884
666.1013, 34.36938
666.5834, 55.78322
667.0656, 42.88950
667.5477, 9.464722
668.0298, 1.717148
668.5119, 24.57178
668.9940, 39.87013
669.4761, 24.83020
669.9583, 4.402908
670.4404, 4.811981
670.9225, 4.104370
671.4046, 0.3186490
671.8867, 5.889755
672.3688, 10.42819
672.8510, 10.34253
673.3331, 6.375717
673.8152, 3.927231
674.2973, 3.728104
674.7794, 1.857681
675.2615, 5.620941
675.7437, 14.07440
676.2258, 13.10504
676.7079, 2.247116
677.1900, 12.62131
677.6721, 14.81607
678.1542, 14.84123
678.6364, 14.60011
679.1185, 14.37122
679.6006, 14.65503
680.0827, 15.46730
680.5648, 15.07089
681.0469, 10.78494
681.5291, 4.488525
682.0112, 1.4709000E-02
682.4933, 2.572311
682.9754, 0.8296360
683.4575, 7.440552
683.9396, 14.09949
684.4218, 7.190796
684.9039, 15.96254
685.3860, 28.35023
685.8681, 25.92774
686.3502, 17.83824
686.8323, 2.267700
687.3145, 21.93279
687.7966, 28.72641
688.2787, 22.24294
688.7608, 12.25041
689.2429, 1.800156
689.7250, 7.317200
690.2072, 13.85229
690.6893, 17.37247
691.1714, 15.35934
691.6535, 7.733810
692.1356, 0.6308900
692.6177, 0.4666440
693.0999, 5.225906
693.5820, 1.807617
694.0641, 16.07800
694.5462, 27.74994
695.0283, 25.54720
695.5104, 20.76999
695.9926, 20.82343
696.4747, 23.85143
696.9568, 24.24281
697.4389, 20.70428
697.9210, 14.35637
698.4031, 1.532684
698.8853, 11.35639
699.3674, 15.07339
699.8495, 10.72683
700.3316, 5.992851
700.8137, 5.036102
701.2958, 6.483253
701.7780, 9.680450
702.2601, 14.76528
702.7422, 15.52562
703.2243, 11.11269
703.7064, 3.271713
704.1885, 10.66441
704.6707, 25.56694
705.1528, 30.22467
705.6349, 21.52665
706.1170, 15.49665
706.5991, 12.93782
707.0812, 15.00615
707.5634, 28.08768
708.0455, 43.98520
708.5276, 49.18980
709.0097, 40.65668
709.4918, 28.74210
709.9739, 21.21072
710.4561, 17.85620
710.9382, 19.92942
711.4203, 26.93995
711.9024, 31.30255
712.3845, 30.49516
712.8666, 26.49637
713.3488, 20.49103
713.8309, 12.49327
714.3130, 10.54847
714.7951, 17.23648
715.2772, 26.58188
715.7593, 45.40392
716.2415, 60.37022
716.7236, 57.25591
717.2057, 41.32581
717.6878, 30.75867
718.1699, 34.44430
718.6520, 41.88257
719.1342, 46.41396
719.6163, 48.13281
720.0984, 44.94585
720.5805, 38.13814
721.0626, 35.49249
721.5447, 42.23886
722.0269, 54.09850
722.5090, 63.27660
722.9911, 70.74066
723.4732, 66.49368
723.9553, 42.36412
724.4374, 22.02911
724.9196, 19.63402
725.4017, 28.03535
725.8838, 33.78790
726.3659, 35.75668
726.8480, 40.20470
727.3301, 52.72946
727.8123, 63.53341
728.2944, 66.23928
728.7765, 63.82608
729.2586, 60.30655
729.7407, 56.81973
730.2228, 53.18254
730.7050, 48.49004
731.1871, 43.99861
731.6692, 42.96168
732.1513, 45.04332
732.6334, 46.74852
733.1155, 46.84889
733.5977, 47.26750
734.0798, 51.62070
734.5619, 59.49904
735.0440, 60.82355
735.5261, 48.50801
736.0082, 41.72321
736.4904, 47.40208
736.9725, 53.90892
737.4546, 52.95985
737.9367, 47.69094
738.4188, 47.85380
738.9009, 60.42735
739.3831, 65.79655
739.8652, 42.13594
740.3473, 12.84135
740.8294, 7.896408
741.3115, 22.46396
741.7936, 33.62986
742.2758, 31.24227
742.7579, 24.62095
743.2400, 32.04080
743.7221, 52.10477
744.2042, 51.69229
744.6863, 26.22865
745.1685, 9.683273
745.6506, 17.60265
746.1327, 35.61344
746.6148, 47.26076
747.0969, 52.47269
747.5790, 49.70587
748.0612, 24.01371
748.5433, 10.90513
749.0254, 31.72225
749.5075, 58.65834
749.9896, 66.88705
750.4717, 57.48232
750.9539, 45.31551
751.4360, 35.75310
751.9181, 30.90736
752.4002, 35.28391
752.8823, 44.20839
753.3644, 50.10895
753.8466, 51.68723
754.3287, 46.86438
754.8108, 33.76140
755.2929, 19.90571
755.7750, 22.64948
756.2571, 45.02187
756.7393, 50.75827
757.2214, 34.12897
757.7035, 16.77007
758.1856, 3.735336
758.6677, 2.736160
759.1498, 3.563339
759.6320, 23.62303
760.1141, 38.52979
760.5962, 48.91001
761.0783, 52.24132
761.5604, 40.85188
762.0425, 26.74857
762.5247, 23.22683
763.0068, 29.58334
763.4889, 34.02905
763.9710, 29.06888
764.4531, 21.16336
764.9352, 16.73631
765.4174, 15.38025
765.8995, 16.64774
766.3816, 20.15487
766.8637, 23.56568
767.3458, 25.49960
767.8279, 26.29860
768.3101, 26.15773
768.7922, 24.29645
769.2743, 27.11635
769.7564, 39.15189
770.2385, 45.92912
770.7206, 36.35822
771.2028, 21.55950
771.6849, 19.62774
772.1670, 31.83577
772.6491, 37.54469
773.1312, 31.78897
773.6133, 22.11330
774.0955, 3.753540
774.5776, 11.96915
775.0597, 10.37471
775.5418, 6.515350
776.0239, 22.95174
776.5060, 29.80865
776.9882, 33.23740
777.4703, 43.48394
777.9524, 55.02394
778.4345, 51.94502
778.9166, 34.37904
779.3987, 17.87306
779.8809, 10.77732
780.3630, 11.87597
780.8451, 22.19994
781.3272, 43.99888
781.8093, 52.50224
782.2914, 42.17008
782.7736, 31.95079
783.2557, 30.43781
783.7378, 31.32970
784.2199, 23.29456
784.7020, 5.778542
785.1841, 3.273590
785.6663, 32.85081
786.1484, 56.79765
786.6305, 64.12062
787.1126, 63.13061
787.5947, 58.14899
788.0768, 49.90338
788.5590, 40.46071
789.0411, 28.99652
789.5232, 21.68554
790.0053, 26.64245
790.4874, 37.66486
790.9695, 46.09129
791.4517, 50.91778
791.9338, 52.07811
792.4159, 49.60831
792.8980, 45.92582
793.3801, 44.18384
793.8622, 44.23904
794.3444, 45.06841
794.8265, 47.08935
795.3086, 46.98840
795.7907, 42.92720
796.2728, 38.37010
796.7549, 37.47595
797.2371, 39.63914
797.7192, 37.70206
798.2013, 25.32914
798.6834, 17.80494
799.1655, 19.50130
799.6476, 23.31700
800.1298, 22.51922
800.6119, 20.87717
801.0940, 28.20583
801.5761, 49.05101
802.0582, 63.25893
802.5403, 53.56369
803.0225, 38.79082
803.5046, 39.00124
803.9867, 46.88710
804.4688, 44.82767
804.9509, 29.51489
805.4330, 14.38295
805.9152, 11.04314
806.3973, 15.39053
806.8794, 19.78442
807.3615, 24.08191
807.8436, 28.94162
808.3257, 35.38377
808.8079, 38.46510
809.2900, 33.42149
809.7721, 23.57779
810.2542, 17.52873
810.7363, 15.37352
811.2184, 16.92477
811.7006, 25.39145
812.1827, 32.42349
812.6648, 34.51384
813.1469, 33.42812
813.6290, 30.33772
814.1111, 25.26157
814.5933, 22.76062
815.0754, 25.22380
815.5575, 28.18204
816.0396, 32.84146
816.5217, 34.85809
817.0038, 27.88341
817.4860, 15.50214
817.9681, 7.655396
818.4502, 8.848801
818.9323, 15.82327
819.4144, 31.25427
819.8965, 47.98940
820.3787, 51.83070
820.8608, 45.78127
821.3429, 41.60243
821.8250, 43.54408
822.3071, 45.94177
822.7892, 41.53069
823.2714, 32.88545
823.7535, 30.57420
824.2356, 35.60054
824.7177, 36.07175
825.1998, 27.74025
825.6819, 21.48766
826.1641, 27.51082
826.6462, 40.84274
827.1283, 40.91681
827.6104, 16.43132
828.0925, 2.642288
828.5746, 7.145218
829.0568, 13.38654
829.5389, 15.08420
830.0210, 15.52505
830.5031, 18.55594
830.9852, 25.47092
831.4673, 29.43883
831.9495, 28.32686
832.4316, 23.65323
832.9137, 13.94933
833.3958, 5.556458
833.8779, 4.301559
834.3600, 9.646072
834.8422, 14.24294
835.3243, 14.10277
835.8064, 16.04709
836.2885, 35.13490
836.7706, 56.89975
837.2527, 51.83537
837.7349, 25.52016
838.2170, 3.702957
838.6991, 4.399246
839.1812, 2.328629
839.6633, 10.35388
840.1454, 30.17230
840.6276, 37.43294
841.1097, 31.74883
841.5918, 31.68172
842.0739, 43.14833
842.5560, 50.46130
843.0381, 42.59125
843.5203, 25.15326
844.0024, 10.76903
844.4845, 3.111649
844.9666, 6.072968
845.4487, 11.12009
845.9308, 25.89291
846.4130, 28.86679
846.8951, 26.09416
847.3772, 22.03845
847.8593, 16.21962
848.3414, 13.95113
848.8235, 16.22621
849.3057, 21.80539
849.7878, 36.60843
850.2699, 49.85118
850.7520, 49.39458
851.2341, 39.46562
851.7162, 32.16219
852.1984, 31.76747
852.6805, 32.39912
853.1626, 29.34396
853.6447, 25.80136
854.1268, 27.11758
854.6089, 30.25618
855.0911, 27.56004
855.5732, 18.00252
856.0553, 7.509476
856.5374, 0.5763240
857.0195, 3.932068
857.5016, 6.039917
857.9838, 25.20587
858.4659, 31.24797
858.9480, 22.21362
859.4301, 21.80771
859.9122, 43.88814
860.3943, 70.24905
860.8765, 69.47812
861.3586, 41.40137
861.8407, 29.16693
862.3228, 38.22606
862.8049, 42.10785
863.2870, 31.98848
863.7692, 18.67180
864.2513, 11.51447
864.7334, 9.056656
865.2155, 4.206924
865.6976, 10.24680
866.1797, 14.43097
866.6619, 1.246582
867.1440, 13.58374
867.6261, 26.05501
868.1082, 35.39838
868.5903, 41.34900
869.0724, 43.84413
869.5546, 40.72153
870.0367, 24.02361
870.5188, 10.83784
871.0009, 11.69331
871.4830, 16.61414
871.9651, 15.77579
872.4473, 10.54106
872.9294, 7.882416
873.4115, 10.79335
873.8936, 12.54636
874.3757, 4.536011
874.8578, 4.483765
875.3400, 1.183334
875.8221, 8.524872
876.3042, 8.197540
876.7863, 3.779587
877.2684, 10.55954
877.7505, 2.188568
878.2327, 22.55681
878.7148, 31.10905
879.1969, 29.26968
879.6790, 18.80061
880.1611, 1.233902
880.6432, 7.025421
881.1254, 2.270935
881.6075, 15.98236
882.0896, 15.36246
882.5717, 2.571503
883.0538, 1.405655
883.5359, 4.414124
884.0181, 12.95003
884.5002, 24.38820
884.9823, 33.19934
885.4644, 35.69122
885.9465, 31.85120
886.4286, 20.57077
886.9108, 6.393082
887.3929, 12.85873
887.8750, 20.46915
888.3571, 44.26941
888.8392, 37.08356
889.3214, 17.95447
889.8035, 2.384460
890.2856, 9.115189
890.7677, 12.79648
891.2498, 1.668793
891.7319, 9.151917
892.2141, 1.372620
892.6962, 11.85472
893.1783, 9.325134
893.6604, 0.6943510
894.1425, 2.666336
894.6246, 1.239136
895.1068, 7.775482
895.5889, 22.49583
896.0710, 30.97659
896.5531, 18.86134
897.0352, 0.1604000
897.5173, 13.65579
897.9995, 18.65390
898.4816, 11.55423
898.9637, 10.82951
899.4458, 28.03108
899.9279, 16.57336
900.4100, 5.221985
900.8922, 15.69843
901.3743, 16.68158
901.8564, 13.12692
902.3385, 6.596680
902.8206, 3.5980001E-02
903.3027, 3.775146
903.7849, 6.230957
904.2670, 11.87216
904.7491, 17.01416
905.2312, 2.730804
905.7133, 28.16156
906.1954, 41.25864
906.6776, 23.21048
907.1597, 4.393433
907.6418, 18.78275
908.1239, 21.72739
908.6060, 19.88745
909.0881, 13.23257
909.5703, 3.557373
910.0524, 9.478638
910.5345, 21.83762
911.0166, 32.15857
911.4987, 37.56577
911.9808, 30.99200
912.4630, 11.01443
912.9451, 2.949768
913.4272, 9.870209
913.9093, 19.48059
914.3914, 31.18768
914.8735, 40.88773
915.3557, 45.76639
915.8378, 46.68884
916.3199, 46.73795
916.8020, 44.25339
917.2841, 45.22073
917.7662, 52.19089
918.2484, 59.18555
918.7305, 60.43961
919.2126, 63.95044
919.6947, 83.83673
920.1768, 115.4618
920.6589, 127.4391
921.1411, 96.39224
921.6232, 79.02029
922.1053, 92.81329
922.5874, 111.8875
923.0695, 121.8251
923.5516, 127.9332
924.0338, 142.4610
924.5159, 166.9506
924.9980, 183.9490
925.4801, 176.1529
925.9622, 173.8117
926.4443, 194.8026
926.9265, 222.4812
927.4086, 241.5212
927.8907, 255.4908
928.3728, 275.5778
928.8549, 304.8182
929.3370, 333.4619
929.8192, 352.3772
930.3013, 372.0028
930.7834, 396.9276
931.2655, 430.1750
931.7476, 477.5439
932.2297, 537.0999
932.7119, 600.5164
933.1940, 665.6029
933.6761, 733.5114
934.1582, 794.7973
934.6403, 865.7015
935.1224, 964.1165
935.6046, 1093.162
936.0867, 1252.900
936.5688, 1442.822
937.0509, 1660.252
937.5330, 1900.714
938.0151, 2177.865
938.4973, 2507.481
938.9794, 2891.465
939.4615, 3337.158
939.9436, 3840.503
940.4257, 4381.986
940.9078, 4958.269
941.3900, 5578.228
941.8721, 6249.916
942.3542, 6969.119
942.8363, 7705.260
943.3184, 8475.850
943.8005, 9382.692
944.2827, 10429.02
944.7648, 11578.72
945.2469, 12816.22
945.7290, 14181.27
946.2111, 15719.72
946.6932, 17402.47
947.1754, 19179.67
947.6575, 21056.12
948.1396, 22802.81
948.6217, 24415.44
949.1038, 25716.05
949.5859, 26655.47
950.0681, 27073.29
950.5502, 26706.59
951.0323, 25593.06
951.5144, 24133.61
951.9965, 22285.30
952.4786, 20334.08
952.9608, 18300.12
953.4429, 16284.26
953.9250, 14316.53
954.4071, 12460.20
954.8892, 10796.98
955.3713, 9337.517
955.8535, 8033.073
956.3356, 6900.230
956.8177, 5886.257
957.2998, 4968.023
957.7819, 4176.729
958.2640, 3542.649
958.7462, 3038.096
959.2283, 2605.163
959.7104, 2246.840
960.1925, 1938.636
960.6746, 1682.062
961.1567, 1474.065
961.6389, 1332.492
962.1210, 1216.438
962.6031, 1094.994
963.0852, 975.9507
963.5673, 879.8322
964.0494, 814.3040
964.5316, 750.0951
965.0137, 679.7640
965.4958, 620.1782
965.9779, 583.5233
966.4600, 553.6659
966.9421, 513.1454
967.4243, 467.7403
967.9064, 441.2987
968.3885, 447.4685
968.8706, 443.2242
969.3527, 418.7361
969.8348, 393.1552
970.3170, 369.8177
970.7991, 350.8387
971.2812, 338.9976
971.7633, 333.3698
972.2454, 329.8762
972.7275, 331.8625
973.2097, 328.4010
973.6918, 308.1576
974.1739, 293.2306
974.6560, 302.9081
975.1381, 317.0054
975.6202, 306.8019
976.1024, 277.3850
976.5845, 267.5506
977.0666, 294.3503
977.5487, 322.4550
978.0308, 348.6629
978.5129, 367.6613
978.9951, 370.2207
979.4772, 368.3877
979.9593, 379.1030
980.4414, 401.7441
980.9235, 418.1420
981.4056, 415.6067
981.8878, 419.6174
982.3699, 438.2274
982.8520, 465.5389
983.3341, 508.4998
983.8162, 551.4723
984.2983, 570.7768
984.7805, 567.6516
985.2626, 568.9681
985.7447, 583.3592
986.2268, 600.7996
986.7089, 616.5878
987.1910, 636.5758
987.6732, 669.2303
988.1553, 705.7000
988.6374, 729.7042
989.1195, 741.7127
989.6016, 763.3944
990.0837, 809.5928
990.5659, 855.4909
991.0480, 884.3060
991.5301, 915.1210
992.0122, 960.3402
992.4943, 1018.234
992.9764, 1089.308
993.4586, 1171.219
993.9407, 1247.994
994.4228, 1311.435
994.9049, 1370.945
995.3870, 1427.297
995.8691, 1484.783
996.3513, 1542.895
996.8334, 1606.064
997.3155, 1688.283
997.7976, 1787.576
998.2797, 1867.930
998.7618, 1902.872
999.2440, 1934.391
999.7261, 2000.642
1000.208, 2054.237
1000.690, 2057.230
1001.172, 2019.774
1001.655, 1960.622
1002.137, 1883.281
1002.619, 1784.739
1003.101, 1650.936
1003.583, 1515.820
1004.065, 1394.878
1004.547, 1279.066
1005.029, 1156.366
1005.511, 1037.156
1005.994, 942.4668
1006.476, 873.1322
1006.958, 803.8950
1007.440, 715.1100
1007.922, 641.4536
1008.404, 608.7563
1008.886, 587.9927
1009.368, 558.3386
1009.851, 524.6657
1010.333, 494.7242
1010.815, 470.7076
1011.297, 456.1200
1011.779, 453.6555
1012.261, 458.2439
1012.743, 473.0106
1013.225, 488.5179
1013.707, 495.2280
1014.190, 499.6009
1014.672, 514.0934
1015.154, 537.7697
1015.636, 553.7801
1016.118, 555.6783
1016.600, 550.4700
1017.082, 536.8096
1017.564, 521.2166
1018.047, 510.8892
1018.529, 499.5391
1019.011, 476.5551
1019.493, 443.1324
1019.975, 412.3416
1020.457, 386.8563
1020.939, 366.7074
1021.421, 357.1228
1021.903, 346.8848
1022.386, 328.9036
1022.868, 306.8596
1023.350, 285.1078
1023.832, 263.8661
1024.314, 241.8896
1024.796, 220.8686
1025.278, 194.4718
1025.760, 152.6528
1026.242, 115.1839
1026.725, 92.46173
1027.207, 78.79114
1027.689, 71.14960
1028.171, 67.10428
1028.653, 59.58691
1029.135, 46.76410
1029.617, 32.43774
1030.099, 11.71182
1030.582, 3.315247
1031.064, 4.093414
1031.546, 0.5172420
1032.028, 0.2740170
1032.510, 3.423126
1032.992, 8.974823
1033.474, 18.10397
1033.956, 25.45032
1034.438, 32.69833
1034.921, 35.08710
1035.403, 27.48767
1035.885, 18.05936
1036.367, 11.71759
1036.849, 8.577911
1037.331, 9.369141
1037.813, 15.81573
1038.295, 19.28223
1038.778, 17.02054
1039.260, 15.77939
1039.742, 18.40863
1040.224, 20.34750
1040.706, 16.64697
1041.188, 11.46906
1041.670, 14.32144
1042.152, 27.13406
1042.635, 30.10019
1043.117, 15.84738
1043.599, 6.933167
1044.081, 9.903351
1044.563, 12.80972
1045.045, 9.282074
1045.527, 1.863678
1046.009, 6.194366
1046.491, 14.83005
1046.974, 20.79349
1047.456, 22.03470
1047.938, 27.55109
1048.420, 40.07535
1048.902, 51.49649
1049.384, 56.65921
1049.866, 62.09732
1050.348, 75.64090
1050.830, 96.63699
1051.313, 121.6835
1051.795, 151.5138
1052.277, 181.2512
1052.759, 211.4996
1053.241, 233.5015
1053.723, 241.3386
1054.205, 251.8736
1054.687, 281.2280
1055.169, 326.7819
1055.652, 380.2832
1056.134, 442.1458
1056.616, 524.5562
1057.098, 626.4249
1057.580, 723.0838
1058.062, 807.6782
1058.544, 908.3630
1059.026, 1045.990
1059.509, 1214.005
1059.991, 1407.484
1060.473, 1619.833
1060.955, 1809.216
1061.437, 1981.908
1061.919, 2174.567
1062.401, 2396.811
1062.883, 2656.681
1063.365, 2959.663
1063.848, 3293.007
1064.330, 3630.281
1064.812, 3986.333
1065.294, 4414.350
1065.776, 4883.177
1066.258, 5320.796
1066.740, 5707.190
1067.222, 6037.133
1067.705, 6305.950
1068.187, 6447.577
1068.669, 6394.145
1069.151, 6187.412
1069.633, 5850.623
1070.115, 5417.587
1070.597, 4906.170
1071.079, 4352.424
1071.562, 3813.540
1072.044, 3312.528
1072.526, 2864.738
1073.008, 2480.762
1073.490, 2146.399
1073.972, 1842.163
1074.454, 1586.039
1074.936, 1406.455
1075.418, 1279.886
1075.901, 1167.442
1076.383, 1067.232
1076.865, 1005.944
1077.347, 1000.974
1077.829, 1010.500
1078.311, 1024.902
1078.793, 1037.522
1079.275, 1041.188
1079.757, 1043.369
1080.240, 1060.153
1080.722, 1081.241
1081.204, 1074.927
1081.686, 1032.100
1082.168, 982.3789
1082.650, 929.4081
1083.132, 872.3078
1083.614, 813.5981
1084.096, 749.8376
1084.579, 671.1424
1085.061, 586.6985
1085.543, 511.0804
1086.025, 444.3817
1086.507, 387.8588
1086.989, 341.8466
1087.471, 306.6412
1087.953, 285.9377
1088.436, 269.1179
1088.918, 253.1616
1089.400, 237.2459
1089.882, 219.9082
1090.364, 201.2938
1090.846, 181.5128
1091.328, 158.4235
1091.810, 146.3821
1092.292, 148.1296
1092.775, 148.6724
1093.257, 144.0051
1093.739, 139.1800
1094.221, 139.1389
1094.703, 138.9999
1095.185, 125.7226
1095.667, 101.6033
1096.149, 88.26321
1096.632, 85.15771
1097.114, 80.67159
1097.596, 72.80676
1098.078, 66.31223
1098.560, 63.86282
1099.042, 66.13089
1099.524, 76.28088
1100.006, 86.88913
1100.489, 84.77164
1100.971, 74.50041
1101.453, 59.59561
1101.935, 43.07692
1102.417, 35.80249
1102.899, 40.03050
1103.381, 42.85411
1103.863, 32.82703
1104.345, 24.42177
1104.828, 37.78058
1105.310, 54.72575
1105.792, 52.11121
1106.274, 40.49951
1106.756, 40.75925
1107.238, 51.07394
1107.720, 50.56677
1108.202, 28.84845
1108.684, 13.28061
1109.167, 22.32799
1109.649, 33.15945
1110.131, 34.77361
1110.613, 32.78966
1111.095, 30.46516
1111.577, 29.02240
1112.059, 33.08939
1112.541, 44.12814
1113.023, 40.36995
1113.506, 2.838013
1113.988, 25.60876
1114.470, 10.67447
1114.952, 9.485733
1115.434, 26.54793
1115.916, 37.10535
1116.398, 35.03984
1116.880, 23.96866
1117.363, 21.23270
1117.845, 30.04399
1118.327, 32.32703
1118.809, 25.85083
1119.291, 24.07324
1119.773, 31.74731
1120.255, 36.52733
1120.737, 29.18193
1121.219, 17.87344
1121.702, 17.35356
1122.184, 24.89517
1122.666, 25.47481
1123.148, 20.54135
1123.630, 19.45612
1124.112, 23.17799
1124.594, 30.23367
1125.076, 39.63359
1125.559, 45.65306
1126.041, 42.29337
1126.523, 35.43512
1127.005, 32.72142
1127.487, 32.50211
1127.969, 33.64488
1128.451, 34.64146
1128.933, 31.77873
1129.416, 25.69501
1129.898, 21.79472
1130.380, 22.52666
1130.862, 24.44962
1131.344, 26.75685
1131.826, 28.09831
1132.308, 27.87814
1132.790, 26.06920
1133.272, 19.91747
1133.755, 13.25801
1134.237, 15.59804
1134.719, 28.15361
1135.201, 32.46832
1135.683, 11.41057
1136.165, 4.410828
1136.647, 30.61882
1137.129, 52.54344
1137.611, 56.87383
1138.094, 51.16371
1138.576, 38.69423
1139.058, 23.77852
1139.540, 22.82436
1140.022, 40.47560
1140.504, 32.71002
1140.986, 8.134674
1141.468, 23.97786
1141.950, 0.7223210
1142.433, 22.02586
1142.915, 22.73656
1143.397, 12.09569
1143.879, 1.389648
1144.361, 7.159409
1144.843, 5.767105
1145.325, 2.885269
1145.807, 9.581497
1146.290, 13.75851
1146.772, 19.81436
1147.254, 27.88696
1147.736, 30.51224
1148.218, 22.21579
1148.700, 12.33546
1149.182, 8.465057
1149.664, 8.662109
1150.146, 16.48308
1150.629, 23.19307
1151.111, 12.42557
1151.593, 7.809311
1152.075, 14.16072
1152.557, 1.555847
1153.039, 6.957321
1153.521, 0.7287290
1154.003, 6.587677
1154.486, 4.002380
1154.968, 0.9436490
1155.450, 1.656403
1155.932, 3.867233
1156.414, 6.170273
1156.896, 7.688797
1157.378, 4.693024
1157.860, 4.702209
1158.343, 8.638504
1158.825, 4.694839
1159.307, 4.772598
1159.789, 11.75620
1160.271, 20.45142
1160.753, 29.07013
1161.235, 32.26987
1161.717, 21.27663
1162.199, 3.164383
1162.682, 0.6869660
1163.164, 6.878433
1163.646, 17.61629
1164.128, 28.33212
1164.610, 24.51160
1165.092, 7.176804
1165.574, 1.743896
1166.056, 22.85840
1166.538, 44.70573
1167.021, 40.04570
1167.503, 28.31416
1167.985, 26.36620
1168.467, 29.11885
1168.949, 31.25436
1169.431, 32.63506
1169.913, 33.71895
1170.395, 34.89044
1170.877, 39.08763
1171.360, 52.02544
1171.842, 57.16267
1172.324, 47.84833
1172.806, 40.57397
1173.288, 40.00385
1173.770, 42.94524
1174.252, 48.31270
1174.734, 54.55243
1175.217, 58.99319
1175.699, 61.69499
1176.181, 56.17389
1176.663, 40.08694
1177.145, 39.29671
1177.627, 57.97189
1178.109, 70.40634
1178.591, 66.98206
1179.073, 58.95531
1179.556, 55.23016
1180.038, 54.96982
1180.520, 58.27130
1181.002, 63.21277
1181.484, 66.30644
1181.966, 67.52530
1182.448, 68.38789
1182.930, 67.49930
1183.413, 57.69484
1183.895, 37.63600
1184.377, 24.40143
1184.859, 31.54004
1185.341, 41.02635
1185.823, 45.01712
1186.305, 47.62181
1186.787, 54.08046
1187.270, 59.12463
1187.752, 54.06946
1188.234, 43.16844
1188.716, 43.09608
1189.198, 57.31599
1189.680, 62.51984
1190.162, 55.60670
1190.644, 47.17529
1191.126, 35.83253
1191.609, 34.65685
1192.091, 52.04350
1192.573, 66.80304
1193.055, 56.28821
1193.537, 35.67615
1194.019, 29.01373
1194.501, 31.00841
1194.983, 27.81503
1195.465, 20.13156
1195.948, 13.51752
1196.430, 10.23984
1196.912, 17.17506
1197.394, 36.37617
1197.876, 48.00917
1198.358, 34.12695
1198.840, 18.80009
1199.322, 13.55139
1199.804, 13.66371
1200.287, 11.24193
1200.769, 11.46262
1201.251, 30.03128
1201.733, 56.68542
1202.215, 56.73352
1202.697, 16.70824
1203.179, 1.357544
1203.661, 12.33119
1204.144, 28.43492
1204.626, 46.61382
1205.108, 53.99619
1205.590, 43.21597
1206.072, 28.52921
1206.554, 23.81468
1207.036, 26.80701
1207.518, 35.96382
1208.000, 48.05751
1208.483, 45.45015
1208.965, 32.21667
1209.447, 23.00136
1209.929, 19.99529
1210.411, 21.89337
1210.893, 27.89273
1211.375, 35.44987
1211.857, 45.77133
1212.340, 51.10344
1212.822, 39.20573
1213.304, 27.95714
1213.786, 36.89240
1214.268, 48.55138
1214.750, 37.64799
1215.232, 14.31622
1215.714, 12.13519
1216.197, 36.16817
1216.679, 44.22841
1217.161, 28.67874
1217.643, 16.47464
1218.125, 8.721893
1218.607, 8.210983
1219.089, 17.11432
1219.571, 26.54857
1220.053, 28.96713
1220.536, 29.25838
1221.018, 41.10684
1221.500, 54.98170
1221.982, 33.50336
1222.464, 4.643173
1222.946, 8.052277
1223.428, 16.04471
1223.910, 31.55144
1224.392, 32.29242
1224.875, 33.59778
1225.357, 44.01385
1225.839, 52.34401
1226.321, 51.36456
1226.803, 48.63564
1227.285, 51.78477
1227.767, 50.78831
1228.249, 29.06189
1228.731, 3.455154
1229.214, 0.2690890
1229.696, 16.05238
1230.178, 28.27296
1230.660, 37.12889
1231.142, 43.75124
1231.624, 49.18132
1232.106, 46.13667
1232.588, 32.45848
1233.071, 17.56935
1233.553, 0.5143130
1234.035, 1.351456
1234.517, 22.76703
1234.999, 50.49646
1235.481, 47.41806
1235.963, 32.67332
1236.445, 32.00928
1236.927, 36.73169
1237.410, 32.18863
1237.892, 18.70152
1238.374, 12.39471
1238.856, 14.02684
1239.338, 15.21655
1239.820, 19.48958
1240.302, 20.52954
1240.784, 17.15303
1241.267, 10.74782
1241.749, 2.471283
1242.231, 0.1268620
1242.713, 9.830795
1243.195, 12.26103
1243.677, 0.0000000E+00
##END=



