##NAMES=Triphylite
##RRUFFID=R050424
##IDEAL CHEMISTRY=LiFe^2+^PO_4_
##LOCALITY=Karibib, Namibia
##OWNER=RRUFF
##SOURCE=John Lucking
##DESCRIPTION=Lime-green fine-grained massive
##STATUS=The identification of this mineral has been confirmed by X-ray diffraction and chemical analysis
##URL=rruff.info/R050424
##MEASURED CHEMISTRY=Li_1.00_(Fe^2+^_0.70_Mn^2+^_0.28_Mg_0.02_)_Î£=1_P_1.00_O_4_
103.8984, 0.0000000E+00
104.3806, 0.8921030
104.8627, 3.769659
105.3448, 10.96131
105.8269, 18.69658
106.3090, 21.37262
106.7911, 24.49447
107.2733, 29.87075
107.7554, 27.36296
108.2375, 28.21881
108.7196, 30.49850
109.2017, 25.19912
109.6838, 8.343525
110.1659, 0.7344850
110.6481, 14.88361
111.1302, 27.14553
111.6123, 31.97914
112.0944, 27.74494
112.5765, 21.23855
113.0586, 8.496565
113.5408, 5.251713
114.0229, 11.60511
114.5050, 1.797359
114.9871, 11.47258
115.4692, 22.06137
115.9513, 29.43300
116.4335, 33.06993
116.9156, 30.97375
117.3977, 24.25541
117.8798, 17.40739
118.3619, 11.16475
118.8440, 6.353020
119.3262, 3.701935
119.8083, 3.135925
120.2904, 5.035454
120.7725, 9.892014
121.2546, 17.70866
121.7367, 27.54810
122.2189, 41.53680
122.7010, 56.96984
123.1831, 69.14008
123.6652, 73.00320
124.1473, 73.39760
124.6294, 75.13294
125.1115, 77.69991
125.5937, 84.89311
126.0758, 104.6897
126.5579, 134.7922
127.0400, 163.0662
127.5221, 178.1493
128.0043, 185.5522
128.4864, 199.5080
128.9685, 223.1689
129.4506, 254.1475
129.9327, 290.4758
130.4148, 332.3810
130.8969, 373.4921
131.3791, 405.9278
131.8612, 430.5479
132.3433, 456.8552
132.8254, 486.6147
133.3075, 520.0801
133.7896, 559.8256
134.2718, 606.5659
134.7539, 656.2851
135.2360, 701.5425
135.7181, 740.0358
136.2002, 785.4232
136.6823, 844.4119
137.1645, 918.5276
137.6466, 994.3395
138.1287, 1070.575
138.6108, 1150.302
139.0929, 1239.971
139.5750, 1340.928
140.0572, 1448.137
140.5393, 1557.277
141.0214, 1662.991
141.5035, 1787.785
141.9856, 1937.286
142.4677, 2108.430
142.9499, 2289.888
143.4320, 2478.668
143.9141, 2676.804
144.3962, 2885.666
144.8783, 3130.610
145.3604, 3349.759
145.8425, 3548.896
146.3247, 3737.170
146.8068, 3829.240
147.2889, 3799.557
147.7710, 3684.069
148.2531, 3523.062
148.7352, 3263.784
149.2174, 3012.290
149.6995, 2794.746
150.1816, 2612.041
150.6637, 2462.523
151.1458, 2347.450
151.6279, 2267.453
152.1101, 2219.386
152.5922, 2218.227
153.0743, 2238.516
153.5564, 2271.619
154.0385, 2359.366
154.5206, 2407.230
155.0028, 2403.196
155.4849, 2349.510
155.9670, 2254.883
156.4491, 2093.459
156.9312, 1908.274
157.4133, 1727.270
157.8955, 1539.818
158.3776, 1375.655
158.8597, 1241.651
159.3418, 1138.542
159.8239, 1058.308
160.3060, 1015.504
160.7882, 986.1509
161.2703, 944.5272
161.7524, 879.1697
162.2345, 801.6088
162.7166, 712.6062
163.1987, 608.8178
163.6808, 512.2834
164.1630, 428.5107
164.6451, 358.6655
165.1272, 304.7551
165.6093, 277.3522
166.0914, 260.7197
166.5735, 243.0382
167.0557, 220.9968
167.5378, 200.9144
168.0199, 189.6320
168.5020, 185.1418
168.9841, 179.3307
169.4662, 164.2873
169.9484, 146.8900
170.4305, 135.2537
170.9126, 135.7710
171.3947, 136.3439
171.8768, 123.4498
172.3589, 100.1144
172.8411, 80.20499
173.3232, 75.30255
173.8053, 79.95770
174.2874, 85.38559
174.7695, 89.14981
175.2516, 91.82678
175.7338, 94.60526
176.2159, 97.48618
176.6980, 98.53568
177.1801, 95.10648
177.6622, 88.37964
178.1443, 81.51987
178.6264, 73.31686
179.1086, 66.34460
179.5907, 67.81390
180.0728, 79.37122
180.5549, 90.30426
181.0370, 86.85999
181.5191, 71.54593
182.0013, 55.69559
182.4834, 45.47083
182.9655, 39.25366
183.4476, 31.57828
183.9297, 20.93033
184.4118, 11.49850
184.8940, 11.10385
185.3761, 19.16205
185.8582, 27.83313
186.3403, 33.84015
186.8224, 36.79135
187.3046, 34.17856
187.7867, 23.66360
188.2688, 9.835358
188.7509, 2.263733
189.2330, 1.104309
189.7151, 2.668549
190.1973, 3.579529
190.6794, 4.172058
191.1615, 8.720367
191.6436, 19.94830
192.1257, 35.15323
192.6078, 44.19977
193.0900, 46.36026
193.5721, 47.48236
194.0542, 53.11578
194.5363, 63.23679
195.0184, 75.07339
195.5005, 88.54001
195.9826, 103.2209
196.4648, 116.6946
196.9469, 129.1528
197.4290, 139.3777
197.9111, 145.6967
198.3932, 147.8405
198.8753, 147.9921
199.3575, 147.2578
199.8396, 145.6144
200.3217, 140.1690
200.8038, 130.5239
201.2859, 117.8704
201.7680, 103.0988
202.2502, 85.23346
202.7323, 69.15433
203.2144, 57.78848
203.6965, 52.01480
204.1786, 43.94196
204.6607, 32.74768
205.1429, 20.07394
205.6250, 8.434448
206.1071, 3.192993
206.5892, 10.22580
207.0713, 7.695129
207.5534, 7.936401
208.0356, 14.79016
208.5177, 8.707947
208.9998, 5.389801
209.4819, 12.40289
209.9640, 9.531372
210.4461, 5.917175
210.9282, 8.077789
211.4104, 18.63318
211.8925, 25.46777
212.3746, 27.10831
212.8567, 24.07791
213.3388, 18.16437
213.8209, 6.821777
214.3031, 2.960968
214.7852, 4.182190
215.2673, 8.781738
215.7494, 14.10458
216.2315, 6.957672
216.7136, 11.61691
217.1958, 29.56229
217.6779, 48.76160
218.1600, 64.96899
218.6421, 73.88934
219.1242, 72.21500
219.6063, 70.92209
220.0885, 71.98434
220.5706, 75.42252
221.0527, 79.72150
221.5348, 86.35681
222.0169, 92.28101
222.4990, 93.66635
222.9812, 87.15817
223.4633, 82.97238
223.9454, 83.80075
224.4275, 90.19687
224.9096, 97.59851
225.3917, 108.6829
225.8739, 118.6128
226.3560, 119.3851
226.8381, 101.2764
227.3202, 91.85309
227.8023, 101.1563
228.2844, 134.2878
228.7665, 161.2248
229.2487, 179.5990
229.7308, 192.8041
230.2129, 205.4491
230.6950, 214.9521
231.1771, 227.9455
231.6592, 247.0592
232.1414, 273.6766
232.6235, 302.1327
233.1056, 334.2494
233.5877, 367.1605
234.0698, 394.1094
234.5519, 412.2077
235.0341, 428.6663
235.5162, 445.2998
235.9983, 458.9449
236.4804, 481.0664
236.9625, 516.1566
237.4446, 558.2869
237.9268, 594.0490
238.4089, 620.5720
238.8910, 645.3761
239.3731, 671.2292
239.8552, 696.6763
240.3373, 726.1169
240.8195, 758.8477
241.3016, 795.5714
241.7837, 839.6254
242.2658, 893.0634
242.7479, 950.9583
243.2300, 1011.609
243.7122, 1077.621
244.1943, 1140.946
244.6764, 1202.002
245.1585, 1259.940
245.6406, 1313.549
246.1227, 1361.511
246.6048, 1406.934
247.0870, 1452.348
247.5691, 1502.179
248.0512, 1542.820
248.5333, 1574.927
249.0154, 1597.325
249.4975, 1605.588
249.9797, 1600.171
250.4618, 1580.235
250.9439, 1545.386
251.4260, 1495.701
251.9081, 1429.059
252.3902, 1336.131
252.8724, 1223.232
253.3545, 1133.019
253.8366, 1078.011
254.3187, 1028.116
254.8008, 960.8040
255.2829, 860.7680
255.7651, 779.3564
256.2472, 725.5101
256.7293, 695.4608
257.2114, 664.8032
257.6935, 634.9709
258.1756, 602.4886
258.6577, 562.0657
259.1399, 503.1918
259.6220, 463.8363
260.1041, 454.8475
260.5862, 471.8120
261.0683, 476.0678
261.5504, 461.8774
262.0326, 444.1829
262.5147, 434.2133
262.9968, 433.6186
263.4789, 436.5522
263.9610, 444.0578
264.4431, 454.9634
264.9253, 460.1331
265.4074, 459.9663
265.8895, 453.5661
266.3716, 439.1497
266.8537, 412.5197
267.3358, 387.2021
267.8180, 365.2751
268.3001, 346.7573
268.7822, 330.8218
269.2643, 319.1410
269.7464, 307.4359
270.2285, 289.1006
270.7107, 259.9509
271.1928, 239.2019
271.6749, 233.6032
272.1570, 240.9536
272.6391, 241.2615
273.1212, 230.7474
273.6034, 218.1878
274.0855, 212.6339
274.5676, 215.7491
275.0497, 219.8020
275.5318, 223.5012
276.0139, 226.5413
276.4961, 226.2965
276.9782, 220.3324
277.4603, 217.7288
277.9424, 228.9398
278.4245, 254.5901
278.9066, 277.2169
279.3888, 293.4285
279.8709, 304.6838
280.3530, 314.7933
280.8351, 323.4161
281.3172, 334.3177
281.7993, 354.1571
282.2815, 382.9377
282.7636, 401.7861
283.2457, 403.7693
283.7278, 393.0051
284.2099, 382.4597
284.6920, 371.4773
285.1741, 367.0072
285.6563, 381.1809
286.1384, 411.9442
286.6205, 430.1098
287.1026, 425.5670
287.5847, 406.1505
288.0668, 392.6945
288.5490, 385.2639
289.0311, 382.9537
289.5132, 385.2572
289.9953, 391.8524
290.4774, 403.1611
290.9595, 424.2952
291.4417, 446.9090
291.9238, 447.6726
292.4059, 426.8133
292.8880, 403.7355
293.3701, 394.4570
293.8522, 396.2905
294.3344, 396.2346
294.8165, 390.6941
295.2986, 382.2616
295.7807, 378.6599
296.2628, 379.1750
296.7449, 374.0706
297.2271, 347.5523
297.7092, 309.1879
298.1913, 283.3668
298.6734, 281.5831
299.1555, 287.7605
299.6376, 280.4443
300.1198, 260.9192
300.6019, 236.0383
301.0840, 204.5169
301.5661, 171.9852
302.0482, 148.9594
302.5303, 139.7574
303.0125, 137.1607
303.4946, 134.9614
303.9767, 133.0257
304.4588, 130.5894
304.9409, 128.2323
305.4230, 124.7696
305.9052, 117.8830
306.3873, 104.9303
306.8694, 92.49826
307.3515, 87.26874
307.8336, 87.68954
308.3157, 88.54974
308.7979, 87.76019
309.2800, 85.51682
309.7621, 81.56985
310.2442, 74.68372
310.7263, 68.69711
311.2084, 65.85052
311.6906, 65.79581
312.1727, 67.53854
312.6548, 75.18839
313.1369, 81.76273
313.6190, 80.07178
314.1011, 64.01920
314.5833, 52.09821
315.0654, 57.11209
315.5475, 72.53903
316.0296, 84.86295
316.5117, 88.08176
316.9938, 87.20758
317.4760, 84.45773
317.9580, 79.34085
318.4402, 74.80621
318.9223, 71.03305
319.4044, 68.52933
319.8865, 68.21201
320.3686, 72.87579
320.8507, 77.66992
321.3329, 82.28220
321.8150, 89.20840
322.2971, 86.81168
322.7792, 60.38031
323.2613, 26.50885
323.7434, 8.001099
324.2256, 26.53198
324.7077, 43.78268
325.1898, 48.07471
325.6719, 35.70959
326.1540, 23.91183
326.6361, 9.861115
327.1183, 1.837372
327.6004, 5.973602
328.0825, 8.559784
328.5646, 18.51361
329.0467, 16.72455
329.5288, 0.8608090
330.0110, 5.939941
330.4931, 4.743744
330.9752, 18.48972
331.4573, 21.16815
331.9394, 5.596466
332.4215, 9.247345
332.9037, 20.80048
333.3858, 29.01154
333.8679, 34.22147
334.3500, 37.20438
334.8321, 36.26865
335.3142, 28.53278
335.7964, 9.623718
336.2785, 4.061279
336.7606, 9.830780
337.2427, 8.455444
337.7248, 3.512848
338.2069, 6.720093
338.6891, 16.31494
339.1712, 21.63394
339.6533, 22.73480
340.1354, 17.74146
340.6175, 3.299530
341.0996, 15.21399
341.5818, 20.27811
342.0639, 10.22418
342.5460, 2.334778
343.0281, 9.738464
343.5102, 12.20551
343.9923, 14.09250
344.4745, 15.76315
344.9566, 17.15173
345.4387, 18.68430
345.9208, 20.28537
346.4029, 20.09772
346.8850, 16.44437
347.3672, 10.02731
347.8493, 2.342194
348.3314, 7.413544
348.8135, 14.94473
349.2956, 10.21460
349.7777, 3.278961
350.2599, 11.07886
350.7419, 2.010620
351.2241, 22.98907
351.7062, 29.04190
352.1883, 18.30420
352.6704, 2.603271
353.1525, 10.04547
353.6346, 19.44583
354.1168, 25.44000
354.5989, 26.48029
355.0810, 24.97244
355.5631, 23.40344
356.0452, 21.79477
356.5273, 18.25830
357.0095, 7.746521
357.4916, 4.325714
357.9737, 11.15625
358.4558, 4.965363
358.9379, 2.227875
359.4200, 5.420166
359.9022, 4.520721
360.3843, 0.9935610
360.8664, 17.49057
361.3485, 35.45657
361.8306, 47.03125
362.3127, 44.02835
362.7949, 42.49640
363.2770, 47.82571
363.7591, 58.45166
364.2412, 68.68716
364.7233, 77.96008
365.2054, 86.02383
365.6876, 92.38440
366.1697, 94.46292
366.6518, 99.10834
367.1339, 109.3370
367.6160, 122.4700
368.0981, 132.3906
368.5803, 137.5742
369.0624, 140.9812
369.5445, 143.4164
370.0266, 144.9221
370.5087, 145.5997
370.9908, 148.3401
371.4730, 148.5622
371.9551, 139.2651
372.4372, 115.6371
372.9193, 91.06281
373.4014, 67.91260
373.8835, 46.04294
374.3657, 30.55591
374.8478, 22.61133
375.3299, 19.38522
375.8120, 19.32446
376.2941, 23.56885
376.7762, 24.68311
377.2584, 19.14883
377.7405, 9.300812
378.2226, 7.658112
378.7047, 15.30344
379.1868, 25.20123
379.6689, 32.50323
380.1511, 37.20905
380.6332, 40.39178
381.1153, 42.31757
381.5974, 41.86328
382.0795, 37.31366
382.5616, 28.55731
383.0438, 21.67175
383.5259, 20.26373
384.0080, 23.53693
384.4901, 31.09222
384.9722, 44.60779
385.4543, 56.06659
385.9364, 52.89752
386.4185, 40.14709
386.9007, 33.49146
387.3828, 46.46179
387.8649, 66.15723
388.3470, 79.20435
388.8291, 84.33905
389.3112, 86.83966
389.7934, 87.37671
390.2755, 87.36316
390.7576, 89.33472
391.2397, 97.28931
391.7218, 105.4918
392.2039, 109.9797
392.6861, 111.3806
393.1682, 115.1728
393.6503, 130.9380
394.1324, 146.5145
394.6145, 152.0126
395.0966, 124.7263
395.5788, 110.0402
396.0609, 126.1165
396.5430, 164.2435
397.0251, 192.5073
397.5072, 201.7817
397.9893, 204.7598
398.4715, 206.3909
398.9536, 199.7172
399.4357, 204.1920
399.9178, 227.6340
400.3999, 259.1047
400.8820, 279.6168
401.3642, 281.1022
401.8463, 284.9147
402.3284, 298.7699
402.8105, 324.5117
403.2926, 344.5546
403.7747, 358.6122
404.2569, 367.4755
404.7390, 370.1890
405.2211, 364.6027
405.7032, 363.9688
406.1853, 371.7986
406.6674, 386.3482
407.1496, 402.2192
407.6317, 419.5654
408.1138, 434.7975
408.5959, 444.4386
409.0780, 448.9407
409.5602, 457.8237
410.0423, 472.3558
410.5244, 491.7889
411.0065, 515.5004
411.4886, 543.2677
411.9707, 571.8528
412.4529, 599.5081
412.9350, 627.6364
413.4171, 658.3678
413.8992, 692.9056
414.3813, 726.5712
414.8634, 757.2609
415.3456, 784.4074
415.8277, 806.7891
416.3098, 813.2312
416.7919, 822.7916
417.2740, 853.5911
417.7561, 904.8841
418.2382, 956.9546
418.7203, 992.5020
419.2025, 1027.094
419.6846, 1074.107
420.1667, 1147.229
420.6488, 1222.499
421.1309, 1295.858
421.6130, 1366.003
422.0952, 1433.660
422.5773, 1491.454
423.0594, 1551.698
423.5415, 1621.377
424.0236, 1707.645
424.5057, 1789.477
424.9879, 1858.525
425.4700, 1924.652
425.9521, 2007.038
426.4342, 2119.651
426.9163, 2225.242
427.3984, 2305.606
427.8806, 2357.840
428.3627, 2451.183
428.8448, 2597.487
429.3269, 2765.516
429.8090, 2928.263
430.2911, 3086.116
430.7733, 3235.167
431.2554, 3371.548
431.7375, 3499.975
432.2196, 3637.837
432.7017, 3785.019
433.1838, 3936.479
433.6660, 4088.208
434.1481, 4240.578
434.6302, 4393.648
435.1123, 4548.604
435.5944, 4700.141
436.0765, 4836.639
436.5587, 4962.844
437.0408, 5095.282
437.5229, 5250.881
438.0050, 5410.979
438.4871, 5553.443
438.9692, 5677.614
439.4514, 5791.593
439.9335, 5904.197
440.4156, 6008.636
440.8977, 6097.188
441.3798, 6162.530
441.8619, 6215.440
442.3441, 6268.329
442.8262, 6315.050
443.3083, 6331.412
443.7904, 6295.806
444.2725, 6237.621
444.7546, 6171.995
445.2368, 6105.487
445.7189, 6022.617
446.2010, 5922.451
446.6831, 5805.075
447.1652, 5670.333
447.6473, 5490.525
448.1295, 5328.807
448.6116, 5210.659
449.0937, 5138.322
449.5758, 5033.686
450.0579, 4888.361
450.5400, 4724.435
451.0221, 4556.772
451.5042, 4384.744
451.9864, 4219.986
452.4685, 4064.447
452.9506, 3916.572
453.4327, 3771.395
453.9148, 3629.638
454.3969, 3487.984
454.8791, 3344.172
455.3612, 3199.542
455.8433, 3061.616
456.3254, 2932.045
456.8075, 2808.162
457.2896, 2692.837
457.7718, 2583.006
458.2539, 2475.276
458.7360, 2367.507
459.2181, 2260.207
459.7002, 2150.491
460.1823, 2038.719
460.6645, 1936.081
461.1466, 1857.194
461.6287, 1786.866
462.1108, 1709.470
462.5929, 1611.614
463.0750, 1524.164
463.5572, 1468.570
464.0393, 1431.370
464.5214, 1386.373
465.0035, 1319.258
465.4856, 1251.118
465.9677, 1188.535
466.4499, 1130.214
466.9320, 1079.585
467.4141, 1043.392
467.8962, 1010.952
468.3783, 971.9829
468.8604, 918.7126
469.3426, 872.3958
469.8247, 836.7025
470.3068, 809.3325
470.7889, 777.5645
471.2710, 739.1746
471.7531, 703.2178
472.2353, 678.5110
472.7174, 665.1416
473.1995, 636.4213
473.6816, 587.3781
474.1637, 535.0688
474.6458, 506.5104
475.1280, 498.2841
475.6101, 487.7700
476.0922, 464.6554
476.5743, 437.0597
477.0564, 419.5372
477.5385, 409.8510
478.0207, 398.2615
478.5028, 379.9670
478.9849, 358.5793
479.4670, 335.7249
479.9491, 309.8483
480.4312, 287.9733
480.9134, 275.8204
481.3955, 270.7295
481.8776, 267.6735
482.3597, 268.6707
482.8418, 267.9763
483.3239, 264.2456
483.8060, 257.7419
484.2881, 244.5364
484.7703, 215.7529
485.2524, 185.2886
485.7345, 163.5014
486.2166, 152.7170
486.6987, 147.4479
487.1808, 149.9420
487.6630, 157.2690
488.1451, 160.5844
488.6272, 159.7681
489.1093, 155.1265
489.5914, 145.6808
490.0735, 131.3009
490.5557, 118.4190
491.0378, 107.5757
491.5199, 96.89990
492.0020, 81.75061
492.4841, 63.43542
492.9662, 52.23138
493.4484, 52.40735
493.9305, 59.45807
494.4126, 68.08667
494.8947, 77.79266
495.3768, 85.13037
495.8589, 85.01282
496.3411, 82.67584
496.8232, 86.29553
497.3053, 98.79285
497.7874, 106.7106
498.2695, 94.86646
498.7516, 75.27521
499.2338, 63.75360
499.7159, 77.95892
500.1980, 88.96399
500.6801, 81.71185
501.1622, 58.83691
501.6443, 45.90875
502.1265, 55.51141
502.6086, 68.96765
503.0907, 76.99884
503.5728, 74.36993
504.0549, 77.98987
504.5370, 92.40265
505.0192, 109.7075
505.5013, 116.2073
505.9834, 107.7472
506.4655, 103.1807
506.9476, 108.8116
507.4297, 122.6886
507.9119, 135.6074
508.3940, 148.2812
508.8761, 154.3393
509.3582, 144.4683
509.8403, 123.2513
510.3224, 108.2196
510.8046, 103.0342
511.2867, 99.83191
511.7688, 88.48175
512.2509, 71.89392
512.7330, 56.96863
513.2151, 47.96625
513.6973, 41.10321
514.1794, 33.34814
514.6615, 24.78308
515.1436, 17.19855
515.6257, 10.87201
516.1078, 6.141479
516.5900, 3.690796
517.0721, 6.122375
517.5542, 6.425659
518.0363, 1.119385
518.5184, 6.573547
519.0005, 10.61749
519.4827, 7.549316
519.9648, 5.485596
520.4469, 6.293335
520.9290, 9.932556
521.4111, 14.80005
521.8932, 20.93939
522.3754, 28.26068
522.8575, 39.83728
523.3396, 56.21234
523.8217, 57.35345
524.3038, 36.20178
524.7859, 9.977417
525.2681, 9.056335
525.7502, 29.27197
526.2323, 45.58441
526.7144, 42.38947
527.1965, 30.52118
527.6786, 26.06616
528.1608, 28.52252
528.6429, 31.89252
529.1250, 32.24738
529.6071, 31.41803
530.0892, 31.51978
530.5714, 34.38403
531.0535, 35.17676
531.5356, 30.71252
532.0176, 23.10553
532.4998, 15.91077
532.9819, 2.744324
533.4640, 2.640747
533.9461, 10.94409
534.4282, 42.85181
534.9103, 50.89536
535.3925, 18.42108
535.8746, 16.46924
536.3567, 28.29913
536.8388, 10.55133
537.3209, 0.1508180
537.8030, 0.7880860
538.2852, 3.842773
538.7673, 6.662476
539.2494, 7.703796
539.7315, 8.863037
540.2136, 10.88373
540.6957, 13.41095
541.1779, 15.93311
541.6600, 18.39435
542.1421, 20.33929
542.6242, 18.91656
543.1063, 17.85388
543.5884, 22.90204
544.0706, 36.62280
544.5527, 49.36340
545.0348, 53.87885
545.5169, 54.51965
545.9990, 57.09174
546.4811, 58.97125
546.9633, 67.44965
547.4454, 88.95660
547.9275, 121.2759
548.4096, 146.6098
548.8917, 160.2409
549.3738, 171.5978
549.8560, 184.9006
550.3381, 201.2316
550.8202, 214.6418
551.3023, 224.2683
551.7844, 232.4186
552.2665, 240.2155
552.7487, 247.4651
553.2308, 262.1444
553.7129, 288.9384
554.1950, 320.7595
554.6771, 339.5517
555.1592, 347.7737
555.6414, 362.9396
556.1235, 399.1348
556.6056, 446.4373
557.0877, 493.3672
557.5698, 539.1995
558.0519, 584.1710
558.5341, 629.0350
559.0162, 673.1984
559.4983, 714.4651
559.9804, 742.9782
560.4625, 782.1668
560.9446, 840.1118
561.4268, 912.7052
561.9089, 991.2990
562.3910, 1077.523
562.8731, 1167.470
563.3552, 1261.291
563.8373, 1358.678
564.3195, 1450.863
564.8016, 1534.805
565.2837, 1618.501
565.7658, 1702.604
566.2479, 1787.254
566.7300, 1894.938
567.2122, 2033.314
567.6943, 2178.707
568.1764, 2293.610
568.6585, 2385.567
569.1406, 2479.788
569.6227, 2591.328
570.1049, 2708.097
570.5870, 2816.250
571.0691, 2915.436
571.5512, 3011.891
572.0333, 3117.582
572.5154, 3214.593
572.9976, 3290.839
573.4797, 3347.019
573.9618, 3376.461
574.4439, 3389.648
574.9260, 3369.474
575.4081, 3297.900
575.8903, 3148.723
576.3724, 2987.183
576.8545, 2813.576
577.3366, 2633.430
577.8187, 2468.600
578.3008, 2321.702
578.7830, 2179.371
579.2651, 2034.481
579.7472, 1888.563
580.2293, 1749.864
580.7114, 1618.070
581.1935, 1500.242
581.6757, 1407.412
582.1578, 1336.741
582.6399, 1280.633
583.1220, 1238.652
583.6041, 1202.666
584.0862, 1168.445
584.5684, 1138.093
585.0505, 1113.752
585.5326, 1090.197
586.0147, 1077.192
586.4968, 1081.411
586.9789, 1101.722
587.4611, 1125.601
587.9432, 1156.291
588.4253, 1185.605
588.9074, 1210.019
589.3895, 1228.279
589.8716, 1249.131
590.3538, 1274.466
590.8359, 1299.729
591.3180, 1322.099
591.8001, 1340.827
592.2822, 1342.083
592.7643, 1320.405
593.2465, 1291.639
593.7286, 1282.953
594.2107, 1288.314
594.6928, 1285.240
595.1749, 1261.208
595.6570, 1223.465
596.1392, 1176.798
596.6213, 1121.553
597.1034, 1064.681
597.5854, 1011.471
598.0676, 956.2347
598.5497, 893.8017
599.0318, 815.6855
599.5139, 746.9798
599.9960, 695.1910
600.4781, 652.4345
600.9603, 610.3073
601.4424, 566.5893
601.9245, 527.0364
602.4066, 492.1676
602.8887, 462.5973
603.3708, 441.0558
603.8530, 428.5271
604.3351, 417.5840
604.8172, 401.0856
605.2993, 383.0028
605.7814, 380.5109
606.2635, 393.6298
606.7457, 410.4445
607.2278, 421.3629
607.7099, 429.8063
608.1920, 439.7947
608.6741, 451.5184
609.1563, 469.7125
609.6384, 495.8274
610.1205, 530.1888
610.6026, 573.1539
611.0847, 626.1128
611.5668, 687.3257
612.0490, 756.3229
612.5311, 833.5168
613.0132, 919.3411
613.4953, 1017.898
613.9774, 1120.192
614.4595, 1216.166
614.9417, 1306.728
615.4238, 1428.082
615.9059, 1582.624
616.3880, 1756.380
616.8701, 1943.017
617.3522, 2140.921
617.8344, 2340.352
618.3165, 2537.294
618.7986, 2746.652
619.2807, 2985.248
619.7628, 3244.547
620.2449, 3509.203
620.7271, 3765.084
621.2092, 4032.181
621.6913, 4323.177
622.1734, 4634.349
622.6555, 4950.027
623.1376, 5263.043
623.6198, 5582.486
624.1019, 5916.097
624.5840, 6267.460
625.0661, 6609.779
625.5482, 6957.989
626.0303, 7265.628
626.5125, 7507.839
626.9946, 7685.607
627.4767, 7789.533
627.9588, 7827.428
628.4409, 7763.747
628.9230, 7531.315
629.4052, 7155.131
629.8873, 6700.559
630.3694, 6149.300
630.8515, 5577.037
631.3336, 5026.668
631.8157, 4502.352
632.2979, 4015.062
632.7800, 3557.637
633.2621, 3141.989
633.7442, 2786.005
634.2263, 2488.797
634.7084, 2223.923
635.1906, 1992.086
635.6727, 1790.188
636.1548, 1616.691
636.6369, 1475.637
637.1190, 1344.413
637.6011, 1223.464
638.0833, 1116.300
638.5654, 1034.667
639.0475, 975.6649
639.5296, 912.0031
640.0117, 830.7751
640.4938, 752.1234
640.9760, 706.3261
641.4581, 686.2570
641.9402, 668.6805
642.4223, 648.0815
642.9044, 620.7432
643.3865, 578.5936
643.8687, 523.8458
644.3508, 479.9767
644.8329, 464.9618
645.3150, 452.2704
645.7971, 427.6337
646.2792, 385.0221
646.7614, 355.0990
647.2435, 343.1571
647.7256, 334.9768
648.2077, 315.4749
648.6898, 284.0682
649.1719, 256.0443
649.6541, 233.1783
650.1362, 213.9134
650.6183, 193.9168
651.1004, 175.1004
651.5825, 164.2272
652.0646, 173.6363
652.5468, 183.0378
653.0289, 173.7930
653.5110, 150.2539
653.9931, 127.7764
654.4752, 110.9389
654.9573, 97.11462
655.4395, 84.13565
655.9216, 71.32523
656.4037, 66.73279
656.8858, 76.79465
657.3679, 86.72580
657.8500, 85.98465
658.3322, 72.70877
658.8143, 63.03506
659.2964, 58.27670
659.7785, 54.34360
660.2606, 43.06638
660.7427, 27.73868
661.2249, 22.50943
661.7070, 35.55063
662.1891, 49.82849
662.6712, 47.56683
663.1533, 33.51730
663.6354, 17.79782
664.1175, 2.517090
664.5996, 16.76221
665.0817, 16.68484
665.5638, 4.542114
666.0460, 1.902527
666.5281, 3.249634
667.0102, 8.016174
667.4923, 7.787262
667.9744, 2.267578
668.4565, 3.860992
668.9387, 11.62418
669.4208, 16.38895
669.9029, 12.01566
670.3850, 0.8696290
670.8671, 6.743225
671.3492, 9.695038
671.8314, 9.371246
672.3135, 4.915894
672.7956, 1.271423
673.2777, 5.519745
673.7598, 5.816284
674.2419, 5.198639
674.7241, 4.378998
675.2062, 3.599304
675.6883, 3.275909
676.1704, 4.706665
676.6525, 4.926819
677.1346, 2.108063
677.6168, 2.518341
678.0989, 0.9522090
678.5810, 9.162781
679.0631, 15.54388
679.5452, 7.871490
680.0273, 9.315399
680.5095, 11.02798
680.9916, 2.432648
681.4737, 12.70386
681.9558, 2.950989
682.4379, 26.17886
682.9200, 32.53436
683.4022, 15.30222
683.8843, 2.294037
684.3664, 14.70084
684.8485, 20.05136
685.3306, 16.67093
685.8127, 10.42090
686.2949, 26.30499
686.7770, 26.88736
687.2591, 18.36200
687.7412, 8.353546
688.2233, 5.192688
688.7054, 7.631165
689.1876, 9.123810
689.6697, 33.98120
690.1518, 42.39084
690.6339, 35.92365
691.1160, 23.46552
691.5981, 1.895111
692.0803, 18.02444
692.5624, 22.46985
693.0445, 13.50775
693.5266, 7.282806
694.0087, 11.24771
694.4908, 19.21277
694.9730, 30.69162
695.4551, 48.92722
695.9372, 51.68631
696.4193, 29.31326
696.9014, 4.285309
697.3835, 5.707825
697.8657, 1.003143
698.3478, 3.261841
698.8299, 1.207489
699.3120, 5.912933
699.7941, 1.785248
700.2762, 8.396759
700.7584, 17.18420
701.2405, 22.82275
701.7226, 26.18478
702.2047, 26.89279
702.6868, 25.97958
703.1689, 25.23242
703.6511, 24.95416
704.1332, 25.11627
704.6153, 26.13174
705.0974, 27.66617
705.5795, 28.60248
706.0616, 29.17548
706.5438, 28.52640
707.0259, 25.70392
707.5080, 21.41312
707.9901, 19.39703
708.4722, 19.66797
708.9543, 21.56549
709.4365, 25.78949
709.9186, 30.92944
710.4007, 34.84042
710.8828, 37.39249
711.3649, 38.74387
711.8470, 38.36993
712.3292, 37.22345
712.8113, 36.20007
713.2934, 36.02829
713.7755, 34.18893
714.2576, 28.75720
714.7397, 23.11792
715.2219, 19.74387
715.7040, 18.38828
716.1861, 20.98166
716.6682, 28.57700
717.1503, 38.33240
717.6324, 48.44424
718.1146, 57.70392
718.5967, 60.02930
719.0788, 49.44669
719.5609, 38.03195
720.0430, 39.19287
720.5251, 48.46594
721.0073, 56.42963
721.4894, 56.73389
721.9715, 57.88406
722.4536, 65.08902
722.9357, 76.61673
723.4178, 79.81961
723.9000, 67.12936
724.3821, 58.90210
724.8642, 66.15698
725.3463, 85.54044
725.8284, 87.33929
726.3105, 70.68015
726.7927, 53.83701
727.2748, 50.19702
727.7569, 54.53488
728.2390, 58.56763
728.7211, 61.51385
729.2032, 64.63287
729.6853, 71.14929
730.1674, 77.06329
730.6495, 78.87894
731.1317, 74.90335
731.6138, 69.04330
732.0959, 57.27701
732.5780, 47.77029
733.0601, 49.16150
733.5422, 64.41641
734.0244, 74.69672
734.5065, 78.06808
734.9886, 77.73178
735.4707, 77.21927
735.9528, 76.77719
736.4349, 76.50439
736.9171, 76.49710
737.3992, 76.14203
737.8813, 73.19012
738.3634, 69.66345
738.8455, 69.05695
739.3276, 72.57004
739.8098, 76.81454
740.2919, 84.53162
740.7740, 92.08212
741.2561, 86.13754
741.7382, 58.37054
742.2203, 38.78342
742.7025, 38.40292
743.1846, 52.52225
743.6667, 70.15009
744.1488, 90.08054
744.6309, 100.0242
745.1130, 84.89963
745.5952, 61.02432
746.0773, 45.31097
746.5594, 36.96600
747.0415, 31.21094
747.5236, 26.06323
748.0057, 22.76199
748.4879, 22.43881
748.9700, 25.57397
749.4521, 32.99020
749.9342, 45.95779
750.4163, 57.77960
750.8984, 64.26483
751.3806, 65.44357
751.8627, 63.92328
752.3448, 59.39853
752.8269, 55.66623
753.3090, 57.39133
753.7911, 61.96021
754.2733, 66.71664
754.7554, 72.63400
755.2375, 71.10123
755.7196, 49.94876
756.2017, 24.32166
756.6838, 9.049713
757.1660, 14.79926
757.6481, 19.61633
758.1302, 24.30908
758.6123, 27.20825
759.0944, 25.06598
759.5765, 17.48206
760.0587, 12.94025
760.5408, 12.61868
761.0229, 16.03091
761.5050, 26.13852
761.9871, 39.72119
762.4692, 48.54239
762.9514, 44.84824
763.4335, 41.17606
763.9156, 45.20248
764.3977, 54.20239
764.8798, 62.18753
765.3619, 71.64160
765.8441, 75.47498
766.3262, 70.44629
766.8083, 59.71445
767.2904, 53.39053
767.7725, 51.32343
768.2546, 49.70691
768.7368, 47.26068
769.2189, 44.33676
769.7010, 39.93655
770.1831, 34.86880
770.6652, 33.28207
771.1473, 41.43304
771.6295, 50.51355
772.1116, 53.04715
772.5937, 49.59268
773.0758, 51.40173
773.5579, 69.20712
774.0400, 81.69400
774.5222, 78.04233
775.0043, 58.85153
775.4864, 52.60391
775.9685, 61.45068
776.4506, 71.43777
776.9327, 70.39255
777.4149, 63.06998
777.8970, 61.31689
778.3791, 65.64447
778.8612, 70.84351
779.3433, 74.62280
779.8254, 77.10016
780.3076, 78.90097
780.7897, 80.89127
781.2718, 78.31082
781.7539, 66.38925
782.2360, 54.80334
782.7181, 50.58853
783.2003, 54.82352
783.6824, 56.57834
784.1645, 54.82504
784.6466, 54.92770
785.1287, 65.35327
785.6108, 81.10898
786.0930, 91.93823
786.5751, 96.02670
787.0572, 95.85037
787.5393, 92.33401
788.0214, 85.76935
788.5035, 75.79129
788.9857, 52.97293
789.4678, 43.19391
789.9499, 52.75735
790.4320, 69.51562
790.9141, 81.58548
791.3962, 89.14523
791.8784, 89.73526
792.3605, 81.29364
792.8426, 69.68478
793.3247, 59.81546
793.8068, 52.61261
794.2889, 50.35657
794.7711, 56.95905
795.2531, 62.62570
795.7352, 59.80487
796.2173, 53.46103
796.6995, 51.30984
797.1816, 62.48981
797.6637, 63.19128
798.1458, 45.59567
798.6279, 22.13150
799.1100, 17.80573
799.5922, 31.82895
800.0743, 42.01062
800.5564, 41.65436
801.0385, 37.52887
801.5206, 37.79834
802.0027, 40.15131
802.4849, 40.02084
802.9670, 28.50253
803.4491, 21.61472
803.9312, 29.28058
804.4133, 45.51758
804.8954, 55.35614
805.3776, 58.35242
805.8597, 55.34732
806.3418, 43.16760
806.8239, 28.02271
807.3060, 26.68561
807.7881, 37.37436
808.2703, 45.29681
808.7524, 42.70874
809.2345, 36.24600
809.7166, 31.10449
810.1987, 27.59787
810.6808, 26.37064
811.1630, 31.23047
811.6451, 34.60956
812.1272, 33.22864
812.6093, 28.89090
813.0914, 26.37347
813.5735, 24.75012
814.0557, 28.32675
814.5378, 42.43359
815.0199, 59.37860
815.5020, 57.55765
815.9841, 40.53625
816.4662, 23.53488
816.9484, 10.10504
817.4305, 3.745026
817.9126, 12.00552
818.3947, 30.47455
818.8768, 43.06717
819.3589, 43.61234
819.8411, 41.90427
820.3232, 39.12177
820.8053, 36.06406
821.2874, 40.10626
821.7695, 51.66656
822.2516, 58.89914
822.7338, 56.24918
823.2159, 47.34244
823.6980, 33.32553
824.1801, 17.28101
824.6622, 10.47073
825.1443, 33.46753
825.6265, 54.82788
826.1086, 56.44638
826.5907, 40.65341
827.0728, 31.35852
827.5549, 30.12985
828.0370, 33.02039
828.5192, 40.03513
829.0013, 49.24472
829.4834, 54.48557
829.9655, 56.54333
830.4476, 56.62054
830.9297, 54.06497
831.4119, 50.72708
831.8940, 49.48328
832.3761, 49.12216
832.8582, 44.97662
833.3403, 24.77798
833.8224, 12.30530
834.3046, 19.70413
834.7867, 42.76291
835.2688, 56.88437
835.7509, 61.68494
836.2330, 65.04849
836.7151, 70.18268
837.1973, 74.47501
837.6794, 73.00726
838.1615, 67.00562
838.6436, 60.49005
839.1257, 53.79675
839.6078, 48.93573
840.0900, 48.04520
840.5721, 50.67441
841.0542, 53.60336
841.5363, 57.44727
842.0184, 59.84268
842.5005, 58.75958
842.9827, 54.59058
843.4648, 51.13174
843.9469, 49.39908
844.4290, 53.31598
844.9111, 72.07779
845.3932, 92.17218
845.8754, 96.92139
846.3575, 89.86462
846.8396, 83.15689
847.3217, 85.64667
847.8038, 83.86292
848.2859, 67.55542
848.7681, 43.17734
849.2502, 37.64194
849.7323, 55.06076
850.2144, 70.50525
850.6965, 75.42633
851.1786, 72.53015
851.6608, 63.20886
852.1429, 50.12158
852.6250, 42.32965
853.1071, 47.80341
853.5892, 56.42178
854.0714, 65.52698
854.5535, 73.56390
855.0356, 74.73938
855.5177, 62.30563
855.9998, 56.01956
856.4819, 64.07965
856.9641, 77.92221
857.4462, 70.90881
857.9283, 45.34888
858.4104, 22.71930
858.8925, 10.67349
859.3746, 6.150726
859.8568, 7.467194
860.3389, 13.77063
860.8210, 23.08051
861.3030, 43.97818
861.7852, 56.31680
862.2673, 52.40671
862.7494, 40.08191
863.2315, 36.59543
863.7136, 43.11316
864.1957, 46.53131
864.6779, 42.73132
865.1600, 35.90137
865.6421, 31.00586
866.1242, 28.05139
866.6063, 27.30463
867.0884, 31.65277
867.5706, 34.32062
868.0527, 32.33331
868.5348, 27.05231
869.0169, 20.44360
869.4990, 10.63422
869.9811, 4.626770
870.4633, 3.602539
870.9454, 5.929382
871.4275, 9.785095
871.9096, 14.88458
872.3917, 20.95154
872.8738, 29.23236
873.3560, 34.16272
873.8381, 29.66083
874.3202, 20.23975
874.8023, 11.29053
875.2844, 0.3136600
875.7665, 3.612854
876.2487, 4.387390
876.7308, 13.07642
877.2129, 6.612976
877.6950, 13.31189
878.1771, 22.96283
878.6592, 18.79181
879.1414, 8.935364
879.6235, 5.371277
880.1056, 17.76373
880.5877, 18.50671
881.0698, 0.1869510
881.5519, 9.829224
882.0341, 4.181396
882.5162, 18.97937
882.9983, 17.90082
883.4804, 2.351440
883.9625, 11.51001
884.4446, 8.257507
884.9268, 3.073914
885.4089, 7.498474
885.8910, 14.81726
886.3731, 12.02411
886.8552, 2.204407
887.3373, 9.662720
887.8195, 5.164856
888.3016, 22.47827
888.7837, 31.72943
889.2658, 32.70703
889.7479, 29.59985
890.2300, 22.08893
890.7122, 12.46045
891.1943, 2.844727
891.6764, 17.70428
892.1585, 14.72369
892.6406, 3.772949
893.1227, 23.79657
893.6049, 45.54089
894.0870, 58.74164
894.5691, 53.04987
895.0512, 30.71021
895.5333, 15.19592
896.0154, 8.375061
896.4976, 3.839600
896.9797, 1.913391
897.4618, 5.928101
897.9439, 3.498657
898.4260, 23.36279
898.9081, 40.09772
899.3903, 50.69910
899.8724, 52.58038
900.3545, 37.10529
900.8366, 11.78314
901.3187, 2.718445
901.8008, 0.7091060
902.2830, 3.776306
902.7651, 2.585571
903.2472, 0.7753910
903.7293, 6.680298
904.2114, 18.94495
904.6935, 28.89825
905.1757, 34.51050
905.6578, 36.38324
906.1399, 34.29486
906.6220, 29.42590
907.1041, 22.77448
907.5862, 10.67761
908.0684, 1.660522
908.5505, 1.645447
909.0326, 4.373962
909.5147, 13.11047
909.9968, 27.34113
910.4789, 39.51575
910.9611, 49.29590
911.4432, 55.63739
911.9253, 53.67596
912.4074, 49.75500
912.8895, 50.84949
913.3716, 58.53699
913.8538, 69.08929
914.3359, 86.95367
914.8180, 101.6688
915.3001, 104.3076
915.7822, 94.82898
916.2643, 99.37152
916.7465, 118.2849
917.2286, 136.2042
917.7107, 138.3459
918.1928, 136.4337
918.6749, 142.1548
919.1570, 156.0266
919.6392, 174.9377
920.1213, 194.4730
920.6034, 223.7145
921.0855, 274.1475
921.5676, 336.2026
922.0497, 359.0901
922.5319, 341.9529
923.0140, 331.5061
923.4961, 352.3081
923.9782, 386.0819
924.4603, 411.3964
924.9424, 432.1871
925.4246, 457.3451
925.9067, 491.5509
926.3888, 527.6777
926.8708, 561.5732
927.3530, 597.8865
927.8351, 646.3094
928.3172, 708.1031
928.7993, 769.6650
929.2814, 827.3458
929.7635, 889.8982
930.2457, 966.5549
930.7278, 1055.132
931.2099, 1149.191
931.6920, 1247.158
932.1741, 1354.446
932.6563, 1462.958
933.1384, 1590.750
933.6205, 1750.359
934.1026, 1944.477
934.5847, 2164.358
935.0668, 2408.538
935.5490, 2683.875
936.0311, 2969.163
936.5132, 3307.224
936.9953, 3734.393
937.4774, 4258.477
937.9595, 4903.441
938.4417, 5640.416
938.9238, 6548.721
939.4059, 7655.274
939.8880, 8951.525
940.3701, 10403.53
940.8522, 12004.33
941.3344, 13817.75
941.8165, 15889.07
942.2986, 18179.36
942.7807, 20644.19
943.2628, 23287.74
943.7449, 26110.92
944.2271, 29163.22
944.7092, 32389.97
945.1913, 35753.12
945.6734, 39280.94
946.1555, 43047.29
946.6376, 47022.62
947.1198, 51201.85
947.6019, 55689.45
948.0840, 60139.99
948.5661, 64654.36
949.0482, 68714.52
949.5303, 71733.50
950.0125, 73902.57
950.4946, 74016.86
950.9767, 71637.76
951.4588, 67673.43
951.9409, 62452.45
952.4230, 55986.78
952.9052, 49697.86
953.3873, 43582.93
953.8694, 37891.53
954.3515, 32666.24
954.8336, 27988.55
955.3157, 23908.32
955.7979, 20418.85
956.2800, 17372.38
956.7621, 14809.97
957.2442, 12560.11
957.7263, 10596.54
958.2084, 8921.629
958.6906, 7537.655
959.1727, 6432.448
959.6548, 5514.391
960.1369, 4792.134
960.6190, 4192.325
961.1011, 3682.859
961.5833, 3253.997
962.0654, 2903.000
962.5475, 2662.870
963.0296, 2434.912
963.5117, 2212.605
963.9938, 2004.217
964.4760, 1822.312
964.9581, 1665.489
965.4402, 1537.593
965.9223, 1440.863
966.4044, 1356.914
966.8865, 1275.001
967.3687, 1199.717
967.8508, 1137.455
968.3329, 1089.873
968.8150, 1042.956
969.2971, 993.6431
969.7792, 951.7925
970.2614, 928.6636
970.7435, 915.8020
971.2256, 878.5017
971.7077, 824.3438
972.1898, 789.8257
972.6719, 813.2710
973.1541, 842.7761
973.6362, 851.9868
974.1183, 848.6012
974.6004, 856.3593
975.0825, 878.6743
975.5646, 897.1191
976.0468, 905.2378
976.5289, 914.2900
977.0110, 943.8535
977.4931, 985.9756
977.9752, 1024.379
978.4573, 1051.217
978.9395, 1086.824
979.4216, 1141.122
979.9037, 1203.658
980.3858, 1269.925
980.8679, 1341.703
981.3500, 1395.719
981.8322, 1429.325
982.3143, 1466.401
982.7964, 1539.002
983.2785, 1620.719
983.7606, 1668.900
984.2427, 1686.153
984.7249, 1714.946
985.2070, 1780.710
985.6891, 1845.439
986.1712, 1893.594
986.6533, 1937.548
987.1354, 2017.379
987.6176, 2128.119
988.0997, 2237.693
988.5818, 2329.903
989.0639, 2432.024
989.5460, 2563.205
990.0281, 2718.954
990.5103, 2894.236
990.9924, 3087.660
991.4745, 3300.631
991.9566, 3536.448
992.4387, 3787.453
992.9208, 4044.648
993.4029, 4311.958
993.8850, 4597.471
994.3671, 4904.031
994.8492, 5227.152
995.3314, 5580.442
995.8135, 5938.607
996.2956, 6291.972
996.7777, 6641.363
997.2598, 6981.436
997.7419, 7314.234
998.2241, 7642.332
998.7062, 7976.060
999.1883, 8280.615
999.6704, 8505.861
1000.153, 8650.326
1000.635, 8716.321
1001.117, 8712.173
1001.599, 8615.138
1002.081, 8420.382
1002.563, 8128.197
1003.045, 7711.817
1003.527, 7161.664
1004.009, 6638.237
1004.492, 6147.815
1004.974, 5675.116
1005.456, 5175.055
1005.938, 4701.728
1006.420, 4296.139
1006.902, 3965.344
1007.384, 3679.489
1007.866, 3437.630
1008.349, 3233.418
1008.831, 3066.470
1009.313, 2932.425
1009.795, 2814.494
1010.277, 2715.227
1010.759, 2646.050
1011.241, 2614.790
1011.723, 2609.731
1012.205, 2632.835
1012.688, 2674.872
1013.170, 2722.635
1013.652, 2774.454
1014.134, 2836.220
1014.616, 2911.801
1015.098, 2981.368
1015.580, 3030.177
1016.062, 3057.931
1016.544, 3066.367
1017.027, 3055.110
1017.509, 3014.671
1017.991, 2933.703
1018.473, 2828.607
1018.955, 2699.434
1019.437, 2553.610
1019.919, 2419.806
1020.401, 2297.709
1020.884, 2179.835
1021.366, 2063.351
1021.848, 1952.872
1022.330, 1858.762
1022.812, 1771.590
1023.294, 1678.166
1023.776, 1579.301
1024.258, 1465.172
1024.740, 1333.164
1025.223, 1196.885
1025.705, 1068.289
1026.187, 946.0404
1026.669, 823.3633
1027.151, 700.5143
1027.633, 590.9337
1028.115, 505.4359
1028.597, 430.0096
1029.079, 353.6143
1029.562, 280.7079
1030.044, 234.2250
1030.526, 216.5541
1031.008, 194.0895
1031.490, 155.3822
1031.972, 112.9799
1032.454, 77.65979
1032.936, 49.93054
1033.419, 30.51355
1033.901, 23.11145
1034.383, 16.34680
1034.865, 11.00647
1035.347, 3.077026
1035.829, 12.65601
1036.311, 34.03583
1036.793, 47.70697
1037.276, 54.05341
1037.758, 56.55389
1038.240, 56.22510
1038.722, 53.84216
1039.204, 44.39990
1039.686, 33.90497
1040.168, 42.03729
1040.650, 75.35724
1041.132, 92.18976
1041.615, 81.43463
1042.097, 62.41418
1042.579, 57.20959
1043.061, 60.81653
1043.543, 67.57660
1044.025, 79.08307
1044.507, 80.97937
1044.989, 62.08801
1045.471, 45.45074
1045.954, 46.07324
1046.436, 59.34473
1046.918, 61.95892
1047.400, 53.52563
1047.882, 31.40479
1048.364, 26.91034
1048.846, 77.12714
1049.328, 84.36761
1049.811, 68.71527
1050.293, 69.09473
1050.775, 88.94482
1051.257, 113.0673
1051.739, 140.5542
1052.221, 172.2257
1052.703, 212.0207
1053.185, 256.6982
1053.667, 299.8571
1054.150, 340.2302
1054.632, 391.7054
1055.114, 455.3285
1055.596, 534.7162
1056.078, 631.9687
1056.560, 745.7675
1057.042, 867.9646
1057.524, 1001.398
1058.006, 1161.751
1058.489, 1352.719
1058.971, 1577.635
1059.453, 1846.260
1059.935, 2146.688
1060.417, 2460.613
1060.899, 2774.397
1061.381, 3157.421
1061.863, 3609.954
1062.346, 4086.930
1062.828, 4546.058
1063.310, 5012.437
1063.792, 5508.792
1064.274, 6037.946
1064.756, 6599.303
1065.238, 7225.432
1065.720, 7846.502
1066.203, 8468.656
1066.685, 9073.706
1067.167, 9674.169
1067.649, 10229.10
1068.131, 10596.15
1068.613, 10756.56
1069.095, 10649.83
1069.577, 10166.63
1070.059, 9455.233
1070.542, 8571.818
1071.024, 7534.890
1071.506, 6572.026
1071.988, 5688.464
1072.470, 4925.323
1072.952, 4327.753
1073.434, 3856.201
1073.916, 3503.007
1074.398, 3246.493
1074.881, 3055.706
1075.363, 2933.252
1075.845, 2860.925
1076.327, 2841.968
1076.809, 2864.834
1077.291, 2924.836
1077.773, 3016.269
1078.255, 3133.503
1078.738, 3272.390
1079.220, 3400.687
1079.702, 3503.045
1080.184, 3590.471
1080.666, 3687.895
1081.148, 3766.900
1081.630, 3753.961
1082.112, 3650.198
1082.594, 3461.760
1083.077, 3173.708
1083.559, 2856.609
1084.041, 2553.844
1084.523, 2268.207
1085.005, 2000.753
1085.487, 1746.132
1085.969, 1515.305
1086.451, 1307.145
1086.933, 1130.556
1087.416, 992.9106
1087.898, 882.4478
1088.380, 786.3479
1088.862, 703.7145
1089.344, 631.5065
1089.826, 578.0796
1090.308, 522.6526
1090.790, 455.6927
1091.272, 393.2186
1091.755, 355.6947
1092.237, 337.9011
1092.719, 318.3623
1093.201, 295.9987
1093.683, 277.6846
1094.165, 272.6146
1094.647, 264.8909
1095.129, 246.7369
1095.612, 221.7449
1096.094, 195.1833
1096.576, 165.9048
1097.058, 147.6230
1097.540, 146.3175
1098.022, 149.6378
1098.504, 147.5730
1098.986, 138.6383
1099.469, 121.9146
1099.951, 96.20837
1100.433, 78.81964
1100.915, 69.94635
1101.397, 65.64880
1101.879, 65.61847
1102.361, 68.06293
1102.843, 71.05865
1103.325, 72.43781
1103.807, 70.91675
1104.290, 62.00470
1104.772, 55.39233
1105.254, 53.05713
1105.736, 53.34918
1106.218, 55.94867
1106.700, 58.02454
1107.182, 58.94153
1107.664, 58.01239
1108.147, 50.48206
1108.629, 19.15607
1109.111, 2.761169
1109.593, 5.327332
1110.075, 29.24872
1110.557, 42.58173
1111.039, 45.48236
1111.521, 49.53040
1112.004, 57.35443
1112.486, 61.98871
1112.968, 53.28601
1113.450, 41.87469
1113.932, 36.25513
1114.414, 36.99823
1114.896, 43.59283
1115.378, 57.68616
1115.860, 68.55157
1116.343, 71.15009
1116.825, 70.40894
1117.307, 74.99237
1117.789, 80.35309
1118.271, 78.24237
1118.753, 57.75824
1119.235, 52.47174
1119.717, 70.90479
1120.199, 88.41748
1120.682, 86.40265
1121.164, 70.63428
1121.646, 52.11591
1122.128, 33.09442
1122.610, 21.93011
1123.092, 28.12872
1123.574, 35.33600
1124.056, 42.99323
1124.539, 46.57471
1125.021, 36.61560
1125.503, 16.31543
1125.985, 5.733398
1126.467, 6.492554
1126.949, 15.30511
1127.431, 46.73248
1127.913, 68.75092
1128.396, 54.77155
1128.878, 19.41541
1129.360, 1.268799
1129.842, 0.6475220
1130.324, 6.918335
1130.806, 19.41095
1131.288, 30.55511
1131.770, 32.70917
1132.252, 30.32257
1132.734, 27.07629
1133.217, 23.26227
1133.699, 19.20966
1134.181, 14.47992
1134.663, 12.35284
1135.145, 15.55823
1135.627, 20.12122
1136.109, 19.33167
1136.591, 16.60773
1137.074, 17.79633
1137.556, 27.95239
1138.038, 34.64233
1138.520, 38.44440
1139.002, 37.12292
1139.484, 23.31909
1139.966, 5.503967
1140.448, 10.17407
1140.931, 28.78040
1141.413, 31.83063
1141.895, 21.99585
1142.377, 47.33765
1142.859, 18.20624
1143.341, 23.01068
1143.823, 19.86224
1144.305, 13.38739
1144.787, 20.34998
1145.270, 1.253540
1145.752, 19.69275
1146.234, 17.06061
1146.716, 7.959717
1147.198, 7.792664
1147.680, 21.79272
1148.162, 8.703369
1148.644, 26.44971
1149.126, 43.15997
1149.609, 32.92352
1150.091, 17.10687
1150.573, 3.918396
1151.055, 3.324036
1151.537, 1.254089
1152.019, 14.69763
1152.501, 14.09985
1152.983, 0.5653690
1153.466, 9.322266
1153.948, 1.151550
1154.430, 5.901184
1154.912, 10.50525
1155.394, 31.36182
1155.876, 32.83301
1156.358, 10.75867
1156.840, 4.891357
1157.322, 13.13782
1157.805, 20.02240
1158.287, 33.97412
1158.769, 43.85175
1159.251, 27.81549
1159.733, 0.5086670
1160.215, 8.680176
1160.697, 16.02045
1161.179, 29.62512
1161.661, 28.95001
1162.144, 27.64606
1162.626, 42.31757
1163.108, 60.14325
1163.590, 58.22107
1164.072, 41.67279
1164.554, 33.36523
1165.036, 45.23755
1165.518, 51.65338
1166.000, 48.79877
1166.483, 43.21985
1166.965, 38.68640
1167.447, 38.65210
1167.929, 51.33258
1168.411, 75.76959
1168.893, 93.33942
1169.375, 93.55103
1169.857, 92.40582
1170.340, 93.17285
1170.822, 94.61499
1171.304, 94.52368
1171.786, 93.25354
1172.268, 90.52057
1172.750, 85.56061
1173.232, 85.46033
1173.714, 99.42224
1174.197, 111.4127
1174.679, 114.1523
1175.161, 111.5801
1175.643, 117.7681
1176.125, 128.9244
1176.607, 132.4459
1177.089, 121.6188
1177.571, 113.0162
1178.053, 115.5898
1178.536, 121.2362
1179.018, 125.5016
1179.500, 128.5918
1179.982, 132.3611
1180.464, 136.7357
1180.946, 141.9691
1181.428, 154.5462
1181.910, 157.7054
1182.392, 129.4738
1182.875, 99.16235
1183.357, 94.66510
1183.839, 115.7406
1184.321, 131.4467
1184.803, 141.8052
1185.285, 145.8981
1185.767, 138.8021
1186.249, 129.9545
1186.732, 123.9623
1187.214, 119.0298
1187.696, 113.3942
1188.178, 107.2277
1188.660, 107.4779
1189.142, 114.2637
1189.624, 115.8314
1190.106, 94.02582
1190.589, 73.99353
1191.071, 77.87701
1191.553, 93.77142
1192.035, 93.71002
1192.517, 76.32098
1192.999, 67.24115
1193.481, 70.08008
1193.963, 75.07953
1194.445, 76.68250
1194.927, 75.12305
1195.410, 67.15729
1195.892, 55.98157
1196.374, 55.85522
1196.856, 68.03662
1197.338, 74.47461
1197.820, 70.52625
1198.302, 64.11334
1198.784, 59.34845
1199.267, 57.46637
1199.749, 60.67004
1200.231, 68.01050
1200.713, 66.75281
1201.195, 55.71313
1201.677, 45.72382
1202.159, 39.38544
1202.641, 34.09979
1203.124, 28.71704
1203.606, 23.02649
1204.088, 17.25861
1204.570, 11.37885
1205.052, 2.444519
1205.534, 10.84369
1206.016, 12.24292
1206.498, 10.57343
1206.980, 35.26086
1207.463, 39.39673
1207.945, 32.29810
1208.427, 24.39795
1208.909, 15.50348
1209.391, 15.97296
1209.873, 27.33459
1210.355, 32.24579
1210.837, 12.96295
1211.319, 7.846802
1211.802, 1.112061
1212.284, 22.50574
1212.766, 26.97650
1213.248, 6.530212
1213.730, 6.043579
1214.212, 8.956604
1214.694, 5.252014
1215.176, 9.896423
1215.659, 23.53284
1216.141, 18.37482
1216.623, 4.128235
1217.105, 0.5476070
1217.587, 12.36292
1218.069, 17.76703
1218.551, 17.26404
1219.033, 13.88593
1219.516, 7.807007
1219.998, 2.530273
1220.480, 3.581970
1220.962, 7.728882
1221.444, 5.659668
1221.926, 5.735535
1222.408, 8.789856
1222.890, 1.064331
1223.372, 7.508240
1223.854, 8.173523
1224.337, 5.998169
1224.819, 4.686462
1225.301, 4.478699
1225.783, 5.663147
1226.265, 8.935669
1226.747, 8.641907
1227.229, 3.690552
1227.711, 1.439880
1228.193, 3.242920
1228.676, 2.908447
1229.158, 2.793762
1229.640, 1.398438
1230.122, 9.724731
1230.604, 32.71844
1231.086, 42.84259
1231.568, 34.62805
1232.050, 20.27808
1232.533, 2.911255
1233.015, 9.296143
1233.497, 4.706238
1233.979, 12.08105
1234.461, 17.97498
1234.943, 12.57825
1235.425, 7.007690
1235.907, 2.905334
1236.390, 4.035828
1236.872, 22.95471
1237.354, 40.66504
1237.836, 37.77527
1238.318, 19.39075
1238.800, 10.11963
1239.282, 9.723145
1239.764, 10.51996
1240.246, 9.757202
1240.729, 12.58209
1241.211, 28.47412
1241.693, 44.54688
1242.175, 50.22809
1242.657, 47.29602
1243.139, 45.98798
1243.621, 46.31763
1244.103, 48.61023
1244.585, 53.26605
1245.068, 58.92084
1245.550, 66.38098
1246.032, 72.93243
1246.514, 77.16010
1246.996, 78.91400
1247.478, 74.81659
1247.960, 66.42218
1248.442, 64.90741
1248.925, 79.48059
1249.407, 87.71448
1249.889, 67.37482
1250.371, 47.57794
1250.853, 49.49792
1251.335, 68.64020
1251.817, 82.50049
1252.299, 91.46100
1252.781, 96.78394
1253.264, 96.94763
1253.746, 97.86395
1254.228, 107.8510
1254.710, 111.2848
1255.192, 92.80078
1255.674, 61.15540
1256.156, 54.31763
1256.638, 66.81738
1257.120, 82.63013
1257.603, 100.5485
1258.085, 111.7383
1258.567, 114.7960
1259.049, 111.3733
1259.531, 97.17871
1260.013, 79.80170
1260.495, 82.22095
1260.977, 96.35712
1261.460, 104.1899
1261.942, 93.48517
1262.424, 86.74353
1262.906, 87.16815
1263.388, 92.02008
1263.870, 103.8063
1264.352, 116.3568
1264.834, 110.8436
1265.317, 93.87628
1265.799, 83.51746
1266.281, 88.15643
1266.763, 92.24335
1267.245, 96.81415
1267.727, 96.97546
1268.209, 81.37769
1268.691, 66.35638
1269.173, 78.03656
1269.656, 104.1647
1270.138, 115.7244
1270.620, 105.2489
1271.102, 95.42072
1271.584, 86.68982
1272.066, 81.76709
1272.548, 81.51733
1273.030, 85.77264
1273.512, 103.6508
1273.995, 123.4349
1274.477, 115.9510
1274.959, 73.04535
1275.441, 57.31494
1275.923, 70.57794
1276.405, 87.52820
1276.887, 97.69568
1277.369, 99.08771
1277.852, 79.56531
1278.334, 56.76562
1278.816, 57.16174
1279.298, 80.66455
1279.780, 100.2446
1280.262, 114.6808
1280.744, 119.7656
1281.226, 103.6871
1281.708, 89.48077
1282.191, 88.10803
1282.673, 91.83234
1283.155, 91.29077
1283.637, 88.25690
1284.119, 96.25690
1284.601, 113.0829
1285.083, 122.4786
1285.565, 109.7290
1286.047, 98.10394
1286.530, 93.59271
1287.012, 89.96033
1287.494, 76.48834
1287.976, 60.07050
1288.458, 61.75745
1288.940, 77.39307
1289.422, 85.74841
1289.904, 74.13660
1290.386, 63.50897
1290.869, 54.46637
1291.351, 49.62421
1291.833, 57.12158
1292.315, 66.68658
1292.797, 58.67719
1293.279, 39.50647
1293.761, 36.63348
1294.243, 62.32751
1294.726, 65.93384
1295.208, 39.98810
1295.690, 18.77869
1296.172, 42.05450
1296.654, 73.45294
1297.136, 76.62952
1297.618, 62.73779
1298.100, 63.40759
1298.583, 81.43457
1299.065, 85.67090
1299.547, 74.29370
1300.029, 62.22729
1300.511, 60.01636
1300.993, 60.03412
1301.475, 59.88043
1301.957, 58.07629
1302.439, 50.62164
1302.922, 38.83417
1303.404, 35.69897
1303.886, 40.89502
1304.368, 45.79718
1304.850, 49.47656
1305.332, 46.41461
1305.814, 33.07532
1306.296, 17.24194
1306.778, 2.496643
1307.261, 6.660522
1307.743, 9.082397
1308.225, 43.25775
1308.707, 65.12646
1309.189, 54.04041
1309.671, 45.39087
1310.153, 41.05701
1310.635, 25.94940
1311.118, 18.18085
1311.600, 8.827087
1312.082, 2.114563
1312.564, 6.2259999E-03
1313.046, 0.0000000E+00
##END=



