##NAMES=Triphylite
##RRUFFID=R050624
##IDEAL CHEMISTRY=LiFe^2+^PO_4_
##LOCALITY=Minas Gerais, Brazil
##OWNER=RRUFF
##SOURCE=Gemological Center
##DESCRIPTION=Brown fragment
##STATUS=The identification of this mineral has been confirmed by X-ray diffraction and chemical analysis
##URL=rruff.info/R050624
##MEASURED CHEMISTRY=Li_1.00_(Fe^2+^_0.55_Mn^2+^_0.45_)_Î£=1_P_1.00_O_4_ ; Li not measured, but estimated by difference
103.1541, 0.0000000E+00
103.6362, 1.708801
104.1183, 8.851868
104.6005, 16.25125
105.0826, 19.66873
105.5647, 18.46121
106.0468, 16.91312
106.5289, 16.07397
107.0110, 15.12772
107.4931, 13.87106
107.9753, 12.10538
108.4574, 9.731873
108.9395, 7.589020
109.4216, 5.372314
109.9037, 3.474396
110.3858, 3.091553
110.8680, 3.747742
111.3501, 5.036774
111.8322, 6.956360
112.3143, 5.875519
112.7964, 4.773529
113.2785, 5.102631
113.7607, 5.646545
114.2428, 5.157776
114.7249, 4.005249
115.2070, 3.669952
115.6891, 4.429962
116.1712, 6.336243
116.6534, 6.970184
117.1355, 5.122559
117.6176, 2.610107
118.0997, 0.8929750
118.5818, 0.1516720
119.0639, 0.3266910
119.5461, 1.328491
120.0282, 2.509583
120.5103, 2.540710
120.9924, 3.7597999E-02
121.4745, 4.007050
121.9566, 6.501587
122.4388, 6.811798
122.9209, 6.100769
123.4030, 4.751862
123.8851, 3.054688
124.3672, 1.998291
124.8493, 2.986664
125.3315, 6.258270
125.8136, 8.001953
126.2957, 5.614716
126.7778, 3.344116
127.2599, 3.230896
127.7420, 5.354706
128.2242, 8.194000
128.7063, 9.641479
129.1884, 8.684662
129.6705, 8.384369
130.1526, 8.707825
130.6347, 9.745178
131.1169, 11.62460
131.5990, 14.30066
132.0811, 17.38159
132.5632, 20.01520
133.0453, 20.95297
133.5274, 22.95401
134.0096, 27.05957
134.4917, 32.86011
134.9738, 38.13681
135.4559, 41.28796
135.9380, 43.80878
136.4201, 47.31113
136.9023, 52.07352
137.3844, 57.08490
137.8665, 61.76395
138.3486, 66.60989
138.8307, 71.97025
139.3128, 76.99585
139.7950, 82.59348
140.2771, 88.82079
140.7592, 94.53143
141.2413, 101.5802
141.7234, 112.1363
142.2055, 126.7697
142.6877, 142.1688
143.1698, 157.4973
143.6519, 172.2506
144.1340, 186.0841
144.6161, 200.1633
145.0982, 212.5074
145.5803, 217.5164
146.0625, 212.6467
146.5446, 203.7177
147.0267, 190.9868
147.5088, 176.4946
147.9909, 162.9760
148.4730, 151.8219
148.9552, 143.0301
149.4373, 137.9785
149.9194, 139.6291
150.4015, 142.6907
150.8836, 147.7471
151.3657, 153.4164
151.8479, 157.3949
152.3300, 157.7683
152.8121, 154.5634
153.2942, 146.8801
153.7763, 132.7526
154.2584, 116.9090
154.7406, 100.5265
155.2227, 84.34283
155.7048, 69.43542
156.1869, 56.97229
156.6690, 47.54694
157.1511, 39.65295
157.6333, 33.62169
158.1154, 28.95251
158.5975, 25.47252
159.0796, 23.19397
159.5617, 21.35298
160.0438, 18.95872
160.5260, 16.01338
161.0081, 13.84550
161.4902, 11.43617
161.9723, 8.999832
162.4544, 6.984467
162.9365, 5.633270
163.4187, 4.496109
163.9008, 3.028091
164.3829, 1.254364
164.8650, 0.4642790
165.3471, 2.407318
165.8292, 4.362732
166.3113, 4.684525
166.7935, 1.528412
167.2756, 1.991058
167.7577, 3.483688
168.2398, 2.881378
168.7219, 1.521332
169.2040, 0.5662840
169.6862, 5.8867998E-02
170.1683, 0.3611450
170.6504, 0.7004090
171.1325, 0.9805300
171.6146, 1.109497
172.0967, 1.107452
172.5789, 1.236191
173.0610, 2.059006
173.5431, 4.388748
174.0252, 5.423264
174.5073, 4.128723
174.9894, 2.290955
175.4716, 1.296280
175.9537, 1.556366
176.4358, 2.388809
176.9179, 2.433167
177.4000, 1.036133
177.8821, 0.2524110
178.3643, 1.492996
178.8464, 2.827850
179.3285, 4.179840
179.8106, 5.518311
180.2927, 6.744095
180.7748, 7.608246
181.2570, 8.026016
181.7391, 8.176682
182.2212, 7.946075
182.7033, 7.510620
183.1854, 7.057617
183.6675, 6.602478
184.1497, 6.223557
184.6318, 6.351563
185.1139, 7.369446
185.5960, 8.252960
186.0781, 8.226898
186.5602, 7.697037
187.0423, 7.981659
187.5245, 10.08096
188.0066, 13.06786
188.4887, 14.63586
188.9708, 13.96233
189.4529, 13.33034
189.9350, 14.52971
190.4172, 17.36629
190.8993, 19.76610
191.3814, 20.62900
191.8635, 20.57809
192.3456, 20.41261
192.8277, 19.89955
193.3099, 19.86539
193.7920, 21.37447
194.2741, 24.63033
194.7562, 27.92824
195.2383, 30.58226
195.7204, 32.94182
196.2026, 35.39310
196.6847, 38.18492
197.1668, 40.67462
197.6489, 41.65521
198.1310, 40.48416
198.6131, 39.63937
199.0953, 40.42351
199.5774, 41.55318
200.0595, 41.84587
200.5416, 40.81534
201.0237, 38.98859
201.5058, 37.60185
201.9880, 37.23465
202.4701, 36.21503
202.9522, 33.50905
203.4343, 30.42456
203.9164, 28.33090
204.3985, 27.86139
204.8807, 28.52907
205.3628, 28.91809
205.8449, 29.17361
206.3270, 28.87209
206.8091, 27.49190
207.2912, 25.72942
207.7733, 24.28166
208.2555, 23.49907
208.7376, 23.34123
209.2197, 23.67245
209.7018, 24.69939
210.1839, 26.03192
210.6660, 28.37195
211.1482, 30.83958
211.6303, 31.98071
212.1124, 30.93732
212.5945, 28.47354
213.0766, 27.74376
213.5587, 30.26457
214.0409, 32.56323
214.5230, 33.98755
215.0051, 34.71872
215.4872, 35.04643
215.9693, 35.07277
216.4514, 34.89948
216.9336, 34.89008
217.4157, 34.63155
217.8978, 34.97583
218.3799, 36.53572
218.8620, 38.93805
219.3441, 41.29262
219.8263, 43.21727
220.3084, 44.76877
220.7905, 46.07802
221.2726, 46.82799
221.7547, 47.88489
222.2368, 50.04439
222.7190, 52.94165
223.2011, 55.17479
223.6832, 55.91519
224.1653, 55.94865
224.6474, 56.87393
225.1295, 58.86473
225.6117, 61.07169
226.0938, 62.82011
226.5759, 64.19283
227.0580, 66.02997
227.5401, 68.75752
228.0222, 72.08858
228.5043, 75.70111
228.9865, 79.65698
229.4686, 83.53380
229.9507, 86.97563
230.4328, 89.96988
230.9149, 92.58539
231.3970, 94.46385
231.8792, 96.14067
232.3613, 98.17946
232.8434, 100.6709
233.3255, 103.3139
233.8076, 105.6683
234.2897, 107.6376
234.7719, 110.0270
235.2540, 113.9701
235.7361, 117.8967
236.2182, 120.6759
236.7003, 122.1642
237.1824, 123.1367
237.6646, 124.3541
238.1467, 125.8306
238.6288, 127.4781
239.1109, 129.0143
239.5930, 130.9234
240.0751, 133.7048
240.5573, 137.3225
241.0394, 141.1157
241.5215, 144.0254
242.0036, 145.5137
242.4857, 148.4242
242.9678, 154.7280
243.4500, 161.0233
243.9321, 165.6838
244.4142, 168.5281
244.8963, 170.3550
245.3784, 172.3282
245.8605, 175.1479
246.3427, 175.4225
246.8248, 171.8580
247.3069, 167.0031
247.7890, 161.7014
248.2711, 156.2039
248.7532, 150.6457
249.2354, 145.2018
249.7175, 140.1533
250.1996, 133.9545
250.6817, 125.7040
251.1638, 117.2719
251.6459, 109.4928
252.1281, 102.3842
252.6102, 95.53494
253.0923, 88.42470
253.5744, 80.89851
254.0565, 74.28976
254.5386, 68.78487
255.0208, 63.81607
255.5029, 59.00638
255.9850, 54.44891
256.4671, 50.55836
256.9492, 47.75760
257.4313, 46.18007
257.9135, 44.20235
258.3956, 41.45973
258.8777, 38.75504
259.3598, 36.41956
259.8419, 34.42270
260.3240, 32.49831
260.8062, 30.37589
261.2883, 28.06055
261.7704, 26.67018
262.2525, 27.32361
262.7346, 27.56677
263.2167, 25.91898
263.6989, 22.97536
264.1810, 20.51569
264.6631, 19.78476
265.1452, 20.50378
265.6273, 20.15723
266.1094, 17.93816
266.5916, 15.76984
267.0737, 14.19347
267.5558, 13.19455
268.0379, 12.75548
268.5200, 12.97842
269.0021, 13.65151
269.4843, 13.85863
269.9664, 13.26398
270.4485, 12.77405
270.9306, 12.78436
271.4127, 13.05421
271.8948, 13.06065
272.3770, 12.55220
272.8591, 11.72603
273.3412, 11.06119
273.8233, 10.60136
274.3054, 10.16695
274.7875, 9.634445
275.2697, 9.097672
275.7518, 8.768585
276.2339, 8.756424
276.7160, 8.892746
277.1981, 8.798553
277.6802, 8.423508
278.1623, 8.319839
278.6444, 8.843109
279.1266, 9.681442
279.6087, 10.26233
280.0908, 10.44897
280.5729, 10.32574
281.0550, 9.778503
281.5371, 8.774170
282.0193, 8.230133
282.5014, 8.751083
282.9835, 9.744751
283.4656, 10.30553
283.9477, 10.22557
284.4298, 10.03905
284.9120, 10.38652
285.3941, 11.18513
285.8762, 11.74374
286.3583, 11.88303
286.8404, 11.72650
287.3225, 11.37946
287.8047, 10.84111
288.2868, 10.22636
288.7689, 9.725861
289.2510, 9.254211
289.7331, 8.549637
290.2152, 6.841995
290.6974, 5.202515
291.1795, 5.212479
291.6616, 7.109589
292.1437, 8.677063
292.6258, 8.181671
293.1079, 6.485123
293.5901, 5.563583
294.0722, 6.108047
294.5543, 6.889847
295.0364, 6.793335
295.5185, 5.880219
296.0006, 5.087265
296.4828, 4.860794
296.9649, 4.995316
297.4470, 5.162781
297.9291, 5.525131
298.4112, 5.555450
298.8933, 4.411011
299.3755, 2.385880
299.8576, 1.380081
300.3397, 2.512756
300.8218, 4.398529
301.3039, 5.250153
301.7860, 5.062958
302.2682, 4.265549
302.7503, 2.390198
303.2324, 2.2110000E-02
303.7145, 0.7583620
304.1966, 0.9813080
304.6787, 3.296082
305.1609, 4.251007
305.6430, 4.063522
306.1251, 3.494614
306.6072, 2.282715
307.0893, 0.9756470
307.5714, 1.040146
308.0536, 3.113434
308.5357, 5.275787
309.0178, 5.589417
309.4999, 4.599762
309.9820, 3.729126
310.4641, 3.468338
310.9463, 3.633240
311.4284, 4.152390
311.9105, 5.133453
312.3926, 5.844528
312.8747, 5.712021
313.3568, 4.990585
313.8390, 4.067856
314.3211, 2.545547
314.8032, 1.222214
315.2853, 1.248032
315.7674, 2.673401
316.2495, 3.743378
316.7317, 3.307266
317.2138, 2.222809
317.6959, 1.862305
318.1780, 2.545853
318.6601, 3.366241
319.1422, 3.625626
319.6243, 3.398773
320.1064, 3.211304
320.5886, 3.279175
321.0707, 3.384598
321.5528, 3.220474
322.0349, 2.763687
322.5170, 2.361786
322.9991, 2.237671
323.4813, 2.312851
323.9634, 2.375473
324.4455, 2.406708
324.9276, 2.379059
325.4097, 2.390045
325.8918, 2.392822
326.3740, 1.996140
326.8561, 0.5576780
327.3382, 1.195465
327.8203, 2.067657
328.3024, 1.882416
328.7845, 1.278755
329.2667, 0.5140610
329.7488, 0.3108750
330.2309, 0.9336090
330.7130, 1.257683
331.1951, 1.389381
331.6772, 1.328812
332.1594, 1.080994
332.6415, 1.033401
333.1236, 1.705360
333.6057, 2.539787
334.0878, 2.309509
334.5699, 0.2690200
335.0521, 1.534042
335.5342, 1.592110
336.0163, 0.2336960
336.4984, 1.185310
336.9805, 2.330887
337.4626, 3.134544
337.9448, 3.433731
338.4269, 3.184143
338.9090, 2.908165
339.3911, 2.986511
339.8732, 3.149216
340.3553, 2.756538
340.8375, 1.563042
341.3196, 0.3046880
341.8017, 0.1030580
342.2838, 0.2523730
342.7659, 0.5557940
343.2480, 0.6709290
343.7302, 0.6509400
344.2123, 0.4593730
344.6944, 0.1010970
345.1765, 7.9475001E-02
345.6586, 0.4229050
346.1407, 1.343857
346.6229, 1.246529
347.1050, 1.534935
347.5871, 3.852638
348.0692, 3.078789
348.5513, 1.1269000E-02
349.0334, 2.240997
349.5156, 1.982239
349.9977, 9.3964003E-02
350.4798, 1.023392
350.9619, 1.194817
351.4440, 1.139107
351.9261, 0.9053120
352.4083, 0.6234510
352.8904, 0.5685880
353.3725, 0.8508070
353.8546, 1.180695
354.3367, 1.097801
354.8188, 0.4757840
355.3010, 2.8519001E-02
355.7831, 0.4245070
356.2652, 0.6369930
356.7473, 0.4386220
357.2294, 0.1438520
357.7115, 0.5907970
358.1937, 0.3722460
358.6758, 0.5516890
359.1579, 1.046364
359.6400, 1.246666
360.1221, 0.9350430
360.6042, 0.6894300
361.0863, 2.987747
361.5685, 4.207581
362.0506, 3.223289
362.5327, 0.6232530
363.0148, 1.198380
363.4969, 1.990433
363.9790, 2.372322
364.4612, 2.418777
364.9433, 2.100777
365.4254, 1.139557
365.9075, 0.5137790
366.3896, 2.164909
366.8717, 2.685219
367.3539, 1.528748
367.8360, 0.3723750
368.3181, 1.209343
368.8002, 2.476059
369.2823, 2.827965
369.7644, 2.307831
370.2466, 1.379303
370.7287, 0.3798750
371.2108, 0.7284390
371.6929, 1.178368
372.1750, 0.8520660
372.6571, 5.7091001E-02
373.1393, 1.822746
373.6214, 4.022453
374.1035, 5.135956
374.5856, 4.305740
375.0677, 2.290199
375.5498, 1.598076
376.0320, 3.333313
376.5141, 4.844109
376.9962, 6.013100
377.4783, 6.808968
377.9604, 7.028641
378.4425, 6.698524
378.9247, 6.291069
379.4068, 6.510132
379.8889, 7.605583
380.3710, 8.447998
380.8531, 8.859879
381.3352, 9.181305
381.8174, 9.580986
382.2995, 10.02161
382.7816, 10.31885
383.2637, 10.20802
383.7458, 9.830421
384.2279, 10.26196
384.7101, 12.32451
385.1922, 13.89307
385.6743, 13.87578
386.1564, 13.29383
386.6385, 13.41862
387.1206, 14.80226
387.6028, 16.69852
388.0849, 17.87943
388.5670, 18.14802
389.0491, 18.62030
389.5312, 19.77757
390.0133, 21.06645
390.4955, 22.07937
390.9776, 22.81034
391.4597, 23.62373
391.9418, 24.86063
392.4239, 26.44191
392.9060, 27.89581
393.3882, 29.35441
393.8703, 30.62235
394.3524, 31.66641
394.8345, 32.37140
395.3166, 32.39323
395.7987, 31.10513
396.2809, 29.46095
396.7630, 28.68381
397.2451, 28.78275
397.7272, 29.64474
398.2093, 31.99783
398.6914, 34.61495
399.1736, 35.53340
399.6557, 34.28618
400.1378, 32.69606
400.6199, 31.50662
401.1020, 30.78038
401.5841, 30.92756
402.0662, 32.32534
402.5483, 33.73537
403.0305, 33.21030
403.5126, 30.91447
403.9947, 29.76665
404.4768, 31.10081
404.9589, 33.16563
405.4410, 34.63801
405.9232, 35.56340
406.4053, 35.90453
406.8874, 35.17349
407.3695, 33.66118
407.8516, 32.95724
408.3337, 33.38727
408.8159, 34.07294
409.2980, 35.14372
409.7801, 36.21552
410.2622, 36.37601
410.7443, 35.26669
411.2264, 33.99721
411.7086, 34.48305
412.1907, 38.00945
412.6728, 40.20569
413.1549, 39.97359
413.6370, 39.30827
414.1191, 39.56080
414.6013, 40.70486
415.0834, 41.88440
415.5655, 42.38747
416.0476, 42.32225
416.5297, 42.97396
417.0118, 45.20641
417.4940, 47.10352
417.9761, 48.01193
418.4582, 48.47661
418.9403, 49.28609
419.4224, 50.81543
419.9045, 52.58813
420.3867, 53.47176
420.8688, 52.58206
421.3509, 52.78120
421.8330, 54.89140
422.3151, 57.44901
422.7972, 59.83604
423.2794, 61.97345
423.7615, 63.91209
424.2436, 65.54662
424.7257, 67.04832
425.2078, 69.34927
425.6899, 72.89743
426.1721, 76.43741
426.6542, 79.43108
427.1363, 82.16599
427.6184, 85.07085
428.1005, 88.34803
428.5826, 91.46789
429.0648, 93.40327
429.5469, 94.16965
430.0290, 95.83658
430.5111, 99.41482
430.9932, 103.4384
431.4753, 106.5615
431.9575, 108.8755
432.4396, 111.1423
432.9217, 113.8013
433.4038, 116.6038
433.8859, 118.9942
434.3680, 120.8627
434.8502, 123.0853
435.3323, 126.5691
435.8144, 130.7352
436.2965, 133.9611
436.7786, 135.7621
437.2607, 137.2721
437.7429, 139.1246
438.2250, 141.1275
438.7071, 142.7858
439.1892, 143.9087
439.6713, 144.8620
440.1534, 146.3100
440.6356, 148.6042
441.1177, 149.6320
441.5998, 148.4508
442.0819, 146.6231
442.5640, 145.2842
443.0461, 144.3750
443.5282, 143.1950
444.0103, 141.2658
444.4925, 138.7038
444.9746, 136.1644
445.4567, 134.4665
445.9388, 131.7651
446.4209, 126.6493
446.9030, 121.0858
447.3852, 117.3904
447.8673, 116.0039
448.3494, 115.0040
448.8315, 111.7835
449.3136, 105.7312
449.7957, 100.5347
450.2779, 96.76939
450.7600, 93.28209
451.2421, 89.83217
451.7242, 86.35967
452.2063, 82.90541
452.6884, 79.30287
453.1706, 75.57472
453.6527, 71.88746
454.1348, 68.11420
454.6169, 64.89716
455.0990, 62.95136
455.5811, 61.20479
456.0633, 58.76014
456.5454, 55.55401
457.0275, 52.52353
457.5096, 50.73042
457.9917, 49.74185
458.4738, 47.61346
458.9560, 43.65136
459.4381, 39.99266
459.9202, 38.31959
460.4023, 37.93114
460.8844, 37.68916
461.3665, 37.78406
461.8487, 37.44734
462.3308, 35.67303
462.8129, 32.97144
463.2950, 30.98463
463.7771, 30.28056
464.2592, 30.02625
464.7414, 29.12580
465.2235, 27.56693
465.7056, 25.86774
466.1877, 23.32349
466.6698, 21.24259
467.1519, 21.01666
467.6341, 22.25968
468.1162, 23.33990
468.5983, 23.26767
469.0804, 22.24907
469.5625, 21.05461
470.0446, 18.93846
470.5268, 17.61727
471.0089, 18.14906
471.4910, 19.02324
471.9731, 18.67319
472.4552, 16.86417
472.9373, 14.58453
473.4195, 12.83256
473.9016, 11.61858
474.3837, 10.84853
474.8658, 10.73064
475.3479, 10.91072
475.8300, 11.35567
476.3122, 11.97762
476.7943, 12.77313
477.2764, 13.88264
477.7585, 14.71944
478.2406, 13.93408
478.7227, 11.35270
479.2049, 9.633621
479.6870, 9.926224
480.1691, 10.53281
480.6512, 10.11580
481.1333, 8.867569
481.6154, 7.795670
482.0976, 7.536278
482.5797, 7.673042
483.0618, 7.642052
483.5439, 7.442169
484.0260, 6.894753
484.5081, 5.673203
484.9902, 4.212120
485.4724, 3.477310
485.9545, 3.738762
486.4366, 3.875427
486.9187, 3.081039
487.4008, 2.126312
487.8829, 2.156960
488.3651, 3.310493
488.8472, 4.827400
489.3293, 6.174042
489.8114, 7.352142
490.2935, 7.518181
490.7756, 6.051369
491.2578, 4.498398
491.7399, 3.060570
492.2220, 1.878075
492.7041, 1.079056
493.1862, 0.7162700
493.6683, 0.8123170
494.1505, 1.546188
494.6326, 3.266998
495.1147, 4.236420
495.5968, 3.722755
496.0789, 3.150421
496.5610, 2.886299
497.0432, 2.963821
497.5253, 3.470383
498.0074, 4.585457
498.4895, 5.756348
498.9716, 5.809135
499.4537, 4.543243
499.9359, 3.418648
500.4180, 2.769859
500.9001, 2.387466
501.3822, 2.175072
501.8643, 2.099365
502.3464, 1.931351
502.8286, 1.300621
503.3107, 0.6287690
503.7928, 0.6978000
504.2749, 1.530121
504.7570, 2.264404
505.2391, 2.467964
505.7213, 2.249397
506.2034, 1.834999
506.6855, 0.9309770
507.1676, 0.5170140
507.6497, 1.635612
508.1318, 2.959381
508.6140, 2.534386
509.0961, 0.3311540
509.5782, 1.498962
510.0603, 0.8875890
510.5424, 1.977715
511.0245, 3.188339
511.5067, 1.085327
511.9888, 0.6770480
512.4709, 1.593941
512.9530, 1.827721
513.4351, 1.321129
513.9172, 0.1725160
514.3994, 0.9129330
514.8815, 0.9458240
515.3636, 0.1878660
515.8457, 0.8359530
516.3278, 0.7839810
516.8099, 0.5047380
517.2921, 9.8578997E-02
517.7742, 0.3576200
518.2563, 0.8125310
518.7384, 1.331650
519.2205, 1.572395
519.7026, 0.8494570
520.1848, 0.6572950
520.6669, 1.439240
521.1490, 0.9174120
521.6311, 0.1369400
522.1132, 0.1757050
522.5953, 0.8982620
523.0775, 1.690269
523.5596, 2.953354
524.0417, 3.800964
524.5238, 3.320000
525.0059, 1.889870
525.4880, 0.5432280
525.9702, 0.3103030
526.4523, 0.8040850
526.9344, 1.174133
527.4165, 1.475357
527.8986, 1.458763
528.3807, 0.7320560
528.8629, 7.8704998E-02
529.3450, 1.7250000E-02
529.8271, 0.3787990
530.3092, 0.7241210
530.7913, 0.8128660
531.2734, 0.6971660
531.7556, 0.4328000
532.2377, 0.1616970
532.7198, 0.3852840
533.2019, 0.5495070
533.6840, 1.317619
534.1661, 0.7033080
534.6483, 0.8938520
535.1304, 1.672112
535.6125, 3.6536999E-02
536.0946, 2.789795
536.5767, 3.852005
537.0588, 3.146713
537.5410, 2.337990
538.0231, 1.996651
538.5052, 1.964104
538.9873, 2.006439
539.4694, 2.126259
539.9515, 2.275879
540.4337, 2.402473
540.9158, 2.579857
541.3979, 2.953323
541.8800, 3.477371
542.3621, 3.889915
542.8442, 4.007637
543.3264, 3.937256
543.8085, 4.037560
544.2906, 4.122078
544.7726, 4.676834
545.2548, 6.241081
545.7369, 7.859818
546.2190, 8.953651
546.7011, 9.433174
547.1832, 9.255882
547.6653, 8.112488
548.1475, 6.539581
548.6296, 6.991974
549.1117, 10.52461
549.5938, 13.31258
550.0759, 13.53223
550.5580, 12.99301
551.0402, 12.93269
551.5223, 13.45905
552.0044, 14.18489
552.4865, 14.77390
552.9686, 15.38120
553.4507, 16.41566
553.9329, 17.89322
554.4150, 19.68712
554.8971, 21.83212
555.3792, 24.15896
555.8613, 26.21701
556.3434, 27.89558
556.8256, 29.64322
557.3077, 31.40528
557.7898, 33.38054
558.2719, 35.81300
558.7540, 38.65558
559.2361, 41.66325
559.7183, 44.74723
560.2004, 47.73173
560.6825, 49.83873
561.1646, 49.82175
561.6467, 51.07687
562.1288, 54.98859
562.6110, 59.28315
563.0931, 62.33201
563.5752, 64.15038
564.0573, 65.79590
564.5394, 67.86414
565.0215, 70.35947
565.5037, 73.29176
565.9858, 76.67693
566.4679, 80.45036
566.9500, 84.38218
567.4321, 88.81329
567.9142, 94.63895
568.3964, 102.0067
568.8785, 108.9851
569.3606, 114.3892
569.8427, 119.4297
570.3248, 125.8659
570.8069, 133.3831
571.2891, 140.0463
571.7712, 144.6406
572.2533, 148.0362
572.7354, 152.4460
573.2175, 159.1095
573.6996, 164.5033
574.1818, 169.0733
574.6639, 172.1867
575.1460, 173.5231
575.6281, 173.0792
576.1102, 170.8875
576.5923, 166.9185
577.0745, 161.3927
577.5566, 154.8046
578.0387, 147.1526
578.5208, 137.9694
579.0029, 125.6985
579.4850, 113.6880
579.9672, 104.1476
580.4493, 96.85287
580.9314, 90.92027
581.4135, 86.58852
581.8956, 82.99348
582.3777, 79.42970
582.8599, 76.00687
583.3420, 72.77461
583.8241, 69.65544
584.3062, 66.93441
584.7883, 64.99545
585.2704, 63.85079
585.7526, 63.63369
586.2347, 64.60730
586.7168, 66.12915
587.1989, 68.49667
587.6810, 71.10597
588.1631, 73.05816
588.6453, 74.01717
589.1274, 74.27502
589.6095, 74.12309
590.0916, 73.48322
590.5737, 72.95024
591.0558, 72.93867
591.5380, 72.52551
592.0201, 71.52532
592.5022, 69.75850
592.9843, 67.01359
593.4664, 63.30102
593.9485, 59.06664
594.4307, 54.39610
594.9128, 49.55682
595.3949, 45.14836
595.8770, 41.28116
596.3591, 37.71916
596.8412, 34.27643
597.3234, 30.96398
597.8055, 27.93010
598.2876, 25.34900
598.7697, 22.77033
599.2518, 20.28087
599.7339, 17.64531
600.2161, 14.17934
600.6982, 10.14714
601.1803, 6.993256
601.6624, 6.017258
602.1445, 6.718842
602.6266, 6.894936
603.1088, 6.516922
603.5909, 5.702316
604.0730, 3.876213
604.5551, 2.061020
605.0372, 1.157333
605.5193, 1.103287
606.0015, 0.9998930
606.4836, 9.9900004E-04
606.9657, 1.016014
607.4478, 0.5157170
607.9299, 1.178108
608.4120, 1.931793
608.8942, 0.7038650
609.3763, 1.177040
609.8584, 1.600548
610.3405, 4.8232999E-02
610.8226, 0.9244230
611.3047, 0.3085250
611.7869, 0.2922210
612.2690, 0.4058690
612.7511, 3.5973001E-02
613.2332, 1.280785
613.7153, 3.386986
614.1974, 5.525757
614.6796, 6.410240
615.1617, 5.963730
615.6438, 5.978317
616.1259, 6.802711
616.6080, 7.565918
617.0901, 7.720146
617.5723, 7.573662
618.0544, 7.462395
618.5365, 7.312729
619.0186, 7.670273
619.5007, 9.126633
619.9828, 11.18289
620.4650, 12.88237
620.9471, 14.18974
621.4292, 16.10683
621.9113, 19.44456
622.3934, 23.73465
622.8755, 27.13918
623.3577, 28.71779
623.8398, 30.74091
624.3219, 33.66183
624.8040, 36.65460
625.2861, 39.55354
625.7682, 42.03520
626.2504, 43.44418
626.7325, 43.27596
627.2145, 42.14343
627.6967, 41.21780
628.1788, 40.52989
628.6609, 39.21576
629.1430, 36.89737
629.6251, 34.24046
630.1072, 31.65300
630.5894, 29.18272
631.0715, 27.05480
631.5536, 25.47442
632.0357, 24.03784
632.5178, 22.24181
632.9999, 20.55433
633.4821, 19.91049
633.9642, 20.42626
634.4463, 21.08511
634.9284, 20.78958
635.4105, 19.68826
635.8926, 20.03625
636.3748, 22.69884
636.8569, 25.50446
637.3390, 28.28088
637.8211, 30.81593
638.3032, 33.02277
638.7853, 34.85339
639.2675, 36.23001
639.7496, 37.64453
640.2317, 38.24994
640.7138, 36.24052
641.1959, 31.72688
641.6780, 27.01671
642.1602, 22.73265
642.6423, 19.13295
643.1244, 16.69013
643.6065, 15.66562
644.0886, 14.30535
644.5707, 12.13227
645.0529, 10.15685
645.5350, 8.904274
646.0171, 8.060196
646.4992, 7.000694
646.9813, 5.660614
647.4634, 4.798485
647.9456, 5.462074
648.4277, 7.422920
648.9098, 8.475998
649.3919, 8.386810
649.8740, 8.165970
650.3561, 8.275810
650.8383, 8.406075
651.3204, 8.193008
651.8025, 7.568069
652.2846, 6.811401
652.7667, 5.929398
653.2488, 5.187851
653.7310, 4.754974
654.2131, 4.490074
654.6952, 4.286461
655.1773, 4.146400
655.6594, 3.934029
656.1415, 3.358086
656.6237, 2.258743
657.1058, 1.572029
657.5879, 1.907402
658.0700, 1.991783
658.5521, 0.9292300
659.0342, 0.2441330
659.5164, 0.2072600
659.9985, 1.154709
660.4806, 2.873672
660.9627, 4.641548
661.4448, 6.120827
661.9269, 6.145691
662.4091, 4.650650
662.8912, 3.751839
663.3733, 4.750786
663.8554, 6.557922
664.3375, 6.698860
664.8196, 3.978714
665.3018, 3.109421
665.7839, 6.254562
666.2660, 9.197922
666.7481, 9.283524
667.2302, 7.669380
667.7123, 6.597618
668.1945, 6.944946
668.6766, 7.906883
669.1587, 8.737984
669.6408, 9.405487
670.1229, 9.391251
670.6050, 8.548103
671.0872, 7.411537
671.5693, 5.779755
672.0514, 4.282272
672.5335, 4.143272
673.0156, 5.751686
673.4977, 6.872330
673.9799, 6.495026
674.4620, 5.653648
674.9441, 5.221992
675.4262, 5.080185
675.9083, 4.658325
676.3904, 3.699867
676.8726, 2.595139
677.3547, 2.008888
677.8368, 2.041336
678.3189, 1.899437
678.8010, 1.213242
679.2831, 0.9031830
679.7653, 1.585770
680.2474, 2.687813
680.7295, 3.605148
681.2116, 4.262154
681.6937, 4.497856
682.1758, 3.725822
682.6580, 2.779434
683.1401, 2.892365
683.6222, 3.927002
684.1043, 4.997627
684.5864, 5.758133
685.0685, 5.938759
685.5507, 4.908310
686.0328, 2.076263
686.5149, 0.4099120
686.9970, 0.8737410
687.4791, 1.450401
687.9612, 1.409889
688.4434, 1.226006
688.9255, 1.614288
689.4076, 2.723679
689.8897, 3.824226
690.3718, 4.402710
690.8539, 4.563461
691.3361, 4.521149
691.8182, 4.274437
692.3003, 3.606178
692.7824, 2.298538
693.2645, 0.8409120
693.7466, 5.4175999E-02
694.2288, 0.3941800
694.7109, 3.3477999E-02
695.1930, 2.043159
695.6751, 3.596222
696.1572, 3.686073
696.6393, 2.881226
697.1215, 1.642868
697.6036, 0.2071080
698.0857, 0.7488170
698.5678, 0.3406140
699.0499, 0.9622120
699.5320, 1.837433
700.0142, 2.272636
700.4963, 2.410599
700.9784, 2.235435
701.4605, 1.904053
701.9426, 1.644470
702.4247, 1.484970
702.9069, 1.144783
703.3890, 0.4926380
703.8711, 0.1928250
704.3532, 1.084503
704.8353, 1.795113
705.3174, 1.737938
705.7996, 0.8907550
706.2817, 7.9239003E-02
706.7638, 0.6451720
707.2459, 0.8434680
707.7280, 0.6875310
708.2101, 0.1168980
708.6923, 0.2184070
709.1743, 7.3174000E-02
709.6564, 0.3520890
710.1385, 0.3491290
710.6207, 1.895828
711.1028, 2.570831
711.5849, 1.584770
712.0670, 0.5168760
712.5491, 3.1130000E-03
713.0313, 0.2976460
713.5134, 0.8234100
713.9955, 1.596153
714.4776, 2.370171
714.9597, 3.081230
715.4418, 3.461494
715.9240, 2.348846
716.4061, 0.5844420
716.8882, 1.954849
717.3703, 0.4024730
717.8524, 1.718575
718.3345, 2.525024
718.8167, 2.324516
719.2988, 2.167061
719.7809, 2.369057
720.2630, 2.271317
720.7451, 1.004707
721.2272, 0.2084810
721.7094, 0.3315200
722.1915, 2.269440
722.6736, 3.794098
723.1557, 3.834389
723.6378, 3.159149
724.1199, 3.569695
724.6021, 5.211906
725.0842, 6.252922
725.5663, 6.370628
726.0484, 6.204567
726.5305, 6.059685
727.0126, 5.824097
727.4948, 5.374840
727.9769, 4.552238
728.4590, 4.012482
728.9411, 4.054565
729.4232, 4.367081
729.9053, 4.725243
730.3875, 5.131203
730.8696, 5.695923
731.3517, 6.468445
731.8338, 7.278534
732.3159, 7.758774
732.7980, 7.910927
733.2802, 8.834351
733.7623, 10.99668
734.2444, 12.56853
734.7265, 12.25066
735.2086, 11.31287
735.6907, 11.79684
736.1729, 13.86350
736.6550, 15.02190
737.1371, 14.21952
737.6192, 12.94041
738.1013, 11.60160
738.5834, 10.55180
739.0656, 10.55482
739.5477, 11.62434
740.0298, 12.53957
740.5119, 12.06593
740.9940, 10.51894
741.4761, 9.127670
741.9583, 7.857506
742.4404, 6.985481
742.9225, 6.678925
743.4046, 6.668724
743.8867, 6.772247
744.3688, 6.960960
744.8510, 7.120010
745.3331, 7.421211
745.8152, 7.462486
746.2973, 6.787178
746.7794, 6.010796
747.2615, 5.833420
747.7437, 6.199615
748.2258, 6.634560
748.7079, 6.898018
749.1900, 6.846107
749.6721, 5.858345
750.1542, 3.966827
750.6364, 3.425034
751.1185, 4.944153
751.6006, 6.299690
752.0827, 5.803680
752.5648, 4.306496
753.0469, 4.112007
753.5291, 5.811493
754.0112, 7.047142
754.4933, 7.348282
754.9754, 7.270744
755.4575, 7.006783
755.9396, 6.606705
756.4218, 6.174576
756.9039, 5.749245
757.3860, 5.563583
757.8681, 6.190704
758.3502, 7.277718
758.8323, 7.454468
759.3145, 6.678322
759.7966, 5.906868
760.2787, 5.545662
760.7608, 5.189957
761.2429, 4.144302
761.7250, 2.232979
762.2072, 1.460869
762.6893, 2.957733
763.1714, 4.120750
763.6535, 4.296509
764.1356, 3.992432
764.6177, 3.313248
765.0999, 2.505455
765.5820, 2.327553
766.0641, 3.562317
766.5462, 4.925179
767.0283, 4.441650
767.5104, 2.650360
767.9926, 1.614555
768.4747, 1.637589
768.9568, 1.928543
769.4389, 2.051956
769.9210, 2.031555
770.4031, 1.864296
770.8853, 1.282394
771.3674, 1.024582
771.8495, 1.361275
772.3316, 1.707901
772.8137, 1.875771
773.2958, 1.873589
773.7780, 1.545296
774.2601, 0.7464680
774.7422, 0.4371720
775.2243, 2.391151
775.7064, 4.679626
776.1885, 4.346886
776.6707, 2.059052
777.1528, 0.6579740
777.6349, 1.133049
778.1170, 1.879730
778.5991, 0.8068160
779.0812, 1.972031
779.5634, 3.230003
780.0455, 2.441803
780.5276, 1.321419
781.0097, 0.2915880
781.4918, 1.586632
781.9739, 1.786255
782.4561, 1.109932
782.9382, 0.4549410
783.4203, 0.2984770
783.9024, 0.5109710
784.3845, 0.6313550
784.8666, 2.156662
785.3488, 3.031914
785.8309, 3.174301
786.3130, 2.766373
786.7951, 1.871567
787.2772, 0.9517440
787.7593, 0.8719640
788.2415, 1.611671
788.7236, 2.281471
789.2057, 2.814659
789.6878, 3.395973
790.1699, 4.262291
790.6520, 5.087967
791.1342, 5.173119
791.6162, 4.321098
792.0983, 3.971046
792.5804, 4.491066
793.0626, 5.186150
793.5447, 5.893745
794.0268, 6.563736
794.5089, 7.316002
794.9910, 8.053474
795.4731, 8.235405
795.9553, 7.121574
796.4374, 5.799538
796.9195, 6.239418
797.4016, 8.006195
797.8837, 9.155609
798.3658, 9.327507
798.8480, 8.905815
799.3301, 7.923302
799.8122, 6.896698
800.2943, 7.697891
800.7764, 11.81150
801.2585, 14.56854
801.7407, 15.00614
802.2228, 15.05334
802.7049, 15.15036
803.1870, 15.40126
803.6691, 15.97694
804.1512, 16.91942
804.6334, 17.81550
805.1155, 18.20164
805.5976, 18.66897
806.0797, 20.00517
806.5618, 21.80125
807.0439, 23.15312
807.5261, 23.82847
808.0082, 24.28130
808.4903, 24.94489
808.9724, 25.71542
809.4545, 26.11672
809.9366, 26.08133
810.4188, 26.22031
810.9009, 26.92456
811.3830, 27.23743
811.8651, 26.05208
812.3472, 23.93763
812.8293, 23.00508
813.3115, 24.08828
813.7936, 24.56499
814.2757, 22.42210
814.7578, 21.19972
815.2399, 24.30367
815.7220, 29.43260
816.2042, 32.63645
816.6863, 32.81081
817.1684, 31.74059
817.6505, 29.96927
818.1326, 28.42608
818.6147, 29.41834
819.0969, 32.46015
819.5790, 34.85260
820.0611, 35.82833
820.5432, 36.17110
821.0253, 36.61707
821.5074, 37.06566
821.9896, 36.83185
822.4717, 35.15148
822.9538, 34.32328
823.4359, 35.47016
823.9180, 36.67934
824.4001, 36.78670
824.8823, 36.24043
825.3644, 35.93330
825.8465, 36.07478
826.3286, 36.10809
826.8107, 35.87240
827.2928, 35.51207
827.7750, 34.84515
828.2571, 34.03729
828.7392, 33.62295
829.2213, 33.76768
829.7034, 33.86230
830.1855, 33.05669
830.6677, 33.65040
831.1498, 32.29192
831.6319, 34.02419
832.1140, 35.01211
832.5961, 34.74698
833.0782, 34.31792
833.5604, 34.39503
834.0425, 34.83076
834.5246, 35.36546
835.0067, 36.25237
835.4888, 36.72134
835.9709, 36.78519
836.4531, 36.52013
836.9352, 35.38474
837.4173, 34.17838
837.8994, 34.09634
838.3815, 35.17547
838.8636, 36.06661
839.3458, 36.00329
839.8279, 35.67465
840.3100, 35.74246
840.7921, 36.02728
841.2742, 36.02134
841.7563, 35.60556
842.2385, 35.19251
842.7206, 35.17429
843.2027, 35.33184
843.6848, 35.08245
844.1669, 34.45440
844.6490, 33.37531
845.1312, 31.63054
845.6133, 29.94668
846.0954, 28.94920
846.5775, 28.23066
847.0596, 26.75405
847.5417, 23.79873
848.0239, 22.61824
848.5060, 25.62358
848.9881, 27.12936
849.4702, 23.91502
849.9523, 19.31091
850.4344, 16.73599
850.9166, 16.43472
851.3987, 16.80117
851.8808, 17.51075
852.3629, 18.03045
852.8450, 17.44299
853.3271, 16.59586
853.8093, 17.32447
854.2914, 19.36273
854.7735, 20.53153
855.2556, 19.59978
855.7377, 17.56208
856.2198, 15.87064
856.7020, 14.52489
857.1841, 13.61729
857.6662, 13.17746
858.1483, 13.07502
858.6304, 13.38076
859.1125, 13.80938
859.5947, 14.11941
860.0768, 14.31122
860.5589, 13.92474
861.0410, 12.25214
861.5231, 11.01807
862.0052, 10.54892
862.4874, 10.45038
862.9695, 10.83566
863.4516, 11.30677
863.9337, 10.91792
864.4158, 9.213089
864.8979, 7.777908
865.3801, 7.951866
865.8622, 8.599487
866.3443, 8.535065
866.8264, 7.912399
867.3085, 7.214592
867.7906, 6.605858
868.2728, 6.090675
868.7549, 5.717178
869.2370, 5.390961
869.7191, 4.622154
870.2012, 3.422920
870.6833, 3.169266
871.1655, 4.215935
871.6476, 5.706635
872.1297, 7.361458
872.6118, 8.717178
873.0939, 8.505730
873.5760, 6.053787
874.0581, 4.028664
874.5402, 2.192253
875.0223, 1.110298
875.5045, 1.506409
875.9866, 2.349342
876.4687, 2.545578
876.9508, 2.110443
877.4329, 1.924553
877.9150, 2.889343
878.3972, 3.372917
878.8793, 1.762047
879.3614, 0.2730640
879.8435, 0.6996080
880.3256, 0.2177510
880.8077, 1.086761
881.2899, 1.286354
881.7720, 1.156097
882.2541, 1.000305
882.7362, 0.8487850
883.2183, 0.9854510
883.7004, 1.325439
884.1826, 0.7545090
884.6647, 1.173172
885.1468, 2.891617
885.6289, 2.756813
886.1110, 1.173309
886.5931, 0.3052520
887.0753, 0.3398970
887.5574, 0.5647430
888.0395, 1.253830
888.5216, 1.620316
889.0037, 0.6664120
889.4858, 0.6421740
889.9680, 0.4722980
890.4501, 1.566299
890.9322, 2.802208
891.4143, 2.571602
891.8964, 1.820267
892.3785, 0.4127120
892.8607, 0.9586720
893.3428, 1.756050
893.8249, 1.845406
894.3070, 0.9117660
894.7891, 1.696198
895.2712, 3.821953
895.7534, 2.763596
896.2355, 0.3892140
896.7176, 0.4133530
897.1997, 0.2966230
897.6818, 1.529678
898.1639, 2.853668
898.6461, 3.652283
899.1282, 3.022980
899.6103, 1.377312
900.0924, 0.4779430
900.5745, 0.3488160
901.0566, 0.6031570
901.5388, 1.327934
902.0209, 1.726692
902.5030, 1.096191
902.9851, 0.1606140
903.4672, 0.9394380
903.9493, 1.305000
904.4315, 0.9904940
904.9136, 1.137085
905.3957, 2.475677
905.8778, 1.750153
906.3599, 0.2412870
906.8420, 0.8377460
907.3242, 1.475868
907.8063, 2.247856
908.2884, 3.635246
908.7705, 4.698738
909.2526, 4.775024
909.7347, 4.625031
910.2169, 5.022171
910.6990, 5.726654
911.1811, 5.885155
911.6632, 5.234123
912.1453, 5.033035
912.6274, 6.838203
913.1096, 7.265312
913.5917, 10.54691
914.0738, 10.87850
914.5559, 12.73698
915.0380, 16.32598
915.5201, 18.68828
916.0023, 17.46500
916.4844, 14.74766
916.9665, 15.55544
917.4486, 19.84505
917.9307, 22.01223
918.4128, 21.44361
918.8950, 20.82416
919.3771, 21.02681
919.8592, 22.18007
920.3413, 24.76041
920.8234, 28.71894
921.3055, 31.02719
921.7877, 30.46436
922.2698, 30.41035
922.7519, 30.92117
923.2340, 32.34952
923.7161, 35.50201
924.1982, 39.48827
924.6804, 42.64409
925.1625, 44.63216
925.6446, 46.94363
926.1267, 50.04878
926.6088, 53.42993
927.0909, 56.26739
927.5731, 59.60483
928.0552, 64.88621
928.5373, 71.84238
929.0194, 78.73092
929.5015, 84.35128
929.9836, 91.09497
930.4658, 101.4193
930.9479, 111.7513
931.4300, 126.2648
931.9121, 139.0873
932.3942, 154.6369
932.8763, 173.6168
933.3585, 195.7575
933.8406, 220.5247
934.3227, 248.4421
934.8048, 280.4734
935.2869, 316.6589
935.7690, 359.3392
936.2512, 408.8358
936.7333, 459.0387
937.2154, 506.7158
937.6975, 552.4866
938.1796, 597.0154
938.6617, 640.2074
939.1439, 685.0684
939.6260, 730.4079
940.1081, 780.8325
940.5902, 836.9825
941.0723, 899.8669
941.5544, 970.6357
942.0366, 1048.677
942.5187, 1132.421
943.0008, 1220.696
943.4829, 1317.690
943.9650, 1420.463
944.4471, 1535.848
944.9293, 1662.442
945.4114, 1805.593
945.8935, 1969.780
946.3756, 2155.552
946.8577, 2361.213
947.3398, 2594.022
947.8220, 2833.878
948.3041, 3102.365
948.7862, 3343.994
949.2683, 3530.808
949.7504, 3643.888
950.2325, 3656.906
950.7147, 3564.198
951.1968, 3389.401
951.6789, 3124.026
952.1610, 2813.604
952.6431, 2494.193
953.1252, 2177.864
953.6074, 1886.111
954.0895, 1623.057
954.5716, 1390.446
955.0537, 1188.249
955.5358, 1011.945
956.0179, 856.2994
956.5000, 720.8143
956.9821, 604.1931
957.4642, 505.7978
957.9464, 423.0107
958.4285, 355.1292
958.9106, 300.1195
959.3927, 257.6561
959.8748, 224.9098
960.3569, 195.4144
960.8391, 168.6328
961.3212, 147.9732
961.8033, 135.0112
962.2854, 123.8170
962.7675, 112.4640
963.2496, 102.0810
963.7318, 94.38596
964.2139, 89.00254
964.6960, 82.66505
965.1781, 73.49934
965.6602, 66.48994
966.1423, 62.84915
966.6245, 59.96597
967.1066, 56.97272
967.5887, 54.01720
968.0708, 51.32317
968.5529, 48.89386
969.0350, 46.60950
969.5172, 44.79783
969.9993, 42.64548
970.4814, 39.10072
970.9635, 35.92006
971.4456, 34.65013
971.9277, 34.69339
972.4099, 34.91504
972.8920, 35.14349
973.3741, 35.10616
973.8562, 34.17731
974.3383, 33.41139
974.8204, 33.92587
975.3026, 34.99657
975.7847, 35.70993
976.2668, 35.95153
976.7489, 35.77189
977.2310, 35.19341
977.7131, 34.84564
978.1953, 35.20335
978.6774, 36.25218
979.1595, 38.44934
979.6416, 41.28320
980.1237, 42.97325
980.6058, 43.34659
981.0880, 43.85835
981.5701, 45.41759
982.0522, 47.81149
982.5343, 50.88271
983.0164, 54.48019
983.4985, 57.39218
983.9807, 59.67364
984.4628, 64.06798
984.9449, 71.53011
985.4270, 79.08431
985.9091, 83.99883
986.3912, 87.39930
986.8734, 92.88644
987.3555, 100.7853
987.8376, 108.0335
988.3197, 114.1098
988.8018, 120.9837
989.2839, 129.6284
989.7661, 139.2306
990.2482, 149.2384
990.7303, 159.4848
991.2124, 168.9265
991.6945, 176.3297
992.1766, 185.8059
992.6588, 198.3489
993.1409, 211.8208
993.6230, 224.7615
994.1051, 238.5732
994.5872, 255.6175
995.0693, 275.7923
995.5515, 294.8495
996.0336, 310.9062
996.5157, 328.6388
996.9978, 348.9762
997.4799, 370.6242
997.9620, 393.6819
998.4442, 417.2089
998.9263, 440.3823
999.4084, 462.9939
999.8905, 482.7536
1000.373, 499.2968
1000.855, 512.5121
1001.337, 523.1829
1001.819, 529.5849
1002.301, 531.7274
1002.783, 528.0374
1003.265, 515.0944
1003.747, 492.1778
1004.230, 464.8191
1004.712, 433.8872
1005.194, 401.6428
1005.676, 367.2974
1006.158, 333.7430
1006.640, 304.1285
1007.122, 277.9797
1007.604, 253.1562
1008.086, 228.8054
1008.569, 205.8467
1009.051, 184.3157
1009.533, 165.2512
1010.015, 150.6292
1010.497, 138.9507
1010.979, 127.6488
1011.461, 116.6159
1011.943, 106.9504
1012.426, 99.21375
1012.908, 92.89731
1013.390, 87.90269
1013.872, 83.72623
1014.354, 79.35916
1014.836, 75.00816
1015.318, 71.33195
1015.800, 68.38503
1016.282, 65.92004
1016.765, 63.82652
1017.247, 61.56955
1017.729, 58.41254
1018.211, 54.46027
1018.693, 49.88277
1019.175, 44.83281
1019.657, 40.12048
1020.139, 35.93370
1020.622, 32.44069
1021.104, 29.82627
1021.586, 27.46514
1022.068, 24.04903
1022.550, 19.73323
1023.032, 16.05344
1023.514, 13.00850
1023.996, 10.26268
1024.478, 7.660233
1024.961, 6.351341
1025.443, 7.508705
1025.925, 9.478203
1026.407, 8.203110
1026.889, 3.462624
1027.371, 0.3305510
1027.853, 1.003372
1028.335, 1.999863
1028.818, 3.244545
1029.300, 3.327698
1029.782, 0.6789320
1030.264, 3.234276
1030.746, 4.368187
1031.228, 2.176361
1031.710, 0.5234990
1032.192, 0.5137560
1032.674, 1.254189
1033.156, 1.918320
1033.639, 2.110664
1034.121, 1.285324
1034.603, 0.1584010
1035.085, 0.9169920
1035.567, 0.6208720
1036.049, 0.9084470
1036.531, 2.252342
1037.013, 3.121948
1037.496, 2.637299
1037.978, 2.213753
1038.460, 3.218246
1038.942, 5.169556
1039.424, 6.464272
1039.906, 6.974030
1040.388, 6.918159
1040.870, 5.632729
1041.353, 4.806168
1041.835, 5.307487
1042.317, 5.975449
1042.799, 6.142700
1043.281, 5.750031
1043.763, 4.489182
1044.245, 1.829117
1044.727, 9.6359000E-02
1045.209, 1.263138
1045.692, 1.604767
1046.174, 6.9839001E-02
1046.656, 1.536316
1047.138, 0.5860600
1047.620, 1.911095
1048.102, 3.505005
1048.584, 3.848495
1049.066, 3.862747
1049.548, 3.410278
1050.031, 2.973625
1050.513, 2.566551
1050.995, 2.360641
1051.477, 2.734062
1051.959, 3.371361
1052.441, 3.499443
1052.923, 2.969940
1053.405, 2.150139
1053.888, 1.021896
1054.370, 0.2647170
1054.852, 2.015350
1055.334, 3.581886
1055.816, 4.370239
1056.298, 4.560738
1056.780, 4.389809
1057.262, 3.698326
1057.745, 4.217720
1058.227, 7.723846
1058.709, 10.87318
1059.191, 11.82508
1059.673, 12.25071
1060.155, 13.39225
1060.637, 15.23441
1061.119, 17.62595
1061.601, 20.59786
1062.083, 23.14947
1062.566, 24.55684
1063.048, 25.98087
1063.530, 27.25134
1064.012, 29.37816
1064.494, 33.76811
1064.976, 39.48178
1065.458, 44.54098
1065.940, 48.57007
1066.423, 52.87845
1066.905, 58.90753
1067.387, 64.11499
1067.869, 67.99732
1068.351, 69.96922
1068.833, 69.24717
1069.315, 66.34924
1069.797, 61.96329
1070.280, 56.30049
1070.762, 50.22636
1071.244, 43.54353
1071.726, 37.25684
1072.208, 31.47809
1072.690, 26.58540
1073.172, 22.89805
1073.654, 20.25413
1074.136, 18.42171
1074.619, 17.32666
1075.101, 16.72600
1075.583, 16.65704
1076.065, 16.86224
1076.547, 17.33495
1077.029, 17.92407
1077.511, 17.89758
1077.993, 18.27554
1078.475, 21.16081
1078.958, 26.29315
1079.440, 30.23788
1079.922, 31.45118
1080.404, 31.94910
1080.886, 32.73947
1081.368, 33.11658
1081.850, 32.72725
1082.332, 31.53629
1082.814, 29.24079
1083.297, 26.08533
1083.779, 23.06470
1084.261, 20.51445
1084.743, 18.09636
1085.225, 15.61237
1085.707, 13.24147
1086.189, 10.89831
1086.671, 8.866364
1087.154, 7.793076
1087.636, 7.498344
1088.118, 6.833672
1088.600, 5.420311
1089.082, 3.978012
1089.564, 2.396111
1090.046, 1.329979
1090.528, 1.694183
1091.010, 2.282257
1091.493, 1.775536
1091.975, 0.5827180
1092.457, 0.2387390
1092.939, 0.5127720
1093.421, 0.2400970
1093.903, 1.121338
1094.385, 2.297249
1094.867, 2.900269
1095.349, 2.925568
1095.832, 1.881355
1096.314, 0.4395450
1096.796, 0.2946240
1097.278, 0.1189120
1097.760, 0.8307570
1098.242, 3.765556
1098.724, 5.716293
1099.206, 4.934242
1099.689, 3.682861
1100.171, 3.298119
1100.653, 3.487244
1101.135, 3.719131
1101.617, 4.018410
1102.099, 5.127747
1102.581, 8.181259
1103.063, 10.37739
1103.546, 10.60479
1104.028, 10.47818
1104.510, 10.46333
1104.992, 10.48977
1105.474, 10.22728
1105.956, 9.908752
1106.438, 10.56040
1106.920, 12.56525
1107.402, 14.74405
1107.885, 17.20567
1108.367, 19.46763
1108.849, 21.18307
1109.331, 22.73973
1109.813, 24.69882
1110.295, 26.77644
1110.777, 28.01926
1111.259, 28.08852
1111.741, 28.58569
1112.224, 30.60616
1112.706, 31.62284
1113.188, 30.08970
1113.670, 28.46411
1114.152, 28.82467
1114.634, 29.90064
1115.116, 29.19232
1115.598, 26.47146
1116.081, 24.84903
1116.563, 25.94495
1117.045, 25.29350
1117.527, 20.85640
1118.009, 16.95675
1118.491, 15.95354
1118.973, 16.16286
1119.455, 15.53355
1119.938, 14.18044
1120.420, 13.18367
1120.902, 12.83650
1121.384, 12.07011
1121.866, 10.50666
1122.348, 9.290764
1122.830, 8.936989
1123.312, 8.833115
1123.794, 8.424706
1124.276, 7.828018
1124.759, 7.490997
1125.241, 7.602783
1125.723, 6.725716
1126.205, 4.429611
1126.687, 2.866982
1127.169, 2.678566
1127.651, 2.819374
1128.133, 2.624184
1128.616, 2.276123
1129.098, 2.086586
1129.580, 2.055565
1130.062, 2.304207
1130.544, 2.913940
1131.026, 2.593773
1131.508, 1.027855
1131.990, 7.5499999E-04
1132.473, 0.3908460
1132.955, 1.428352
1133.437, 2.371529
1133.919, 2.989624
1134.401, 2.012108
1134.883, 0.3072740
1135.365, 0.6210330
1135.847, 1.162308
1136.329, 2.641663
1136.812, 3.059677
1137.294, 2.679497
1137.776, 1.579208
1138.258, 0.4610060
1138.740, 0.8324810
1139.222, 2.170998
1139.704, 2.637032
1140.186, 2.429512
1140.668, 2.757942
1141.151, 3.682037
1141.633, 3.873978
1142.115, 2.645782
1142.597, 1.364853
1143.079, 1.853363
1143.561, 3.073784
1144.043, 3.166862
1144.525, 2.624107
1145.008, 2.383743
1145.490, 2.528755
1145.972, 2.865486
1146.454, 3.276352
1146.936, 3.443184
1147.418, 2.989777
1147.900, 2.558334
1148.382, 3.190903
1148.865, 3.869873
1149.347, 3.258492
1149.829, 1.950348
1150.311, 0.9311980
1150.793, 0.5993350
1151.275, 0.7640230
1151.757, 1.619171
1152.239, 2.214195
1152.721, 1.484901
1153.203, 0.8553770
1153.686, 1.496590
1154.168, 2.447952
1154.650, 2.796661
1155.132, 2.694893
1155.614, 2.638466
1156.096, 2.707024
1156.578, 2.375862
1157.060, 0.5741420
1157.543, 0.2923890
1158.025, 1.558441
1158.507, 3.274414
1158.989, 3.105125
1159.471, 1.924858
1159.953, 0.6009450
1160.435, 0.7231900
1160.917, 1.442894
1161.400, 1.625031
1161.882, 0.9535140
1162.364, 1.965683
1162.846, 3.527618
1163.328, 1.597321
1163.810, 0.3375850
1164.292, 0.4365620
1164.774, 2.770508
1165.256, 4.372902
1165.739, 5.240311
1166.221, 5.260757
1166.703, 4.155609
1167.185, 3.224693
1167.667, 2.597191
1168.149, 2.255241
1168.631, 2.178802
1169.113, 2.487335
1169.595, 3.476173
1170.078, 4.717476
1170.560, 4.387970
1171.042, 2.562401
1171.524, 2.089943
1172.006, 3.050323
1172.488, 4.268677
1172.970, 5.441620
1173.452, 6.687370
1173.934, 8.130547
1174.417, 9.180336
1174.899, 8.487793
1175.381, 9.534264
1175.863, 9.777168
1176.345, 9.748260
1176.827, 10.45735
1177.309, 9.902435
1177.791, 9.800201
1178.274, 10.70744
1178.756, 11.77730
1179.238, 12.36558
1179.720, 12.86957
1180.202, 13.68289
1180.684, 14.69036
1181.166, 15.85116
1181.648, 17.04888
1182.130, 17.93900
1182.613, 18.65974
1183.095, 19.98940
1183.577, 22.32496
1184.059, 24.14302
1184.541, 24.49199
1185.023, 24.30267
1185.505, 23.91905
1185.987, 23.36638
1186.469, 22.20075
1186.952, 21.09111
1187.434, 21.78464
1187.916, 24.16270
1188.398, 24.23396
1188.880, 19.26528
1189.362, 15.56428
1189.844, 14.32057
1190.326, 13.72367
1190.809, 13.56822
1191.291, 13.38941
1191.773, 12.81368
1192.255, 11.94425
1192.737, 10.99236
1193.219, 9.991982
1193.701, 8.891464
1194.183, 7.489594
1194.666, 6.604691
1195.148, 6.516869
1195.630, 6.120247
1196.112, 4.770126
1196.594, 3.587196
1197.076, 3.923546
1197.558, 5.051086
1198.040, 4.751633
1198.522, 3.220581
1199.005, 2.177963
1199.487, 1.604881
1199.969, 0.7132720
1200.451, 0.6013570
1200.933, 1.671982
1201.415, 2.140633
1201.897, 1.883232
1202.379, 0.3231120
1202.861, 1.595596
1203.344, 2.505569
1203.826, 2.618889
1204.308, 2.018707
1204.790, 1.026329
1205.272, 4.9201999E-02
1205.754, 0.6552580
1206.236, 0.2180560
1206.718, 2.401932
1207.201, 3.890465
1207.683, 0.4067610
1208.165, 2.808441
1208.647, 1.470497
1209.129, 1.276375
1209.611, 2.459984
1210.093, 2.293739
1210.575, 1.640816
1211.057, 0.5954210
1211.540, 0.3982540
1212.022, 2.013077
1212.504, 3.240524
1212.986, 3.580429
1213.468, 3.820816
1213.950, 4.041756
1214.432, 4.524948
1214.914, 5.708611
1215.396, 7.170021
1215.879, 7.797432
1216.361, 8.437775
1216.843, 8.808548
1217.325, 8.521446
1217.807, 8.558037
1218.289, 7.363358
1218.771, 6.353409
1219.253, 6.168983
1219.736, 6.881248
1220.218, 8.784843
1220.700, 10.89663
1221.182, 10.87128
1221.664, 9.455589
1222.146, 9.261536
1222.628, 9.989174
1223.110, 10.06550
1223.593, 9.409233
1224.075, 9.166389
1224.557, 9.837936
1225.039, 10.81036
1225.521, 11.75474
1226.003, 12.56973
1226.485, 13.03238
1226.967, 13.42982
1227.449, 14.38823
1227.932, 15.30328
1228.414, 14.98928
1228.896, 13.61337
1229.378, 12.60604
1229.860, 12.23454
1230.342, 12.39384
1230.824, 13.95280
1231.306, 14.77859
1231.788, 13.66521
1232.271, 12.29748
1232.753, 11.26727
1233.235, 10.90770
1233.717, 12.13761
1234.199, 10.95389
1234.681, 14.31689
1235.163, 10.78429
1235.645, 9.489906
1236.128, 11.01269
1236.610, 11.56591
1237.092, 10.15086
1237.574, 8.735794
1238.056, 8.503746
1238.538, 7.815063
1239.020, 8.433548
1239.502, 7.971207
1239.984, 8.553108
1240.467, 9.709236
1240.949, 10.29075
1241.431, 10.15132
1241.913, 8.645248
1242.395, 6.169098
1242.877, 5.164055
1243.359, 6.993805
1243.841, 8.724083
1244.323, 8.469048
1244.806, 7.941452
1245.288, 7.514885
1245.770, 7.112892
1246.252, 6.463448
1246.734, 6.050720
1247.216, 5.976372
1247.698, 5.710663
1248.180, 5.504341
1248.662, 6.009735
1249.145, 6.002457
1249.627, 5.993469
1250.109, 6.915268
1250.591, 7.869896
1251.073, 8.579689
1251.555, 8.864708
1252.037, 8.823257
1252.519, 8.517891
1253.002, 8.068443
1253.484, 8.040459
1253.966, 8.423645
1254.448, 9.069992
1254.930, 9.905472
1255.412, 9.858490
1255.894, 8.805725
1256.376, 8.199089
1256.859, 8.815178
1257.341, 9.190933
1257.823, 7.339546
1258.305, 5.108940
1258.787, 5.022636
1259.269, 6.020592
1259.751, 7.268959
1260.233, 8.199516
1260.715, 7.637581
1261.198, 5.983704
1261.680, 5.321045
1262.162, 6.409248
1262.644, 7.317085
1263.126, 7.416008
1263.608, 7.294113
1264.090, 7.322205
1264.572, 6.918083
1265.054, 5.245720
1265.537, 3.543800
1266.019, 3.250931
1266.501, 3.892921
1266.983, 3.883240
1267.465, 3.172928
1267.947, 2.379799
1268.429, 1.467628
1268.911, 0.8429870
1269.394, 0.5653310
1269.876, 0.9839100
1270.358, 2.245956
1270.840, 3.049782
1271.322, 2.062775
1271.804, 3.030144
1272.286, 1.386902
1272.768, 2.830292
1273.250, 2.478645
1273.733, 1.167191
1274.215, 0.3289950
1274.697, 8.6708002E-02
1275.179, 0.1615830
1275.661, 0.4585040
1276.143, 0.8296360
1276.625, 1.247307
1277.107, 1.673309
1277.589, 2.550964
1278.072, 2.818916
1278.554, 1.036751
1279.036, 0.4313130
1279.518, 0.6478350
1280.000, 2.908348
1280.482, 4.101166
1280.964, 4.258453
1281.446, 3.966957
1281.929, 3.062798
1282.411, 3.151146
1282.893, 3.977859
1283.375, 4.111580
1283.857, 2.729385
1284.339, 1.124855
1284.821, 7.4280001E-02
1285.303, 7.4160001E-03
1285.786, 0.7047580
1286.268, 0.0000000E+00
##END=



