##NAMES=Triphylite
##RRUFFID=R050494
##IDEAL CHEMISTRY=LiFe^2+^PO_4_
##LOCALITY=Big Chief mine, Glendale, Pennington County, South Dakota, USA
##OWNER=RRUFF
##SOURCE=California Institute of Technology
##DESCRIPTION=Bluish gray fragment
##STATUS=The identification of this mineral has been confirmed by X-ray diffraction and chemical analysis
##URL=rruff.info/R050494
##MEASURED CHEMISTRY=Li_1.00_(Fe^2+^_0.75_Mn^2+^_0.23_Mg_0.02_)_Î£=1_P_1.00_O_4_ ; Li not measured but estimated by difference
123.1923, 6.2201001E-02
123.6745, 0.6275690
124.1566, 1.161692
124.6387, 1.663231
125.1208, 2.131638
125.6029, 2.556839
126.0850, 2.962854
126.5672, 3.002398
127.0493, 3.202320
127.5314, 4.080654
128.0135, 5.833689
128.4956, 8.141111
128.9777, 10.14575
129.4599, 11.80274
129.9420, 13.16621
130.4241, 14.05564
130.9062, 14.69661
131.3883, 15.51686
131.8704, 16.80630
132.3526, 18.52946
132.8347, 19.98466
133.3168, 20.89768
133.7989, 21.77153
134.2810, 22.67920
134.7632, 23.54756
135.2453, 24.46683
135.7274, 25.80507
136.2095, 27.68853
136.6916, 30.04464
137.1737, 33.30994
137.6559, 36.75622
138.1380, 39.59135
138.6201, 41.74152
139.1022, 43.68709
139.5843, 45.85656
140.0664, 48.02546
140.5486, 49.76939
141.0307, 50.66537
141.5128, 51.05246
141.9949, 51.93670
142.4770, 53.57615
142.9591, 55.38150
143.4413, 57.02924
143.9234, 58.62423
144.4055, 60.38366
144.8876, 62.48827
145.3697, 64.93604
145.8518, 67.34706
146.3340, 70.12009
146.8161, 72.47580
147.2982, 74.23650
147.7803, 75.36471
148.2624, 75.86794
148.7445, 75.73895
149.2267, 74.93224
149.7088, 73.57327
150.1909, 71.46672
150.6730, 69.10732
151.1551, 66.42826
151.6372, 63.71931
152.1194, 61.29310
152.6015, 59.53659
153.0836, 58.63656
153.5657, 58.14242
154.0478, 58.25180
154.5299, 58.65705
155.0121, 59.18299
155.4942, 59.81303
155.9763, 60.28932
156.4584, 60.37780
156.9405, 60.27909
157.4226, 58.93330
157.9048, 55.55630
158.3869, 50.74847
158.8690, 45.67247
159.3511, 40.41255
159.8332, 35.28961
160.3153, 30.51873
160.7975, 26.06173
161.2796, 22.17049
161.7617, 19.20950
162.2438, 17.09878
162.7259, 14.98661
163.2081, 12.43600
163.6902, 10.02405
164.1723, 8.283865
164.6544, 7.245079
165.1365, 6.393787
165.6186, 5.055159
166.1008, 3.026106
166.5829, 1.475082
167.0650, 0.8120330
167.5471, 0.5335640
168.0292, 0.4395120
168.5113, 0.4600050
168.9935, 0.5447330
169.4756, 0.6206590
169.9577, 0.7778110
170.4398, 0.7587970
170.9219, 0.4214800
171.4040, 2.7454000E-02
171.8862, 0.4386750
172.3683, 0.7492920
172.8504, 0.9722880
173.3325, 1.152033
173.8146, 1.292013
174.2967, 1.443701
174.7789, 1.711346
175.2610, 1.909178
175.7431, 1.758951
176.2252, 1.122265
176.7073, 0.1889860
177.1894, 0.3591590
177.6716, 0.2439580
178.1537, 7.0960999E-02
178.6358, 8.8633001E-02
179.1179, 0.2052800
179.6000, 0.2342510
180.0821, 0.1526810
180.5643, 1.3832000E-02
181.0464, 0.1711500
181.5285, 0.2258640
182.0106, 0.3645210
182.4927, 0.7039340
182.9748, 1.214617
183.4570, 1.790911
183.9391, 2.490561
184.4212, 3.139273
184.9033, 3.400019
185.3854, 3.065630
185.8675, 2.676617
186.3497, 2.739391
186.8318, 3.269039
187.3139, 3.709328
187.7960, 3.567596
188.2781, 3.320532
188.7602, 3.535131
189.2424, 4.428797
189.7245, 5.567513
190.2066, 6.427618
190.6887, 6.987339
191.1708, 7.333000
191.6530, 7.265108
192.1351, 7.110558
192.6172, 7.155785
193.0993, 7.511660
193.5814, 8.075001
194.0635, 8.673931
194.5457, 9.414284
195.0278, 9.959810
195.5099, 10.12925
195.9920, 10.15532
196.4741, 10.25587
196.9562, 10.52790
197.4384, 10.92860
197.9205, 11.33947
198.4026, 11.75570
198.8847, 12.18998
199.3668, 12.78388
199.8489, 13.34943
200.3311, 13.71504
200.8132, 13.79828
201.2953, 13.57624
201.7774, 12.95874
202.2595, 11.49622
202.7416, 10.10635
203.2238, 8.838396
203.7059, 7.700184
204.1880, 6.662363
204.6701, 5.710224
205.1522, 4.866568
205.6343, 4.255486
206.1165, 4.009182
206.5986, 3.805220
207.0807, 3.576542
207.5628, 3.343496
208.0449, 3.172945
208.5270, 3.118847
209.0092, 3.116064
209.4913, 2.904663
209.9734, 2.282982
210.4555, 1.743496
210.9376, 1.522184
211.4197, 1.528642
211.9019, 1.516105
212.3840, 1.367855
212.8661, 1.114455
213.3482, 0.8275680
213.8303, 0.3442410
214.3124, 6.6546999E-02
214.7946, 0.3892540
215.2767, 1.199321
215.7588, 1.865702
216.2409, 2.061730
216.7230, 1.987002
217.2052, 2.028531
217.6873, 2.168232
218.1694, 2.400602
218.6515, 2.778191
219.1336, 3.298435
219.6157, 3.779491
220.0979, 4.130447
220.5800, 4.432856
221.0621, 4.807705
221.5442, 5.266591
222.0263, 5.637825
222.5084, 5.661757
222.9906, 5.293199
223.4727, 5.073402
223.9548, 5.271378
224.4369, 5.616649
224.9190, 5.977524
225.4011, 6.347599
225.8833, 6.636352
226.3654, 6.663246
226.8475, 6.336231
227.3296, 6.209040
227.8117, 6.518276
228.2938, 6.986662
228.7760, 7.538670
229.2581, 8.133171
229.7402, 8.586837
230.2223, 8.525164
230.7044, 7.613781
231.1865, 7.302848
231.6687, 8.373320
232.1508, 9.607735
232.6329, 10.21199
233.1150, 10.06663
233.5971, 9.652379
234.0792, 9.650792
234.5614, 10.26645
235.0435, 10.82749
235.5256, 11.08520
236.0077, 11.40355
236.4898, 12.15508
236.9719, 13.32914
237.4541, 14.49921
237.9362, 15.06481
238.4183, 14.77490
238.9004, 14.44925
239.3825, 14.03568
239.8646, 13.62736
240.3468, 13.35341
240.8289, 13.19664
241.3110, 12.97090
241.7931, 12.39650
242.2752, 11.21785
242.7573, 10.45155
243.2395, 10.21253
243.7216, 10.22927
244.2037, 10.48104
244.6858, 10.89068
245.1679, 11.18184
245.6501, 11.00430
246.1322, 10.15820
246.6143, 9.667645
247.0964, 9.726725
247.5785, 9.951248
248.0606, 10.13537
248.5428, 10.24165
249.0249, 10.27560
249.5070, 10.20896
249.9891, 10.00852
250.4712, 10.05277
250.9533, 10.72694
251.4355, 11.33487
251.9176, 11.32981
252.3997, 10.72705
252.8818, 10.01306
253.3639, 9.619420
253.8460, 9.544018
254.3282, 9.192694
254.8103, 8.330864
255.2924, 7.386360
255.7745, 6.674305
256.2566, 6.187077
256.7387, 5.699707
257.2209, 5.008866
257.7030, 4.180515
258.1851, 3.595129
258.6672, 3.359235
259.1493, 3.280876
259.6314, 3.300520
260.1136, 3.399780
260.5957, 3.435930
261.0778, 3.325590
261.5599, 3.076999
262.0420, 2.760627
262.5241, 2.255733
263.0063, 1.826122
263.4884, 1.767281
263.9705, 2.024879
264.4526, 2.095881
264.9347, 1.604894
265.4168, 0.8728950
265.8990, 0.5341450
266.3811, 0.7322150
266.8632, 1.022914
267.3453, 1.091610
267.8274, 0.9567680
268.3095, 0.8099930
268.7917, 0.7199180
269.2738, 0.6645900
269.7559, 0.5750000
270.2380, 0.4229690
270.7201, 0.3650120
271.2022, 0.6826150
271.6844, 1.273063
272.1665, 1.443366
272.6486, 0.8054320
273.1307, 4.7387000E-02
273.6128, 0.6095850
274.0949, 0.8909490
274.5771, 0.8894830
275.0592, 0.4054550
275.5413, 0.4502220
276.0234, 1.013387
276.5055, 1.140204
276.9876, 0.9870500
277.4698, 0.5076000
277.9519, 0.1928930
278.4340, 0.5743390
278.9161, 1.6907999E-02
279.3982, 1.208958
279.8803, 1.831723
280.3625, 1.425184
280.8446, 0.9505380
281.3267, 1.057737
281.8088, 1.554332
282.2909, 1.995218
282.7730, 2.151380
283.2552, 2.110760
283.7373, 1.971785
284.2194, 1.590031
284.7015, 1.306913
285.1836, 1.268498
285.6658, 1.427314
286.1479, 1.733063
286.6300, 2.233476
287.1121, 2.793840
287.5942, 3.101479
288.0764, 3.103846
288.5585, 2.970295
289.0406, 2.586990
289.5227, 2.184628
290.0048, 2.056509
290.4869, 2.365488
290.9691, 2.834961
291.4512, 2.950717
291.9333, 2.569055
292.4154, 2.292285
292.8975, 2.419825
293.3796, 2.633219
293.8618, 2.717424
294.3439, 2.607303
294.8260, 2.379627
295.3081, 2.090954
295.7902, 1.693396
296.2723, 1.461940
296.7545, 1.649824
297.2366, 1.895415
297.7187, 1.984600
298.2008, 1.904860
298.6829, 1.809999
299.1650, 1.863252
299.6472, 2.049516
300.1293, 2.179788
300.6114, 2.299745
301.0935, 2.367246
301.5756, 2.348283
302.0577, 2.271386
302.5399, 2.179610
303.0220, 2.070936
303.5041, 1.948738
303.9862, 2.012683
304.4683, 2.498689
304.9504, 2.931594
305.4326, 3.044024
305.9147, 2.963288
306.3968, 2.973943
306.8789, 3.321528
307.3610, 3.893535
307.8431, 4.089018
308.3253, 3.558837
308.8074, 3.197008
309.2895, 3.266507
309.7716, 3.610834
310.2537, 4.071983
310.7358, 4.595522
311.2180, 5.136227
311.7001, 5.606636
312.1822, 6.059231
312.6643, 6.311649
313.1464, 6.168336
313.6285, 5.934414
314.1107, 5.846121
314.5928, 5.968714
315.0749, 6.218611
315.5570, 6.516613
316.0391, 6.916985
316.5212, 7.162291
317.0034, 7.128773
317.4855, 7.009885
317.9676, 6.874789
318.4497, 6.745170
318.9318, 6.641445
319.4139, 6.560432
319.8961, 6.490047
320.3782, 6.567482
320.8603, 7.124683
321.3424, 7.511482
321.8245, 7.373581
322.3066, 6.852574
322.7888, 6.326515
323.2709, 6.098344
323.7530, 6.106977
324.2351, 5.887070
324.7172, 5.196822
325.1993, 4.613140
325.6815, 4.393800
326.1636, 4.355295
326.6457, 4.226021
327.1278, 3.858847
327.6099, 3.367192
328.0920, 3.042720
328.5742, 2.997784
329.0563, 2.881728
329.5384, 2.465623
330.0205, 2.027729
330.5026, 1.830140
330.9847, 1.939591
331.4669, 2.177711
331.9490, 2.357116
332.4311, 2.520437
332.9132, 2.557490
333.3953, 2.343819
333.8774, 2.036333
334.3596, 1.642754
334.8417, 1.201886
335.3238, 0.8612780
335.8059, 0.8291360
336.2880, 1.106806
336.7701, 1.210371
337.2523, 0.8192870
337.7344, 0.5745190
338.2165, 1.038894
338.6986, 1.881125
339.1807, 2.308614
339.6628, 1.666859
340.1450, 0.2820350
340.6271, 0.6352760
341.1092, 0.9917540
341.5913, 1.026637
342.0735, 0.6836830
342.5556, 0.1682310
343.0377, 0.2977000
343.5198, 0.6497760
344.0019, 0.8667050
344.4840, 0.8844290
344.9662, 0.6640140
345.4483, 0.4171760
345.9304, 7.6076999E-02
346.4125, 0.1882580
346.8946, 0.2076230
347.3767, 4.1779999E-02
347.8589, 0.3669510
348.3410, 0.6315580
348.8231, 0.8345700
349.3052, 0.8895380
349.7873, 0.7395000
350.2694, 0.4744350
350.7516, 7.6894999E-02
351.2337, 0.3999700
351.7158, 0.7392890
352.1979, 0.7629170
352.6800, 0.5470260
353.1621, 0.3243240
353.6443, 7.2300002E-02
354.1264, 0.1257970
354.6085, 0.2466970
355.0906, 0.2821700
355.5727, 0.1763200
356.0548, 0.2119930
356.5370, 0.6017050
357.0191, 0.5040500
357.5012, 0.1415350
357.9833, 0.5909160
358.4654, 0.3913980
358.9475, 8.8071004E-02
359.4297, 0.4183410
359.9118, 0.5526950
360.3939, 0.5919750
360.8760, 0.5550480
361.3581, 0.4672300
361.8402, 0.4861830
362.3224, 0.7364140
362.8045, 0.9611520
363.2866, 0.8404290
363.7687, 0.4133620
364.2508, 3.3778001E-02
364.7329, 7.8644998E-02
365.2151, 8.1993997E-02
365.6972, 0.3093640
366.1793, 0.8430820
366.6614, 1.268456
367.1435, 1.179046
367.6256, 0.7235940
368.1078, 0.3664880
368.5899, 0.1412930
369.0720, 5.3739998E-02
369.5541, 0.1887160
370.0362, 0.5080490
370.5183, 0.7447470
371.0005, 0.7387400
371.4826, 0.6049890
371.9647, 0.6106960
372.4468, 0.7999020
372.9289, 0.9970080
373.4110, 1.205976
373.8932, 1.364285
374.3753, 1.288366
374.8574, 0.8962320
375.3395, 0.4828940
375.8216, 0.4813230
376.3037, 0.9572180
376.7859, 1.240582
377.2680, 1.024945
377.7501, 0.7581900
378.2322, 0.9102750
378.7143, 1.457815
379.1964, 1.933798
379.6786, 1.958837
380.1607, 1.584640
380.6428, 1.443171
381.1249, 1.630136
381.6070, 1.905066
382.0891, 2.325794
382.5713, 2.759245
383.0534, 2.938253
383.5355, 2.738457
384.0176, 2.303050
384.4997, 1.928656
384.9818, 1.525350
385.4640, 1.354450
385.9461, 1.649990
386.4282, 2.039603
386.9103, 2.112434
387.3924, 1.859121
387.8745, 1.684342
388.3567, 2.064635
388.8388, 3.125361
389.3209, 3.826465
389.8030, 3.834617
390.2851, 3.888999
390.7672, 4.408211
391.2494, 5.180577
391.7315, 5.727266
392.2136, 5.750247
392.6957, 5.408396
393.1778, 5.314194
393.6599, 5.660978
394.1421, 5.999899
394.6242, 6.351517
395.1063, 6.644814
395.5884, 6.738245
396.0706, 6.632146
396.5527, 6.551924
397.0348, 6.848526
397.5169, 7.660896
397.9990, 8.284760
398.4811, 8.624500
398.9633, 8.794016
399.4454, 8.692835
399.9275, 8.481714
400.4096, 8.500690
400.8917, 9.027686
401.3738, 9.894215
401.8560, 10.39337
402.3381, 10.32265
402.8202, 10.25924
403.3023, 10.40720
403.7844, 10.63309
404.2665, 10.77389
404.7487, 10.78917
405.2308, 10.82706
405.7129, 11.03629
406.1950, 11.42076
406.6771, 11.90868
407.1592, 12.67181
407.6414, 13.33504
408.1235, 13.51800
408.6056, 13.31071
409.0877, 13.20801
409.5698, 13.62898
410.0519, 14.37006
410.5341, 14.88973
411.0162, 15.10313
411.4983, 15.36673
411.9804, 15.86661
412.4625, 16.55351
412.9446, 17.40034
413.4268, 18.55993
413.9089, 19.59610
414.3910, 19.97410
414.8731, 19.88537
415.3552, 20.19287
415.8373, 21.27635
416.3195, 22.59529
416.8016, 23.23755
417.2837, 23.14757
417.7658, 23.33667
418.2479, 24.34007
418.7300, 25.63016
419.2122, 26.55214
419.6943, 27.04482
420.1764, 27.51171
420.6585, 28.19503
421.1406, 29.16510
421.6227, 30.68154
422.1049, 33.76062
422.5870, 36.21774
423.0691, 36.66929
423.5512, 35.99339
424.0333, 35.74066
424.5154, 36.52312
424.9976, 38.05440
425.4797, 39.86705
425.9618, 42.54172
426.4439, 44.24334
426.9260, 44.23909
427.4081, 43.87656
427.8903, 43.99553
428.3724, 44.67874
428.8545, 45.65221
429.3366, 46.70651
429.8187, 47.84816
430.3008, 49.06709
430.7830, 50.73741
431.2651, 52.06473
431.7472, 52.49126
432.2293, 52.67154
432.7114, 53.52174
433.1935, 55.35697
433.6757, 57.45960
434.1578, 58.53075
434.6399, 58.16402
435.1220, 58.19636
435.6041, 59.26994
436.0862, 60.33692
436.5684, 60.81902
437.0505, 60.82829
437.5326, 60.86400
438.0147, 61.28215
438.4968, 61.98165
438.9789, 62.64322
439.4611, 63.33088
439.9432, 63.81333
440.4253, 63.97892
440.9074, 63.90131
441.3895, 63.61832
441.8716, 63.12365
442.3538, 62.49275
442.8359, 61.76520
443.3180, 60.96077
443.8001, 60.25756
444.2822, 59.77771
444.7643, 59.23550
445.2465, 58.29593
445.7286, 57.03299
446.2107, 55.76450
446.6928, 54.67968
447.1749, 53.55775
447.6570, 52.14815
448.1392, 50.47273
448.6213, 48.75817
449.1034, 47.06709
449.5855, 45.38831
450.0677, 43.75338
450.5498, 42.15633
451.0319, 40.60715
451.5140, 39.09314
451.9961, 37.64813
452.4782, 36.36225
452.9604, 35.22561
453.4425, 34.08600
453.9246, 32.76054
454.4067, 31.21403
454.8888, 29.86833
455.3709, 28.86315
455.8531, 27.89279
456.3352, 26.85310
456.8173, 25.75524
457.2994, 24.61440
457.7815, 23.45050
458.2636, 22.33111
458.7458, 21.38019
459.2279, 20.65487
459.7100, 19.88474
460.1921, 18.99126
460.6742, 18.15188
461.1563, 17.52399
461.6385, 17.05493
462.1206, 16.54182
462.6027, 15.81865
463.0848, 14.96622
463.5669, 14.20457
464.0490, 13.44357
464.5312, 12.83681
465.0133, 12.55102
465.4954, 12.41419
465.9775, 12.29000
466.4596, 12.15458
466.9417, 11.91942
467.4239, 11.43615
467.9060, 10.73294
468.3881, 10.05861
468.8702, 9.414387
469.3523, 8.882533
469.8344, 8.590644
470.3166, 8.453341
470.7987, 8.231718
471.2808, 7.757137
471.7629, 7.256917
472.2450, 6.990726
472.7271, 6.928277
473.2093, 6.834547
473.6914, 6.586809
474.1735, 6.246428
474.6556, 5.949911
475.1377, 5.719013
475.6198, 5.474497
476.1020, 5.117967
476.5841, 4.816048
477.0662, 4.819296
477.5483, 5.076843
478.0304, 5.219547
478.5125, 4.928527
478.9947, 4.253215
479.4768, 3.775024
479.9589, 3.630144
480.4410, 3.538323
480.9231, 3.508071
481.4052, 3.491288
481.8874, 3.454901
482.3695, 3.384929
482.8516, 3.264192
483.3337, 3.047930
483.8158, 2.712939
484.2979, 2.483570
484.7801, 2.427912
485.2622, 2.403716
485.7443, 2.320751
486.2264, 2.245075
486.7085, 2.347610
487.1906, 2.768274
487.6728, 3.142847
488.1549, 2.795755
488.6370, 1.664522
489.1191, 0.8426850
489.6012, 0.6377630
490.0833, 0.7585890
490.5655, 1.052716
491.0476, 1.469750
491.5297, 1.653988
492.0118, 1.226358
492.4939, 0.6216920
492.9760, 0.4299850
493.4582, 0.6444830
493.9403, 0.8851800
494.4224, 0.9631570
494.9045, 0.9402140
495.3866, 0.9810620
495.8687, 1.136297
496.3509, 1.220992
496.8330, 1.213623
497.3151, 1.102543
497.7972, 0.7889200
498.2793, 0.3078150
498.7614, 9.0343997E-02
499.2436, 0.1922630
499.7257, 6.9269999E-03
500.2078, 0.3055110
500.6899, 1.058195
501.1720, 1.557294
501.6541, 1.553176
502.1363, 1.307982
502.6184, 1.070532
503.1005, 0.9208450
503.5826, 0.8448390
504.0647, 0.8830470
504.5468, 1.072994
505.0290, 0.9777940
505.5111, 0.2296650
505.9932, 0.3443020
506.4753, 0.2810650
506.9575, 0.1195020
507.4396, 0.3732830
507.9217, 0.2854820
508.4038, 5.7870999E-02
508.8859, 0.1051650
509.3680, 0.2018880
509.8502, 0.1832350
510.3323, 1.0505000E-02
510.8144, 0.2447910
511.2965, 0.4372560
511.7786, 0.5768900
512.2607, 0.5591430
512.7429, 0.2154360
513.2250, 0.1825740
513.7071, 0.3856080
514.1892, 0.4314990
514.6713, 0.5350840
515.1534, 0.8229910
515.6356, 1.127746
516.1177, 1.103221
516.5998, 0.5503270
517.0819, 0.1011330
517.5640, 0.2362200
518.0461, 0.4594440
518.5283, 0.5861540
519.0104, 0.6003040
519.4925, 0.4064430
519.9746, 9.3904004E-02
520.4567, 0.7488830
520.9388, 0.9582160
521.4210, 0.3863180
521.9031, 7.9469997E-03
522.3852, 4.7580998E-02
522.8673, 5.4423999E-02
523.3494, 0.2268670
523.8315, 0.4181110
524.3137, 0.4963280
524.7958, 0.2726880
525.2779, 0.1334360
525.7600, 0.2570010
526.2421, 7.8870002E-03
526.7242, 0.1827350
527.2064, 4.3163002E-02
527.6885, 0.2147200
528.1706, 0.3420820
528.6527, 0.3219240
529.1348, 0.1676980
529.6169, 0.2905700
530.0991, 0.8168660
530.5812, 0.9806590
531.0633, 0.7341350
531.5454, 0.3942590
532.0275, 0.1872190
532.5096, 8.6749002E-02
532.9918, 8.4981002E-02
533.4739, 0.5365680
533.9560, 0.7829050
534.4381, 0.5609050
534.9202, 0.1716630
535.4023, 0.1262070
535.8845, 0.2492160
536.3666, 0.1297430
536.8487, 0.3726960
537.3308, 1.257112
537.8129, 1.679075
538.2950, 1.166701
538.7772, 0.7981760
539.2593, 1.046963
539.7414, 1.439651
540.2235, 1.379073
540.7056, 0.7277070
541.1877, 5.1805001E-02
541.6699, 5.9600000E-04
542.1520, 0.4709030
542.6341, 0.7551870
543.1162, 0.7454450
543.5983, 0.6894220
544.0804, 0.7023540
544.5626, 0.7880250
545.0447, 0.9836240
545.5268, 1.396235
546.0089, 1.723185
546.4910, 1.701885
546.9731, 1.492606
547.4553, 1.377991
547.9374, 1.418168
548.4195, 1.621598
548.9016, 2.051262
549.3837, 2.719811
549.8658, 3.059546
550.3480, 2.791747
550.8301, 2.590656
551.3122, 2.650382
551.7943, 2.875026
552.2764, 3.148270
552.7585, 3.434031
553.2407, 3.759074
553.7228, 4.193140
554.2049, 4.753666
554.6870, 5.077785
555.1691, 4.890586
555.6512, 4.860313
556.1334, 5.326105
556.6155, 6.021986
557.0976, 6.607884
557.5797, 7.000017
558.0618, 7.366180
558.5439, 7.806253
559.0261, 8.342209
559.5082, 9.130269
559.9903, 10.25655
560.4724, 11.32288
560.9545, 11.95919
561.4366, 12.26108
561.9188, 12.77317
562.4009, 13.72754
562.8830, 14.60288
563.3651, 15.15191
563.8472, 15.50766
564.3293, 15.88312
564.8115, 16.34624
565.2936, 16.89135
565.7757, 17.53653
566.2578, 18.28402
566.7399, 19.05366
567.2220, 19.76840
567.7042, 20.62425
568.1863, 21.78064
568.6684, 23.02624
569.1505, 24.17748
569.6326, 25.18021
570.1147, 26.04569
570.5969, 26.72017
571.0790, 27.22465
571.5611, 27.80953
572.0432, 28.53796
572.5253, 29.21366
573.0074, 29.79449
573.4896, 30.21249
573.9717, 30.38881
574.4538, 30.32052
574.9359, 30.12742
575.4180, 29.81569
575.9001, 29.40388
576.3823, 28.92092
576.8644, 28.37326
577.3465, 27.80379
577.8286, 27.24903
578.3107, 26.64216
578.7928, 25.82637
579.2750, 24.48957
579.7571, 23.45607
580.2392, 22.84243
580.7213, 22.44901
581.2034, 22.16243
581.6855, 21.94898
582.1677, 21.77724
582.6498, 21.60748
583.1319, 21.51731
583.6140, 21.78266
584.0961, 22.53393
584.5782, 23.16652
585.0604, 23.45747
585.5425, 23.64809
586.0246, 23.97094
586.5067, 24.41444
586.9889, 24.73481
587.4710, 24.70272
587.9531, 24.52677
588.4352, 24.48770
588.9174, 24.59409
589.3995, 24.76175
589.8816, 24.99099
590.3637, 25.10469
590.8458, 24.80033
591.3279, 23.93699
591.8101, 22.96766
592.2922, 21.84724
592.7743, 20.66640
593.2564, 19.37973
593.7385, 18.07946
594.2206, 16.94833
594.7028, 16.07139
595.1849, 15.32594
595.6670, 14.55373
596.1491, 13.76024
596.6312, 12.90294
597.1133, 11.97219
597.5955, 10.96903
598.0776, 9.652839
598.5597, 8.311515
599.0418, 7.559847
599.5239, 7.768413
600.0060, 8.109170
600.4882, 7.883198
600.9703, 7.290028
601.4524, 6.783212
601.9345, 6.446676
602.4166, 6.280254
602.8987, 6.333982
603.3809, 6.582623
603.8630, 6.647146
604.3451, 6.103922
604.8272, 5.944728
605.3093, 6.609605
605.7914, 7.584032
606.2736, 8.404359
606.7557, 8.990043
607.2378, 9.469101
607.7199, 9.872965
608.2020, 10.29823
608.6841, 11.29433
609.1663, 13.09931
609.6484, 14.78217
610.1305, 15.86471
610.6126, 16.86565
611.0947, 18.04835
611.5768, 19.46661
612.0590, 21.57961
612.5411, 25.09174
613.0232, 29.04016
613.5053, 32.45021
613.9874, 35.36625
614.4695, 38.15232
614.9517, 40.96165
615.4338, 43.75925
615.9159, 46.50695
616.3980, 49.13237
616.8801, 51.93476
617.3622, 55.04945
617.8444, 58.20650
618.3265, 61.34230
618.8086, 64.43899
619.2907, 67.39250
619.7728, 70.18598
620.2549, 73.05521
620.7371, 76.33737
621.2192, 80.01881
621.7013, 83.77509
622.1834, 87.62030
622.6655, 91.46600
623.1476, 95.39482
623.6298, 99.23654
624.1119, 102.6656
624.5940, 105.5829
625.0761, 108.3843
625.5582, 111.5474
626.0403, 114.5085
626.5225, 116.6985
627.0046, 118.0176
627.4867, 118.3344
627.9688, 117.5288
628.4509, 115.5716
628.9330, 112.5585
629.4152, 108.3651
629.8973, 103.3443
630.3794, 97.38747
630.8615, 90.87292
631.3436, 83.63522
631.8257, 75.92993
632.3079, 68.27223
632.7900, 60.80523
633.2721, 53.85495
633.7542, 47.99837
634.2363, 43.14902
634.7184, 38.60714
635.2006, 34.19202
635.6827, 30.21206
636.1648, 27.02848
636.6469, 24.61406
637.1290, 22.47828
637.6111, 20.86967
638.0933, 19.23352
638.5754, 17.25327
639.0575, 15.25296
639.5396, 13.54272
640.0217, 12.19944
640.5038, 11.25005
640.9860, 10.70916
641.4681, 10.47062
641.9502, 10.19589
642.4323, 9.959174
642.9144, 9.567987
643.3965, 8.772102
643.8787, 7.969118
644.3608, 7.435343
644.8429, 7.153978
645.3250, 6.939825
645.8071, 6.795577
646.2892, 6.566800
646.7714, 6.059845
647.2535, 5.352613
647.7356, 4.694263
648.2177, 4.160952
648.6998, 3.647788
649.1819, 2.986195
649.6641, 2.141154
650.1462, 1.859481
650.6283, 2.800250
651.1104, 3.451818
651.5925, 3.460905
652.0746, 3.069592
652.5568, 2.299508
653.0389, 1.289857
653.5210, 0.6335690
654.0031, 1.001739
654.4852, 1.992573
654.9673, 2.459770
655.4495, 2.362659
655.9316, 2.184795
656.4137, 2.113168
656.8958, 2.001560
657.3779, 1.494915
657.8600, 0.6008840
658.3422, 0.2085350
658.8243, 0.9897730
659.3064, 1.734233
659.7885, 1.586096
660.2706, 1.011289
660.7527, 0.8959500
661.2349, 1.455472
661.7170, 2.050507
662.1991, 1.901975
662.6812, 1.051458
663.1633, 0.5074970
663.6454, 0.3870920
664.1276, 0.3354110
664.6097, 0.2599590
665.0918, 0.1903850
665.5739, 0.1465360
666.0560, 0.1308310
666.5381, 0.1560060
667.0203, 0.2901590
667.5024, 0.4214360
667.9845, 0.4391560
668.4666, 0.3509390
668.9487, 0.1249690
669.4308, 0.2690640
669.9130, 0.5397150
670.3951, 0.2272570
670.8772, 0.8051470
671.3593, 1.315378
671.8414, 0.7739800
672.3235, 0.3221030
672.8057, 0.2934860
673.2878, 0.4170780
673.7699, 0.3811020
674.2520, 0.1472030
674.7341, 5.7599001E-02
675.2162, 1.0026000E-02
675.6984, 0.1660820
676.1805, 0.1739310
676.6626, 2.3177000E-02
677.1447, 2.2879001E-02
677.6268, 0.3363790
678.1089, 0.7358360
678.5911, 0.9192390
679.0732, 0.8614280
679.5553, 0.6776350
680.0374, 0.1428040
680.5195, 0.2578800
681.0016, 0.2304960
681.4838, 1.8572999E-02
681.9659, 7.0427999E-02
682.4480, 3.1808000E-02
682.9301, 0.1830410
683.4122, 0.2344630
683.8943, 0.2288070
684.3765, 0.4320600
684.8586, 0.9372380
685.3407, 1.035386
685.8228, 0.1952160
686.3049, 0.8322530
686.7870, 1.026839
687.2692, 0.4239980
687.7513, 0.1389200
688.2334, 0.7598890
688.7155, 1.076435
689.1976, 0.6621560
689.6797, 0.1007340
690.1619, 0.6694180
690.6440, 0.8955360
691.1261, 0.8745030
691.6082, 0.6454840
692.0903, 0.2595200
692.5724, 0.1121080
693.0546, 0.3063120
693.5367, 0.4279500
694.0188, 0.2743810
694.5009, 8.1903003E-02
694.9830, 5.6704000E-02
695.4651, 0.1881040
695.9473, 0.3658940
696.4294, 0.7882860
696.9116, 1.018280
697.3937, 0.4998040
697.8758, 0.3512400
698.3579, 0.7520770
698.8400, 0.5366530
699.3221, 5.4310001E-02
699.8043, 0.4087200
700.2864, 0.8205510
700.7685, 0.9412010
701.2506, 0.6301860
701.7327, 0.3296610
702.2148, 2.4854001E-02
702.6970, 0.1583090
703.1791, 4.7045998E-02
703.6612, 0.2904540
704.1433, 0.5391430
704.6254, 0.5080250
705.1075, 0.4185150
705.5897, 0.4785930
706.0718, 0.6240940
706.5539, 0.6966590
707.0360, 0.6717170
707.5181, 0.6726460
708.0002, 0.8216300
708.4824, 1.058746
708.9645, 1.063571
709.4466, 0.6232730
709.9287, 0.3591180
710.4108, 0.4932170
710.8929, 0.6518010
711.3751, 0.6267720
711.8572, 0.4871670
712.3393, 0.4142680
712.8214, 0.4588850
713.3035, 0.6537480
713.7856, 1.269288
714.2678, 2.012697
714.7499, 2.143999
715.2320, 1.597764
715.7141, 0.9814910
716.1962, 0.6599310
716.6783, 0.6264250
717.1605, 0.9100350
717.6426, 1.941883
718.1247, 2.438040
718.6068, 1.966746
719.0889, 1.435135
719.5710, 1.231422
720.0532, 1.257512
720.5353, 1.304719
721.0174, 1.308181
721.4995, 1.348951
721.9816, 1.550642
722.4637, 1.815989
722.9459, 1.952965
723.4280, 1.953176
723.9101, 1.899195
724.3922, 1.835466
724.8743, 1.724133
725.3564, 1.477554
725.8386, 1.016668
726.3207, 0.7037740
726.8028, 0.5441940
727.2849, 0.5103900
727.7670, 0.7058560
728.2491, 0.9921920
728.7313, 1.102534
729.2134, 1.002038
729.6955, 0.9922600
730.1776, 1.456343
730.6597, 2.056168
731.1418, 2.220867
731.6240, 2.006051
732.1061, 1.771524
732.5882, 1.638281
733.0703, 1.532486
733.5524, 1.342517
734.0345, 1.056914
734.5167, 0.9412960
734.9988, 1.134222
735.4809, 1.324321
735.9630, 1.457861
736.4451, 1.574333
736.9272, 1.742912
737.4094, 1.942191
737.8915, 2.037560
738.3736, 1.843899
738.8557, 1.628771
739.3378, 1.738429
739.8199, 2.050602
740.3021, 2.200643
740.7842, 2.108909
741.2663, 1.999380
741.7484, 2.076129
742.2305, 2.247160
742.7126, 2.092749
743.1948, 1.380108
743.6769, 0.8964430
744.1590, 0.6878440
744.6411, 0.6123960
745.1232, 0.6910780
745.6053, 0.8260040
746.0875, 0.7929910
746.5696, 0.4825180
747.0517, 0.3606970
747.5338, 1.076786
748.0159, 2.013185
748.4980, 2.099059
748.9802, 1.377455
749.4623, 0.6624160
749.9444, 0.3523820
750.4265, 0.3352820
750.9086, 0.4292150
751.3907, 0.6674280
751.8729, 0.8457550
752.3550, 0.8886780
752.8371, 0.9699730
753.3192, 1.250587
753.8013, 1.538803
754.2834, 1.617657
754.7656, 1.463568
755.2477, 1.231443
755.7298, 0.8833160
756.2119, 0.5315820
756.6940, 0.2665550
757.1761, 0.1394810
757.6583, 0.2772020
758.1404, 0.6852760
758.6225, 1.086812
759.1046, 1.217773
759.5867, 1.096630
760.0688, 0.8334720
760.5510, 0.3068540
761.0331, 7.5211003E-02
761.5152, 0.2019930
761.9973, 0.1683950
762.4794, 1.1600000E-04
762.9615, 0.2665460
763.4437, 0.5220580
763.9258, 0.7440390
764.4079, 0.9518560
764.8900, 1.228579
765.3721, 1.447297
765.8542, 1.452062
766.3364, 1.252581
766.8185, 0.8771750
767.3006, 0.3194990
767.7827, 0.1393270
768.2648, 0.2148300
768.7469, 1.437687
769.2291, 1.773783
769.7112, 0.7697530
770.1933, 0.1013230
770.6754, 4.4151001E-02
771.1575, 0.5094600
771.6396, 0.8430100
772.1218, 0.9373360
772.6039, 0.9878800
773.0860, 1.042188
773.5681, 1.042722
774.0502, 0.9438730
774.5323, 0.7785140
775.0145, 0.5207910
775.4966, 0.2095440
775.9787, 8.5995004E-02
776.4608, 0.4658090
776.9429, 1.063738
777.4250, 1.102915
777.9072, 0.6011230
778.3893, 0.3372190
778.8714, 0.5432820
779.3535, 0.8129430
779.8356, 0.7557130
780.3177, 0.4467320
780.7999, 0.4004570
781.2820, 0.9974170
781.7641, 1.301559
782.2462, 1.047624
782.7283, 0.6955520
783.2104, 0.4308670
783.6926, 0.3130850
784.1747, 0.4821110
784.6568, 1.033971
785.1389, 1.452254
785.6210, 1.085242
786.1031, 0.3396810
786.5853, 1.8292001E-02
787.0674, 0.1241810
787.5495, 0.3124830
788.0316, 0.4414180
788.5137, 0.5386610
788.9958, 0.6454940
789.4780, 0.7652720
789.9601, 0.8468550
790.4422, 0.8981150
790.9243, 0.8971750
791.4064, 0.8179200
791.8885, 0.7032180
792.3707, 0.5755160
792.8528, 0.4408500
793.3349, 0.3119630
793.8170, 0.1810990
794.2991, 7.2380997E-02
794.7813, 5.2037999E-02
795.2634, 0.1185150
795.7455, 6.4112999E-02
796.2276, 0.4390300
796.7097, 0.6464780
797.1918, 0.4481520
797.6740, 0.1097800
798.1561, 0.2355570
798.6382, 0.8556460
799.1203, 1.060136
799.6024, 0.6182020
800.0845, 0.2996710
800.5667, 0.6291920
801.0488, 1.207625
801.5309, 1.239511
802.0130, 0.6155310
802.4951, 0.2385440
802.9772, 0.4641000
803.4594, 0.6340190
803.9415, 0.3371310
804.4236, 9.8843001E-02
804.9057, 0.2681860
805.3878, 0.1227970
805.8699, 0.1222550
806.3521, 0.3661370
806.8342, 0.5710460
807.3163, 0.6308230
807.7985, 0.5901240
808.2806, 0.7014900
808.7627, 1.015986
809.2448, 1.186455
809.7269, 0.9147140
810.2090, 0.3967640
810.6912, 0.2640730
811.1733, 0.7884350
811.6554, 1.047167
812.1375, 0.7611950
812.6196, 0.5261280
813.1017, 0.6705200
813.5839, 0.9442870
814.0660, 0.9618100
814.5481, 0.6590380
815.0302, 0.4871900
815.5123, 0.9036250
815.9944, 1.277774
816.4766, 0.9572730
816.9587, 0.2761550
817.4408, 0.2059160
817.9229, 0.3334320
818.4050, 9.6537001E-02
818.8871, 0.6184790
819.3693, 1.499994
819.8514, 1.712255
820.3335, 1.237076
820.8156, 0.7765470
821.2977, 0.3529210
821.7798, 0.2269860
822.2620, 0.7741930
822.7441, 1.656412
823.2262, 1.832234
823.7083, 0.8158400
824.1904, 0.2909810
824.6725, 0.5921960
825.1547, 0.9917980
825.6368, 1.272182
826.1189, 1.442097
826.6010, 1.408207
827.0831, 1.158727
827.5652, 0.9770850
828.0474, 1.132217
828.5295, 1.392806
829.0116, 1.449415
829.4937, 1.369546
829.9758, 1.350282
830.4579, 1.432897
830.9401, 1.575634
831.4222, 1.781236
831.9043, 1.973261
832.3864, 1.858741
832.8685, 1.309606
833.3506, 1.034340
833.8328, 1.230001
834.3149, 1.496264
834.7970, 1.608198
835.2791, 1.597678
835.7612, 1.560737
836.2433, 1.497083
836.7255, 1.475547
837.2076, 1.566065
837.6897, 1.632874
838.1718, 1.636895
838.6539, 1.564990
839.1360, 1.321909
839.6182, 0.9652260
840.1003, 0.7913980
840.5824, 1.027562
841.0645, 1.401713
841.5466, 1.585515
842.0287, 1.628928
842.5109, 1.704873
842.9930, 1.831639
843.4751, 1.856519
843.9572, 1.676436
844.4393, 1.392030
844.9214, 1.178692
845.4036, 0.9917640
845.8857, 0.9737740
846.3678, 1.241009
846.8499, 1.446847
847.3320, 1.440706
847.8141, 1.355165
848.2963, 1.321682
848.7784, 1.331785
849.2605, 1.287151
849.7426, 0.9339810
850.2247, 0.8169220
850.7068, 1.359068
851.1890, 2.095467
851.6711, 2.691267
852.1532, 3.020659
852.6353, 2.879715
853.1174, 2.105607
853.5995, 1.325784
854.0817, 1.364141
854.5638, 1.902098
855.0459, 2.067081
855.5280, 1.849442
856.0101, 1.729637
856.4922, 1.910336
856.9744, 2.155516
857.4565, 2.172317
857.9386, 1.964452
858.4207, 1.605401
858.9028, 0.9307960
859.3849, 0.5057460
859.8671, 0.5281270
860.3492, 0.7372730
860.8313, 1.015473
861.3134, 1.322146
861.7955, 1.545221
862.2776, 1.640814
862.7598, 1.695733
863.2419, 1.779655
863.7240, 1.824059
864.2061, 1.717076
864.6882, 1.546749
865.1703, 1.468025
865.6525, 1.515208
866.1346, 1.586918
866.6167, 1.661405
867.0988, 1.666894
867.5809, 1.402667
868.0630, 0.9685940
868.5452, 0.7248380
869.0273, 0.7370220
869.5094, 0.8262460
869.9915, 0.8631530
870.4736, 0.8833630
870.9557, 0.9939280
871.4379, 1.223289
871.9200, 1.375144
872.4021, 1.399112
872.8842, 1.449118
873.3663, 1.667266
873.8484, 1.891121
874.3306, 1.884336
874.8127, 1.650169
875.2948, 1.268886
875.7769, 0.4497110
876.2590, 8.8510998E-02
876.7411, 6.8419002E-02
877.2233, 0.4012630
877.7054, 0.4219750
878.1875, 0.2203230
878.6696, 0.2260820
879.1517, 0.6762700
879.6339, 1.048029
880.1160, 0.8596100
880.5981, 0.3815160
881.0802, 0.1595480
881.5623, 0.6471310
882.0444, 0.7366140
882.5266, 0.3359700
883.0087, 0.1140470
883.4908, 0.1102630
883.9729, 0.1850500
884.4550, 4.7623999E-02
884.9371, 0.5615620
885.4193, 0.8892200
885.9014, 0.7524730
886.3835, 0.4719530
886.8656, 0.2205200
887.3477, 2.5966000E-02
887.8298, 2.2366000E-02
888.3120, 0.1820630
888.7941, 0.2472320
889.2762, 1.6802000E-02
889.7583, 0.1612860
890.2404, 7.9389997E-02
890.7225, 3.3831999E-02
891.2047, 0.1372070
891.6868, 0.5551590
892.1689, 0.7674970
892.6510, 0.5001020
893.1331, 0.1678400
893.6152, 4.5033000E-02
894.0974, 0.1996810
894.5795, 0.4008620
895.0616, 0.6020590
895.5437, 0.6470910
896.0258, 0.4723900
896.5079, 0.2056080
896.9901, 0.1122950
897.4722, 0.3865510
897.9543, 0.3355500
898.4364, 1.1076000E-02
898.9185, 0.3018140
899.4006, 0.5231000
899.8828, 0.6493310
900.3649, 0.6867010
900.8470, 0.6122400
901.3291, 0.2853880
901.8112, 0.3952850
902.2933, 0.8141980
902.7755, 0.8756240
903.2576, 0.7783360
903.7397, 0.5357220
904.2218, 0.2562800
904.7039, 0.1422720
905.1860, 0.2317230
905.6682, 0.1979990
906.1503, 0.1839680
906.6324, 0.3983760
907.1145, 0.1926710
907.5966, 0.1187810
908.0787, 0.3545010
908.5609, 0.4693260
909.0430, 0.4016180
909.5251, 0.1019700
910.0072, 0.2570850
910.4893, 0.7043190
910.9714, 1.055779
911.4536, 0.9130040
911.9357, 0.5888970
912.4178, 0.8877230
912.8999, 1.904429
913.3820, 2.720242
913.8641, 2.490843
914.3463, 1.763158
914.8284, 1.518176
915.3105, 1.681957
915.7926, 1.947456
916.2748, 2.268834
916.7569, 2.634150
917.2390, 3.047909
917.7211, 3.444916
918.2032, 3.716121
918.6854, 3.855761
919.1675, 3.969311
919.6496, 4.016064
920.1317, 4.158823
920.6138, 4.427016
921.0959, 4.834652
921.5781, 5.528601
922.0602, 6.387039
922.5423, 6.782926
923.0244, 6.231173
923.5065, 6.144587
923.9886, 6.854142
924.4708, 7.725431
924.9529, 8.593549
925.4350, 9.399129
925.9171, 10.01537
926.3992, 10.45954
926.8813, 11.05796
927.3635, 12.06312
927.8456, 13.10648
928.3277, 13.82186
928.8098, 14.57502
929.2919, 15.90001
929.7740, 17.62923
930.2562, 19.11049
930.7383, 20.07323
931.2204, 21.30233
931.7025, 23.66389
932.1846, 26.76889
932.6667, 29.75756
933.1489, 32.82109
933.6310, 36.54497
934.1131, 41.08630
934.5952, 46.60499
935.0773, 53.12369
935.5594, 60.95649
936.0416, 70.66750
936.5237, 82.26941
937.0058, 95.74429
937.4879, 111.1342
937.9700, 128.3201
938.4521, 147.7054
938.9343, 167.8661
939.4164, 187.3339
939.8985, 206.1495
940.3806, 224.6735
940.8627, 242.8325
941.3448, 260.7061
941.8270, 277.5093
942.3091, 294.9405
942.7912, 312.9974
943.2733, 332.4391
943.7554, 354.5041
944.2375, 379.2745
944.7197, 406.1802
945.2018, 436.2584
945.6839, 466.9778
946.1660, 496.5526
946.6481, 526.8152
947.1302, 560.0929
947.6124, 595.6583
948.0945, 631.7868
948.5766, 669.1044
949.0587, 701.4377
949.5408, 730.5327
950.0229, 748.3348
950.5051, 746.8646
950.9872, 728.2502
951.4693, 695.5341
951.9514, 650.3949
952.4335, 596.4414
952.9156, 534.3317
953.3978, 469.7388
953.8799, 408.9364
954.3620, 352.6688
954.8441, 302.5601
955.3262, 258.7315
955.8083, 220.4985
956.2905, 187.5941
956.7726, 159.4588
957.2547, 135.5517
957.7368, 115.6366
958.2189, 98.15349
958.7010, 83.07989
959.1832, 70.58395
959.6653, 60.75956
960.1474, 52.56207
960.6295, 45.40770
961.1116, 39.42257
961.5938, 34.92659
962.0759, 32.05928
962.5580, 29.21367
963.0401, 26.20005
963.5222, 23.60952
964.0043, 21.72003
964.4865, 20.10956
964.9686, 18.39385
965.4507, 16.72521
965.9328, 15.60798
966.4149, 15.31618
966.8970, 14.86277
967.3792, 14.00013
967.8613, 13.20238
968.3434, 12.67477
968.8255, 12.26749
969.3076, 11.84597
969.7897, 11.39946
970.2719, 10.94837
970.7540, 10.45704
971.2361, 10.04864
971.7182, 9.734977
972.2003, 9.558666
972.6824, 9.755548
973.1646, 10.06566
973.6467, 9.920134
974.1288, 9.276564
974.6109, 8.756364
975.0930, 8.686956
975.5751, 8.934628
976.0573, 9.651304
976.5394, 10.46004
977.0215, 10.66951
977.5036, 10.44203
977.9857, 10.47668
978.4678, 11.00592
978.9500, 11.61499
979.4321, 11.88542
979.9142, 11.99167
980.3963, 12.25220
980.8784, 12.64539
981.3605, 13.06316
981.8427, 13.50546
982.3248, 14.18968
982.8069, 15.24825
983.2890, 16.42564
983.7711, 17.29593
984.2532, 17.92394
984.7354, 18.98985
985.2175, 20.51391
985.6996, 22.05159
986.1817, 23.52427
986.6638, 24.86031
987.1459, 25.93430
987.6281, 26.99421
988.1102, 28.65098
988.5923, 31.02715
989.0744, 33.14641
989.5565, 34.95148
990.0386, 36.66760
990.5208, 38.25524
991.0029, 39.94237
991.4850, 41.98092
991.9671, 44.24569
992.4492, 46.24815
992.9313, 47.71622
993.4135, 49.56354
993.8956, 52.09252
994.3777, 54.58280
994.8598, 56.80888
995.3419, 58.90833
995.8240, 60.98646
996.3062, 63.04863
996.7883, 65.18667
997.2704, 67.62640
997.7525, 69.74654
998.2346, 71.63326
998.7167, 73.00124
999.1989, 73.84286
999.6810, 74.01475
1000.163, 73.27178
1000.645, 71.64774
1001.127, 69.58023
1001.609, 67.27640
1002.092, 64.40992
1002.574, 60.62652
1003.056, 56.44382
1003.538, 52.04989
1004.020, 47.68031
1004.502, 43.62593
1004.984, 39.95145
1005.466, 36.55364
1005.948, 33.57497
1006.431, 30.60154
1006.913, 26.84109
1007.395, 23.27621
1007.877, 21.32005
1008.359, 20.53709
1008.841, 19.75434
1009.323, 18.58066
1009.805, 17.13424
1010.288, 15.20787
1010.770, 13.43042
1011.252, 12.81009
1011.734, 12.78908
1012.216, 12.31699
1012.698, 11.41889
1013.180, 10.71060
1013.662, 10.44031
1014.144, 10.28048
1014.627, 9.935955
1015.109, 9.441748
1015.591, 8.802775
1016.073, 8.081644
1016.555, 7.424618
1017.037, 6.883614
1017.519, 6.695995
1018.001, 6.990843
1018.484, 7.270553
1018.966, 6.834486
1019.448, 5.876042
1019.930, 5.010396
1020.412, 4.254815
1020.894, 3.770305
1021.376, 3.582178
1021.858, 3.424639
1022.340, 3.155123
1022.823, 2.761510
1023.305, 2.160601
1023.787, 1.399970
1024.269, 0.9747950
1024.751, 0.9017290
1025.233, 0.8115630
1025.715, 0.6301980
1026.197, 0.4179120
1026.680, 0.1820520
1027.162, 3.4727000E-02
1027.644, 0.2490090
1028.126, 0.8406020
1028.608, 1.071516
1029.090, 0.9043080
1029.572, 0.5108970
1030.054, 0.1799060
1030.536, 0.7764800
1031.019, 1.017710
1031.501, 0.9799500
1031.983, 0.7959280
1032.465, 0.4273320
1032.947, 0.2151920
1033.429, 0.1648600
1033.911, 0.2819670
1034.393, 0.7243280
1034.875, 1.052563
1035.358, 0.8918490
1035.840, 0.4359910
1036.322, 0.1285270
1036.804, 3.9168000E-02
1037.286, 7.0320000E-03
1037.768, 0.4062040
1038.250, 0.6922810
1038.732, 0.7088680
1039.215, 0.6055730
1039.697, 0.3913960
1040.179, 0.1658360
1040.661, 0.2350030
1041.143, 0.7849730
1041.625, 0.9398280
1042.107, 0.3615910
1042.589, 0.1479700
1043.072, 0.4188490
1043.554, 0.5867000
1044.036, 0.7554580
1044.518, 0.8873550
1045.000, 0.8583080
1045.482, 0.5876210
1045.964, 0.4698990
1046.446, 0.6724210
1046.928, 0.8406820
1047.411, 0.7421390
1047.893, 0.7112110
1048.375, 1.077590
1048.857, 1.688268
1049.339, 2.157578
1049.821, 2.416756
1050.303, 2.661344
1050.785, 2.842136
1051.267, 3.122138
1051.750, 3.571620
1052.232, 4.106612
1052.714, 4.639131
1053.196, 5.202984
1053.678, 5.831047
1054.160, 6.481133
1054.642, 7.521971
1055.124, 9.359504
1055.607, 11.18203
1056.089, 12.42730
1056.571, 13.76967
1057.053, 15.79912
1057.535, 18.34674
1058.017, 21.04739
1058.499, 23.85486
1058.981, 26.54143
1059.464, 28.99471
1059.946, 31.34942
1060.428, 33.59428
1060.910, 35.83455
1061.392, 38.08477
1061.874, 40.43321
1062.356, 43.03350
1062.838, 45.91891
1063.320, 49.09223
1063.802, 52.83515
1064.285, 56.50386
1064.767, 59.47860
1065.249, 62.54391
1065.731, 66.74531
1066.213, 71.40164
1066.695, 75.18869
1067.177, 77.84019
1067.659, 79.86530
1068.142, 81.96590
1068.624, 82.81074
1069.106, 81.74419
1069.588, 79.19741
1070.070, 75.31120
1070.552, 70.29709
1071.034, 64.12018
1071.516, 56.89806
1071.999, 49.83285
1072.481, 42.95644
1072.963, 36.96601
1073.445, 32.23715
1073.927, 28.43266
1074.409, 25.43980
1074.891, 23.09996
1075.373, 21.30352
1075.855, 20.00234
1076.338, 18.85442
1076.820, 17.69962
1077.302, 16.69302
1077.784, 15.79440
1078.266, 15.22602
1078.748, 15.35006
1079.230, 15.75108
1079.712, 15.93171
1080.194, 15.79550
1080.677, 15.34885
1081.159, 14.33051
1081.641, 13.57761
1082.123, 13.79471
1082.605, 14.10272
1083.087, 14.17130
1083.569, 13.77200
1084.052, 12.34932
1084.534, 10.14776
1085.016, 8.450012
1085.498, 7.806938
1085.980, 7.365104
1086.462, 6.810686
1086.944, 6.226711
1087.426, 5.665581
1087.908, 5.151831
1088.391, 4.743903
1088.873, 4.419422
1089.355, 4.013152
1089.837, 3.467165
1090.319, 2.978121
1090.801, 2.538287
1091.283, 2.238586
1091.765, 2.294243
1092.247, 2.364733
1092.730, 1.986310
1093.212, 1.395368
1093.694, 1.275645
1094.176, 1.838480
1094.658, 2.169519
1095.140, 1.682922
1095.622, 1.183723
1096.104, 1.023044
1096.587, 1.059618
1097.069, 1.326288
1097.551, 1.651603
1098.033, 1.655672
1098.515, 1.239336
1098.997, 0.9191690
1099.479, 0.9434530
1099.961, 1.066691
1100.443, 1.286439
1100.926, 1.434528
1101.408, 1.354997
1101.890, 1.164783
1102.372, 1.059186
1102.854, 1.047938
1103.336, 1.004597
1103.818, 0.8365660
1104.300, 0.7383890
1104.782, 0.9219090
1105.265, 0.9964430
1105.747, 0.5534350
1106.229, 6.0160002E-03
1106.711, 3.9641999E-02
1107.193, 0.3607610
1107.675, 0.5258810
1108.157, 7.2676003E-02
1108.639, 4.0947001E-02
1109.122, 0.7210860
1109.604, 1.325483
1110.086, 1.236538
1110.568, 0.9156090
1111.050, 0.7901040
1111.532, 0.8183680
1112.014, 0.7864190
1112.496, 0.6674490
1112.979, 0.5358910
1113.461, 0.2281980
1113.943, 0.1378110
1114.425, 0.6394580
1114.907, 1.105215
1115.389, 1.022942
1115.871, 0.6076950
1116.353, 0.3067520
1116.835, 9.1164999E-02
1117.318, 0.1483720
1117.800, 0.7101620
1118.282, 1.116158
1118.764, 1.217090
1119.246, 1.221796
1119.728, 1.224167
1120.210, 1.217740
1120.692, 1.206107
1121.174, 1.187088
1121.657, 1.034800
1122.139, 0.6102410
1122.621, 0.4707250
1123.103, 0.8482160
1123.585, 1.031057
1124.067, 0.6063800
1124.549, 8.1022002E-02
1125.031, 2.5768001E-02
1125.514, 0.3480060
1125.996, 0.6532040
1126.478, 0.9936710
1126.960, 0.9477860
1127.442, 0.3457950
1127.924, 0.1487720
1128.406, 0.7621270
1128.888, 1.378845
1129.370, 1.340337
1129.853, 0.8976690
1130.335, 0.6383720
1130.817, 0.5608930
1131.299, 0.2961950
1131.781, 0.1796400
1132.263, 0.3222350
1132.745, 8.7820003E-03
1133.227, 0.4502640
1133.709, 0.9109490
1134.192, 1.147693
1134.674, 0.7224910
1135.156, 0.1333830
1135.638, 0.4842870
1136.120, 0.3641630
1136.602, 9.3367003E-02
1137.084, 0.8136810
1137.566, 1.210633
1138.049, 1.056741
1138.531, 0.6556240
1139.013, 0.2239290
1139.495, 9.2641003E-02
1139.977, 0.1417020
1140.459, 0.6825400
1140.941, 0.8114940
1141.423, 0.5828930
1141.906, 0.3689610
1142.388, 0.2622310
1142.870, 0.1297280
1143.352, 0.1337210
1143.834, 0.3113400
1144.316, 1.8705999E-02
1144.798, 0.4743490
1145.280, 0.3740170
1145.762, 7.7459998E-03
1146.245, 0.1095090
1146.727, 9.4452001E-02
1147.209, 0.4033680
1147.691, 0.7351480
1148.173, 0.8648000
1148.655, 0.4331050
1149.137, 6.0322002E-02
1149.619, 0.1698930
1150.101, 0.1048510
1150.584, 0.1332590
1151.066, 0.1697100
1151.548, 0.1109320
1152.030, 0.6956770
1152.512, 0.9595610
1152.994, 0.4011370
1153.476, 5.7280999E-02
1153.958, 0.1870000
1154.441, 0.5137140
1154.923, 0.5094670
1155.405, 0.3462690
1155.887, 0.2120810
1156.369, 0.1348460
1156.851, 0.1260330
1157.333, 0.2141530
1157.815, 0.2679170
1158.297, 0.2665210
1158.780, 0.2273650
1159.262, 6.1813999E-02
1159.744, 6.1609000E-02
1160.226, 2.5227999E-02
1160.708, 0.1357750
1161.190, 0.4282310
1161.672, 0.8950510
1162.154, 1.008497
1162.636, 0.3935220
1163.119, 7.3940001E-02
1163.601, 0.3250340
1164.083, 0.5892120
1164.565, 0.6379510
1165.047, 0.6164480
1165.529, 0.6599910
1166.011, 0.7506160
1166.493, 0.7965850
1166.976, 0.7684540
1167.458, 0.9606650
1167.940, 1.478738
1168.422, 1.615558
1168.904, 1.101965
1169.386, 0.7521970
1169.868, 1.159167
1170.350, 1.833076
1170.833, 1.936557
1171.315, 1.585891
1171.797, 1.519908
1172.279, 1.690169
1172.761, 1.388763
1173.243, 0.5983960
1173.725, 0.2524260
1174.207, 0.6996220
1174.689, 1.305824
1175.172, 1.501570
1175.654, 1.506144
1176.136, 1.775218
1176.618, 2.102690
1177.100, 1.887117
1177.582, 1.335745
1178.064, 1.083282
1178.546, 1.218784
1179.028, 1.480299
1179.511, 1.752547
1179.993, 1.915185
1180.475, 1.757499
1180.957, 1.543978
1181.439, 1.568416
1181.921, 1.696960
1182.403, 1.786088
1182.885, 1.817334
1183.368, 1.789285
1183.850, 1.704047
1184.332, 1.601329
1184.814, 1.431158
1185.296, 1.367974
1185.778, 1.588437
1186.260, 1.817409
1186.742, 1.885921
1187.224, 1.873411
1187.707, 1.904082
1188.189, 1.936878
1188.671, 1.767694
1189.153, 1.248538
1189.635, 1.013839
1190.117, 1.335509
1190.599, 1.636220
1191.081, 1.788743
1191.564, 1.926531
1192.046, 2.231431
1192.528, 2.431283
1193.010, 2.069679
1193.492, 1.226475
1193.974, 0.6686150
1194.456, 0.4245650
1194.938, 0.4278950
1195.421, 0.7097800
1195.903, 1.083736
1196.385, 1.533072
1196.867, 1.758318
1197.349, 1.502277
1197.831, 1.008959
1198.313, 0.6432690
1198.795, 0.4041520
1199.277, 0.3296010
1199.760, 0.3933900
1200.242, 0.4651700
1200.724, 0.5321830
1201.206, 0.6706180
1201.688, 0.8956580
1202.170, 1.010063
1202.652, 0.7407920
1203.134, 0.4223940
1203.616, 0.5252440
1204.099, 0.8047410
1204.581, 0.9988480
1205.063, 1.078108
1205.545, 0.9960280
1206.027, 0.7991670
1206.509, 0.6170230
1206.991, 0.4785190
1207.473, 0.5050220
1207.956, 1.055779
1208.438, 1.407385
1208.920, 0.9481320
1209.402, 0.4371600
1209.884, 0.5040330
1210.366, 0.8725150
1210.848, 1.145950
1211.330, 1.270182
1211.813, 1.185354
1212.295, 0.6623100
1212.777, 0.3542030
1213.259, 0.4024200
1213.741, 0.4621320
1214.223, 0.4869780
1214.705, 0.4282190
1215.187, 0.1991970
1215.669, 6.6579998E-02
1216.151, 0.1151700
1216.634, 4.0934000E-02
1217.116, 0.2437160
1217.598, 0.5146090
1218.080, 0.4555810
1218.562, 8.1209997E-03
1219.044, 0.3634620
1219.526, 0.5013550
1220.008, 0.3728830
1220.491, 9.2044003E-02
1220.973, 0.6042530
1221.455, 0.5698720
1221.937, 0.2442660
1222.419, 0.3061370
1222.901, 0.6319400
1223.383, 0.9134890
1223.865, 1.088601
1224.348, 1.114975
1224.830, 0.9949340
1225.312, 0.9332600
1225.794, 1.184465
1226.276, 1.321754
1226.758, 0.8000140
1227.240, 0.2449180
1227.722, 0.2179980
1228.204, 0.4952290
1228.687, 0.8301950
1229.169, 1.148347
1229.651, 1.351284
1230.133, 1.412417
1230.615, 1.433011
1231.097, 1.421743
1231.579, 1.396404
1232.061, 1.322864
1232.543, 1.289814
1233.026, 1.415423
1233.508, 1.505875
1233.990, 1.306104
1234.472, 0.9038630
1234.954, 0.6796000
1235.436, 0.6667410
1235.918, 0.6039260
1236.400, 0.4898870
1236.883, 0.3034770
1237.365, 3.2040998E-02
1237.847, 0.1010340
1238.329, 2.1831000E-02
1238.811, 0.3653660
1239.293, 0.9903670
1239.775, 1.622472
1240.257, 1.594082
1240.740, 1.175467
1241.222, 0.9636150
1241.704, 0.9347830
1242.186, 0.8703030
1242.668, 0.7536950
1243.150, 0.7248730
1243.632, 0.8458700
1244.114, 1.052011
1244.596, 1.410791
1245.078, 1.697207
1245.561, 1.772207
1246.043, 1.711923
1246.525, 1.485900
1247.007, 1.219093
1247.489, 1.045139
1247.971, 0.9912700
1248.453, 1.132433
1248.935, 1.700997
1249.418, 1.887292
1249.900, 1.363043
1250.382, 1.091948
1250.864, 1.386283
1251.346, 1.718775
1251.828, 1.762251
1252.310, 1.731085
1252.792, 1.806885
1253.275, 1.893463
1253.757, 1.927240
1254.239, 2.048977
1254.721, 1.688006
1255.203, 0.9196260
1255.685, 0.5598750
1256.167, 0.7569020
1256.649, 1.162934
1257.131, 1.601410
1257.614, 1.820714
1258.096, 1.447348
1258.578, 0.9181150
1259.060, 0.6938510
1259.542, 0.6603840
1260.024, 0.6618020
1260.506, 0.7609160
1260.988, 1.280851
1261.470, 2.046934
1261.953, 2.164403
1262.435, 1.158628
1262.917, 0.5498340
1263.399, 1.417503
1263.881, 1.859510
1264.363, 0.9011750
1264.845, 2.9309999E-02
1265.327, 0.2184610
1265.810, 1.3255000E-02
1266.292, 0.2536820
1266.774, 0.5495240
1267.256, 0.7645070
1267.738, 0.9130020
1268.220, 0.7387870
1268.702, 0.2234690
1269.184, 9.7190002E-03
1269.667, 0.2109170
1270.149, 0.6162890
1270.631, 1.130070
1271.113, 1.600559
1271.595, 1.922523
1272.077, 2.023854
1272.559, 1.601535
1273.041, 1.043993
1273.523, 1.018596
1274.005, 1.248748
1274.488, 1.199878
1274.970, 0.8888140
1275.452, 0.5592740
1275.934, 0.2751830
1276.416, 0.1575880
1276.898, 0.7819130
1277.380, 1.299994
1277.862, 1.499707
1278.345, 1.477728
1278.827, 1.185560
1279.309, 0.8385780
1279.791, 0.5716460
1280.273, 0.4138920
1280.755, 0.4616820
1281.237, 0.7107160
1281.719, 0.7991510
1282.202, 0.7244890
1282.684, 0.7313670
1283.166, 0.8434520
1283.648, 0.7199030
1284.130, 0.2687990
1284.612, 1.9447001E-02
1285.094, 0.2126540
1285.576, 0.5551790
1286.058, 0.3276180
1286.541, 6.4400001E-03
1287.023, 0.0000000E+00
##END=



