##NAMES=Trolleite
##RRUFFID=R050425
##IDEAL CHEMISTRY=Al_4_(PO_4_)_3_(OH)_3_
##LOCALITY=Halsjoberg, Varmland, Sweden
##OWNER=RRUFF
##SOURCE=Marcus Origlieri
##DESCRIPTION=Pale green granular aggregate
##STATUS=The identification of this mineral has been confirmed by X-ray diffraction and chemical analysis
##URL=rruff.info/R050425
##MEASURED CHEMISTRY=(Al_3.95_Fe^3+^_0.05_)_Î£=4_(P_1.00_O_4_)_3_(OH)_3_
117.0421, 0.0000000E+00
117.5242, 0.1958160
118.0063, 3.2333001E-02
118.4885, 0.7061160
118.9706, 1.239914
119.4527, 1.839157
119.9348, 1.985184
120.4169, 2.106567
120.8990, 3.177292
121.3812, 6.157349
121.8633, 9.988098
122.3454, 13.54384
122.8275, 16.49872
123.3096, 19.56442
123.7917, 23.08116
124.2739, 27.12346
124.7560, 32.00842
125.2381, 39.12480
125.7202, 47.06514
126.2023, 53.51085
126.6844, 58.50667
127.1666, 61.19756
127.6487, 59.88599
128.1308, 54.67720
128.6129, 47.61339
129.0950, 39.19986
129.5771, 29.98314
130.0593, 21.83110
130.5414, 14.94698
131.0235, 9.664642
131.5056, 7.193863
131.9877, 6.891708
132.4698, 6.726151
132.9520, 5.896240
133.4341, 4.451538
133.9162, 3.259201
134.3983, 2.486008
134.8804, 2.152069
135.3625, 2.631287
135.8447, 4.062759
136.3268, 5.937546
136.8089, 7.750168
137.2910, 9.589996
137.7731, 10.95322
138.2552, 11.66772
138.7374, 11.71289
139.2195, 11.18925
139.7016, 9.843658
140.1837, 8.163544
140.6658, 7.079742
141.1479, 6.476135
141.6301, 6.649048
142.1122, 7.774414
142.5943, 10.04442
143.0764, 12.72638
143.5585, 15.83289
144.0406, 19.33240
144.5228, 23.40266
145.0049, 28.66235
145.4870, 33.76865
145.9691, 37.93806
146.4512, 41.22701
146.9333, 43.44296
147.4155, 43.83798
147.8976, 42.73766
148.3797, 43.27835
148.8618, 46.27930
149.3439, 50.32434
149.8260, 54.48169
150.3082, 57.38522
150.7903, 61.95401
151.2724, 68.94214
151.7545, 78.37146
152.2366, 87.87268
152.7188, 97.70599
153.2009, 107.4203
153.6830, 116.5371
154.1651, 124.9348
154.6472, 132.8465
155.1293, 139.9444
155.6115, 146.1288
156.0936, 152.6715
156.5757, 159.7954
157.0578, 167.3981
157.5399, 175.2702
158.0220, 183.2732
158.5042, 191.6718
158.9863, 200.3975
159.4684, 209.3766
159.9505, 219.1338
160.4326, 229.9941
160.9147, 241.6493
161.3969, 253.6378
161.8790, 265.8448
162.3611, 278.3232
162.8432, 290.9976
163.3253, 303.4708
163.8074, 316.9297
164.2896, 331.4905
164.7717, 347.3824
165.2538, 365.0755
165.7359, 384.4882
166.2180, 405.9138
166.7001, 429.5802
167.1823, 455.0879
167.6644, 483.1655
168.1465, 515.0979
168.6286, 550.0764
169.1107, 585.8500
169.5928, 626.0507
170.0750, 664.3391
170.5571, 695.9041
171.0392, 722.7319
171.5213, 737.5523
172.0034, 732.0985
172.4855, 708.2056
172.9677, 674.3728
173.4498, 628.4668
173.9319, 577.2823
174.4140, 530.5276
174.8961, 487.4836
175.3782, 451.9857
175.8604, 425.8546
176.3425, 408.6832
176.8246, 398.3308
177.3067, 394.5728
177.7888, 396.1459
178.2709, 400.7387
178.7531, 409.2640
179.2352, 419.4581
179.7173, 427.6523
180.1994, 433.9691
180.6815, 440.5682
181.1636, 449.2196
181.6458, 459.6617
182.1279, 470.8398
182.6100, 482.8582
183.0921, 495.2706
183.5742, 507.1196
184.0563, 518.1171
184.5385, 530.0240
185.0206, 544.5533
185.5027, 561.4921
185.9848, 579.0630
186.4669, 596.4407
186.9490, 614.0474
187.4312, 633.8115
187.9133, 655.3955
188.3954, 678.9254
188.8775, 704.1257
189.3596, 730.8826
189.8417, 759.5497
190.3239, 789.3082
190.8060, 820.8596
191.2881, 856.2487
191.7702, 895.0233
192.2523, 937.7744
192.7344, 986.1498
193.2166, 1039.959
193.6987, 1096.829
194.1808, 1157.873
194.6629, 1222.372
195.1450, 1286.923
195.6271, 1353.946
196.1093, 1414.991
196.5914, 1463.230
197.0735, 1500.047
197.5556, 1507.760
198.0377, 1476.815
198.5198, 1406.835
199.0020, 1312.431
199.4841, 1187.348
199.9662, 1048.494
200.4483, 917.2117
200.9304, 792.4552
201.4125, 681.3992
201.8947, 587.9584
202.3768, 512.6378
202.8589, 448.8430
203.3410, 397.8001
203.8231, 356.4002
204.3052, 320.3034
204.7874, 289.7099
205.2695, 262.6328
205.7516, 238.4917
206.2337, 217.4522
206.7158, 198.2661
207.1979, 181.0883
207.6801, 165.5242
208.1622, 151.0695
208.6443, 137.6654
209.1264, 125.2699
209.6085, 113.9238
210.0906, 103.7105
210.5728, 94.10004
211.0549, 85.10123
211.5370, 76.74771
212.0191, 69.50568
212.5012, 63.71558
212.9833, 58.06696
213.4655, 51.75403
213.9476, 44.15070
214.4297, 38.15439
214.9118, 34.18161
215.3939, 31.66833
215.8760, 29.25894
216.3581, 27.19736
216.8403, 24.76941
217.3224, 21.48627
217.8045, 16.80936
218.2866, 12.81863
218.7687, 9.479553
219.2508, 6.886597
219.7330, 5.549988
220.2151, 6.085266
220.6972, 6.723175
221.1793, 6.515045
221.6614, 4.937561
222.1435, 3.952606
222.6257, 3.850555
223.1078, 4.278015
223.5899, 4.298889
224.0720, 3.938721
224.5541, 3.131836
225.0362, 1.785034
225.5184, 0.3249210
226.0005, 2.391541
226.4826, 4.395081
226.9647, 6.343689
227.4468, 8.313171
227.9289, 10.27271
228.4111, 12.27130
228.8932, 14.43820
229.3753, 17.22351
229.8574, 19.05957
230.3395, 19.57697
230.8216, 19.20718
231.3038, 19.18307
231.7859, 19.95023
232.2680, 20.41544
232.7501, 20.07449
233.2322, 18.73062
233.7143, 17.05783
234.1965, 15.17252
234.6786, 12.92358
235.1607, 9.744690
235.6428, 4.905090
236.1249, 0.2019960
236.6070, 3.473114
237.0892, 5.360291
237.5713, 7.868561
238.0534, 10.96304
238.5355, 14.68222
239.0176, 19.16019
239.4997, 24.77222
239.9819, 30.71207
240.4640, 36.65765
240.9461, 42.86761
241.4282, 48.54581
241.9103, 53.52014
242.3924, 58.01965
242.8746, 62.66010
243.3567, 67.89441
243.8388, 72.59076
244.3209, 76.28809
244.8030, 78.73059
245.2851, 80.76187
245.7673, 82.36176
246.2494, 83.56705
246.7315, 84.30200
247.2136, 83.81674
247.6957, 84.05640
248.1778, 85.87521
248.6600, 89.73764
249.1421, 93.69498
249.6242, 97.48093
250.1063, 101.5270
250.5884, 106.6876
251.0705, 113.1729
251.5527, 120.4507
252.0348, 128.3824
252.5169, 137.2977
252.9990, 145.9702
253.4811, 154.6245
253.9632, 162.9891
254.4454, 170.6374
254.9275, 178.2285
255.4096, 183.9712
255.8917, 187.3369
256.3738, 188.2847
256.8560, 186.8623
257.3381, 182.8746
257.8202, 176.6905
258.3023, 168.3981
258.7844, 156.9828
259.2665, 145.8380
259.7487, 135.8517
260.2308, 127.0819
260.7129, 119.4652
261.1950, 113.1522
261.6771, 107.8422
262.1592, 103.1895
262.6414, 99.26492
263.1235, 95.91998
263.6056, 93.24100
264.0877, 91.24954
264.5698, 89.26401
265.0519, 87.12958
265.5341, 85.21732
266.0162, 83.88266
266.4983, 83.06482
266.9804, 82.95764
267.4625, 83.11395
267.9446, 83.56848
268.4268, 87.80759
268.9089, 96.77924
269.3910, 107.6877
269.8731, 117.5055
270.3552, 125.4775
270.8373, 135.2062
271.3195, 147.9035
271.8016, 163.2660
272.2837, 178.7228
272.7658, 194.6136
273.2479, 210.2742
273.7300, 225.0930
274.2122, 238.7495
274.6943, 253.2108
275.1764, 268.7613
275.6585, 285.3474
276.1406, 302.7525
276.6227, 321.0522
277.1049, 339.9409
277.5870, 358.9822
278.0691, 378.0848
278.5512, 398.4155
279.0333, 420.0942
279.5154, 443.1646
279.9976, 467.7740
280.4797, 494.0732
280.9618, 521.5920
281.4439, 550.1652
281.9260, 579.6534
282.4081, 612.2319
282.8903, 648.6125
283.3724, 687.6224
283.8545, 726.4323
284.3366, 764.8898
284.8187, 804.8958
285.3008, 847.7017
285.7830, 893.4456
286.2651, 939.6992
286.7472, 987.5619
287.2293, 1033.949
287.7114, 1075.277
288.1935, 1111.585
288.6757, 1138.579
289.1578, 1155.801
289.6399, 1162.159
290.1220, 1150.527
290.6041, 1119.422
291.0862, 1074.305
291.5684, 1020.175
292.0505, 957.2975
292.5326, 890.9286
293.0147, 818.8937
293.4968, 745.1768
293.9789, 678.9552
294.4611, 621.0705
294.9432, 569.7350
295.4253, 523.8638
295.9074, 483.1841
296.3895, 447.5541
296.8716, 416.5578
297.3538, 390.3062
297.8359, 369.2486
298.3180, 353.2729
298.8001, 340.8925
299.2822, 331.2081
299.7643, 323.8755
300.2465, 318.1223
300.7286, 313.5846
301.2107, 310.5254
301.6928, 309.1945
302.1749, 309.6079
302.6570, 311.8657
303.1392, 316.3487
303.6213, 322.6959
304.1034, 330.1638
304.5855, 338.5500
305.0676, 348.0620
305.5497, 359.3825
306.0319, 372.2727
306.5140, 386.0872
306.9961, 399.6024
307.4782, 413.8906
307.9603, 430.6349
308.4424, 450.8583
308.9246, 472.1498
309.4067, 493.4776
309.8888, 514.4911
310.3709, 534.5749
310.8530, 554.2906
311.3351, 572.0841
311.8173, 587.0957
312.2994, 600.0583
312.7815, 607.7698
313.2636, 609.4379
313.7457, 604.4637
314.2278, 591.5858
314.7100, 567.0916
315.1921, 536.8093
315.6742, 503.2992
316.1563, 466.5885
316.6384, 429.0827
317.1205, 390.8855
317.6027, 353.2563
318.0848, 318.2776
318.5669, 286.1909
319.0490, 257.1868
319.5311, 231.4300
320.0132, 208.9354
320.4954, 189.1388
320.9775, 172.4958
321.4596, 158.3182
321.9417, 146.3049
322.4238, 137.3483
322.9059, 129.5378
323.3881, 122.5190
323.8702, 116.3437
324.3523, 110.9675
324.8344, 106.3521
325.3165, 102.5742
325.7986, 99.63156
326.2808, 98.13971
326.7629, 96.76740
327.2450, 95.16534
327.7271, 93.55380
328.2092, 92.79248
328.6913, 93.26843
329.1735, 94.26047
329.6556, 95.52209
330.1377, 97.19260
330.6198, 98.85287
331.1019, 100.4103
331.5840, 101.9728
332.0662, 103.7286
332.5483, 105.3467
333.0304, 107.6500
333.5125, 110.9599
333.9946, 115.4993
334.4767, 120.0129
334.9589, 124.4722
335.4410, 128.8745
335.9231, 133.3205
336.4052, 138.0630
336.8873, 142.0820
337.3694, 145.0026
337.8516, 146.8715
338.3336, 148.7971
338.8158, 151.2396
339.2979, 152.7862
339.7800, 152.3752
340.2621, 150.0764
340.7442, 145.2943
341.2263, 137.5765
341.7085, 127.5569
342.1906, 117.5489
342.6727, 107.4465
343.1548, 97.47119
343.6369, 87.63248
344.1190, 78.00668
344.6012, 68.19778
345.0833, 57.86752
345.5654, 48.05151
346.0475, 40.54877
346.5296, 35.33109
347.0117, 31.60608
347.4939, 29.44284
347.9760, 28.51904
348.4581, 27.66479
348.9402, 26.74088
349.4223, 26.42856
349.9044, 27.77017
350.3866, 30.42261
350.8687, 33.20139
351.3508, 35.39090
351.8329, 37.54086
352.3150, 40.51920
352.7971, 44.33029
353.2793, 48.61472
353.7614, 53.76773
354.2435, 59.14243
354.7256, 63.71860
355.2077, 67.08530
355.6898, 69.68372
356.1720, 71.81430
356.6541, 73.49353
357.1362, 74.80334
357.6183, 75.59985
358.1004, 76.16330
358.5826, 76.91626
359.0647, 78.35742
359.5468, 78.90573
360.0289, 77.49170
360.5110, 74.60074
360.9931, 71.13968
361.4753, 67.66992
361.9574, 63.60461
362.4395, 58.53735
362.9216, 52.31934
363.4037, 45.84882
363.8858, 39.11758
364.3680, 32.38065
364.8501, 25.87784
365.3322, 19.77240
365.8143, 13.89310
366.2964, 8.146545
366.7785, 2.516876
367.2607, 2.655060
367.7428, 7.610657
368.2249, 11.96863
368.7070, 15.50613
369.1891, 18.21613
369.6712, 20.09003
370.1534, 21.04346
370.6355, 21.17706
371.1176, 20.80386
371.5997, 20.02893
372.0818, 18.61877
372.5639, 16.39334
373.0461, 13.07623
373.5282, 9.914673
374.0103, 7.340668
374.4924, 4.476135
374.9745, 9.9884003E-02
375.4566, 6.838074
375.9388, 13.96405
376.4209, 20.91171
376.9030, 27.79642
377.3851, 35.07913
377.8672, 42.96118
378.3493, 50.92700
378.8315, 58.51193
379.3136, 65.83295
379.7957, 72.99075
380.2778, 80.40533
380.7599, 87.41299
381.2420, 92.42307
381.7242, 95.34064
382.2063, 97.29153
382.6884, 98.72452
383.1705, 99.71185
383.6526, 100.3971
384.1347, 100.6077
384.6169, 100.8604
385.0990, 101.5298
385.5811, 102.6924
386.0632, 104.7913
386.5453, 108.2482
387.0274, 112.7007
387.5096, 117.5311
387.9917, 122.7330
388.4738, 128.9778
388.9559, 137.0341
389.4380, 146.2946
389.9201, 155.9729
390.4023, 165.4446
390.8844, 175.6064
391.3665, 187.3074
391.8486, 200.3360
392.3307, 213.5169
392.8128, 227.3426
393.2950, 240.4289
393.7771, 251.8727
394.2592, 261.1116
394.7413, 269.7237
395.2234, 278.2226
395.7055, 286.3240
396.1877, 293.5925
396.6698, 299.8209
397.1519, 305.2984
397.6340, 310.5551
398.1161, 315.8309
398.5982, 318.7767
399.0804, 317.1694
399.5625, 314.4442
400.0446, 313.0542
400.5267, 313.5075
401.0088, 314.6224
401.4909, 316.6462
401.9731, 319.3023
402.4552, 321.4354
402.9373, 322.9732
403.4194, 324.1208
403.9015, 325.1225
404.3836, 326.2827
404.8658, 325.9856
405.3479, 323.9625
405.8300, 320.8380
406.3121, 317.7006
406.7942, 314.7309
407.2763, 310.3201
407.7585, 303.3329
408.2406, 294.3584
408.7227, 287.1329
409.2048, 281.8506
409.6869, 276.8805
410.1690, 270.7130
410.6512, 263.6194
411.1333, 256.5264
411.6154, 249.3927
412.0975, 242.7325
412.5796, 237.6860
413.0617, 233.9272
413.5439, 229.7306
414.0260, 222.9630
414.5081, 215.5446
414.9902, 210.3049
415.4723, 207.4936
415.9544, 206.0043
416.4366, 205.1128
416.9187, 204.9563
417.4008, 205.7358
417.8829, 207.5134
418.3650, 210.2525
418.8471, 213.9624
419.3293, 218.6121
419.8114, 224.2178
420.2935, 230.3746
420.7756, 237.7480
421.2577, 246.7379
421.7398, 258.2315
422.2220, 269.9841
422.7041, 281.1526
423.1862, 292.4039
423.6683, 304.9694
424.1504, 321.2314
424.6325, 336.8744
425.1147, 350.8637
425.5968, 363.2805
426.0789, 373.0637
426.5610, 381.5547
427.0431, 386.3822
427.5252, 385.9388
428.0074, 381.5198
428.4895, 368.7818
428.9716, 345.9789
429.4537, 315.1835
429.9358, 282.1937
430.4179, 246.3443
430.9001, 211.2590
431.3822, 178.4896
431.8643, 147.9843
432.3464, 120.9849
432.8285, 97.59448
433.3106, 77.40350
433.7928, 60.54324
434.2749, 46.85886
434.7570, 35.07159
435.2391, 24.83978
435.7212, 16.22116
436.2033, 9.624237
436.6855, 5.001129
437.1676, 1.271698
437.6497, 2.183624
438.1318, 5.265869
438.6139, 7.796783
439.0960, 9.709778
439.5782, 11.21771
440.0603, 12.68295
440.5424, 13.85815
441.0245, 14.26305
441.5066, 13.56485
441.9887, 12.16064
442.4709, 10.10632
442.9530, 7.433167
443.4351, 4.650482
443.9172, 2.567505
444.3993, 0.1000980
444.8814, 3.508453
445.3636, 8.741364
445.8457, 14.66589
446.3278, 20.95401
446.8099, 27.81793
447.2920, 35.95840
447.7741, 45.85504
448.2563, 56.57483
448.7384, 67.83228
449.2205, 79.84692
449.7026, 91.51239
450.1847, 102.4903
450.6668, 113.3851
451.1490, 124.5758
451.6311, 135.9498
452.1132, 148.2712
452.5953, 161.9868
453.0774, 176.5558
453.5595, 191.1118
454.0417, 205.6339
454.5238, 220.8805
455.0059, 237.5259
455.4880, 255.3189
455.9701, 273.5718
456.4522, 292.0408
456.9344, 311.8868
457.4165, 334.3692
457.8986, 359.3325
458.3807, 385.6641
458.8628, 413.5052
459.3449, 442.3275
459.8271, 472.0195
460.3092, 502.5092
460.7913, 533.9910
461.2734, 568.5417
461.7555, 602.8212
462.2376, 634.9469
462.7198, 664.7515
463.2019, 690.4298
463.6840, 713.2906
464.1661, 730.5462
464.6482, 738.8232
465.1303, 738.7009
465.6125, 727.9690
466.0946, 704.6846
466.5767, 669.3202
467.0588, 627.7104
467.5409, 576.0822
468.0230, 521.9406
468.5052, 467.9527
468.9873, 412.4457
469.4694, 361.1928
469.9515, 314.0440
470.4336, 271.4430
470.9157, 233.5322
471.3979, 200.6971
471.8800, 172.1150
472.3621, 147.9273
472.8442, 127.9039
473.3263, 110.0942
473.8084, 94.53033
474.2906, 80.89288
474.7727, 69.18600
475.2548, 59.23187
475.7369, 50.38651
476.2190, 42.61316
476.7011, 35.80801
477.1833, 29.72266
477.6654, 24.35571
478.1475, 19.75974
478.6296, 16.16895
479.1117, 13.27057
479.5938, 10.87350
480.0760, 8.885925
480.5581, 6.994385
481.0402, 4.719513
481.5223, 2.665710
482.0044, 1.302765
482.4865, 0.7472530
482.9687, 0.8359680
483.4508, 1.934692
483.9329, 3.546082
484.4150, 4.941162
484.8971, 5.643372
485.3792, 6.498077
485.8614, 7.622314
486.3435, 9.022400
486.8256, 10.90024
487.3077, 13.46844
487.7898, 16.23413
488.2719, 18.89978
488.7541, 21.21490
489.2362, 24.11981
489.7183, 27.82852
490.2004, 31.85391
490.6825, 35.47668
491.1646, 38.65594
491.6468, 41.96866
492.1289, 45.61935
492.6110, 49.51996
493.0931, 53.75662
493.5752, 58.31406
494.0573, 62.63858
494.5395, 66.27332
495.0216, 69.37891
495.5037, 72.46616
495.9858, 75.59055
496.4679, 78.52054
496.9500, 80.82306
497.4322, 82.82791
497.9143, 84.97971
498.3964, 87.86917
498.8785, 90.67691
499.3606, 92.93692
499.8427, 94.80466
500.3249, 96.58344
500.8070, 98.25842
501.2891, 100.0760
501.7712, 102.2177
502.2533, 105.0936
502.7354, 107.2982
503.2176, 108.2622
503.6997, 108.6139
504.1818, 108.9555
504.6639, 109.1256
505.1460, 109.5226
505.6281, 110.4532
506.1103, 111.6131
506.5924, 111.7698
507.0745, 110.7982
507.5566, 109.2463
508.0387, 107.2307
508.5208, 104.7782
509.0030, 102.5690
509.4851, 100.6910
509.9672, 98.57007
510.4493, 95.44171
510.9314, 91.54187
511.4135, 87.66110
511.8957, 84.10962
512.3778, 80.55994
512.8599, 76.66345
513.3420, 72.47598
513.8242, 68.16873
514.3063, 63.48383
514.7884, 58.89407
515.2705, 54.85446
515.7526, 51.41171
516.2347, 48.01831
516.7169, 44.19507
517.1990, 40.48917
517.6811, 37.32666
518.1632, 35.24316
518.6453, 33.05890
519.1274, 30.39008
519.6096, 27.58060
520.0917, 25.34152
520.5738, 24.13235
521.0559, 22.74460
521.5380, 20.88101
522.0201, 18.55792
522.5023, 15.92429
522.9844, 12.75928
523.4665, 9.891846
523.9486, 8.084106
524.4307, 7.271759
524.9128, 6.224731
525.3950, 4.792816
525.8771, 3.344299
526.3592, 2.338257
526.8413, 1.733337
527.3234, 1.372223
527.8055, 1.458893
528.2877, 1.513733
528.7698, 0.8603520
529.2519, 0.3566280
529.7340, 1.544861
530.2161, 2.427948
530.6982, 3.111847
531.1804, 3.750519
531.6625, 4.403259
532.1446, 4.654938
532.6267, 3.940369
533.1088, 2.960938
533.5909, 2.373260
534.0731, 2.881744
534.5552, 2.987000
535.0373, 2.195038
535.5194, 0.9846800
536.0015, 0.6794740
536.4836, 2.004700
536.9658, 2.735992
537.4479, 1.811432
537.9300, 0.6521000
538.4121, 1.967804
538.8942, 1.863129
539.3763, 1.567078
539.8585, 2.187958
540.3406, 3.605804
540.8227, 5.009583
541.3048, 6.352570
541.7869, 7.711548
542.2690, 9.240143
542.7512, 10.81232
543.2333, 12.15515
543.7154, 13.00513
544.1975, 13.71039
544.6796, 14.55258
545.1617, 15.50323
545.6439, 16.40445
546.1260, 17.02280
546.6081, 17.69684
547.0902, 18.70929
547.5723, 20.22827
548.0544, 21.46268
548.5366, 22.31464
549.0187, 22.83307
549.5008, 23.03119
549.9829, 22.53415
550.4650, 22.42273
550.9471, 22.93823
551.4293, 23.81107
551.9114, 24.38791
552.3935, 24.59998
552.8756, 24.88245
553.3577, 25.59998
553.8398, 26.52469
554.3220, 26.28305
554.8041, 24.82629
555.2862, 23.63303
555.7683, 23.95981
556.2504, 25.34909
556.7325, 27.05060
557.2147, 29.07336
557.6968, 30.79776
558.1789, 31.36438
558.6610, 31.37915
559.1431, 31.73459
559.6252, 32.77560
560.1074, 34.18118
560.5895, 36.14594
561.0716, 38.43518
561.5537, 40.23914
562.0358, 40.71326
562.5179, 41.35556
563.0001, 42.75919
563.4822, 45.00061
563.9643, 47.08279
564.4464, 48.88284
564.9285, 50.70233
565.4106, 52.77435
565.8928, 55.12317
566.3749, 57.67807
566.8570, 60.54318
567.3391, 63.42871
567.8212, 66.00388
568.3033, 68.26743
568.7855, 70.01434
569.2676, 70.93030
569.7497, 71.56253
570.2318, 73.08533
570.7139, 75.17688
571.1960, 76.52786
571.6782, 76.45383
572.1603, 75.24265
572.6424, 72.89935
573.1245, 69.34955
573.6066, 65.66501
574.0887, 62.69299
574.5709, 59.57019
575.0530, 55.48328
575.5351, 49.50226
576.0172, 43.53702
576.4993, 37.62195
576.9814, 31.73065
577.4636, 25.83963
577.9457, 19.67429
578.4278, 14.19424
578.9099, 9.627045
579.3920, 5.994812
579.8741, 3.552429
580.3563, 2.333038
580.8384, 1.732086
581.3205, 1.484680
581.8026, 1.627075
582.2847, 2.028687
582.7668, 2.671204
583.2490, 4.086914
583.7311, 7.197296
584.2132, 11.15594
584.6953, 14.84723
585.1774, 17.73959
585.6595, 20.93277
586.1416, 24.89944
586.6237, 29.54471
587.1058, 34.77286
587.5880, 41.31772
588.0701, 47.58566
588.5522, 52.63470
589.0343, 56.94614
589.5164, 62.87061
589.9985, 71.07242
590.4807, 79.85110
590.9628, 88.56628
591.4449, 97.19403
591.9270, 106.1633
592.4091, 115.3853
592.8912, 125.3747
593.3734, 136.7459
593.8555, 149.3474
594.3376, 162.5085
594.8197, 176.3234
595.3018, 189.7831
595.7839, 201.3688
596.2661, 211.7458
596.7482, 222.2740
597.2303, 235.0339
597.7124, 246.5453
598.1945, 255.2862
598.6766, 261.2701
599.1588, 264.3655
599.6409, 264.7451
600.1230, 262.0107
600.6051, 255.9074
601.0872, 246.5261
601.5693, 233.5941
602.0515, 215.2775
602.5336, 196.0776
603.0157, 178.4299
603.4978, 162.3554
603.9799, 147.1665
604.4620, 132.5376
604.9442, 119.3053
605.4263, 108.7768
605.9084, 100.6728
606.3905, 94.30096
606.8726, 89.48964
607.3547, 86.02826
607.8369, 83.77945
608.3190, 82.63126
608.8011, 82.21997
609.2832, 82.15027
609.7653, 82.97714
610.2474, 85.23309
610.7296, 88.81519
611.2117, 92.79269
611.6938, 96.64877
612.1759, 101.0951
612.6580, 106.6832
613.1401, 113.8502
613.6223, 120.2631
614.1044, 125.1419
614.5865, 130.2160
615.0686, 137.1375
615.5507, 146.1306
616.0328, 154.8078
616.5150, 162.9093
616.9971, 170.5902
617.4792, 178.4260
617.9613, 186.1667
618.4434, 192.6546
618.9255, 197.6274
619.4077, 201.0169
619.8898, 202.8069
620.3719, 202.9752
620.8540, 201.4761
621.3361, 198.0293
621.8182, 193.1633
622.3004, 187.2783
622.7825, 180.4143
623.2646, 171.8370
623.7467, 160.1505
624.2288, 147.7903
624.7109, 136.0817
625.1931, 125.5033
625.6752, 113.6561
626.1573, 99.99727
626.6394, 85.82623
627.1215, 72.03081
627.6036, 58.58678
628.0858, 47.22083
628.5679, 38.43613
629.0500, 31.17413
629.5321, 24.08350
630.0142, 17.24710
630.4963, 11.17892
630.9785, 5.926117
631.4606, 1.590164
631.9427, 1.646713
632.4248, 3.876022
632.9069, 5.399490
633.3890, 5.920029
633.8712, 6.109543
634.3533, 6.254181
634.8354, 6.374939
635.3175, 6.334030
635.7996, 6.184052
636.2817, 5.816483
636.7639, 5.203613
637.2460, 4.379196
637.7281, 3.107452
638.2102, 1.326553
638.6923, 0.7227020
639.1744, 2.651459
639.6566, 4.552063
640.1387, 7.252441
640.6208, 11.13623
641.1029, 15.00102
641.5850, 16.92404
642.0671, 17.82149
642.5493, 19.56520
643.0314, 23.69411
643.5135, 28.09822
643.9956, 31.78342
644.4777, 34.88565
644.9598, 37.87207
645.4420, 40.45914
645.9241, 43.37659
646.4062, 47.13011
646.8883, 51.63222
647.3704, 55.03831
647.8525, 57.06870
648.3347, 58.58284
648.8168, 60.07361
649.2989, 61.53600
649.7810, 62.54431
650.2631, 63.12695
650.7452, 63.01472
651.2274, 61.68851
651.7095, 59.53508
652.1916, 57.30344
652.6737, 55.21233
653.1558, 52.88268
653.6379, 49.90990
654.1201, 46.57478
654.6022, 43.22437
655.0843, 39.49762
655.5664, 36.31641
656.0485, 34.06007
656.5306, 32.49159
657.0128, 30.97606
657.4949, 29.34148
657.9770, 28.10463
658.4591, 27.45909
658.9412, 27.30840
659.4233, 27.24588
659.9055, 27.27628
660.3876, 27.42372
660.8697, 27.63635
661.3518, 27.96875
661.8339, 28.51636
662.3160, 29.30338
662.7982, 30.48796
663.2803, 32.37585
663.7624, 34.57861
664.2445, 36.65057
664.7266, 38.47197
665.2087, 40.65012
665.6909, 43.64832
666.1730, 46.96167
666.6551, 50.15787
667.1372, 52.93910
667.6193, 56.04477
668.1014, 59.50621
668.5836, 63.20567
669.0657, 67.00114
669.5478, 70.87852
670.0299, 74.83789
670.5120, 78.90442
670.9941, 82.96928
671.4763, 86.86115
671.9584, 90.58638
672.4405, 94.19250
672.9226, 97.45009
673.4047, 100.8365
673.8868, 105.2648
674.3690, 110.2476
674.8511, 114.2217
675.3332, 115.5310
675.8153, 116.7011
676.2974, 119.1168
676.7795, 122.8924
677.2617, 125.4763
677.7438, 125.9197
678.2259, 126.6319
678.7080, 129.1288
679.1901, 133.5916
679.6722, 136.9057
680.1544, 138.9489
680.6365, 140.7978
681.1186, 143.6230
681.6007, 147.0310
682.0828, 149.9398
682.5649, 152.0467
683.0471, 154.4180
683.5292, 158.4259
684.0113, 162.9685
684.4934, 166.6497
684.9755, 168.8759
685.4576, 170.6207
685.9398, 172.2101
686.4219, 173.4279
686.9040, 174.0434
687.3861, 174.3467
687.8682, 173.4400
688.3503, 171.0607
688.8325, 167.4805
689.3146, 163.4368
689.7967, 158.8409
690.2788, 153.4823
690.7609, 147.2512
691.2430, 140.3790
691.7252, 132.8355
692.2073, 124.7227
692.6894, 116.8070
693.1715, 109.5203
693.6536, 102.5909
694.1357, 95.84988
694.6179, 89.29835
695.1000, 83.00394
695.5821, 76.99642
696.0642, 71.30143
696.5463, 65.85335
697.0284, 60.52051
697.5106, 55.96013
697.9927, 52.43039
698.4748, 49.05757
698.9569, 45.03580
699.4390, 40.47504
699.9211, 36.41779
700.4033, 32.95001
700.8854, 29.91055
701.3675, 27.13757
701.8496, 24.68599
702.3317, 22.69577
702.8138, 21.39471
703.2960, 20.10113
703.7781, 18.43559
704.2602, 16.60059
704.7423, 14.84423
705.2244, 13.16460
705.7065, 11.61788
706.1887, 10.17440
706.6708, 8.887680
707.1529, 7.826599
707.6350, 7.028389
708.1171, 6.199989
708.5992, 5.189331
709.0814, 4.195892
709.5635, 3.743828
710.0456, 3.707748
710.5277, 3.511322
711.0098, 2.753036
711.4919, 1.804802
711.9741, 0.8753660
712.4562, 1.5198000E-02
712.9383, 0.6329190
713.4204, 0.8716350
713.9025, 1.023773
714.3846, 1.220985
714.8668, 1.466873
715.3489, 1.640160
715.8310, 1.687431
716.3131, 1.779694
716.7952, 2.070900
717.2773, 2.528564
717.7595, 2.687340
718.2416, 2.525688
718.7237, 2.402710
719.2058, 2.750015
719.6879, 3.272766
720.1700, 3.469429
720.6522, 3.282097
721.1343, 3.000824
721.6164, 2.634369
722.0985, 2.347687
722.5806, 2.308426
723.0627, 2.744514
723.5449, 2.954086
724.0270, 2.908455
724.5091, 2.633133
724.9912, 2.049622
725.4733, 1.030632
725.9554, 0.4952550
726.4376, 0.6258770
726.9197, 0.9358440
727.4018, 0.6992800
727.8839, 8.6623996E-02
728.3660, 0.3715670
728.8481, 0.5348970
729.3303, 0.5181430
729.8124, 0.2610320
730.2945, 6.9114998E-02
730.7766, 0.2124250
731.2587, 0.2122650
731.7408, 0.1184390
732.2230, 1.185616
732.7051, 2.525452
733.1872, 3.247093
733.6693, 3.152695
734.1514, 2.963882
734.6335, 2.746353
735.1157, 2.633507
735.5978, 3.031929
736.0799, 3.897934
736.5620, 4.864143
737.0441, 5.860168
737.5262, 6.788994
738.0084, 7.519066
738.4905, 8.091415
738.9726, 8.644371
739.4547, 9.144188
739.9368, 9.726990
740.4189, 10.49721
740.9011, 11.44590
741.3832, 12.33360
741.8653, 13.26176
742.3474, 13.94093
742.8295, 14.12872
743.3116, 13.92047
743.7938, 14.05738
744.2759, 14.53967
744.7580, 15.34265
745.2401, 16.72594
745.7222, 18.28854
746.2043, 19.38426
746.6865, 20.00894
747.1686, 20.56581
747.6507, 21.00732
748.1328, 21.67645
748.6149, 22.90802
749.0970, 24.87859
749.5792, 26.59581
750.0613, 27.93222
750.5434, 29.13706
751.0255, 30.34119
751.5076, 31.52203
751.9897, 32.87221
752.4719, 34.41882
752.9540, 36.03996
753.4361, 37.65471
753.9182, 39.27995
754.4003, 40.98596
754.8824, 42.76545
755.3646, 44.63100
755.8467, 46.57104
756.3288, 48.60280
756.8109, 50.69759
757.2930, 52.92789
757.7751, 55.10747
758.2573, 56.94740
758.7394, 59.01674
759.2215, 62.03688
759.7036, 66.25464
760.1857, 69.78153
760.6678, 72.27589
761.1500, 74.51652
761.6321, 77.42275
762.1142, 80.79610
762.5963, 84.20883
763.0784, 87.53158
763.5605, 90.87112
764.0427, 94.18978
764.5248, 97.61714
765.0069, 101.3160
765.4890, 105.4260
765.9711, 109.6476
766.4532, 113.7965
766.9354, 118.1713
767.4175, 123.2759
767.8996, 129.2136
768.3817, 135.4543
768.8638, 141.9434
769.3459, 148.6283
769.8281, 155.3133
770.3102, 162.0242
770.7923, 168.7928
771.2744, 175.1760
771.7565, 182.4324
772.2386, 191.9985
772.7208, 202.9700
773.2029, 213.7818
773.6850, 223.4617
774.1671, 233.7668
774.6492, 245.0543
775.1313, 256.9949
775.6135, 268.8790
776.0956, 280.5065
776.5777, 292.9001
777.0598, 306.3674
777.5419, 320.6078
778.0240, 335.5909
778.5062, 351.2025
778.9883, 367.0914
779.4704, 383.3473
779.9525, 399.3467
780.4346, 414.2850
780.9167, 428.5443
781.3989, 443.5267
781.8810, 460.5054
782.3631, 477.1104
782.8452, 492.7945
783.3273, 507.7494
783.8094, 522.7694
784.2916, 537.9472
784.7737, 552.4017
785.2558, 566.2325
785.7379, 579.0737
786.2200, 590.5342
786.7021, 600.3943
787.1843, 607.3780
787.6664, 610.4344
788.1485, 611.1270
788.6306, 610.5587
789.1127, 608.3939
789.5948, 603.1852
790.0770, 593.9495
790.5591, 582.9879
791.0412, 570.8456
791.5233, 557.3703
792.0054, 541.5666
792.4875, 523.5333
792.9697, 504.1123
793.4518, 483.4474
793.9339, 462.0256
794.4160, 440.7142
794.8981, 419.5681
795.3802, 398.7762
795.8624, 378.1482
796.3445, 358.1750
796.8266, 339.5673
797.3087, 322.1657
797.7908, 304.3506
798.2729, 285.1964
798.7551, 267.5985
799.2372, 252.2208
799.7193, 238.8051
800.2014, 226.3877
800.6835, 214.9790
801.1656, 203.9749
801.6478, 192.8591
802.1299, 182.3021
802.6120, 173.0918
803.0941, 165.0281
803.5762, 157.2982
804.0583, 149.5073
804.5405, 142.1573
805.0226, 135.4151
805.5047, 129.2571
805.9868, 123.7912
806.4689, 119.2824
806.9510, 114.7786
807.4332, 109.8997
807.9153, 104.8462
808.3974, 100.3344
808.8795, 96.30918
809.3616, 92.43433
809.8438, 88.55315
810.3259, 84.79007
810.8080, 81.08551
811.2901, 77.58918
811.7722, 74.66639
812.2543, 73.20392
812.7365, 71.39191
813.2186, 68.47718
813.7007, 64.91949
814.1828, 62.53983
814.6649, 61.46230
815.1470, 60.49927
815.6292, 59.29617
816.1113, 57.86789
816.5934, 56.12425
817.0755, 54.15646
817.5576, 52.30058
818.0397, 50.62021
818.5219, 49.19000
819.0040, 48.28751
819.4861, 47.69157
819.9682, 46.67451
820.4503, 44.87859
820.9324, 43.21074
821.4146, 41.90164
821.8967, 40.84926
822.3788, 39.85847
822.8609, 38.93143
823.3430, 37.93645
823.8251, 36.71294
824.3073, 35.54605
824.7894, 34.75983
825.2715, 34.28842
825.7536, 33.94824
826.2357, 34.05415
826.7178, 33.83228
827.2000, 32.84014
827.6821, 31.46147
828.1642, 30.35262
828.6463, 29.45596
829.1284, 28.88935
829.6105, 28.77164
830.0927, 28.81638
830.5748, 28.49798
831.0569, 27.90811
831.5390, 27.29467
832.0211, 26.54642
832.5032, 26.04057
832.9854, 26.50272
833.4675, 27.29845
833.9496, 27.43843
834.4317, 25.66050
834.9138, 24.63925
835.3959, 24.96085
835.8781, 25.79764
836.3602, 25.76109
836.8423, 24.81927
837.3244, 24.16370
837.8065, 24.09238
838.2886, 24.16443
838.7708, 23.81941
839.2529, 23.30847
839.7350, 23.01320
840.2171, 23.10266
840.6992, 23.10419
841.1813, 22.70767
841.6635, 22.31569
842.1456, 22.38579
842.6277, 23.24838
843.1098, 23.65314
843.5919, 23.45905
844.0740, 22.86954
844.5562, 21.91167
845.0383, 20.79422
845.5204, 20.31989
846.0025, 20.73693
846.4846, 21.02211
846.9667, 20.08373
847.4489, 18.86259
847.9310, 18.29047
848.4131, 18.81652
848.8952, 18.82658
849.3773, 18.03452
849.8594, 17.19829
850.3416, 16.97504
850.8237, 17.32298
851.3058, 17.38274
851.7879, 17.11760
852.2700, 16.63875
852.7521, 15.92809
853.2343, 15.13092
853.7164, 14.33380
854.1985, 13.53452
854.6806, 12.97487
855.1627, 12.92245
855.6448, 12.98712
856.1270, 12.99744
856.6091, 12.95537
857.0912, 12.74592
857.5733, 12.31830
858.0554, 11.91603
858.5375, 11.85444
859.0197, 11.92330
859.5018, 11.51514
859.9839, 10.67345
860.4660, 9.834793
860.9481, 9.038849
861.4302, 8.533600
861.9124, 8.776543
862.3945, 9.606483
862.8766, 9.350037
863.3587, 7.363792
863.8408, 5.877823
864.3229, 5.871803
864.8051, 6.759148
865.2872, 6.805931
865.7693, 6.137657
866.2514, 5.434174
866.7335, 5.031693
867.2156, 4.686295
867.6978, 4.183395
868.1799, 3.628525
868.6620, 3.230545
869.1441, 3.161072
869.6262, 3.092865
870.1083, 3.029457
870.5905, 2.904579
871.0726, 2.522408
871.5547, 1.892281
872.0368, 1.440559
872.5189, 1.303055
873.0010, 1.270515
873.4832, 1.143845
873.9653, 0.9484790
874.4474, 0.7101060
874.9295, 0.2932740
875.4116, 7.7293001E-02
875.8937, 0.3988570
876.3759, 0.7930910
876.8580, 0.7858050
877.3401, 0.2776030
877.8222, 5.4809999E-02
878.3043, 0.1308670
878.7864, 0.1846240
879.2686, 0.5206300
879.7507, 0.9976960
880.2328, 1.369957
880.7149, 1.601242
881.1970, 1.733536
881.6791, 1.737686
882.1613, 1.685959
882.6434, 1.637955
883.1255, 1.607994
883.6076, 1.434189
884.0897, 1.019119
884.5718, 0.7706150
885.0540, 1.181274
885.5361, 1.957947
886.0182, 2.102165
886.5003, 1.671028
886.9824, 1.152679
887.4645, 0.6327130
887.9467, 0.3067780
888.4288, 0.4552540
888.9109, 1.008667
889.3930, 1.175293
889.8751, 0.7021410
890.3572, 0.3650360
890.8394, 0.5006180
891.3215, 0.8694380
891.8036, 0.6263660
892.2857, 7.4486002E-02
892.7678, 0.3870700
893.2499, 0.4284970
893.7321, 1.323349
894.2142, 1.481613
894.6963, 1.171799
895.1784, 0.9045260
895.6605, 0.6828460
896.1426, 0.6776430
896.6248, 1.081985
897.1069, 1.497566
897.5890, 1.195099
898.0711, 0.2613070
898.5532, 0.4571760
899.0353, 0.8338010
899.5175, 0.8656230
899.9996, 0.2326580
900.4817, 0.5900420
900.9638, 1.022202
901.4459, 0.8465960
901.9280, 0.6187060
902.4102, 0.3050990
902.8923, 7.7003002E-02
903.3744, 8.9729004E-02
903.8565, 0.3503720
904.3386, 0.6342770
904.8207, 0.9503780
905.3029, 0.8954770
905.7850, 0.3752440
906.2671, 1.844612
906.7492, 2.271973
907.2313, 1.668411
907.7134, 1.196449
908.1956, 1.274765
908.6777, 1.468346
909.1598, 1.694839
909.6419, 1.918724
910.1240, 1.901970
910.6061, 1.639465
911.0883, 1.491623
911.5704, 1.683327
912.0525, 1.987411
912.5346, 2.110085
913.0167, 2.119370
913.4988, 2.163139
913.9810, 2.167686
914.4631, 2.386681
914.9452, 3.144241
915.4273, 3.956085
915.9094, 3.973396
916.3915, 3.100327
916.8737, 2.773102
917.3558, 3.270081
917.8379, 3.991760
918.3200, 4.229767
918.8021, 4.263298
919.2842, 4.563629
919.7664, 5.322510
920.2485, 5.842865
920.7306, 5.664200
921.2127, 5.389519
921.6948, 5.412956
922.1769, 5.769035
922.6591, 5.768967
923.1412, 5.352913
923.6233, 5.183632
924.1054, 6.097557
924.5875, 7.326385
925.0696, 7.672539
925.5518, 7.272446
926.0339, 7.033234
926.5160, 7.375214
926.9981, 7.886734
927.4802, 8.546265
927.9623, 9.233688
928.4445, 9.457512
928.9266, 9.150940
929.4087, 9.296585
929.8908, 10.37441
930.3729, 11.65514
930.8550, 12.13200
931.3372, 12.10812
931.8193, 12.10386
932.3014, 12.23904
932.7835, 12.47610
933.2656, 12.79741
933.7477, 13.23353
934.2299, 13.86440
934.7120, 14.71786
935.1941, 15.42731
935.6762, 15.95377
936.1583, 16.49507
936.6404, 17.17803
937.1226, 17.99970
937.6047, 18.99128
938.0868, 20.15376
938.5689, 21.27550
939.0510, 22.13471
939.5331, 23.11304
940.0153, 24.41267
940.4974, 25.97018
940.9795, 27.27328
941.4616, 28.32858
941.9437, 29.83947
942.4258, 32.45371
942.9080, 35.24924
943.3901, 36.79523
943.8722, 37.69614
944.3543, 39.22107
944.8364, 42.30188
945.3185, 45.31408
945.8007, 47.84299
946.2828, 50.29993
946.7649, 53.31932
947.2470, 56.90224
947.7291, 60.58934
948.2112, 64.32815
948.6934, 67.98957
949.1755, 71.45644
949.6576, 74.84730
950.1397, 78.25565
950.6218, 81.61705
951.1039, 85.50137
951.5861, 90.18377
952.0682, 95.06106
952.5503, 99.87441
953.0324, 104.6548
953.5145, 109.6134
953.9966, 114.7419
954.4788, 119.9544
954.9609, 125.2028
955.4430, 130.6267
955.9251, 136.4468
956.4072, 142.4344
956.8893, 148.1101
957.3715, 153.0426
957.8536, 158.2813
958.3357, 164.3174
958.8178, 170.1478
959.2999, 173.7021
959.7820, 175.4984
960.2642, 177.9116
960.7463, 181.4970
961.2284, 184.8123
961.7105, 186.6172
962.1926, 187.9133
962.6747, 189.6571
963.1569, 192.1778
963.6390, 193.8982
964.1211, 194.4050
964.6032, 195.0931
965.0853, 196.9987
965.5674, 199.7083
966.0496, 202.1016
966.5317, 204.1645
967.0138, 206.0687
967.4959, 207.5430
967.9780, 209.3102
968.4601, 211.7468
968.9423, 214.6722
969.4244, 217.6555
969.9065, 220.7975
970.3886, 223.5746
970.8707, 225.8345
971.3528, 227.8943
971.8350, 230.2496
972.3171, 232.8047
972.7992, 235.4250
973.2813, 238.1614
973.7634, 240.6747
974.2455, 243.0487
974.7277, 244.9119
975.2098, 245.9462
975.6919, 246.1425
976.1740, 246.6143
976.6561, 247.3933
977.1382, 247.6178
977.6204, 246.5546
978.1025, 244.7917
978.5846, 243.3231
979.0667, 241.7686
979.5488, 238.9669
980.0309, 233.7270
980.5131, 228.2855
980.9952, 222.8927
981.4773, 217.5753
981.9594, 212.5552
982.4415, 207.7649
982.9236, 202.2395
983.4058, 195.7168
983.8879, 189.4705
984.3700, 184.7486
984.8521, 180.7355
985.3342, 176.8605
985.8163, 173.2232
986.2985, 168.4997
986.7806, 162.0578
987.2627, 155.9595
987.7448, 151.4226
988.2269, 147.9447
988.7090, 144.0566
989.1912, 139.8398
989.6733, 135.6314
990.1554, 131.5216
990.6375, 127.5283
991.1196, 123.8566
991.6017, 120.3004
992.0839, 116.5420
992.5660, 112.5251
993.0481, 108.5162
993.5302, 104.4900
994.0123, 100.6336
994.4944, 97.22565
994.9766, 94.08013
995.4587, 91.00294
995.9408, 88.00107
996.4229, 84.75340
996.9050, 80.86549
997.3871, 76.99947
997.8693, 73.50605
998.3514, 70.27982
998.8335, 66.75153
999.3156, 62.96284
999.7977, 59.41214
1000.280, 56.45367
1000.762, 53.71158
1001.244, 50.94653
1001.726, 48.13986
1002.208, 45.24243
1002.690, 42.19557
1003.173, 39.13676
1003.655, 36.04573
1004.137, 33.03242
1004.619, 30.26550
1005.101, 27.67702
1005.583, 25.25174
1006.065, 22.94225
1006.547, 20.37068
1007.029, 16.79840
1007.512, 13.34128
1007.994, 10.64662
1008.476, 8.608765
1008.958, 6.972107
1009.440, 5.798462
1009.922, 4.651398
1010.404, 3.440033
1010.886, 2.110886
1011.369, 0.5082700
1011.851, 1.246231
1012.333, 2.990784
1012.815, 4.881439
1013.297, 6.281494
1013.779, 6.951782
1014.261, 7.291473
1014.743, 7.430389
1015.225, 7.392761
1015.708, 7.873169
1016.190, 8.842850
1016.672, 9.846710
1017.154, 10.83905
1017.636, 11.52357
1018.118, 11.47203
1018.600, 10.93105
1019.082, 10.71184
1019.565, 11.01784
1020.047, 11.23930
1020.529, 11.28728
1021.011, 11.20448
1021.493, 10.96190
1021.975, 10.64264
1022.457, 10.46770
1022.939, 10.50815
1023.421, 10.38544
1023.904, 9.668716
1024.386, 9.013031
1024.868, 8.795746
1025.350, 8.945343
1025.832, 8.834152
1026.314, 8.461014
1026.796, 7.847092
1027.278, 6.981888
1027.760, 5.890152
1028.243, 4.338425
1028.725, 2.645782
1029.207, 1.376511
1029.689, 1.128906
1030.171, 0.4240880
1030.653, 0.9260410
1031.135, 2.407623
1031.617, 3.416992
1032.100, 4.153320
1032.582, 5.392532
1033.064, 7.138153
1033.546, 8.814240
1034.028, 9.805573
1034.510, 11.02060
1034.992, 13.02217
1035.474, 15.55600
1035.957, 17.73174
1036.439, 19.55479
1036.921, 21.50684
1037.403, 23.60271
1037.885, 26.29904
1038.367, 30.54843
1038.849, 35.47198
1039.331, 39.64758
1039.813, 42.45523
1040.296, 46.59361
1040.778, 52.44588
1041.260, 59.05573
1041.742, 65.83006
1042.224, 72.93427
1042.706, 80.76053
1043.188, 89.14522
1043.670, 97.96912
1044.152, 106.6562
1044.635, 116.2112
1045.117, 126.8101
1045.599, 138.5954
1046.081, 151.7382
1046.563, 166.5031
1047.045, 181.8851
1047.527, 197.8220
1048.009, 214.5160
1048.492, 231.5528
1048.974, 249.6111
1049.456, 269.7263
1049.938, 291.8829
1050.420, 314.0509
1050.902, 336.3501
1051.384, 358.6192
1051.866, 380.5281
1052.349, 402.8947
1052.831, 427.7975
1053.313, 454.4130
1053.795, 480.5804
1054.277, 505.4697
1054.759, 530.0748
1055.241, 553.6358
1055.723, 578.1519
1056.205, 605.2202
1056.688, 634.7369
1057.170, 662.6755
1057.652, 689.1402
1058.134, 715.1744
1058.616, 742.1202
1059.098, 768.4167
1059.580, 794.0381
1060.062, 817.6354
1060.544, 836.5532
1061.027, 851.1779
1061.509, 860.1512
1061.991, 863.6133
1062.473, 860.9106
1062.955, 851.2737
1063.437, 834.9916
1063.919, 811.8928
1064.401, 782.4501
1064.884, 748.8782
1065.366, 709.5841
1065.848, 669.5414
1066.330, 630.3599
1066.812, 591.9721
1067.294, 554.0686
1067.776, 517.0831
1068.258, 482.4050
1068.740, 450.6307
1069.223, 420.7313
1069.705, 391.4343
1070.187, 363.6978
1070.669, 338.3387
1071.151, 315.3456
1071.633, 293.0703
1072.115, 271.2167
1072.597, 250.8396
1073.079, 232.6182
1073.562, 215.8193
1074.044, 198.9842
1074.526, 182.7124
1075.008, 167.8126
1075.490, 155.1708
1075.972, 143.1407
1076.454, 131.3353
1076.936, 120.4933
1077.419, 111.1650
1077.901, 103.2409
1078.383, 96.20679
1078.865, 89.96161
1079.347, 84.17429
1079.829, 78.02612
1080.311, 72.96301
1080.793, 70.06644
1081.275, 68.50101
1081.758, 67.01086
1082.240, 65.53152
1082.722, 65.17557
1083.204, 66.09113
1083.686, 67.84460
1084.168, 69.79593
1084.650, 72.68307
1085.132, 77.43393
1085.615, 84.08633
1086.097, 90.93710
1086.579, 97.70499
1087.061, 105.2707
1087.543, 113.6858
1088.025, 123.1467
1088.507, 133.8906
1088.989, 145.7023
1089.471, 158.1913
1089.953, 171.2068
1090.436, 185.2171
1090.918, 200.9058
1091.400, 216.8376
1091.882, 232.3025
1092.364, 247.5425
1092.846, 263.6747
1093.328, 280.5296
1093.810, 297.9963
1094.293, 316.2290
1094.775, 334.7524
1095.257, 354.2121
1095.739, 373.4579
1096.221, 391.3213
1096.703, 407.8215
1097.185, 423.2319
1097.667, 437.6257
1098.150, 450.9152
1098.632, 463.6038
1099.114, 474.4504
1099.596, 482.3715
1100.078, 487.5793
1100.560, 490.9977
1101.042, 492.8854
1101.524, 492.6926
1102.006, 490.2910
1102.489, 485.9061
1102.971, 478.9139
1103.453, 470.4485
1103.935, 462.0774
1104.417, 453.9211
1104.899, 446.4618
1105.381, 439.4524
1105.863, 433.6252
1106.345, 429.3483
1106.828, 426.1724
1107.310, 422.5336
1107.792, 419.2562
1108.274, 419.2327
1108.756, 423.6225
1109.238, 428.9677
1109.720, 433.0512
1110.202, 438.1974
1110.685, 445.7356
1111.167, 455.4485
1111.649, 465.0280
1112.131, 474.5764
1112.613, 485.7986
1113.095, 499.9885
1113.577, 514.6339
1114.059, 527.8064
1114.542, 540.3116
1115.024, 553.1202
1115.506, 566.5150
1115.988, 579.9076
1116.470, 593.5126
1116.952, 604.9183
1117.434, 612.1663
1117.916, 616.6431
1118.398, 620.7963
1118.880, 623.2769
1119.363, 620.4814
1119.845, 610.3053
1120.327, 598.5577
1120.809, 585.7088
1121.291, 571.3336
1121.773, 554.3394
1122.255, 535.8904
1122.737, 517.8704
1123.220, 500.3528
1123.702, 482.9194
1124.184, 464.8571
1124.666, 448.0367
1125.148, 432.9658
1125.630, 419.0710
1126.112, 405.0938
1126.594, 391.5546
1127.077, 380.3214
1127.559, 371.6785
1128.041, 363.6501
1128.523, 354.8130
1129.005, 346.8168
1129.487, 340.2751
1129.969, 335.0793
1130.451, 330.8235
1130.933, 327.4974
1131.416, 324.9102
1131.898, 322.8869
1132.380, 321.9411
1132.862, 322.5836
1133.344, 324.2769
1133.826, 326.6249
1134.308, 329.5637
1134.790, 333.2020
1135.272, 337.5731
1135.755, 341.5214
1136.237, 344.4376
1136.719, 347.0509
1137.201, 350.1706
1137.683, 353.3650
1138.165, 356.0779
1138.647, 358.2815
1139.129, 359.7813
1139.612, 360.5663
1140.094, 360.8535
1140.576, 361.3044
1141.058, 360.8922
1141.540, 358.2014
1142.022, 353.6657
1142.504, 348.1646
1142.986, 342.0679
1143.469, 334.5184
1143.951, 325.3466
1144.433, 315.1132
1144.915, 303.8267
1145.397, 291.8670
1145.879, 279.8902
1146.361, 267.8009
1146.843, 255.2258
1147.325, 241.2344
1147.807, 227.7166
1148.290, 214.7392
1148.772, 202.6249
1149.254, 191.4477
1149.736, 181.4525
1150.218, 173.1694
1150.700, 166.4480
1151.182, 160.0009
1151.664, 152.0980
1152.147, 146.0780
1152.629, 143.2142
1153.111, 142.2194
1153.593, 140.5776
1154.075, 138.7694
1154.557, 138.8038
1155.039, 141.0427
1155.521, 144.1010
1156.004, 147.1929
1156.486, 151.1297
1156.968, 156.2105
1157.450, 162.0362
1157.932, 167.9304
1158.414, 174.1699
1158.896, 181.5235
1159.378, 190.2772
1159.860, 199.1579
1160.343, 207.5751
1160.825, 215.6360
1161.307, 223.4874
1161.789, 231.1064
1162.271, 238.5258
1162.753, 245.7627
1163.235, 252.5410
1163.717, 258.7735
1164.199, 264.5129
1164.682, 270.4119
1165.164, 275.2717
1165.646, 277.7618
1166.128, 277.8677
1166.610, 277.1796
1167.092, 275.7392
1167.574, 272.5771
1168.056, 266.8960
1168.539, 259.8403
1169.021, 252.7106
1169.503, 244.6725
1169.985, 234.1018
1170.467, 220.3107
1170.949, 207.9427
1171.431, 197.2393
1171.913, 186.7513
1172.396, 175.5235
1172.878, 164.2938
1173.360, 153.1532
1173.842, 142.6799
1174.324, 133.9010
1174.806, 127.4349
1175.288, 121.0732
1175.770, 114.7637
1176.252, 108.7581
1176.734, 103.0650
1177.217, 97.91290
1177.699, 94.00775
1178.181, 90.92661
1178.663, 87.57385
1179.145, 83.60019
1179.627, 79.87476
1180.109, 76.59486
1180.591, 73.07465
1181.074, 68.88489
1181.556, 64.00195
1182.038, 57.99913
1182.520, 51.11803
1183.002, 44.59290
1183.484, 38.53442
1183.966, 32.77930
1184.448, 27.35187
1184.931, 22.11787
1185.413, 16.57428
1185.895, 11.19975
1186.377, 6.877472
1186.859, 3.558655
1187.341, 0.5534970
1187.823, 2.412918
1188.305, 4.803329
1188.787, 6.409332
1189.270, 7.611710
1189.752, 8.959122
1190.234, 10.25603
1190.716, 11.15694
1191.198, 11.63741
1191.680, 12.07693
1192.162, 12.59914
1192.644, 13.01506
1193.126, 13.31145
1193.609, 13.42311
1194.091, 13.01370
1194.573, 12.41119
1195.055, 12.38792
1195.537, 13.10536
1196.019, 13.19421
1196.501, 11.96968
1196.983, 10.81531
1197.466, 10.18443
1197.948, 9.772614
1198.430, 9.054062
1198.912, 8.130051
1199.394, 7.233444
1199.876, 6.444382
1200.358, 5.371002
1200.840, 3.560577
1201.323, 2.154907
1201.805, 1.662857
1202.287, 1.683868
1202.769, 1.566803
1203.251, 1.285309
1203.733, 0.7085110
1204.215, 0.3084410
1204.697, 1.051361
1205.179, 1.233566
1205.661, 1.471848
1206.144, 2.092010
1206.626, 2.885910
1207.108, 3.426239
1207.590, 3.765808
1208.072, 4.062912
1208.554, 4.518265
1209.036, 4.343613
1209.518, 3.140656
1210.001, 1.935181
1210.483, 1.254471
1210.965, 0.9209590
1211.447, 0.6322330
1211.929, 0.3718410
1212.411, 8.5556000E-02
1212.893, 0.1491240
1213.375, 0.7595980
1213.858, 2.419388
1214.340, 3.051941
1214.822, 0.5945740
1215.304, 3.005356
1215.786, 2.571274
1216.268, 0.3601070
1216.750, 2.347733
1217.232, 2.053650
1217.714, 1.391144
1218.197, 0.5672910
1218.679, 0.6114960
1219.161, 2.431625
1219.643, 4.571030
1220.125, 6.298889
1220.607, 7.826523
1221.089, 9.641876
1221.571, 11.78888
1222.053, 14.55058
1222.536, 18.19246
1223.018, 21.78738
1223.500, 24.35767
1223.982, 26.71294
1224.464, 30.61473
1224.946, 35.47549
1225.428, 39.96609
1225.910, 43.42656
1226.393, 47.20512
1226.875, 50.78632
1227.357, 54.87099
1227.839, 60.43085
1228.321, 66.51781
1228.803, 71.44656
1229.285, 75.72668
1229.767, 80.57852
1230.250, 87.04557
1230.732, 92.58416
1231.214, 97.24256
1231.696, 100.6959
1232.178, 102.4619
1232.660, 103.0226
1233.142, 102.9174
1233.624, 102.1343
1234.106, 100.5636
1234.589, 97.88219
1235.071, 95.34251
1235.553, 92.98905
1236.035, 90.49976
1236.517, 87.34830
1236.999, 84.08469
1237.481, 81.50867
1237.963, 79.53474
1238.445, 77.70882
1238.928, 75.90554
1239.410, 74.97328
1239.892, 74.72882
1240.374, 75.17302
1240.856, 75.89362
1241.338, 77.17952
1241.820, 79.65144
1242.302, 82.99445
1242.785, 86.31394
1243.267, 89.15913
1243.749, 92.19282
1244.231, 95.59962
1244.713, 99.33681
1245.195, 103.5309
1245.677, 108.0895
1246.159, 113.2531
1246.641, 118.4378
1247.124, 122.5279
1247.606, 125.5722
1248.088, 128.2678
1248.570, 130.5556
1249.052, 131.2598
1249.534, 130.9682
1250.016, 129.3789
1250.498, 125.7432
1250.980, 121.3776
1251.463, 117.1787
1251.945, 113.2434
1252.427, 107.9810
1252.909, 101.3443
1253.391, 94.54144
1253.873, 88.40728
1254.355, 82.36373
1254.837, 76.02712
1255.320, 69.72932
1255.802, 63.82796
1256.284, 58.35529
1256.766, 53.65293
1257.248, 49.67193
1257.730, 45.82446
1258.212, 41.57701
1258.694, 37.73943
1259.177, 34.50541
1259.659, 31.75392
1260.141, 29.57471
1260.623, 27.80444
1261.105, 25.79718
1261.587, 23.61116
1262.069, 21.57227
1262.551, 19.81062
1263.033, 18.22643
1263.516, 16.76023
1263.998, 15.44856
1264.480, 14.32487
1264.962, 13.36516
1265.444, 12.57077
1265.926, 11.94554
1266.408, 11.43793
1266.890, 11.16093
1267.372, 10.74040
1267.855, 10.05765
1268.337, 9.444382
1268.819, 9.492050
1269.301, 9.580467
1269.783, 8.565170
1270.265, 6.913925
1270.747, 5.980003
1271.229, 6.133766
1271.712, 6.250038
1272.194, 6.307007
1272.676, 6.169685
1273.158, 5.543259
1273.640, 4.825638
1274.122, 4.273689
1274.604, 3.957336
1275.086, 4.067612
1275.568, 4.741241
1276.051, 4.745750
1276.533, 4.037827
1277.015, 3.339485
1277.497, 3.272530
1277.979, 3.186501
1278.461, 2.654167
1278.943, 1.868607
1279.425, 0.9022450
1279.907, 0.2354740
1280.390, 0.2339710
1280.872, 0.8036120
1281.354, 1.825195
1281.836, 1.902496
1282.318, 1.239639
1282.800, 0.5336300
1283.282, 0.0000000E+00
##END=



