##NAMES=Tsaregorodtsevite
##RRUFFID=R060373
##IDEAL CHEMISTRY=N(CH_3_)_4_Si_4_(SiAl)O_12_
##LOCALITY=Mun-Hambo, north Urals, Hanty- Manskiisky, Autonomous District, Russia
##OWNER=RRUFF
##SOURCE=Michael Scott
##DESCRIPTION=Colorless single crystals with octahedral and cubic forms
##STATUS=The identification of this mineral is confirmed by single-crystal X-ray diffraction and chemical analysis.
##URL=rruff.info/R060373
##MEASURED CHEMISTRY=N(CH_3_)_4_Si_4.00_(Si_0.97_Al_1.03_)_Î£=2_O_12_; trace amounts of Na; N and CH_3_ not measured but assumed by stoichiometry
172.9341, 0.0000000E+00
173.4163, 0.6622620
173.8984, 1.498993
174.3805, 2.741913
174.8626, 3.907471
175.3447, 3.607544
175.8268, 2.041840
176.3090, 0.8364870
176.7911, 1.817566
177.2732, 5.178284
177.7553, 6.319977
178.2374, 6.426392
178.7195, 6.179962
179.2017, 5.440491
179.6838, 3.850250
180.1659, 2.212067
180.6480, 0.6390080
181.1301, 0.5466310
181.6122, 0.7890630
182.0944, 0.4332890
182.5765, 2.135559
183.0586, 2.580292
183.5407, 1.806641
184.0228, 0.8735350
184.5049, 0.3336790
184.9871, 0.1498720
185.4692, 0.6753850
185.9513, 2.549713
186.4334, 5.103973
186.9155, 6.686615
187.3976, 7.425507
187.8798, 7.466736
188.3619, 6.347778
188.8440, 4.375366
189.3261, 2.862366
189.8082, 2.152893
190.2903, 2.192566
190.7725, 2.998749
191.2546, 4.720581
191.7367, 6.514984
192.2188, 7.460205
192.7009, 7.564148
193.1830, 7.218079
193.6652, 6.408752
194.1473, 5.202148
194.6294, 4.160126
195.1115, 3.158142
195.5936, 2.404205
196.0757, 2.375336
196.5579, 3.154907
197.0400, 3.957123
197.5221, 4.529053
198.0042, 4.856628
198.4863, 4.673370
198.9684, 3.741547
199.4506, 2.799194
199.9327, 3.341766
200.4148, 5.552887
200.8969, 7.177216
201.3790, 6.857391
201.8611, 4.407867
202.3433, 3.330444
202.8254, 4.092621
203.3075, 5.633453
203.7896, 5.917084
204.2717, 4.727142
204.7538, 3.651825
205.2360, 3.420532
205.7181, 4.124664
206.2002, 4.825653
206.6823, 5.613220
207.1644, 6.290619
207.6465, 6.439880
208.1287, 5.965088
208.6108, 5.330811
209.0929, 4.643921
209.5750, 3.816559
210.0571, 3.454865
210.5392, 3.656372
211.0214, 4.242035
211.5035, 4.967468
211.9856, 6.042847
212.4677, 6.704437
212.9498, 6.459351
213.4319, 5.017181
213.9140, 3.941101
214.3962, 3.303345
214.8783, 2.992859
215.3604, 2.731659
215.8425, 2.388062
216.3246, 2.365997
216.8067, 2.954834
217.2889, 4.395142
217.7710, 5.541382
218.2531, 6.464417
218.7352, 7.059784
219.2173, 6.954620
219.6994, 5.767029
220.1816, 4.551514
220.6637, 3.773132
221.1458, 3.561279
221.6279, 3.450989
222.1100, 3.488129
222.5921, 3.621246
223.0743, 3.650970
223.5564, 3.326263
224.0385, 3.087463
224.5206, 3.301636
225.0027, 3.981323
225.4848, 4.642761
225.9670, 5.170532
226.4491, 5.805237
226.9312, 6.993530
227.4133, 9.079956
227.8954, 10.69711
228.3775, 11.12720
228.8597, 9.302002
229.3418, 8.304840
229.8239, 8.441864
230.3060, 9.459839
230.7881, 10.75308
231.2702, 12.76425
231.7524, 14.21863
232.2345, 14.32883
232.7166, 11.91183
233.1987, 11.00674
233.6808, 12.29245
234.1629, 14.92847
234.6451, 16.64532
235.1272, 16.82162
235.6093, 16.89841
236.0914, 17.63950
236.5735, 19.75629
237.0556, 20.92642
237.5378, 20.78543
238.0199, 19.82773
238.5020, 19.24945
238.9841, 19.02393
239.4662, 19.14807
239.9483, 19.72089
240.4305, 20.85843
240.9126, 22.01639
241.3947, 23.24313
241.8768, 24.44821
242.3589, 25.42538
242.8410, 26.14291
243.3232, 26.70157
243.8053, 27.05853
244.2874, 26.89905
244.7695, 27.33981
245.2516, 28.95853
245.7337, 30.95383
246.2159, 31.41812
246.6980, 29.45218
247.1801, 27.35663
247.6622, 25.91782
248.1443, 25.06473
248.6264, 25.22440
249.1086, 27.13980
249.5907, 29.71603
250.0728, 30.54135
250.5549, 28.54236
251.0370, 26.60278
251.5191, 25.92871
252.0013, 27.08966
252.4834, 27.61563
252.9655, 27.43423
253.4476, 26.65500
253.9297, 25.39938
254.4118, 23.41821
254.8940, 21.44919
255.3761, 19.70169
255.8582, 18.12009
256.3403, 16.97556
256.8224, 16.38892
257.3046, 16.14252
257.7867, 15.96176
258.2688, 16.01968
258.7509, 15.80304
259.2330, 15.07242
259.7151, 13.70145
260.1973, 12.47931
260.6794, 11.36896
261.1615, 10.50085
261.6436, 10.19568
262.1257, 10.77405
262.6078, 11.09644
263.0900, 10.71759
263.5721, 9.528625
264.0542, 8.663239
264.5363, 8.100250
265.0184, 7.863037
265.5005, 8.079102
265.9827, 8.993408
266.4648, 9.617767
266.9469, 9.633789
267.4290, 9.030334
267.9111, 8.286957
268.3932, 7.307922
268.8754, 6.350555
269.3575, 5.731720
269.8396, 5.522095
270.3217, 5.394196
270.8038, 5.361206
271.2859, 5.394135
271.7681, 4.873932
272.2502, 3.520996
272.7323, 2.200714
273.2144, 2.085602
273.6965, 3.525452
274.1786, 4.237915
274.6608, 3.542847
275.1429, 1.668335
275.6250, 0.1381840
276.1071, 1.061523
276.5892, 1.878937
277.0714, 2.138916
277.5535, 1.786957
278.0356, 1.434357
278.5177, 1.160553
278.9998, 0.9723510
279.4819, 1.057404
279.9641, 1.550598
280.4462, 1.737091
280.9283, 0.6232300
281.4104, 1.858154
281.8925, 3.204437
282.3746, 2.834198
282.8568, 1.243805
283.3389, 0.4316410
283.8210, 2.272736
284.3031, 3.602905
284.7852, 3.711182
285.2673, 2.667694
285.7495, 1.804108
286.2316, 1.329895
286.7137, 1.090454
287.1958, 0.7926940
287.6779, 0.4380190
288.1600, 6.9489002E-02
288.6422, 1.037842
289.1243, 2.338409
289.6064, 2.924103
290.0885, 2.603027
290.5706, 1.812988
291.0527, 1.060394
291.5349, 0.3829960
292.0170, 0.1741030
292.4991, 0.9578860
292.9812, 2.432068
293.4633, 3.515167
293.9454, 4.170471
294.4276, 4.408478
294.9097, 4.002167
295.3918, 3.078888
295.8739, 2.311249
296.3560, 2.114777
296.8381, 2.296844
297.3203, 2.355621
297.8024, 2.245636
298.2845, 2.292755
298.7666, 3.212555
299.2487, 4.638916
299.7308, 5.473358
300.2130, 4.671722
300.6951, 3.222076
301.1772, 2.780853
301.6593, 3.346222
302.1414, 4.232544
302.6235, 4.963196
303.1057, 5.580566
303.5878, 6.147186
304.0699, 6.702057
304.5520, 7.218781
305.0341, 7.625671
305.5162, 7.938782
305.9984, 8.303345
306.4805, 8.929047
306.9626, 9.638458
307.4447, 10.15787
307.9268, 10.31964
308.4089, 10.39383
308.8911, 10.68924
309.3732, 11.12552
309.8553, 11.38336
310.3374, 11.04150
310.8195, 10.53174
311.3016, 10.26782
311.7838, 10.31793
312.2659, 10.66534
312.7480, 11.51041
313.2301, 12.66684
313.7122, 13.68442
314.1943, 14.45471
314.6765, 14.96414
315.1586, 15.10071
315.6407, 14.68909
316.1228, 14.48398
316.6049, 14.96017
317.0870, 15.86658
317.5692, 16.77597
318.0513, 17.62704
318.5334, 18.37451
319.0155, 18.97998
319.4976, 19.43558
319.9797, 19.81213
320.4619, 19.82315
320.9440, 19.86157
321.4261, 20.36349
321.9082, 21.90619
322.3903, 23.47092
322.8724, 24.98386
323.3546, 26.44724
323.8367, 27.09409
324.3188, 25.40778
324.8009, 23.59845
325.2830, 23.36777
325.7651, 26.98792
326.2473, 29.90796
326.7294, 30.96335
327.2115, 30.46286
327.6936, 30.85437
328.1757, 33.20041
328.6578, 35.79745
329.1400, 37.81750
329.6221, 39.06223
330.1042, 39.92273
330.5863, 39.90384
331.0684, 39.49850
331.5505, 40.17303
332.0327, 42.97424
332.5148, 45.56158
332.9969, 47.04443
333.4790, 46.94803
333.9611, 46.68900
334.4432, 45.98328
334.9254, 45.29044
335.4075, 45.61069
335.8896, 47.84354
336.3717, 49.37527
336.8538, 48.98010
337.3359, 46.30347
337.8180, 45.43869
338.3001, 47.29816
338.7823, 49.64722
339.2644, 49.73804
339.7465, 47.00467
340.2286, 44.03232
340.7107, 41.27060
341.1928, 38.69025
341.6750, 36.72153
342.1571, 35.60251
342.6392, 34.34607
343.1213, 31.84521
343.6034, 28.07581
344.0855, 24.86945
344.5677, 22.57196
345.0498, 20.96555
345.5319, 19.81934
346.0140, 19.17053
346.4961, 18.24109
346.9782, 16.18826
347.4604, 13.27731
347.9425, 10.87012
348.4246, 8.985352
348.9067, 7.863739
349.3888, 8.129211
349.8709, 9.614136
350.3531, 11.33469
350.8352, 12.87888
351.3173, 14.26105
351.7994, 15.58130
352.2815, 16.83865
352.7636, 17.95483
353.2458, 18.23801
353.7279, 18.32040
354.2100, 19.59152
354.6921, 23.40988
355.1742, 28.08633
355.6563, 32.09164
356.1385, 35.41647
356.6206, 38.20343
357.1027, 39.58841
357.5848, 40.82147
358.0669, 43.44495
358.5490, 48.31873
359.0312, 53.96912
359.5133, 59.61301
359.9954, 65.32468
360.4775, 71.40530
360.9596, 77.19266
361.4417, 83.91232
361.9239, 92.48239
362.4060, 103.2021
362.8881, 115.2876
363.3702, 128.6755
363.8523, 143.1955
364.3344, 158.5871
364.8166, 175.2482
365.2987, 192.4860
365.7808, 209.7579
366.2629, 227.1979
366.7450, 244.7528
367.2271, 264.6874
367.7093, 283.6345
368.1914, 298.6369
368.6735, 309.3164
369.1556, 316.2290
369.6377, 319.1742
370.1198, 318.3148
370.6020, 314.0986
371.0841, 305.3531
371.5662, 294.2996
372.0483, 282.0616
372.5304, 267.5644
373.0125, 253.7875
373.4947, 241.5844
373.9768, 229.9856
374.4589, 216.3857
374.9410, 199.9138
375.4231, 183.1438
375.9052, 166.7853
376.3874, 150.7410
376.8695, 135.3662
377.3516, 120.3251
377.8337, 106.2620
378.3158, 93.61826
378.7979, 82.42291
379.2801, 72.13654
379.7622, 62.51077
380.2443, 53.64841
380.7264, 45.56903
381.2085, 38.29919
381.6906, 31.90881
382.1728, 26.55884
382.6549, 22.15234
383.1370, 18.41623
383.6191, 15.29269
384.1012, 12.76050
384.5833, 10.86432
385.0655, 9.554840
385.5476, 8.453186
386.0297, 7.525360
386.5118, 6.596008
386.9939, 5.106934
387.4760, 2.897125
387.9582, 1.015137
388.4403, 1.036407
388.9224, 2.091156
389.4045, 2.375946
389.8866, 0.1992190
390.3687, 2.408691
390.8509, 3.747986
391.3330, 3.866333
391.8151, 3.492798
392.2972, 2.417236
392.7793, 1.350555
393.2614, 1.020966
393.7436, 2.137939
394.2257, 3.279358
394.7078, 3.979858
395.1899, 4.258057
395.6720, 4.162842
396.1541, 3.439514
396.6363, 2.556458
397.1184, 1.741211
397.6005, 1.071136
398.0826, 0.2895510
398.5647, 0.9809270
399.0468, 2.272217
399.5290, 3.017090
400.0111, 2.238159
400.4932, 1.932953
400.9753, 2.653137
401.4574, 4.397461
401.9395, 5.701050
402.4217, 6.252594
402.9038, 6.696991
403.3859, 7.517670
403.8680, 9.050079
404.3501, 10.10611
404.8322, 10.36072
405.3144, 10.19675
405.7965, 10.70074
406.2786, 12.08728
406.7607, 13.42770
407.2428, 14.02359
407.7249, 13.82089
408.2071, 15.05670
408.6892, 18.04504
409.1713, 21.55432
409.6534, 24.04822
410.1355, 25.55927
410.6176, 26.99399
411.0998, 28.71341
411.5819, 30.48361
412.0640, 31.45844
412.5461, 31.67471
413.0282, 32.29187
413.5103, 34.53070
413.9925, 37.75497
414.4746, 40.69409
414.9567, 43.12985
415.4388, 45.28653
415.9209, 46.87668
416.4030, 48.34161
416.8852, 50.82898
417.3673, 55.84805
417.8494, 61.47867
418.3315, 66.00668
418.8136, 69.27875
419.2957, 72.81329
419.7779, 77.14240
420.2600, 82.25980
420.7421, 88.08606
421.2242, 95.12073
421.7063, 102.3778
422.1884, 109.4199
422.6706, 116.4214
423.1527, 124.3153
423.6348, 133.6387
424.1169, 143.5446
424.5990, 153.6301
425.0811, 163.2292
425.5633, 174.3687
426.0454, 187.6477
426.5275, 202.2122
427.0096, 217.0587
427.4917, 230.5285
427.9738, 246.7029
428.4560, 266.7134
428.9381, 290.5991
429.4202, 315.2557
429.9023, 340.0429
430.3844, 366.1929
430.8665, 394.2219
431.3487, 424.1508
431.8308, 455.7512
432.3129, 488.7150
432.7950, 523.6505
433.2771, 561.9774
433.7592, 603.4958
434.2414, 645.0145
434.7235, 685.8430
435.2056, 725.5065
435.6877, 762.7411
436.1698, 797.5590
436.6519, 828.2368
437.1341, 853.6365
437.6162, 873.1035
438.0983, 885.6713
438.5804, 891.2961
439.0625, 889.5721
439.5446, 879.4170
440.0268, 861.3522
440.5089, 837.2261
440.9910, 804.8221
441.4731, 768.8361
441.9552, 732.3422
442.4373, 695.7952
442.9195, 660.4262
443.4016, 625.8521
443.8837, 593.2079
444.3658, 563.8789
444.8479, 538.8388
445.3300, 516.6256
445.8122, 496.3681
446.2943, 478.3538
446.7764, 463.3299
447.2585, 453.0631
447.7406, 444.5534
448.2227, 436.2002
448.7049, 427.3830
449.1870, 420.1489
449.6691, 414.9592
450.1512, 411.2078
450.6333, 408.2332
451.1154, 406.8186
451.5976, 404.2909
452.0797, 399.5176
452.5618, 392.6533
453.0439, 387.2353
453.5260, 383.7987
454.0081, 380.6688
454.4903, 376.7186
454.9724, 371.9516
455.4545, 366.0911
455.9366, 358.9822
456.4187, 351.1931
456.9008, 343.7682
457.3830, 336.5641
457.8651, 329.4036
458.3472, 321.8608
458.8293, 314.3794
459.3114, 307.5615
459.7935, 301.4183
460.2757, 295.3336
460.7578, 288.2349
461.2399, 281.3841
461.7220, 276.6884
462.2041, 275.6717
462.6862, 275.0716
463.1684, 273.2920
463.6505, 270.3358
464.1326, 266.2571
464.6147, 260.5956
465.0968, 254.0149
465.5789, 247.0757
466.0611, 239.9539
466.5432, 231.7870
467.0253, 222.7113
467.5074, 212.3415
467.9895, 200.4276
468.4716, 184.9175
468.9538, 170.2704
469.4359, 157.2198
469.9180, 145.3299
470.4001, 133.0614
470.8822, 120.0369
471.3643, 107.4595
471.8465, 95.56958
472.3286, 84.23816
472.8107, 75.04398
473.2928, 68.38376
473.7749, 63.14093
474.2570, 58.49072
474.7392, 54.44199
475.2213, 50.39886
475.7034, 46.11404
476.1855, 41.85794
476.6676, 38.15424
477.1497, 34.99429
477.6319, 32.44705
478.1140, 31.12839
478.5961, 30.23071
479.0782, 28.01053
479.5603, 24.22003
480.0424, 20.97812
480.5246, 20.79855
481.0067, 22.01483
481.4888, 22.26898
481.9709, 19.95377
482.4530, 17.50681
482.9352, 16.22977
483.4173, 15.84207
483.8994, 15.45816
484.3815, 14.91232
484.8636, 14.21494
485.3457, 13.21262
485.8279, 11.57480
486.3100, 10.69061
486.7921, 11.42157
487.2742, 12.57925
487.7563, 13.14896
488.2384, 13.10236
488.7206, 12.46265
489.2027, 10.78357
489.6848, 8.537842
490.1669, 7.697388
490.6490, 8.770111
491.1311, 9.738953
491.6133, 9.507568
492.0954, 8.104187
492.5775, 7.081818
493.0596, 6.490204
493.5417, 6.044983
494.0238, 5.416992
494.5060, 4.664978
494.9881, 4.087433
495.4702, 3.815643
495.9523, 3.671295
496.4344, 3.319061
496.9165, 2.857208
497.3987, 2.643799
497.8808, 3.210663
498.3629, 3.894806
498.8450, 4.017029
499.3271, 3.506165
499.8092, 2.869171
500.2914, 2.332611
500.7735, 1.812866
501.2556, 1.203033
501.7377, 5.5663999E-02
502.2198, 0.6683350
502.7019, 0.5636290
503.1841, 0.1223450
503.6662, 0.7137760
504.1483, 1.505096
504.6304, 1.824738
505.1125, 1.308441
505.5946, 0.1438900
506.0768, 1.068542
506.5589, 1.236572
507.0410, 1.195465
507.5231, 1.372498
508.0052, 1.786987
508.4873, 2.341461
508.9695, 3.174622
509.4516, 3.886353
509.9337, 3.473846
510.4158, 2.004822
510.8979, 0.7619320
511.3800, 0.4769590
511.8622, 0.7452700
512.3443, 0.5913390
512.8264, 4.4128001E-02
513.3085, 0.4096680
513.7906, 0.2563480
514.2728, 0.1594850
514.7549, 0.3356930
515.2370, 5.4565001E-02
515.7191, 9.9303998E-02
516.2012, 0.7008360
516.6833, 1.763153
517.1655, 2.041779
517.6476, 0.1063840
518.1297, 1.588959
518.6118, 2.054535
519.0939, 1.380646
519.5760, 0.8057250
520.0582, 0.6278080
520.5403, 0.4469600
521.0224, 2.7404999E-02
521.5045, 0.9319460
521.9866, 1.204987
522.4688, 0.4378660
522.9509, 0.6199950
523.4330, 0.9294130
523.9151, 0.2777400
524.3972, 9.5337003E-02
524.8793, 0.8778380
525.3615, 2.157440
525.8436, 2.613190
526.3257, 2.257843
526.8078, 1.934723
527.2899, 2.403107
527.7720, 3.214722
528.2542, 3.210785
528.7363, 2.322235
529.2184, 1.387177
529.7005, 1.096069
530.1826, 1.207306
530.6647, 1.435730
531.1469, 1.881958
531.6290, 2.127411
532.1111, 1.635651
532.5932, 0.7915650
533.0753, 0.3816220
533.5574, 0.8019100
534.0396, 1.522247
534.5217, 2.524292
535.0038, 3.822571
535.4859, 4.744812
535.9680, 5.439148
536.4501, 5.585419
536.9323, 4.814941
537.4144, 2.376038
537.8965, 1.165192
538.3786, 1.518219
538.8607, 2.723602
539.3428, 3.939301
539.8250, 5.223145
540.3071, 5.873352
540.7892, 5.603760
541.2713, 4.649811
541.7534, 3.310089
542.2355, 1.652374
542.7177, 0.3812870
543.1998, 0.1889340
543.6819, 0.5666500
544.1640, 0.7253110
544.6461, 0.5946040
545.1282, 0.4794010
545.6104, 0.1211550
546.0925, 8.7860003E-02
546.5746, 1.104156
547.0567, 4.636963
547.5388, 7.465668
548.0209, 8.308655
548.5031, 7.669342
548.9852, 6.685089
549.4673, 4.411957
549.9494, 2.996460
550.4315, 3.278503
550.9136, 5.248352
551.3958, 6.642120
551.8779, 7.416992
552.3600, 7.688049
552.8421, 7.446350
553.3242, 6.640625
553.8063, 5.627960
554.2885, 4.179260
554.7706, 3.196991
555.2527, 4.526733
555.7348, 7.718292
556.2169, 9.899841
556.6990, 9.865234
557.1812, 8.822296
557.6633, 8.199493
558.1454, 7.975983
558.6275, 8.074554
559.1096, 8.757172
559.5917, 9.529144
560.0739, 9.876617
560.5560, 9.805084
561.0381, 9.922760
561.5202, 10.84222
562.0023, 11.75778
562.4844, 12.05246
562.9666, 11.03784
563.4487, 10.27304
563.9308, 9.721252
564.4129, 9.504547
564.8950, 9.851624
565.3771, 11.11728
565.8593, 12.05435
566.3414, 12.28598
566.8235, 11.95712
567.3056, 11.81668
567.7877, 11.94763
568.2698, 12.29599
568.7520, 12.92484
569.2341, 13.65460
569.7162, 14.00394
570.1983, 13.97635
570.6804, 13.75116
571.1625, 13.62274
571.6447, 13.31519
572.1268, 12.22144
572.6089, 9.573700
573.0910, 7.541351
573.5731, 7.815430
574.0552, 9.515442
574.5374, 11.19672
575.0195, 13.34341
575.5016, 14.67709
575.9837, 13.96487
576.4658, 11.41876
576.9479, 10.29321
577.4301, 11.78485
577.9122, 13.36514
578.3943, 13.89838
578.8764, 13.12448
579.3585, 12.50821
579.8406, 11.98612
580.3228, 11.97064
580.8049, 13.16464
581.2870, 15.42130
581.7691, 17.04596
582.2512, 17.74020
582.7333, 17.76746
583.2155, 16.97726
583.6975, 15.68484
584.1796, 14.91846
584.6617, 15.66342
585.1439, 16.80099
585.6260, 17.22568
586.1081, 17.08896
586.5902, 17.17984
587.0723, 18.07556
587.5544, 19.12527
588.0366, 20.14893
588.5187, 21.31897
589.0008, 21.58267
589.4829, 19.71719
589.9650, 17.62793
590.4471, 16.78195
590.9293, 17.84708
591.4114, 18.67593
591.8935, 19.10593
592.3756, 19.28540
592.8577, 19.51923
593.3398, 19.82159
593.8220, 19.80807
594.3041, 19.14334
594.7862, 18.24103
595.2683, 18.25900
595.7504, 19.04492
596.2325, 19.62115
596.7147, 19.07828
597.1968, 18.12592
597.6789, 17.55045
598.1610, 17.41458
598.6431, 17.51355
599.1252, 17.90921
599.6074, 18.38858
600.0895, 18.78265
600.5716, 19.18048
601.0537, 19.26791
601.5358, 18.69150
602.0179, 17.93362
602.5001, 17.69183
602.9822, 18.11383
603.4643, 18.56354
603.9464, 19.11447
604.4285, 19.65396
604.9106, 19.43198
605.3928, 18.27835
605.8749, 17.41663
606.3570, 17.82605
606.8391, 18.97122
607.3212, 19.00616
607.8033, 17.97833
608.2855, 16.88461
608.7676, 16.35709
609.2497, 16.10843
609.7318, 16.09763
610.2139, 16.47141
610.6960, 16.78906
611.1782, 16.76929
611.6603, 16.48105
612.1424, 16.07715
612.6245, 15.35989
613.1066, 14.86746
613.5887, 14.65637
614.0709, 14.70844
614.5530, 15.12277
615.0351, 16.41702
615.5172, 16.91888
615.9993, 15.86435
616.4814, 13.63287
616.9636, 12.36627
617.4457, 12.13882
617.9278, 12.26019
618.4099, 12.67654
618.8920, 13.08249
619.3741, 12.41092
619.8563, 10.51575
620.3384, 8.763702
620.8205, 8.570251
621.3026, 9.213806
621.7847, 9.731232
622.2668, 9.840729
622.7490, 9.805145
623.2311, 9.842377
623.7132, 9.858398
624.1953, 9.693176
624.6774, 8.767212
625.1595, 8.316498
625.6417, 8.955719
626.1238, 10.10580
626.6059, 9.889923
627.0880, 7.670532
627.5701, 6.039642
628.0522, 6.135742
628.5344, 7.615845
629.0165, 8.590851
629.4986, 8.972778
629.9807, 9.053223
630.4628, 9.085052
630.9449, 8.895233
631.4271, 7.859283
631.9092, 5.874115
632.3913, 4.370789
632.8734, 5.075195
633.3555, 6.466034
633.8376, 6.918304
634.3198, 5.547485
634.8019, 4.340790
635.2840, 3.476105
635.7661, 3.067841
636.2482, 3.356720
636.7303, 5.100891
637.2125, 6.311768
637.6946, 6.616058
638.1767, 6.215790
638.6588, 5.520386
639.1409, 4.489899
639.6230, 3.408051
640.1052, 2.187805
640.5873, 1.065826
641.0694, 0.9304200
641.5515, 1.712891
642.0336, 2.593048
642.5157, 3.126648
642.9979, 3.399719
643.4800, 3.425873
643.9621, 3.200165
644.4442, 3.031586
644.9263, 3.102112
645.4084, 3.275452
645.8906, 3.445953
646.3727, 3.623901
646.8548, 3.719940
647.3369, 3.478668
647.8190, 3.307007
648.3011, 3.801117
648.7833, 5.306519
649.2654, 6.282440
649.7475, 6.411469
650.2296, 5.991608
650.7117, 5.600403
651.1938, 5.229431
651.6760, 4.837982
652.1581, 4.462402
652.6402, 4.012573
653.1223, 3.165100
653.6044, 2.069977
654.0865, 1.304230
654.5687, 1.573853
655.0508, 1.997833
655.5329, 1.951019
656.0150, 1.373291
656.4971, 0.9261470
656.9792, 0.6716920
657.4614, 0.6696170
657.9435, 1.081696
658.4256, 2.301575
658.9077, 2.412201
659.3898, 0.9223020
659.8719, 0.8207400
660.3541, 1.327515
660.8362, 0.6397400
661.3183, 8.7646000E-02
661.8004, 7.7637002E-02
662.2825, 0.2200620
662.7646, 1.250763
663.2468, 2.634766
663.7289, 3.009125
664.2110, 1.208069
664.6931, 0.8988950
665.1752, 2.363251
665.6573, 3.123291
666.1395, 3.075653
666.6216, 0.9909360
667.1037, 0.6862180
667.5858, 0.8096310
668.0679, 0.3324580
668.5500, 0.7384340
669.0322, 0.1125790
669.5143, 0.6658330
669.9964, 1.301941
670.4785, 1.781342
670.9606, 1.849152
671.4427, 1.473022
671.9249, 0.9602660
672.4070, 0.4066470
672.8891, 8.1298999E-02
673.3712, 0.2998050
673.8533, 0.2376400
674.3354, 0.1765440
674.8176, 1.807098
675.2997, 3.430145
675.7818, 3.608643
676.2639, 0.9089360
676.7460, 1.119995
677.2281, 1.034027
677.7103, 0.1013790
678.1924, 0.1002200
678.6745, 0.9748230
679.1566, 1.545258
679.6387, 1.203064
680.1208, 0.3966060
680.6030, 0.1503300
681.0851, 0.4667360
681.5672, 0.7046200
682.0493, 0.6644290
682.5314, 0.3853150
683.0135, 0.2952880
683.4957, 1.222412
683.9778, 1.762512
684.4599, 1.328552
684.9420, 0.5864560
685.4241, 0.2843630
685.9063, 1.194458
686.3884, 1.383820
686.8705, 0.4880070
687.3526, 2.088348
687.8347, 2.239288
688.3168, 0.6470640
688.7990, 0.2795410
689.2811, 0.3948970
689.7632, 0.1872860
690.2453, 0.1253660
690.7274, 0.5077510
691.2095, 0.2740170
691.6917, 0.7174070
692.1738, 1.599731
692.6559, 1.119659
693.1380, 1.6571000E-02
693.6201, 0.4758910
694.1022, 0.4318240
694.5844, 0.9718630
695.0665, 0.6204830
695.5486, 2.883484
696.0307, 3.948975
696.5128, 1.794250
696.9949, 0.4996340
697.4771, 0.9233700
697.9592, 2.212921
698.4413, 2.605072
698.9234, 1.841583
699.4055, 1.282898
699.8876, 1.326965
700.3698, 1.751587
700.8519, 2.065643
701.3340, 2.269775
701.8161, 2.343018
702.2982, 2.079437
702.7803, 1.818573
703.2625, 1.930878
703.7446, 2.386536
704.2267, 2.998596
704.7088, 4.025208
705.1909, 4.900269
705.6730, 5.324799
706.1552, 5.257751
706.6373, 4.937256
707.1194, 4.067444
707.6015, 3.359802
708.0836, 3.298065
708.5657, 3.922638
709.0479, 4.176056
709.5300, 3.986603
710.0121, 3.816895
710.4942, 4.246307
710.9763, 4.984253
711.4584, 5.346619
711.9406, 5.214783
712.4227, 4.917114
712.9048, 4.392822
713.3869, 3.971313
713.8690, 4.029602
714.3511, 4.950043
714.8333, 5.821533
715.3154, 6.605988
715.7975, 7.208160
716.2796, 7.520264
716.7617, 7.525452
717.2438, 7.290558
717.7260, 6.749207
718.2081, 5.976532
718.6902, 4.761810
719.1723, 3.249084
719.6544, 2.743713
720.1365, 4.054504
720.6187, 5.927551
721.1008, 6.674774
721.5829, 6.808044
722.0650, 7.563660
722.5471, 9.830963
723.0292, 12.30096
723.5114, 14.59677
723.9935, 16.71594
724.4756, 18.62836
724.9577, 19.86996
725.4398, 21.38098
725.9219, 23.38477
726.4041, 25.86502
726.8862, 28.83484
727.3683, 32.36862
727.8504, 35.76608
728.3325, 38.41254
728.8146, 40.77704
729.2968, 43.63333
729.7789, 47.01245
730.2610, 51.10358
730.7431, 56.33884
731.2252, 62.08197
731.7073, 67.81961
732.1895, 73.47763
732.6716, 79.72400
733.1537, 88.13730
733.6358, 95.78650
734.1179, 101.0197
734.6000, 103.1925
735.0822, 106.3749
735.5643, 111.0331
736.0464, 115.3309
736.5285, 117.3474
737.0106, 117.5783
737.4927, 118.0206
737.9749, 118.9880
738.4570, 119.2847
738.9391, 117.3645
739.4212, 114.4340
739.9033, 111.9508
740.3854, 110.6333
740.8676, 108.8212
741.3497, 105.2537
741.8318, 101.4079
742.3139, 98.72806
742.7960, 97.48734
743.2781, 96.74332
743.7603, 96.32605
744.2424, 96.49561
744.7245, 97.85233
745.2066, 100.1961
745.6887, 102.5940
746.1708, 104.7783
746.6530, 107.0552
747.1351, 109.7365
747.6172, 112.7958
748.0993, 116.1584
748.5814, 119.8100
749.0635, 123.7330
749.5457, 127.3044
750.0278, 131.2742
750.5099, 137.1434
750.9920, 145.2388
751.4741, 154.6918
751.9562, 165.0996
752.4384, 176.8890
752.9205, 190.8704
753.4026, 207.0524
753.8847, 225.1803
754.3668, 244.6982
754.8489, 266.4503
755.3311, 291.1622
755.8132, 319.1797
756.2953, 350.7155
756.7774, 385.2617
757.2595, 424.2834
757.7416, 467.7017
758.2238, 515.7084
758.7059, 573.2818
759.1880, 640.1206
759.6701, 715.5353
760.1522, 799.4999
760.6343, 891.8861
761.1165, 996.4470
761.5986, 1112.846
762.0807, 1240.512
762.5628, 1383.165
763.0449, 1535.103
763.5270, 1693.244
764.0092, 1853.735
764.4913, 2000.499
764.9734, 2140.299
765.4555, 2248.626
765.9376, 2314.129
766.4197, 2336.666
766.9019, 2302.412
767.3840, 2203.245
767.8661, 2062.118
768.3482, 1881.251
768.8303, 1660.974
769.3124, 1442.149
769.7946, 1225.526
770.2767, 1023.176
770.7588, 840.3932
771.2409, 679.4561
771.7230, 545.9852
772.2051, 439.7931
772.6873, 353.3430
773.1694, 287.3971
773.6515, 235.7876
774.1336, 195.2209
774.6157, 166.6937
775.0978, 142.3884
775.5800, 122.5565
776.0621, 105.8964
776.5442, 91.79257
777.0263, 80.22299
777.5084, 71.22308
777.9905, 64.87460
778.4727, 59.80029
778.9548, 55.22006
779.4369, 50.97543
779.9190, 46.75232
780.4011, 42.55060
780.8832, 38.55972
781.3654, 34.99307
781.8475, 31.68689
782.3296, 28.44159
782.8117, 25.14352
783.2938, 22.48135
783.7759, 20.69479
784.2581, 19.22568
784.7402, 17.63535
785.2223, 15.93524
785.7044, 14.55026
786.1865, 13.60077
786.6686, 12.81104
787.1508, 11.79941
787.6329, 10.78827
788.1150, 10.24750
788.5971, 10.34589
789.0792, 10.28128
789.5613, 9.478088
790.0435, 8.432312
790.5256, 7.528717
791.0077, 6.773865
791.4898, 6.336823
791.9719, 6.415894
792.4540, 6.449707
792.9362, 5.712250
793.4183, 4.291138
793.9004, 3.617981
794.3825, 3.908051
794.8646, 4.252747
795.3467, 3.448212
795.8289, 2.345520
796.3110, 2.151886
796.7931, 3.206512
797.2752, 4.281708
797.7573, 5.434937
798.2394, 6.118958
798.7216, 5.879303
799.2037, 4.016815
799.6858, 3.177887
800.1679, 3.678986
800.6500, 4.342255
801.1321, 3.603394
801.6143, 1.984680
802.0964, 1.810638
802.5785, 3.512238
803.0606, 5.407135
803.5427, 6.176086
804.0248, 6.313599
804.5070, 6.271423
804.9891, 6.072632
805.4712, 5.911041
805.9533, 5.823456
806.4354, 5.774963
806.9175, 5.754883
807.3997, 5.798035
807.8818, 5.645508
808.3639, 5.178284
808.8460, 4.960388
809.3281, 6.042633
809.8102, 7.790405
810.2924, 8.399689
810.7745, 7.516632
811.2566, 6.585236
811.7387, 6.430542
812.2208, 6.813446
812.7029, 7.625092
813.1851, 9.189880
813.6672, 10.22247
814.1493, 10.57465
814.6314, 10.49744
815.1135, 10.17883
815.5956, 9.518829
816.0778, 8.965240
816.5599, 8.534729
817.0420, 8.316101
817.5241, 8.568146
818.0062, 8.984344
818.4883, 9.157196
818.9705, 8.967255
819.4526, 8.680450
819.9347, 8.054932
820.4168, 7.627136
820.8989, 7.993591
821.3810, 9.548309
821.8632, 9.881927
822.3453, 8.619873
822.8274, 6.996429
823.3095, 6.085358
823.7916, 5.715851
824.2737, 4.897430
824.7559, 3.574341
825.2380, 2.456848
825.7201, 2.178070
826.2022, 2.364319
826.6843, 2.843719
827.1664, 3.690979
827.6486, 4.054169
828.1307, 2.877686
828.6128, 1.942719
829.0949, 2.352478
829.5770, 4.258850
830.0591, 5.201202
830.5413, 5.081512
831.0234, 4.552124
831.5055, 3.730438
831.9876, 2.958954
832.4697, 3.263428
832.9518, 4.560486
833.4340, 5.275818
833.9161, 3.452667
834.3982, 1.600739
834.8803, 1.622284
835.3624, 3.805084
835.8445, 4.757599
836.3267, 3.968506
836.8088, 2.945831
837.2909, 2.409363
837.7730, 2.264038
838.2551, 1.824860
838.7372, 1.130280
839.2194, 0.7458190
839.7015, 1.459076
840.1836, 2.358673
840.6657, 2.450256
841.1478, 1.848694
841.6299, 1.381744
842.1121, 1.754333
842.5942, 1.790222
843.0763, 0.8077090
843.5584, 0.8816530
844.0405, 1.287354
844.5226, 0.1915890
845.0048, 0.5295720
845.4869, 0.3501590
845.9690, 1.793854
846.4511, 1.500641
846.9332, 3.1493999E-02
847.4153, 1.174744
847.8975, 0.9118960
848.3796, 0.2970280
848.8617, 0.3979190
849.3438, 1.051208
849.8259, 1.309509
850.3080, 1.037994
850.7902, 0.5869450
851.2723, 0.1876830
851.7544, 0.8582150
852.2365, 0.1580200
852.7186, 1.658691
853.2007, 3.155548
853.6829, 3.926025
854.1650, 3.977936
854.6471, 2.663208
855.1292, 0.7907100
855.6113, 0.2808230
856.0934, 0.5671690
856.5756, 1.307373
857.0577, 1.908417
857.5398, 2.141846
858.0219, 1.366180
858.5040, 0.5278320
858.9861, 1.233795
859.4683, 0.1074830
859.9504, 1.329865
860.4325, 0.9692690
860.9146, 0.3284300
861.3967, 1.066803
861.8788, 0.6494750
862.3610, 0.2660220
862.8431, 0.1484990
863.3252, 0.4142760
863.8073, 1.216278
864.2894, 2.926331
864.7715, 4.102661
865.2537, 4.760101
865.7358, 4.787994
866.2179, 3.556946
866.7000, 1.664215
867.1821, 0.6936340
867.6642, 0.8117370
868.1464, 1.648987
868.6285, 3.906525
869.1106, 6.112305
869.5927, 7.173645
870.0748, 6.829529
870.5569, 5.912781
871.0391, 4.217285
871.5212, 2.331116
872.0033, 0.2955630
872.4854, 1.728271
872.9675, 2.196747
873.4496, 1.207520
873.9318, 9.2560001E-02
874.4139, 0.6261290
874.8960, 0.7632140
875.3781, 0.2330020
875.8602, 2.173981
876.3423, 3.536438
876.8245, 3.762543
877.3066, 3.570343
877.7887, 3.221710
878.2708, 2.574982
878.7529, 0.4776610
879.2350, 3.073975
879.7172, 5.111969
880.1993, 3.119141
880.6814, 0.3440860
881.1635, 1.894073
881.6456, 5.964050
882.1277, 8.337280
882.6099, 6.218323
883.0920, 3.643860
883.5741, 1.169525
884.0562, 0.8769530
884.5383, 1.973724
885.0204, 2.038727
885.5026, 1.572327
885.9847, 0.5067750
886.4668, 0.5954900
886.9489, 0.7180480
887.4310, 0.3505860
887.9131, 0.5829160
888.3953, 1.987640
888.8774, 3.132477
889.3595, 2.918304
889.8416, 2.435272
890.3237, 2.815308
890.8058, 4.655762
891.2880, 5.556854
891.7701, 5.326294
892.2522, 4.717072
892.7343, 3.860382
893.2164, 3.244629
893.6985, 4.677917
894.1807, 8.257172
894.6628, 11.39886
895.1449, 12.55786
895.6270, 12.58109
896.1091, 11.61710
896.5912, 9.584167
897.0734, 8.612671
897.5555, 8.888000
898.0376, 9.928680
898.5197, 11.91165
899.0018, 14.35495
899.4839, 15.20007
899.9661, 14.72821
900.4482, 14.51297
900.9303, 15.99725
901.4124, 17.38815
901.8945, 17.37488
902.3766, 16.49475
902.8588, 16.28555
903.3409, 17.37521
903.8230, 17.91556
904.3051, 17.53198
904.7872, 16.82532
905.2693, 16.73288
905.7515, 17.15530
906.2336, 17.85599
906.7157, 18.87799
907.1978, 19.80014
907.6799, 20.54028
908.1620, 20.90729
908.6442, 20.60571
909.1263, 18.86105
909.6084, 17.73663
910.0905, 17.33591
910.5726, 17.27524
911.0547, 17.39148
911.5369, 17.71112
912.0190, 18.09311
912.5011, 18.62332
912.9832, 19.12018
913.4653, 18.70743
913.9474, 18.44910
914.4296, 20.02106
914.9117, 23.69077
915.3938, 25.70245
915.8759, 24.95825
916.3580, 23.43137
916.8401, 21.41251
917.3223, 19.07288
917.8044, 17.55615
918.2865, 16.97354
918.7686, 17.26010
919.2507, 19.07654
919.7328, 20.96936
920.2150, 21.11710
920.6971, 20.23322
921.1792, 20.10303
921.6613, 21.93051
922.1434, 23.62363
922.6255, 25.15039
923.1077, 26.18039
923.5898, 25.67023
924.0719, 23.76263
924.5540, 23.07224
925.0361, 24.32416
925.5182, 26.05811
926.0004, 26.82068
926.4825, 27.20984
926.9646, 28.02795
927.4467, 29.72400
927.9288, 30.93100
928.4109, 31.01758
928.8931, 31.20782
929.3752, 32.53775
929.8573, 34.96722
930.3394, 36.52295
930.8215, 37.26688
931.3036, 37.73737
931.7858, 38.21219
932.2679, 38.55133
932.7500, 38.56128
933.2321, 38.29752
933.7142, 38.14737
934.1964, 38.70245
934.6785, 38.80682
935.1606, 37.81018
935.6427, 36.39410
936.1248, 36.76169
936.6069, 38.87381
937.0891, 41.20651
937.5712, 43.61902
938.0533, 45.43976
938.5354, 45.19980
939.0175, 44.22321
939.4996, 44.44958
939.9818, 46.76553
940.4639, 49.82361
940.9460, 53.78329
941.4281, 58.05597
941.9102, 61.82816
942.3923, 65.18420
942.8745, 69.10370
943.3566, 73.70819
943.8387, 79.13330
944.3208, 84.91147
944.8029, 91.82480
945.2850, 100.8011
945.7672, 111.9278
946.2493, 123.7746
946.7314, 136.1561
947.2135, 149.1729
947.6956, 162.5309
948.1777, 176.7921
948.6599, 193.3206
949.1420, 212.0109
949.6241, 231.8919
950.1062, 251.4941
950.5883, 273.3477
951.0704, 299.8749
951.5526, 329.8432
952.0347, 360.5003
952.5168, 390.6906
952.9989, 423.9261
953.4810, 461.4182
953.9631, 500.1326
954.4453, 536.0108
954.9274, 569.9112
955.4095, 605.7283
955.8916, 643.9510
956.3737, 679.8679
956.8558, 711.2260
957.3380, 738.2540
957.8201, 761.9194
958.3022, 782.5217
958.7843, 795.7673
959.2664, 801.6525
959.7485, 800.0724
960.2307, 790.6675
960.7128, 774.0883
961.1949, 751.2432
961.6770, 722.3640
962.1591, 688.8654
962.6412, 649.1024
963.1234, 607.1063
963.6055, 562.7515
964.0876, 517.5992
964.5697, 473.1719
965.0518, 429.6554
965.5339, 387.6620
966.0161, 346.9317
966.4982, 308.5256
966.9803, 273.2947
967.4624, 241.0859
967.9445, 212.3488
968.4266, 186.8697
968.9088, 164.8697
969.3909, 147.2953
969.8730, 132.2638
970.3551, 118.5133
970.8372, 106.2708
971.3193, 96.13486
971.8015, 88.22192
972.2836, 81.14639
972.7657, 74.17462
973.2478, 67.74603
973.7299, 62.16592
974.2120, 57.50876
974.6942, 53.88925
975.1763, 51.67722
975.6584, 50.25034
976.1405, 50.24573
976.6226, 50.24991
977.1047, 47.21732
977.5869, 41.50940
978.0690, 39.14764
978.5511, 41.46075
979.0332, 43.73682
979.5153, 41.13141
979.9974, 36.92532
980.4796, 34.45837
980.9617, 34.43625
981.4438, 33.39896
981.9259, 30.34543
982.4080, 28.33694
982.8901, 29.25192
983.3723, 31.80588
983.8544, 31.96741
984.3365, 30.22159
984.8186, 28.51562
985.3007, 27.85086
985.7828, 27.38013
986.2650, 26.47058
986.7471, 25.66583
987.2292, 25.86322
987.7113, 27.49597
988.1934, 28.30286
988.6755, 28.07919
989.1577, 27.45844
989.6398, 26.84399
990.1219, 26.36945
990.6040, 26.44800
991.0861, 27.10657
991.5682, 27.42383
992.0504, 27.08401
992.5325, 26.32822
993.0146, 24.91434
993.4967, 23.16742
993.9788, 23.11615
994.4609, 24.81503
994.9431, 26.08533
995.4252, 25.66135
995.9073, 24.80161
996.3894, 25.02301
996.8715, 25.82492
997.3536, 26.38156
997.8358, 26.03970
998.3179, 26.32111
998.8000, 27.54648
999.2821, 28.57828
999.7642, 27.83813
1000.246, 25.86588
1000.728, 25.83066
1001.211, 27.76627
1001.693, 29.54562
1002.175, 29.47943
1002.657, 28.97992
1003.139, 28.99335
1003.621, 29.43866
1004.103, 29.44904
1004.585, 28.88580
1005.068, 28.41162
1005.550, 28.18930
1006.032, 28.26239
1006.514, 28.92624
1006.996, 29.84555
1007.478, 30.40082
1007.960, 30.37238
1008.442, 30.17191
1008.924, 29.79477
1009.407, 29.44131
1009.889, 29.21234
1010.371, 29.11142
1010.853, 29.14529
1011.335, 29.32074
1011.817, 29.13602
1012.299, 27.86215
1012.781, 26.40884
1013.263, 25.56680
1013.746, 25.24637
1014.228, 25.06769
1014.710, 25.07938
1015.192, 25.10416
1015.674, 25.21289
1016.156, 25.08820
1016.638, 24.20087
1017.120, 22.64716
1017.603, 20.42331
1018.085, 17.33600
1018.567, 15.14706
1019.049, 15.67465
1019.531, 16.80576
1020.013, 17.04434
1020.495, 16.41196
1020.977, 16.28299
1021.459, 16.77774
1021.942, 16.67828
1022.424, 15.15692
1022.906, 13.03687
1023.388, 11.15561
1023.870, 9.565796
1024.352, 8.368469
1024.834, 7.662659
1025.316, 7.343781
1025.799, 7.709503
1026.281, 8.030121
1026.763, 7.336884
1027.245, 5.855530
1027.727, 5.123932
1028.209, 5.194275
1028.691, 5.104675
1029.173, 4.039276
1029.656, 2.731232
1030.138, 1.515381
1030.620, 0.4748540
1031.102, 0.1322940
1031.584, 0.2428890
1032.066, 0.1341550
1032.548, 0.2578430
1033.030, 0.4964900
1033.512, 0.5092470
1033.995, 1.986755
1034.477, 2.400543
1034.959, 0.9219970
1035.441, 0.2180180
1035.923, 1.973541
1036.405, 3.467010
1036.887, 2.977661
1037.369, 0.8122250
1037.851, 0.5086360
1038.334, 1.046356
1038.816, 0.9055480
1039.298, 0.4671940
1039.780, 1.804871
1040.262, 2.047424
1040.744, 1.584290
1041.226, 1.238342
1041.708, 1.120148
1042.191, 0.8364870
1042.673, 0.2696530
1043.155, 0.1559140
1043.637, 0.2732240
1044.119, 1.028839
1044.601, 1.026001
1045.083, 0.2413940
1045.565, 0.1122440
1046.047, 0.9300540
1046.530, 1.867432
1047.012, 2.308411
1047.494, 2.278503
1047.976, 1.601196
1048.458, 0.3909000
1048.940, 0.3290710
1049.422, 0.1825560
1049.904, 0.1803590
1050.386, 0.1835330
1050.869, 0.1949160
1051.351, 0.8048400
1051.833, 2.338196
1052.315, 2.518219
1052.797, 1.057220
1053.279, 0.4494020
1053.761, 1.292267
1054.243, 1.452148
1054.726, 0.3206180
1055.208, 1.508331
1055.690, 2.458496
1056.172, 0.8853450
1056.654, 6.2378000E-02
1057.136, 0.4665830
1057.618, 1.216492
1058.100, 0.4562680
1058.583, 1.508362
1059.065, 2.590912
1059.547, 2.649933
1060.029, 2.530548
1060.511, 3.006531
1060.993, 3.313354
1061.475, 2.868073
1061.957, 1.827301
1062.439, 0.7627260
1062.922, 0.4177860
1063.404, 0.9919130
1063.886, 0.6767270
1064.368, 9.3080001E-03
1064.850, 0.7142330
1065.332, 1.257904
1065.814, 1.293457
1066.296, 0.5583500
1066.778, 0.2306210
1067.261, 0.5567020
1067.743, 1.026459
1068.225, 1.376526
1068.707, 1.678314
1069.189, 2.171570
1069.671, 2.818939
1070.153, 3.501190
1070.635, 4.727203
1071.118, 5.208130
1071.600, 3.424225
1072.082, 1.297821
1072.564, 0.9297490
1073.046, 2.514099
1073.528, 3.456635
1074.010, 3.660614
1074.492, 3.461578
1074.974, 2.619934
1075.457, 1.894318
1075.939, 2.066864
1076.421, 2.962677
1076.903, 3.781830
1077.385, 4.401703
1077.867, 5.195282
1078.349, 6.405396
1078.831, 7.285736
1079.313, 6.376770
1079.796, 4.612671
1080.278, 3.645050
1080.760, 3.715485
1081.242, 4.153503
1081.724, 5.415192
1082.206, 6.188782
1082.688, 5.864929
1083.170, 4.785034
1083.652, 3.952667
1084.135, 3.342102
1084.617, 2.835022
1085.099, 2.331421
1085.581, 2.093933
1086.063, 2.517090
1086.545, 3.130157
1087.027, 3.543732
1087.509, 3.762207
1087.992, 3.689606
1088.474, 3.314087
1088.956, 2.902893
1089.438, 2.660706
1089.920, 2.432678
1090.402, 1.802551
1090.884, 1.092255
1091.366, 1.006836
1091.849, 1.799591
1092.331, 2.876404
1092.813, 4.537811
1093.295, 5.870789
1093.777, 6.045380
1094.259, 5.095764
1094.741, 2.554291
1095.223, 1.120667
1095.705, 3.452148
1096.188, 2.590363
1096.670, 1.168518
1097.152, 0.4818730
1097.634, 1.850250
1098.116, 1.912842
1098.598, 1.002136
1099.080, 0.7137450
1099.562, 1.340912
1100.044, 2.122498
1100.527, 3.005524
1101.009, 3.475311
1101.491, 2.907288
1101.973, 1.515625
1102.455, 0.7468570
1102.937, 0.6593320
1103.419, 0.7217410
1103.901, 0.6954040
1104.384, 0.6092220
1104.866, 0.5048830
1105.348, 0.4125980
1105.830, 0.4312130
1106.312, 0.7142030
1106.794, 0.4671330
1107.276, 0.5812070
1107.758, 1.477661
1108.240, 1.786896
1108.723, 1.469116
1109.205, 5.2765001E-02
1109.687, 2.106873
1110.169, 3.371094
1110.651, 2.795197
1111.133, 2.541168
1111.615, 2.711609
1112.097, 3.160492
1112.579, 3.958801
1113.062, 4.822052
1113.544, 4.882751
1114.026, 4.406555
1114.508, 4.173401
1114.990, 4.905029
1115.472, 5.368591
1115.954, 4.971527
1116.436, 4.373413
1116.919, 4.615051
1117.401, 5.599670
1117.883, 5.556030
1118.365, 4.243011
1118.847, 3.148163
1119.329, 3.633087
1119.811, 4.499146
1120.293, 4.909790
1120.776, 4.906189
1121.258, 4.984772
1121.740, 5.214233
1122.222, 5.485504
1122.704, 5.791870
1123.186, 5.990021
1123.668, 5.559235
1124.150, 5.150482
1124.632, 5.771240
1125.115, 7.768799
1125.597, 8.610260
1126.079, 7.935089
1126.561, 7.192108
1127.043, 6.943604
1127.525, 6.940002
1128.007, 6.673737
1128.489, 6.388916
1128.971, 6.546356
1129.454, 7.465088
1129.936, 8.259064
1130.418, 8.955902
1130.900, 9.332458
1131.382, 8.939575
1131.864, 8.213440
1132.346, 8.617523
1132.828, 9.818237
1133.311, 10.76138
1133.793, 10.65585
1134.275, 10.75830
1134.757, 11.53754
1135.239, 12.40454
1135.721, 12.92883
1136.203, 13.10025
1136.685, 12.43515
1137.167, 11.12567
1137.650, 10.86990
1138.132, 14.43243
1138.614, 17.26141
1139.096, 16.35468
1139.578, 13.95129
1140.060, 12.91324
1140.542, 13.24210
1141.024, 14.80841
1141.506, 17.63446
1141.989, 19.68820
1142.471, 18.52036
1142.953, 16.91354
1143.435, 16.91797
1143.917, 18.13708
1144.399, 19.00076
1144.881, 19.48709
1145.363, 19.73657
1145.846, 19.76105
1146.328, 19.60287
1146.810, 18.78159
1147.292, 18.17734
1147.774, 18.70428
1148.256, 20.45438
1148.738, 22.69363
1149.220, 25.89075
1149.703, 27.53259
1150.185, 26.49622
1150.667, 24.80429
1151.149, 25.00934
1151.631, 26.28995
1152.113, 27.58511
1152.595, 28.72589
1153.077, 29.75366
1153.559, 30.61795
1154.042, 31.58029
1154.524, 32.81711
1155.006, 34.02615
1155.488, 34.24252
1155.970, 33.99521
1156.452, 34.34515
1156.934, 35.74277
1157.416, 37.17880
1157.898, 38.53342
1158.381, 39.87000
1158.863, 41.21866
1159.345, 42.58737
1159.827, 43.86896
1160.309, 45.17371
1160.791, 46.78253
1161.273, 48.79428
1161.755, 51.19913
1162.238, 54.45050
1162.720, 57.48959
1163.202, 59.10931
1163.684, 59.80453
1164.166, 62.59354
1164.648, 67.00519
1165.130, 70.88794
1165.612, 72.00336
1166.094, 73.94897
1166.577, 78.32632
1167.059, 83.58560
1167.541, 88.03952
1168.023, 91.86334
1168.505, 96.47754
1168.987, 101.8529
1169.469, 107.2755
1169.951, 112.5942
1170.433, 117.5491
1170.916, 122.0909
1171.398, 126.2158
1171.880, 129.7845
1172.362, 132.8474
1172.844, 136.4713
1173.326, 140.6663
1173.808, 143.4327
1174.290, 142.4460
1174.773, 140.5545
1175.255, 139.1642
1175.737, 138.1229
1176.219, 137.5633
1176.701, 137.4980
1177.183, 135.0426
1177.665, 129.7212
1178.147, 123.6122
1178.630, 117.5656
1179.112, 112.0602
1179.594, 107.5388
1180.076, 103.8063
1180.558, 100.3066
1181.040, 97.01868
1181.522, 93.65649
1182.004, 90.08075
1182.486, 86.96844
1182.969, 85.10712
1183.451, 83.80719
1183.933, 82.55957
1184.415, 81.34088
1184.897, 80.34839
1185.379, 79.63287
1185.861, 78.29724
1186.343, 75.84814
1186.825, 73.74890
1187.308, 74.09219
1187.790, 75.08331
1188.272, 75.00531
1188.754, 73.87631
1189.236, 72.59439
1189.718, 70.97955
1190.200, 69.55243
1190.682, 68.53091
1191.165, 67.90955
1191.647, 67.88480
1192.129, 68.15741
1192.611, 68.31165
1193.093, 68.28754
1193.575, 68.39270
1194.057, 68.81128
1194.539, 68.28983
1195.021, 65.65576
1195.504, 62.92749
1195.986, 62.64877
1196.468, 63.55212
1196.950, 64.05035
1197.432, 63.88791
1197.914, 64.24759
1198.396, 65.26465
1198.878, 65.52106
1199.360, 64.17255
1199.843, 62.09531
1200.325, 60.01663
1200.807, 58.06259
1201.289, 56.34775
1201.771, 55.06454
1202.253, 53.02573
1202.735, 50.03430
1203.217, 47.65359
1203.700, 47.26837
1204.182, 47.61343
1204.664, 47.25888
1205.146, 46.28781
1205.628, 44.80606
1206.110, 42.65924
1206.592, 40.96570
1207.074, 39.83783
1207.557, 38.76285
1208.039, 37.10397
1208.521, 35.40506
1209.003, 34.19812
1209.485, 33.38959
1209.967, 32.81268
1210.449, 32.54361
1210.931, 32.28082
1211.413, 32.11224
1211.896, 31.35803
1212.378, 28.80396
1212.860, 26.07315
1213.342, 25.07541
1213.824, 25.15125
1214.306, 24.97733
1214.788, 24.46588
1215.270, 23.62726
1215.752, 22.42749
1216.235, 21.18988
1216.717, 20.09128
1217.199, 19.11420
1217.681, 18.57455
1218.163, 18.05371
1218.645, 16.45798
1219.127, 13.11359
1219.609, 11.46814
1220.092, 11.78290
1220.574, 12.63168
1221.056, 13.31949
1221.538, 13.63345
1222.020, 13.26520
1222.502, 12.37708
1222.984, 11.26575
1223.466, 9.731964
1223.948, 9.206238
1224.431, 9.851563
1224.913, 10.44839
1225.395, 9.912109
1225.877, 9.006012
1226.359, 8.194763
1226.841, 7.543793
1227.323, 7.165802
1227.805, 7.124969
1228.287, 6.803497
1228.770, 6.128632
1229.252, 5.790833
1229.734, 6.810394
1230.216, 7.913910
1230.698, 8.356903
1231.180, 8.077942
1231.662, 6.842468
1232.144, 4.489838
1232.627, 3.558167
1233.109, 4.295044
1233.591, 4.914093
1234.073, 3.549561
1234.555, 2.151642
1235.037, 2.344360
1235.519, 1.570251
1236.001, 1.381744
1236.484, 1.800995
1236.966, 1.617737
1237.448, 2.723846
1237.930, 3.719543
1238.412, 3.337036
1238.894, 2.917847
1239.376, 3.670654
1239.858, 4.622437
1240.340, 3.771820
1240.823, 1.372803
1241.305, 0.5104980
1241.787, 1.421448
1242.269, 2.072754
1242.751, 0.6622620
1243.233, 0.6577760
1243.715, 0.9057310
1244.197, 0.5625610
1244.679, 0.1064760
1245.162, 0.3328250
1245.644, 0.3225710
1246.126, 2.008484
1246.608, 2.997314
1247.090, 1.641907
1247.572, 0.2993470
1248.054, 0.3593440
1248.536, 0.5049130
1249.019, 5.8228001E-02
1249.501, 0.6735530
1249.983, 0.3750610
1250.465, 0.9153140
1250.947, 1.443176
1251.429, 0.5685420
1251.911, 2.003052
1252.393, 2.128662
1252.875, 1.601563
1253.358, 1.077118
1253.840, 0.6540220
1254.322, 0.6940000
1254.804, 1.136017
1255.286, 1.252991
1255.768, 0.7590330
1256.250, 6.2987998E-02
1256.732, 1.423523
1257.214, 2.462219
1257.697, 1.429230
1258.179, 0.2463070
1258.661, 0.1090390
1259.143, 2.253876
1259.625, 3.432587
1260.107, 3.296082
1260.589, 2.053650
1261.071, 0.5922550
1261.554, 2.956329
1262.036, 3.178284
1262.518, 2.150055
1263.000, 0.1879880
1263.482, 2.162354
1263.964, 2.545929
1264.446, 0.1473080
1264.928, 0.6790770
1265.411, 0.7886350
1265.893, 2.425446
1266.375, 1.961914
1266.857, 1.156616
1267.339, 1.721771
1267.821, 3.176910
1268.303, 3.880219
1268.785, 3.797943
1269.267, 3.246857
1269.750, 2.233917
1270.232, 1.675079
1270.714, 2.849365
1271.196, 4.087036
1271.678, 4.137268
1272.160, 3.626495
1272.642, 3.502777
1273.124, 3.749603
1273.606, 3.898407
1274.089, 4.153015
1274.571, 4.612579
1275.053, 5.437775
1275.535, 5.877655
1276.017, 4.420166
1276.499, 2.688263
1276.981, 4.008240
1277.463, 7.358917
1277.946, 8.430176
1278.428, 7.967773
1278.910, 8.025085
1279.392, 9.532013
1279.874, 11.20651
1280.356, 12.88678
1280.838, 14.10834
1281.320, 14.84958
1281.802, 15.52823
1282.285, 16.63068
1282.767, 17.12930
1283.249, 17.96722
1283.731, 18.90009
1284.213, 19.43787
1284.695, 20.59714
1285.177, 21.80359
1285.659, 22.94675
1286.141, 24.11456
1286.624, 25.44382
1287.106, 26.74240
1287.588, 27.65216
1288.070, 27.94791
1288.552, 28.00052
1289.034, 27.80951
1289.516, 27.74741
1289.998, 28.13596
1290.481, 28.60565
1290.963, 29.12436
1291.445, 29.27612
1291.927, 28.32208
1292.409, 26.13690
1292.891, 24.86136
1293.373, 24.56442
1293.855, 24.12119
1294.338, 22.92493
1294.820, 21.34335
1295.302, 19.35687
1295.784, 17.24878
1296.266, 15.20105
1296.748, 13.24722
1297.230, 11.82654
1297.712, 10.74847
1298.194, 9.086243
1298.677, 5.094116
1299.159, 2.312347
1299.641, 1.525787
1300.123, 1.418610
1300.605, 1.112518
1301.087, 0.7207030
1301.569, 0.4812010
1302.051, 0.3424990
1302.533, 0.1805110
1303.016, 0.0000000E+00
##END=



