##NAMES=Tsepinite-K
##RRUFFID=R070215
##IDEAL CHEMISTRY=(K,Ba,Na)_2_(Ti,Nb)_2_Si_4_O_12_(OH,O)_2_&#183;3H_2_O
##LOCALITY=Karnasurt Mt, Lovozero Massif, Kola Peninsula, Murmanskaya Oblast'; Northern Region, Russia
##OWNER=RRUFF
##SOURCE=Michael Scott
##DESCRIPTION=Light orange acicular crystals
##STATUS=The identification of this mineral is not yet confirmed.
##URL=rruff.info/R070215
170.3929, 0.0000000E+00
170.8750, 16.63086
171.3571, 47.18555
171.8392, 87.31445
172.3213, 114.4570
172.8034, 125.4492
173.2856, 125.5391
173.7677, 154.3613
174.2498, 220.1094
174.7319, 295.5039
175.2140, 337.0273
175.6961, 338.7559
176.1783, 345.7051
176.6604, 372.6836
177.1425, 342.2266
177.6246, 269.0449
178.1067, 192.9492
178.5888, 132.9961
179.0710, 98.41992
179.5531, 82.22266
180.0352, 69.89453
180.5173, 63.49805
180.9994, 52.71484
181.4815, 8.835938
181.9637, 66.61523
182.4458, 134.6328
182.9279, 160.7266
183.4100, 151.0527
183.8921, 127.0605
184.3742, 87.84766
184.8564, 41.14844
185.3385, 15.23828
185.8206, 11.69141
186.3027, 0.8984380
186.7848, 57.60547
187.2669, 157.1504
187.7491, 251.7070
188.2312, 329.4219
188.7133, 389.2910
189.1954, 420.0938
189.6775, 414.1660
190.1596, 410.9023
190.6418, 466.7441
191.1239, 579.9355
191.6060, 696.0898
192.0881, 784.9082
192.5702, 852.2949
193.0524, 951.5156
193.5345, 1084.896
194.0166, 1242.678
194.4987, 1413.693
194.9808, 1599.182
195.4629, 1780.076
195.9451, 1942.723
196.4272, 2090.182
196.9093, 2235.672
197.3914, 2378.977
197.8735, 2521.355
198.3556, 2663.688
198.8378, 2804.336
199.3199, 2950.758
199.8020, 3111.490
200.2841, 3286.883
200.7662, 3442.102
201.2483, 3568.383
201.7305, 3679.500
202.2126, 3814.039
202.6947, 3979.822
203.1768, 4139.721
203.6589, 4264.855
204.1410, 4346.182
204.6232, 4449.055
205.1053, 4587.896
205.5874, 4748.006
206.0695, 4876.832
206.5516, 4964.162
207.0337, 5047.490
207.5159, 5159.283
207.9980, 5307.266
208.4801, 5432.766
208.9622, 5523.936
209.4443, 5587.145
209.9264, 5657.564
210.4086, 5746.582
210.8907, 5820.262
211.3728, 5840.127
211.8549, 5781.223
212.3370, 5758.008
212.8191, 5800.479
213.3013, 5897.545
213.7834, 5959.213
214.2655, 5972.723
214.7476, 5971.549
215.2297, 5984.633
215.7118, 6019.359
216.1940, 6049.695
216.6761, 6072.918
217.1582, 6089.023
217.6403, 6089.543
218.1224, 6068.182
218.6045, 6039.168
219.0867, 6018.566
219.5688, 6016.715
220.0509, 5998.293
220.5330, 5953.887
221.0151, 5882.850
221.4972, 5805.533
221.9794, 5715.125
222.4615, 5625.568
222.9436, 5551.705
223.4257, 5499.039
223.9078, 5450.738
224.3899, 5405.754
224.8721, 5364.730
225.3542, 5317.051
225.8363, 5271.828
226.3184, 5211.227
226.8005, 5107.270
227.2827, 4930.680
227.7648, 4767.863
228.2469, 4632.879
228.7290, 4544.266
229.2111, 4441.531
229.6932, 4313.043
230.1754, 4180.566
230.6575, 4075.406
231.1396, 4022.777
231.6217, 3952.719
232.1038, 3835.137
232.5859, 3651.883
233.0681, 3522.785
233.5502, 3479.090
234.0323, 3467.406
234.5144, 3408.031
234.9965, 3276.293
235.4786, 3138.258
235.9608, 3010.789
236.4429, 2894.918
236.9250, 2791.273
237.4071, 2700.844
237.8892, 2623.566
238.3713, 2561.977
238.8535, 2528.316
239.3356, 2487.613
239.8177, 2422.766
240.2998, 2322.008
240.7819, 2247.812
241.2640, 2219.391
241.7462, 2208.566
242.2283, 2159.551
242.7104, 2028.844
243.1925, 1930.570
243.6746, 1918.539
244.1567, 2042.102
244.6389, 2077.871
245.1210, 1986.789
245.6031, 1831.418
246.0852, 1721.219
246.5673, 1670.473
247.0494, 1640.949
247.5316, 1624.820
248.0137, 1632.562
248.4958, 1616.898
248.9779, 1568.746
249.4600, 1502.219
249.9421, 1440.504
250.4243, 1372.211
250.9064, 1328.605
251.3885, 1327.879
251.8706, 1389.855
252.3527, 1428.973
252.8348, 1441.457
253.3170, 1433.539
253.7991, 1410.609
254.2812, 1352.895
254.7633, 1318.562
255.2454, 1343.352
255.7275, 1460.898
256.2097, 1504.637
256.6918, 1437.758
257.1739, 1321.809
257.6560, 1276.410
258.1381, 1336.758
258.6202, 1394.965
259.1024, 1403.688
259.5845, 1342.199
260.0666, 1318.633
260.5487, 1346.328
261.0308, 1401.988
261.5129, 1443.828
261.9951, 1464.535
262.4772, 1488.016
262.9593, 1529.961
263.4414, 1602.566
263.9235, 1630.406
264.4056, 1589.215
264.8878, 1526.297
265.3699, 1532.859
265.8520, 1635.746
266.3341, 1731.766
266.8162, 1775.418
267.2983, 1754.625
267.7805, 1756.582
268.2626, 1785.137
268.7447, 1832.258
269.2268, 1890.949
269.7089, 1969.305
270.1910, 2029.414
270.6732, 2042.520
271.1553, 1998.367
271.6374, 2014.922
272.1195, 2109.398
272.6016, 2239.504
273.0837, 2337.297
273.5659, 2400.852
274.0480, 2444.457
274.5301, 2464.344
275.0122, 2458.746
275.4943, 2480.273
275.9764, 2533.309
276.4586, 2605.168
276.9407, 2687.230
277.4228, 2782.652
277.9049, 2852.660
278.3870, 2864.188
278.8691, 2821.621
279.3513, 2833.055
279.8334, 2910.086
280.3155, 3011.211
280.7976, 3085.895
281.2798, 3133.258
281.7619, 3161.375
282.2440, 3165.535
282.7261, 3149.770
283.2082, 3145.879
283.6903, 3155.695
284.1725, 3170.613
284.6546, 3177.527
285.1367, 3177.031
285.6188, 3183.828
286.1009, 3196.633
286.5830, 3220.352
287.0652, 3285.141
287.5473, 3395.883
288.0294, 3515.387
288.5115, 3603.637
288.9936, 3663.297
289.4757, 3713.156
289.9579, 3752.766
290.4400, 3788.980
290.9221, 3850.887
291.4042, 3941.301
291.8863, 4022.262
292.3684, 4020.477
292.8506, 3964.648
293.3327, 3981.957
293.8148, 4149.832
294.2969, 4393.832
294.7790, 4580.469
295.2611, 4710.172
295.7433, 4799.555
296.2254, 4834.641
296.7075, 4838.977
297.1896, 4879.426
297.6717, 4993.562
298.1538, 5138.441
298.6360, 5240.941
299.1181, 5305.953
299.6002, 5381.242
300.0823, 5520.789
300.5644, 5695.477
301.0465, 5852.398
301.5287, 5979.625
302.0108, 6081.004
302.4929, 6145.383
302.9750, 6179.504
303.4571, 6218.902
303.9392, 6296.223
304.4214, 6390.965
304.9035, 6476.934
305.3856, 6544.281
305.8677, 6604.484
306.3498, 6673.062
306.8319, 6743.891
307.3141, 6796.402
307.7962, 6802.059
308.2783, 6791.238
308.7604, 6795.367
309.2425, 6830.641
309.7246, 6860.281
310.2068, 6861.562
310.6889, 6839.922
311.1710, 6807.801
311.6531, 6779.570
312.1352, 6737.293
312.6173, 6663.578
313.0995, 6546.449
313.5816, 6434.551
314.0637, 6351.262
314.5458, 6287.961
315.0279, 6227.793
315.5100, 6175.281
315.9922, 6115.645
316.4743, 6036.555
316.9564, 5930.031
317.4385, 5837.410
317.9206, 5788.332
318.4027, 5756.980
318.8849, 5708.059
319.3670, 5598.020
319.8491, 5494.168
320.3312, 5425.066
320.8133, 5399.781
321.2954, 5369.410
321.7776, 5310.883
322.2597, 5250.848
322.7418, 5217.859
323.2239, 5243.055
323.7060, 5265.652
324.1881, 5271.824
324.6703, 5261.035
325.1524, 5237.357
325.6345, 5177.590
326.1166, 5118.840
326.5987, 5090.176
327.0808, 5129.125
327.5630, 5153.051
328.0451, 5137.688
328.5272, 5086.932
329.0093, 5079.367
329.4914, 5163.324
329.9735, 5247.137
330.4557, 5264.900
330.9378, 5143.814
331.4199, 5082.332
331.9020, 5125.559
332.3841, 5244.180
332.8662, 5290.939
333.3484, 5231.355
333.8305, 5159.881
334.3126, 5128.471
334.7947, 5151.072
335.2768, 5165.721
335.7589, 5180.141
336.2411, 5180.287
336.7232, 5116.381
337.2053, 4965.473
337.6874, 4815.568
338.1695, 4705.980
338.6516, 4641.314
339.1338, 4600.557
339.6159, 4592.803
340.0980, 4595.391
340.5801, 4569.703
341.0622, 4512.979
341.5443, 4448.766
342.0265, 4377.551
342.5086, 4302.879
342.9907, 4258.123
343.4728, 4250.383
343.9549, 4246.055
344.4370, 4196.236
344.9192, 4106.684
345.4013, 4026.980
345.8834, 3974.080
346.3655, 3944.615
346.8476, 3940.363
347.3297, 3962.191
347.8119, 3984.094
348.2940, 3982.416
348.7761, 3961.174
349.2582, 3933.180
349.7403, 3903.453
350.2225, 3866.451
350.7046, 3810.395
351.1867, 3736.730
351.6688, 3660.869
352.1509, 3597.551
352.6331, 3538.039
353.1152, 3469.332
353.5973, 3388.264
354.0794, 3297.924
354.5615, 3197.676
355.0436, 3089.701
355.5258, 2980.664
356.0079, 2881.660
356.4900, 2779.088
356.9721, 2658.348
357.4542, 2512.086
357.9363, 2365.215
358.4185, 2231.998
358.9006, 2107.613
359.3827, 1983.672
359.8648, 1841.629
360.3469, 1711.295
360.8290, 1617.852
361.3112, 1570.369
361.7933, 1505.002
362.2754, 1371.938
362.7575, 1220.953
363.2396, 1105.680
363.7217, 1101.613
364.2039, 1072.584
364.6860, 959.5898
365.1681, 760.4141
365.6502, 612.2246
366.1323, 580.2637
366.6144, 572.8496
367.0966, 526.3262
367.5787, 365.8691
368.0608, 256.8848
368.5429, 240.0957
369.0250, 292.5137
369.5071, 296.2715
369.9893, 225.8535
370.4714, 136.7852
370.9535, 51.94141
371.4356, 37.15234
371.9177, 99.07812
372.3998, 121.6465
372.8820, 122.9609
373.3641, 141.3047
373.8462, 177.2949
374.3283, 228.9961
374.8104, 305.5566
375.2925, 413.0684
375.7747, 479.0879
376.2568, 499.7031
376.7389, 487.7676
377.2210, 451.3281
377.7031, 388.0039
378.1852, 333.2246
378.6674, 292.5898
379.1495, 269.1992
379.6316, 284.3965
380.1137, 342.3652
380.5958, 401.3047
381.0779, 418.0820
381.5601, 400.1309
382.0422, 384.3926
382.5243, 378.8516
383.0064, 379.0215
383.4885, 379.1016
383.9706, 378.6641
384.4528, 375.9258
384.9349, 365.7637
385.4170, 353.2930
385.8991, 348.2129
386.3812, 354.5117
386.8633, 358.9297
387.3455, 353.4590
387.8276, 337.0117
388.3097, 306.2402
388.7918, 250.1543
389.2739, 185.4688
389.7560, 117.7617
390.2382, 45.21289
390.7203, 3.066406
391.2024, 14.40234
391.6845, 56.22461
392.1666, 74.49609
392.6487, 30.14453
393.1309, 18.97266
393.6130, 45.36914
394.0951, 51.67773
394.5772, 69.96484
395.0593, 115.8555
395.5414, 171.7012
396.0236, 225.8203
396.5057, 278.9102
396.9878, 327.9199
397.4699, 374.5703
397.9520, 416.8379
398.4341, 447.5586
398.9163, 462.2012
399.3984, 469.8379
399.8805, 471.1699
400.3626, 459.1270
400.8447, 462.6133
401.3268, 488.5938
401.8090, 524.9570
402.2911, 557.4805
402.7732, 587.6992
403.2553, 608.1758
403.7374, 615.9023
404.2195, 611.2812
404.7017, 598.9688
405.1838, 574.3672
405.6659, 554.9297
406.1480, 560.8789
406.6301, 592.8477
407.1122, 618.9141
407.5944, 632.0664
408.0765, 637.6211
408.5586, 648.6055
409.0407, 665.0469
409.5228, 677.7930
410.0049, 671.4688
410.4871, 655.9922
410.9692, 663.4414
411.4513, 701.2227
411.9334, 745.8008
412.4155, 766.9922
412.8976, 773.8125
413.3798, 789.5195
413.8619, 841.9414
414.3440, 899.8125
414.8261, 922.4297
415.3082, 909.5938
415.7903, 908.9766
416.2725, 966.9570
416.7546, 1049.098
417.2367, 1118.062
417.7188, 1134.902
418.2009, 1163.246
418.6830, 1240.102
419.1652, 1354.672
419.6473, 1462.566
420.1294, 1539.516
420.6115, 1614.074
421.0937, 1706.363
421.5758, 1830.930
422.0579, 1941.441
422.5400, 2019.895
423.0221, 2083.363
423.5042, 2162.332
423.9864, 2269.906
424.4685, 2379.098
424.9506, 2486.992
425.4327, 2590.801
425.9148, 2689.461
426.3969, 2780.055
426.8791, 2872.152
427.3612, 2975.277
427.8433, 3100.043
428.3254, 3190.180
428.8075, 3221.785
429.2896, 3216.223
429.7718, 3252.035
430.2539, 3336.789
430.7360, 3439.180
431.2181, 3540.652
431.7002, 3640.211
432.1823, 3741.949
432.6645, 3847.996
433.1466, 3941.965
433.6287, 3995.809
434.1108, 4019.633
434.5929, 4053.246
435.0750, 4126.680
435.5572, 4215.957
436.0393, 4270.395
436.5214, 4290.699
437.0035, 4309.547
437.4856, 4358.008
437.9677, 4413.191
438.4499, 4446.473
438.9320, 4452.516
439.4141, 4441.105
439.8962, 4412.844
440.3783, 4369.762
440.8604, 4320.430
441.3426, 4267.250
441.8247, 4209.461
442.3068, 4143.441
442.7889, 4065.648
443.2710, 3998.059
443.7531, 3975.262
444.2353, 3952.984
444.7174, 3884.320
445.1995, 3713.672
445.6816, 3551.391
446.1637, 3421.680
446.6458, 3322.949
447.1280, 3216.918
447.6101, 3098.965
448.0922, 2979.371
448.5743, 2866.461
449.0564, 2771.566
449.5385, 2632.762
450.0207, 2440.066
450.5028, 2217.840
450.9849, 1988.918
451.4670, 1739.863
451.9491, 1551.609
452.4312, 1489.031
452.9134, 1529.383
453.3955, 1474.812
453.8776, 1315.293
454.3597, 1125.719
454.8418, 976.4844
455.3239, 859.2500
455.8061, 744.4023
456.2882, 624.9180
456.7703, 503.8281
457.2524, 367.6836
457.7345, 227.5742
458.2166, 127.5234
458.6988, 121.9492
459.1809, 157.0469
459.6630, 178.1914
460.1451, 180.2578
460.6272, 167.9336
461.1093, 125.6758
461.5915, 76.32031
462.0736, 48.26172
462.5557, 40.05859
463.0378, 65.26172
463.5199, 147.4727
464.0020, 277.0078
464.4842, 387.9453
464.9663, 428.6875
465.4484, 474.0352
465.9305, 565.9844
466.4126, 745.0625
466.8947, 903.5391
467.3769, 1012.973
467.8590, 1113.383
468.3411, 1278.012
468.8232, 1540.121
469.3053, 1797.324
469.7874, 2011.320
470.2696, 2187.793
470.7517, 2436.137
471.2338, 2764.797
471.7159, 3136.023
472.1980, 3518.812
472.6801, 3914.973
473.1623, 4313.512
473.6444, 4705.289
474.1265, 5120.039
474.6086, 5637.043
475.0907, 6239.117
475.5728, 6815.016
476.0550, 7247.227
476.5371, 7638.430
477.0192, 8164.906
477.5013, 8836.273
477.9834, 9526.891
478.4655, 10124.97
478.9477, 10691.51
479.4298, 11299.73
479.9119, 12014.99
480.3940, 12732.95
480.8761, 13380.75
481.3582, 13982.64
481.8404, 14600.05
482.3225, 15260.72
482.8046, 15934.64
483.2867, 16634.19
483.7688, 17399.05
484.2509, 18053.66
484.7331, 18544.13
485.2152, 18934.58
485.6973, 19297.37
486.1794, 19676.71
486.6615, 19951.57
487.1436, 20092.34
487.6258, 20116.95
488.1079, 20123.93
488.5900, 20145.08
489.0721, 20058.09
489.5542, 19792.46
490.0363, 19347.36
490.5185, 18787.59
491.0006, 18110.15
491.4827, 17348.00
491.9648, 16552.79
492.4470, 15718.84
492.9291, 14820.03
493.4112, 13839.97
493.8933, 12816.01
494.3754, 11813.50
494.8575, 10827.54
495.3397, 9886.215
495.8218, 8983.801
496.3039, 8131.590
496.7860, 7351.773
497.2681, 6638.246
497.7502, 5985.441
498.2324, 5376.285
498.7145, 4825.355
499.1966, 4341.316
499.6787, 3936.121
500.1608, 3595.031
500.6429, 3333.832
501.1251, 3147.277
501.6072, 2959.324
502.0893, 2720.492
502.5714, 2515.754
503.0535, 2387.004
503.5356, 2359.258
504.0178, 2347.945
504.4999, 2350.516
504.9820, 2371.941
505.4641, 2421.805
505.9462, 2501.941
506.4283, 2598.555
506.9105, 2704.828
507.3926, 2824.523
507.8747, 2969.359
508.3568, 3139.762
508.8389, 3342.141
509.3210, 3594.500
509.8032, 3885.684
510.2853, 4188.875
510.7674, 4501.156
511.2495, 4823.457
511.7316, 5151.539
512.2137, 5492.121
512.6959, 5852.812
513.1780, 6230.223
513.6601, 6638.250
514.1422, 7114.930
514.6243, 7645.562
515.1064, 8131.676
515.5886, 8469.641
516.0707, 8798.535
516.5528, 9205.395
517.0349, 9757.070
517.5170, 10277.28
517.9991, 10721.80
518.4813, 11133.20
518.9634, 11564.30
519.4455, 12041.94
519.9276, 12493.15
520.4097, 12905.20
520.8918, 13274.77
521.3740, 13627.18
521.8561, 13961.83
522.3382, 14281.18
522.8203, 14603.50
523.3024, 14921.99
523.7845, 15159.57
524.2667, 15305.39
524.7488, 15398.91
525.2309, 15506.65
525.7130, 15610.20
526.1951, 15643.77
526.6772, 15574.70
527.1594, 15434.71
527.6415, 15238.68
528.1236, 14997.82
528.6057, 14755.95
529.0878, 14572.19
529.5699, 14376.72
530.0521, 14113.77
530.5342, 13761.25
531.0163, 13399.19
531.4984, 13031.74
531.9805, 12673.36
532.4626, 12337.74
532.9448, 12088.50
533.4269, 11786.60
533.9090, 11389.06
534.3911, 10924.66
534.8732, 10525.32
535.3553, 10219.27
535.8375, 9916.480
536.3196, 9580.590
536.8017, 9205.156
537.2838, 8834.570
537.7659, 8461.910
538.2480, 8105.469
538.7302, 7794.688
539.2123, 7520.145
539.6944, 7231.586
540.1765, 6910.891
540.6586, 6599.859
541.1407, 6356.660
541.6229, 6161.555
542.1050, 5954.137
542.5871, 5676.727
543.0692, 5391.609
543.5513, 5165.184
544.0334, 5003.980
544.5156, 4842.551
544.9977, 4639.719
545.4798, 4427.531
545.9619, 4234.164
546.4440, 4083.406
546.9261, 3923.676
547.4083, 3733.094
547.8904, 3533.777
548.3725, 3364.863
548.8546, 3225.770
549.3367, 3111.840
549.8188, 3036.645
550.3010, 2994.758
550.7831, 2905.957
551.2652, 2759.301
551.7473, 2605.418
552.2294, 2482.824
552.7115, 2387.125
553.1937, 2281.793
553.6758, 2163.238
554.1579, 2044.102
554.6400, 1932.324
555.1221, 1830.527
555.6042, 1750.598
556.0864, 1708.383
556.5685, 1678.270
557.0506, 1634.316
557.5327, 1581.484
558.0148, 1537.301
558.4969, 1530.223
558.9791, 1516.488
559.4612, 1459.809
559.9433, 1343.434
560.4254, 1264.375
560.9075, 1274.805
561.3896, 1311.906
561.8718, 1316.602
562.3539, 1276.359
562.8360, 1224.555
563.3181, 1161.402
563.8002, 1092.945
564.2823, 1026.820
564.7645, 960.5703
565.2466, 915.6094
565.7287, 919.3711
566.2108, 954.8906
566.6929, 942.9023
567.1750, 879.7930
567.6572, 803.6992
568.1393, 743.7422
568.6214, 697.3906
569.1035, 658.3711
569.5856, 623.8906
570.0677, 604.0586
570.5499, 613.0703
571.0320, 640.6445
571.5141, 670.5469
571.9962, 717.2930
572.4783, 745.4180
572.9604, 732.3477
573.4426, 684.2852
573.9247, 635.7891
574.4068, 605.5156
574.8889, 567.9883
575.3710, 502.6406
575.8531, 393.0273
576.3353, 350.3555
576.8174, 399.5156
577.2995, 479.3867
577.7816, 537.4883
578.2637, 573.0664
578.7458, 593.0547
579.2280, 601.6562
579.7101, 589.3203
580.1922, 511.7266
580.6743, 385.3125
581.1564, 302.9180
581.6385, 339.4336
582.1207, 427.0664
582.6028, 484.1562
583.0849, 512.2812
583.5670, 527.5820
584.0491, 527.9609
584.5313, 526.6250
585.0134, 540.3906
585.4955, 586.4023
585.9776, 599.1484
586.4597, 532.1836
586.9418, 435.5625
587.4240, 366.1953
587.9061, 328.8203
588.3882, 314.8359
588.8703, 338.6289
589.3524, 381.0898
589.8345, 381.9570
590.3167, 331.4570
590.7988, 276.6484
591.2809, 241.7578
591.7630, 220.4414
592.2451, 173.7891
592.7272, 100.3164
593.2094, 37.62109
593.6915, 20.22266
594.1736, 35.18750
594.6557, 64.59375
595.1378, 111.5000
595.6199, 144.9180
596.1021, 144.8320
596.5842, 115.5156
597.0663, 62.82031
597.5485, 61.58203
598.0306, 155.2031
598.5127, 166.8633
598.9948, 115.4414
599.4769, 84.09766
599.9590, 78.48828
600.4412, 92.74219
600.9233, 131.9648
601.4054, 199.3398
601.8875, 244.4023
602.3696, 263.9297
602.8517, 268.2344
603.3339, 257.2305
603.8160, 233.1914
604.2981, 234.7227
604.7802, 273.5273
605.2623, 312.4766
605.7444, 295.0742
606.2266, 238.3906
606.7087, 188.9180
607.1908, 159.1172
607.6729, 146.8281
608.1550, 161.9062
608.6371, 194.9531
609.1193, 215.7344
609.6014, 196.8750
610.0835, 175.9062
610.5656, 174.2461
611.0477, 197.2891
611.5298, 206.5391
612.0120, 188.9023
612.4941, 169.0547
612.9762, 163.2773
613.4583, 174.1836
613.9404, 193.8633
614.4225, 230.9336
614.9047, 260.7812
615.3868, 238.6172
615.8689, 168.5508
616.3510, 107.0781
616.8331, 66.65234
617.3152, 48.47266
617.7974, 72.95312
618.2795, 126.4180
618.7616, 156.7852
619.2437, 105.8477
619.7258, 42.90625
620.2079, 28.75391
620.6901, 66.00781
621.1722, 83.17969
621.6543, 18.13281
622.1364, 49.01953
622.6185, 59.29688
623.1006, 39.60938
623.5828, 84.14453
624.0649, 56.71484
624.5470, 8.929688
625.0291, 80.89453
625.5112, 165.4844
625.9933, 220.8281
626.4755, 233.0000
626.9576, 219.5742
627.4397, 214.0859
627.9218, 215.5000
628.4039, 215.6914
628.8860, 211.2070
629.3682, 202.9766
629.8503, 178.7695
630.3324, 144.2891
630.8145, 142.5977
631.2966, 233.0508
631.7787, 341.1953
632.2609, 413.2266
632.7430, 434.3828
633.2251, 450.6016
633.7072, 491.8359
634.1893, 517.5078
634.6714, 485.8438
635.1536, 336.9688
635.6357, 267.6289
636.1178, 313.8281
636.5999, 423.1445
637.0820, 508.2188
637.5641, 568.3477
638.0463, 605.7773
638.5284, 611.8398
639.0105, 604.3828
639.4926, 625.9805
639.9747, 670.8906
640.4568, 704.6523
640.9390, 694.5078
641.4211, 671.9336
641.9032, 659.2891
642.3853, 658.1602
642.8674, 683.1992
643.3495, 764.2891
643.8317, 857.4922
644.3138, 934.2812
644.7959, 988.2812
645.2780, 1028.070
645.7601, 1036.617
646.2422, 1045.582
646.7244, 1097.918
647.2065, 1202.598
647.6886, 1303.074
648.1707, 1393.094
648.6528, 1467.141
649.1349, 1504.574
649.6171, 1510.887
650.0992, 1526.730
650.5813, 1576.258
651.0634, 1642.422
651.5455, 1702.148
652.0276, 1759.082
652.5098, 1827.562
652.9919, 1945.535
653.4740, 2054.258
653.9561, 2107.742
654.4382, 2089.074
654.9203, 2092.223
655.4025, 2134.352
655.8846, 2187.188
656.3667, 2235.664
656.8488, 2277.715
657.3309, 2339.848
657.8130, 2430.832
658.2952, 2523.574
658.7773, 2566.648
659.2594, 2565.133
659.7415, 2599.879
660.2236, 2716.438
660.7057, 2842.762
661.1879, 2859.129
661.6700, 2798.590
662.1521, 2748.703
662.6342, 2749.902
663.1163, 2773.855
663.5984, 2819.441
664.0806, 2883.969
664.5627, 2933.398
665.0448, 2948.090
665.5269, 2951.441
666.0090, 2949.371
666.4911, 2938.508
666.9733, 2939.523
667.4554, 2963.227
667.9375, 2984.488
668.4196, 2980.023
668.9017, 2949.133
669.3839, 2908.652
669.8660, 2857.949
670.3481, 2816.496
670.8302, 2817.176
671.3123, 2841.391
671.7944, 2849.582
672.2766, 2819.680
672.7587, 2783.738
673.2408, 2781.879
673.7229, 2793.215
674.2050, 2771.727
674.6871, 2649.344
675.1693, 2549.102
675.6514, 2522.664
676.1335, 2547.941
676.6156, 2516.379
677.0977, 2412.391
677.5798, 2303.348
678.0620, 2214.305
678.5441, 2140.227
679.0262, 2067.316
679.5083, 2000.109
679.9904, 1939.410
680.4725, 1889.449
680.9547, 1835.344
681.4368, 1757.793
681.9189, 1655.613
682.4010, 1567.500
682.8831, 1539.309
683.3652, 1527.074
683.8474, 1483.785
684.3295, 1369.562
684.8116, 1267.473
685.2937, 1195.254
685.7758, 1139.391
686.2579, 1085.742
686.7401, 1039.652
687.2222, 979.7266
687.7043, 897.7070
688.1864, 802.8984
688.6685, 713.5625
689.1506, 633.0508
689.6328, 574.1328
690.1149, 544.8477
690.5970, 538.3516
691.0791, 566.9258
691.5612, 618.0039
692.0433, 627.1289
692.5255, 498.2969
693.0076, 366.4570
693.4897, 331.0508
693.9718, 409.7266
694.4539, 455.7344
694.9360, 448.7734
695.4182, 404.3438
695.9003, 316.3438
696.3824, 160.2695
696.8645, 74.26562
697.3466, 71.30469
697.8287, 104.4062
698.3109, 134.1211
698.7930, 158.6289
699.2751, 163.6562
699.7572, 140.7539
700.2393, 119.3164
700.7214, 145.9102
701.2036, 191.6758
701.6857, 207.9531
702.1678, 142.8633
702.6499, 85.65625
703.1320, 66.12891
703.6141, 79.06250
704.0963, 114.4141
704.5784, 211.5430
705.0605, 266.0508
705.5426, 231.6211
706.0247, 139.4023
706.5068, 148.3203
706.9890, 274.4180
707.4711, 367.9648
707.9532, 312.1953
708.4353, 175.4062
708.9174, 140.4180
709.3995, 199.3398
709.8817, 277.6016
710.3638, 338.4688
710.8459, 386.0703
711.3280, 416.7305
711.8101, 427.3828
712.2922, 451.6914
712.7744, 514.1758
713.2565, 582.8906
713.7386, 637.8242
714.2207, 677.5703
714.7028, 703.5625
715.1849, 705.9141
715.6671, 712.4453
716.1492, 763.4531
716.6313, 853.9766
717.1134, 930.9336
717.5955, 982.5586
718.0776, 1024.266
718.5598, 1075.684
719.0419, 1129.855
719.5240, 1172.652
720.0061, 1190.281
720.4882, 1206.887
720.9703, 1229.605
721.4525, 1259.938
721.9346, 1301.289
722.4167, 1350.363
722.8988, 1417.031
723.3809, 1508.629
723.8630, 1618.820
724.3452, 1724.973
724.8273, 1827.703
725.3094, 1919.371
725.7915, 1993.188
726.2736, 2053.438
726.7557, 2107.098
727.2379, 2155.387
727.7200, 2207.949
728.2021, 2268.660
728.6842, 2337.699
729.1663, 2419.496
729.6484, 2514.363
730.1306, 2605.707
730.6127, 2687.797
731.0948, 2765.801
731.5769, 2845.535
732.0590, 2933.406
732.5411, 2997.457
733.0233, 3032.641
733.5054, 3055.293
733.9875, 3069.242
734.4696, 3079.582
734.9517, 3129.289
735.4338, 3228.328
735.9160, 3336.246
736.3981, 3427.051
736.8802, 3495.469
737.3623, 3529.090
737.8444, 3499.586
738.3266, 3483.750
738.8087, 3518.074
739.2908, 3581.328
739.7729, 3642.504
740.2551, 3699.250
740.7372, 3756.652
741.2193, 3819.852
741.7014, 3880.129
742.1835, 3919.609
742.6656, 3937.969
743.1478, 3939.016
743.6299, 3911.465
744.1120, 3883.082
744.5941, 3909.543
745.0762, 3973.965
745.5583, 4024.668
746.0405, 4016.855
746.5226, 4005.809
747.0047, 4031.801
747.4868, 4085.762
747.9689, 4110.391
748.4510, 4069.754
748.9332, 4036.914
749.4153, 4039.328
749.8974, 4072.738
750.3795, 4086.223
750.8616, 4078.371
751.3438, 4061.535
751.8259, 4025.875
752.3080, 3990.555
752.7901, 4026.113
753.2722, 4127.930
753.7543, 4186.086
754.2365, 4076.809
754.7186, 3928.391
755.2007, 3844.727
755.6828, 3846.133
756.1649, 3857.910
756.6470, 3896.836
757.1292, 3916.723
757.6113, 3881.441
758.0934, 3770.852
758.5755, 3698.590
759.0576, 3670.281
759.5397, 3659.391
760.0219, 3635.059
760.5040, 3604.949
760.9861, 3606.055
761.4682, 3654.887
761.9503, 3675.574
762.4324, 3571.719
762.9146, 3421.027
763.3967, 3315.430
763.8788, 3302.984
764.3609, 3294.820
764.8430, 3289.711
765.3251, 3274.664
765.8073, 3231.453
766.2894, 3153.426
766.7715, 3072.262
767.2536, 2988.762
767.7357, 2911.645
768.2178, 2850.879
768.7000, 2808.008
769.1821, 2796.441
769.6642, 2851.828
770.1463, 2888.414
770.6284, 2796.000
771.1105, 2636.219
771.5927, 2528.250
772.0748, 2551.555
772.5569, 2581.828
773.0390, 2600.125
773.5211, 2603.281
774.0032, 2578.828
774.4854, 2519.332
774.9675, 2459.469
775.4496, 2407.184
775.9317, 2363.293
776.4138, 2330.723
776.8959, 2307.750
777.3781, 2292.238
777.8602, 2293.895
778.3423, 2297.480
778.8244, 2281.094
779.3065, 2245.461
779.7886, 2206.031
780.2708, 2157.836
780.7529, 2132.352
781.2350, 2139.699
781.7171, 2173.406
782.1992, 2196.934
782.6813, 2206.258
783.1635, 2205.086
783.6456, 2196.641
784.1277, 2181.254
784.6098, 2148.012
785.0919, 2097.254
785.5740, 2058.535
786.0562, 2064.027
786.5383, 2085.160
787.0204, 2097.195
787.5025, 2096.176
787.9846, 2080.062
788.4667, 2007.059
788.9489, 1969.957
789.4310, 2024.938
789.9131, 2179.184
790.3952, 2248.820
790.8773, 2219.461
791.3594, 2152.043
791.8416, 2079.125
792.3237, 2007.691
792.8058, 1948.273
793.2879, 1899.102
793.7700, 1873.598
794.2521, 1896.375
794.7343, 1936.250
795.2164, 1971.637
795.6985, 2004.801
796.1806, 2017.676
796.6627, 2016.398
797.1448, 1992.383
797.6270, 1927.746
798.1091, 1809.121
798.5912, 1751.098
799.0733, 1760.781
799.5554, 1776.691
800.0375, 1721.344
800.5197, 1634.641
801.0018, 1603.742
801.4839, 1649.461
801.9660, 1679.652
802.4481, 1601.340
802.9302, 1506.137
803.4124, 1479.637
803.8945, 1601.660
804.3766, 1631.664
804.8587, 1519.309
805.3408, 1381.312
805.8229, 1330.766
806.3051, 1367.051
806.7872, 1383.035
807.2693, 1366.375
807.7514, 1349.273
808.2335, 1390.898
808.7156, 1444.551
809.1978, 1431.000
809.6799, 1312.375
810.1620, 1198.641
810.6441, 1139.684
811.1262, 1104.730
811.6083, 1062.234
812.0905, 990.6562
812.5726, 962.0664
813.0547, 993.4922
813.5368, 1038.520
814.0189, 1040.973
814.5010, 1007.305
814.9832, 972.1562
815.4653, 938.8945
815.9474, 916.7422
816.4295, 932.6836
816.9116, 956.6641
817.3937, 948.6523
817.8759, 877.9102
818.3580, 816.5547
818.8401, 784.1055
819.3222, 764.9180
819.8043, 743.3555
820.2864, 715.7578
820.7686, 705.6289
821.2507, 719.7227
821.7328, 738.0547
822.2149, 746.2852
822.6970, 737.8398
823.1791, 685.7734
823.6613, 567.0977
824.1434, 463.1250
824.6255, 449.1758
825.1076, 470.6133
825.5897, 467.1797
826.0718, 384.8594
826.5540, 342.0391
827.0361, 357.8398
827.5182, 390.6797
828.0003, 388.7578
828.4824, 352.6289
828.9645, 320.8672
829.4467, 299.8164
829.9288, 281.9883
830.4109, 260.1367
830.8930, 235.5781
831.3751, 211.1250
831.8572, 192.6953
832.3394, 163.0352
832.8215, 88.73047
833.3036, 15.13672
833.7857, 3.539063
834.2678, 66.73828
834.7499, 86.80859
835.2321, 32.01562
835.7142, 36.44922
836.1963, 17.15234
836.6784, 56.70312
837.1605, 51.85547
837.6426, 72.10547
838.1248, 206.8711
838.6069, 285.3516
839.0890, 320.6289
839.5711, 323.1211
840.0532, 268.7617
840.5353, 230.4180
841.0175, 225.8672
841.4996, 224.8906
841.9817, 186.0664
842.4638, 105.9805
842.9459, 79.93359
843.4280, 126.0000
843.9102, 179.0117
844.3923, 147.3789
844.8744, 81.21875
845.3565, 66.26562
845.8386, 132.9336
846.3207, 199.8555
846.8029, 250.1094
847.2850, 275.4258
847.7671, 265.1680
848.2492, 193.5547
848.7313, 161.9375
849.2134, 183.2891
849.6956, 212.0820
850.1777, 202.0234
850.6598, 161.5391
851.1419, 118.1680
851.6240, 74.58203
852.1061, 32.66797
852.5883, 20.25781
853.0704, 62.73438
853.5525, 72.04688
854.0346, 31.38281
854.5167, 3.335938
854.9988, 42.83984
855.4810, 58.09375
855.9631, 20.38672
856.4452, 71.49609
856.9273, 149.4805
857.4094, 210.5078
857.8915, 274.3320
858.3737, 372.2266
858.8558, 475.0625
859.3379, 533.8398
859.8200, 537.7852
860.3021, 570.2344
860.7842, 683.9727
861.2664, 815.9492
861.7485, 921.0156
862.2306, 991.8984
862.7127, 1128.566
863.1948, 1345.965
863.6769, 1568.223
864.1591, 1741.371
864.6412, 1880.883
865.1233, 2015.109
865.6054, 2149.453
866.0875, 2320.367
866.5696, 2588.469
867.0518, 2870.426
867.5339, 3107.367
868.0160, 3295.605
868.4981, 3510.602
868.9802, 3761.707
869.4623, 4020.105
869.9445, 4255.492
870.4266, 4486.246
870.9087, 4814.754
871.3908, 5236.332
871.8729, 5654.113
872.3550, 6023.652
872.8372, 6358.789
873.3193, 6654.453
873.8014, 6921.781
874.2835, 7204.230
874.7656, 7523.148
875.2477, 7845.738
875.7299, 8164.172
876.2120, 8479.234
876.6941, 8821.230
877.1762, 9188.789
877.6583, 9503.707
878.1404, 9698.996
878.6226, 9853.621
879.1047, 10109.14
879.5869, 10407.97
880.0690, 10608.52
880.5511, 10558.52
881.0332, 10515.86
881.5153, 10586.75
881.9974, 10703.74
882.4796, 10728.72
882.9617, 10650.27
883.4438, 10540.86
883.9259, 10412.73
884.4080, 10273.14
884.8901, 10141.45
885.3723, 10007.29
885.8544, 9845.410
886.3365, 9643.133
886.8186, 9420.184
887.3007, 9184.914
887.7828, 8935.707
888.2650, 8666.840
888.7471, 8360.539
889.2292, 8092.887
889.7113, 7877.352
890.1934, 7684.625
890.6755, 7463.449
891.1577, 7231.371
891.6398, 7042.727
892.1219, 6919.062
892.6040, 6798.438
893.0861, 6631.141
893.5682, 6449.074
894.0504, 6288.828
894.5325, 6154.242
895.0146, 6057.820
895.4967, 6018.152
895.9788, 5960.906
896.4609, 5803.973
896.9431, 5573.293
897.4252, 5427.535
897.9073, 5379.398
898.3894, 5352.430
898.8715, 5277.844
899.3536, 5202.938
899.8358, 5186.137
900.3179, 5242.977
900.8000, 5241.305
901.2821, 5116.922
901.7642, 4998.617
902.2463, 4954.809
902.7285, 4977.254
903.2106, 4981.973
903.6927, 4964.422
904.1748, 4942.547
904.6569, 4936.020
905.1390, 4927.633
905.6212, 4909.570
906.1033, 4881.188
906.5854, 4823.410
907.0675, 4661.141
907.5496, 4549.656
908.0317, 4553.266
908.5139, 4626.742
908.9960, 4619.766
909.4781, 4531.812
909.9602, 4448.609
910.4423, 4395.016
910.9244, 4370.270
911.4066, 4395.055
911.8887, 4440.703
912.3708, 4459.445
912.8529, 4385.012
913.3350, 4348.438
913.8171, 4402.254
914.2993, 4491.066
914.7814, 4533.414
915.2635, 4523.922
915.7456, 4512.926
916.2277, 4501.457
916.7098, 4516.066
917.1920, 4628.258
917.6741, 4770.082
918.1562, 4820.398
918.6383, 4706.086
919.1204, 4675.898
919.6025, 4897.141
920.0847, 5153.582
920.5668, 5293.242
921.0489, 5293.938
921.5310, 5356.297
922.0131, 5486.754
922.4952, 5623.441
922.9774, 5699.574
923.4595, 5758.676
923.9416, 5871.371
924.4237, 6037.992
924.9058, 6202.570
925.3879, 6318.441
925.8701, 6451.262
926.3522, 6632.559
926.8343, 6856.000
927.3164, 7059.480
927.7985, 7242.152
928.2806, 7443.477
928.7628, 7705.316
929.2449, 7971.406
929.7270, 8159.547
930.2091, 8280.477
930.6912, 8370.188
931.1733, 8386.824
931.6555, 8441.879
932.1376, 8587.574
932.6197, 8786.445
933.1018, 8991.910
933.5839, 9210.922
934.0660, 9363.535
934.5482, 9418.293
935.0303, 9452.594
935.5124, 9587.781
935.9945, 9767.883
936.4766, 9886.609
936.9587, 9880.105
937.4409, 9930.992
937.9230, 10180.66
938.4051, 10448.69
938.8872, 10591.31
939.3693, 10584.68
939.8514, 10595.96
940.3336, 10625.82
940.8157, 10671.02
941.2978, 10727.60
941.7799, 10799.11
942.2620, 10914.59
942.7441, 11068.52
943.2263, 11162.40
943.7084, 11085.83
944.1905, 11015.02
944.6726, 11036.62
945.1547, 11127.55
945.6368, 11124.46
946.1190, 11019.78
946.6011, 10952.84
947.0832, 11012.06
947.5653, 11113.77
948.0474, 11171.55
948.5295, 11182.57
949.0117, 11140.21
949.4938, 11027.08
949.9759, 10874.40
950.4580, 10652.36
950.9401, 10422.53
951.4222, 10295.72
951.9044, 10273.68
952.3865, 10218.40
952.8686, 10108.06
953.3507, 9959.832
953.8328, 9776.633
954.3149, 9573.719
954.7971, 9367.383
955.2792, 9162.734
955.7613, 8961.922
956.2434, 8780.793
956.7255, 8584.836
957.2076, 8348.168
957.6898, 8071.141
958.1719, 7812.773
958.6540, 7570.359
959.1361, 7297.062
959.6182, 6929.160
960.1003, 6537.016
960.5825, 6179.023
961.0646, 5852.504
961.5467, 5526.000
962.0288, 5179.910
962.5109, 4858.949
962.9930, 4589.406
963.4752, 4345.637
963.9573, 4059.133
964.4394, 3741.508
964.9215, 3454.613
965.4036, 3239.078
965.8857, 3018.312
966.3679, 2693.043
966.8500, 2341.473
967.3321, 2065.684
967.8142, 1942.090
968.2963, 1781.316
968.7784, 1568.418
969.2606, 1349.367
969.7427, 1171.523
970.2248, 1028.355
970.7069, 901.6562
971.1890, 790.2188
971.6711, 676.1406
972.1533, 534.3789
972.6354, 398.4922
973.1175, 284.0117
973.5996, 193.1562
974.0817, 166.4023
974.5638, 229.0352
975.0460, 264.0039
975.5281, 206.7930
976.0102, 106.1289
976.4923, 68.64844
976.9744, 75.80469
977.4565, 73.16406
977.9387, 11.00391
978.4208, 34.57422
978.9029, 17.41797
979.3850, 22.28125
979.8671, 29.96094
980.3492, 0.3046880
980.8314, 31.56641
981.3135, 62.31641
981.7956, 93.41406
982.2777, 141.2188
982.7598, 184.2891
983.2419, 186.3516
983.7241, 137.2773
984.2062, 88.74219
984.6883, 38.37109
985.1704, 11.86719
985.6525, 32.09375
986.1346, 91.60156
986.6168, 107.7422
987.0989, 81.58203
987.5810, 47.58984
988.0631, 11.48828
988.5452, 11.72656
989.0273, 6.886719
989.5095, 22.19531
989.9916, 67.35547
990.4737, 159.3633
990.9558, 215.7812
991.4379, 222.5625
991.9200, 195.7344
992.4022, 155.5703
992.8843, 102.8789
993.3664, 30.29688
993.8485, 69.97266
994.3306, 144.1406
994.8127, 131.1719
995.2949, 91.79297
995.7770, 83.18359
996.2591, 116.6875
996.7412, 111.8828
997.2233, 53.87891
997.7054, 11.77734
998.1876, 47.79688
998.6697, 120.9375
999.1518, 130.9688
999.6339, 94.30859
1000.116, 77.00391
1000.598, 139.5312
1001.080, 190.7734
1001.562, 198.1016
1002.044, 175.5312
1002.527, 134.4414
1003.009, 70.61328
1003.491, 62.19531
1003.973, 134.9141
1004.455, 216.8438
1004.937, 227.0898
1005.419, 199.0898
1005.901, 171.5625
1006.384, 149.7500
1006.866, 135.8125
1007.348, 130.1445
1007.830, 130.7539
1008.312, 130.4805
1008.794, 134.5508
1009.276, 194.3281
1009.758, 300.0625
1010.240, 373.0898
1010.723, 328.7344
1011.205, 275.5156
1011.687, 280.3008
1012.169, 329.6641
1012.651, 382.9375
1013.133, 443.7656
1013.615, 498.1523
1014.097, 549.0430
1014.580, 579.5859
1015.062, 551.9922
1015.544, 491.0430
1016.026, 435.7617
1016.508, 387.7070
1016.990, 382.2227
1017.472, 470.1016
1017.954, 571.6914
1018.436, 638.8359
1018.919, 673.4102
1019.401, 734.0820
1019.883, 820.9492
1020.365, 903.3398
1020.847, 967.7500
1021.329, 1015.742
1021.811, 1028.512
1022.293, 1027.266
1022.776, 1066.137
1023.258, 1193.914
1023.740, 1297.223
1024.222, 1358.277
1024.704, 1403.012
1025.186, 1465.566
1025.668, 1541.434
1026.150, 1599.496
1026.632, 1630.863
1027.115, 1712.938
1027.597, 1982.543
1028.079, 2241.691
1028.561, 2326.828
1029.043, 2248.848
1029.525, 2283.305
1030.007, 2439.996
1030.489, 2624.355
1030.972, 2815.945
1031.454, 2984.965
1031.936, 3062.910
1032.418, 3092.672
1032.900, 3164.637
1033.382, 3349.645
1033.864, 3521.332
1034.346, 3661.676
1034.828, 3790.512
1035.311, 3943.969
1035.793, 4110.758
1036.275, 4177.867
1036.757, 4138.902
1037.239, 4136.305
1037.721, 4312.770
1038.203, 4524.617
1038.685, 4667.883
1039.167, 4744.953
1039.650, 4831.438
1040.132, 4922.852
1040.614, 5038.566
1041.096, 5195.598
1041.578, 5365.641
1042.060, 5498.117
1042.542, 5602.949
1043.024, 5698.238
1043.507, 5777.559
1043.989, 5861.934
1044.471, 5979.488
1044.953, 6087.234
1045.435, 6146.508
1045.917, 6161.113
1046.399, 6167.035
1046.881, 6164.590
1047.364, 6173.520
1047.846, 6236.656
1048.328, 6281.352
1048.810, 6252.688
1049.292, 6166.219
1049.774, 6102.066
1050.256, 6063.129
1050.738, 6003.191
1051.220, 5901.344
1051.703, 5791.648
1052.185, 5752.945
1052.667, 5736.633
1053.149, 5645.809
1053.631, 5438.109
1054.113, 5267.289
1054.595, 5195.094
1055.077, 5146.676
1055.559, 5092.703
1056.042, 5031.719
1056.524, 4954.734
1057.006, 4860.289
1057.488, 4736.430
1057.970, 4531.480
1058.452, 4343.746
1058.934, 4250.691
1059.416, 4209.492
1059.899, 4142.676
1060.381, 4041.887
1060.863, 3932.445
1061.345, 3816.109
1061.827, 3704.094
1062.309, 3622.031
1062.791, 3541.930
1063.273, 3416.797
1063.755, 3245.703
1064.238, 3100.680
1064.720, 2996.363
1065.202, 2931.488
1065.684, 2929.016
1066.166, 2953.602
1066.648, 2890.504
1067.130, 2752.465
1067.612, 2602.820
1068.094, 2454.762
1068.577, 2330.242
1069.059, 2252.711
1069.541, 2198.148
1070.023, 2148.434
1070.505, 2105.969
1070.987, 2024.887
1071.469, 1894.109
1071.951, 1788.453
1072.434, 1795.555
1072.916, 1828.867
1073.398, 1774.371
1073.880, 1654.598
1074.362, 1557.973
1074.844, 1534.988
1075.326, 1477.332
1075.808, 1354.410
1076.291, 1221.645
1076.773, 1166.344
1077.255, 1164.086
1077.737, 1149.008
1078.219, 1106.730
1078.701, 1055.113
1079.183, 1007.266
1079.665, 955.4102
1080.147, 887.2891
1080.630, 810.9414
1081.112, 778.8789
1081.594, 789.4727
1082.076, 796.2539
1082.558, 777.5703
1083.040, 756.5078
1083.522, 768.5898
1084.004, 784.3320
1084.486, 759.4062
1084.969, 663.9727
1085.451, 602.5273
1085.933, 580.6523
1086.415, 574.2461
1086.897, 586.3438
1087.379, 591.2031
1087.861, 508.5625
1088.343, 367.9023
1088.826, 207.1875
1089.308, 274.3789
1089.790, 308.9570
1090.272, 312.5898
1090.754, 192.5156
1091.236, 231.9492
1091.718, 207.1445
1092.200, 179.6719
1092.682, 241.2695
1093.165, 138.6719
1093.647, 198.8125
1094.129, 194.2578
1094.611, 219.7109
1095.093, 181.1523
1095.575, 162.7695
1096.057, 208.1523
1096.539, 217.5195
1097.022, 170.8242
1097.504, 197.9648
1097.986, 93.35938
1098.468, 103.9453
1098.950, 164.4141
1099.432, 120.6953
1099.914, 148.6172
1100.396, 149.2266
1100.879, 26.31250
1101.361, 119.1406
1101.843, 118.5547
1102.325, 21.95703
1102.807, 106.7305
1103.289, 23.08984
1103.771, 0.4765630
1104.253, 21.16016
1104.735, 4.410156
1105.218, 44.34375
1105.700, 21.44531
1106.182, 7.839844
1106.664, 9.160156
1107.146, 89.59766
1107.628, 23.30859
1108.110, 57.29297
1108.592, 41.48438
1109.074, 16.57031
1109.557, 25.91406
1110.039, 41.51172
1110.521, 29.87891
1111.003, 37.06250
1111.485, 83.48828
1111.967, 130.8164
1112.449, 142.8359
1112.931, 134.7539
1113.414, 121.9805
1113.896, 105.7461
1114.378, 89.27734
1114.860, 75.06641
1115.342, 48.83984
1115.824, 14.96094
1116.306, 81.10547
1116.788, 91.99219
1117.271, 61.51562
1117.753, 20.30469
1118.235, 60.66016
1118.717, 87.10156
1119.199, 29.46875
1119.681, 32.04688
1120.163, 17.11719
1120.645, 50.28516
1121.127, 97.56641
1121.609, 120.6016
1122.092, 117.2109
1122.574, 63.41016
1123.056, 8.796875
1123.538, 41.93359
1124.020, 75.00781
1124.502, 53.27734
1124.984, 16.58984
1125.466, 89.46484
1125.949, 161.4883
1126.431, 187.4258
1126.913, 80.84766
1127.395, 37.82422
1127.877, 85.21094
1128.359, 65.63281
1128.841, 11.10938
1129.323, 151.5234
1129.806, 226.5625
1130.288, 156.6133
1130.770, 73.44141
1131.252, 136.1992
1131.734, 254.1875
1132.216, 302.6406
1132.698, 240.4883
1133.180, 219.8125
1133.662, 257.3711
1134.145, 265.3672
1134.627, 134.8008
1135.109, 24.61719
1135.591, 15.94922
1136.073, 104.1875
1136.555, 191.8438
1137.037, 186.8438
1137.519, 172.3945
1138.001, 146.4844
1138.484, 126.8516
1138.966, 135.5977
1139.448, 164.4844
1139.930, 195.0625
1140.412, 225.8086
1140.894, 250.7578
1141.376, 275.9219
1141.858, 284.3945
1142.341, 273.9844
1142.823, 244.4258
1143.305, 180.6914
1143.787, 95.10156
1144.269, 38.38672
1144.751, 18.83203
1145.233, 32.48047
1145.715, 118.5703
1146.198, 195.6445
1146.680, 213.6250
1147.162, 187.2109
1147.644, 177.5742
1148.126, 185.1602
1148.608, 219.2422
1149.090, 299.2031
1149.572, 364.1719
1150.054, 367.4531
1150.536, 333.6523
1151.019, 284.2383
1151.501, 220.9531
1151.983, 157.5156
1152.465, 91.42578
1152.947, 65.57812
1153.429, 133.1758
1153.911, 214.3750
1154.393, 214.3750
1154.876, 180.3906
1155.358, 201.2500
1155.840, 312.7031
1156.322, 385.5625
1156.804, 419.0039
1157.286, 406.7695
1157.768, 297.4336
1158.250, 172.7773
1158.733, 132.8828
1159.215, 169.0117
1159.697, 237.6367
1160.179, 368.7305
1160.661, 445.7578
1161.143, 446.3711
1161.625, 412.3320
1162.107, 384.0547
1162.589, 358.1445
1163.072, 328.7500
1163.554, 295.4375
1164.036, 273.9766
1164.518, 271.6797
1165.000, 274.3789
1165.482, 294.6094
1165.964, 313.5469
1166.446, 321.1406
1166.928, 321.6406
1167.411, 325.3789
1167.893, 334.8828
1168.375, 330.3906
1168.857, 286.0898
1169.339, 251.6797
1169.821, 246.1680
1170.303, 263.5586
1170.785, 303.4023
1171.268, 352.0781
1171.750, 361.1953
1172.232, 291.3828
1172.714, 242.8281
1173.196, 281.4922
1173.678, 327.4141
1174.160, 333.6328
1174.642, 308.1445
1175.125, 283.5820
1175.607, 257.6914
1176.089, 209.9062
1176.571, 55.08984
1177.053, 27.25391
1177.535, 122.1758
1178.017, 321.3867
1178.499, 399.6367
1178.981, 356.9609
1179.464, 307.7109
1179.946, 253.7305
1180.428, 203.5742
1180.910, 150.6719
1181.392, 112.6523
1181.874, 107.3438
1182.356, 125.5742
1182.838, 157.8906
1183.320, 202.7812
1183.803, 216.3633
1184.285, 194.4883
1184.767, 162.3984
1185.249, 120.8164
1185.731, 87.56250
1186.213, 92.10938
1186.695, 120.1641
1187.177, 109.3203
1187.660, 52.81641
1188.142, 49.09375
1188.624, 119.6133
1189.106, 198.3125
1189.588, 231.5078
1190.070, 243.5898
1190.552, 247.9570
1191.034, 248.3555
1191.516, 263.7578
1191.999, 296.2656
1192.481, 328.0430
1192.963, 357.8008
1193.445, 365.0859
1193.927, 293.7148
1194.409, 210.2930
1194.891, 204.2266
1195.373, 282.7812
1195.855, 259.2148
1196.338, 116.2734
1196.820, 24.67969
1197.302, 71.54688
1197.784, 154.8164
1198.266, 158.9297
1198.748, 135.2383
1199.230, 160.0312
1199.712, 258.6094
1200.195, 269.5742
1200.677, 177.8555
1201.159, 104.0469
1201.641, 139.1797
1202.123, 194.4648
1202.605, 151.6211
1203.087, 66.16797
1203.569, 32.79688
1204.052, 89.42188
1204.534, 101.0273
1205.016, 58.33203
1205.498, 26.40234
1205.980, 66.42969
1206.462, 128.6602
1206.944, 179.5547
1207.426, 204.2070
1207.908, 155.0938
1208.391, 27.90625
1208.873, 105.3789
1209.355, 54.00000
1209.837, 26.48047
1210.319, 56.01172
1210.801, 65.33203
1211.283, 88.38672
1211.765, 118.9297
1212.247, 124.4062
1212.730, 86.53516
1213.212, 76.38281
1213.694, 103.5039
1214.176, 149.5586
1214.658, 230.8203
1215.140, 298.5625
1215.622, 267.2617
1216.104, 159.9336
1216.587, 140.7070
1217.069, 261.4531
1217.551, 312.0234
1218.033, 244.3516
1218.515, 159.6133
1218.997, 184.1523
1219.479, 244.8867
1219.961, 259.6445
1220.443, 223.7852
1220.926, 190.9844
1221.408, 167.8008
1221.890, 122.7305
1222.372, 34.14844
1222.854, 28.07422
1223.336, 67.72266
1223.818, 206.0156
1224.300, 242.7617
1224.782, 156.7266
1225.265, 119.6992
1225.747, 145.8203
1226.229, 154.1094
1226.711, 112.6211
1227.193, 63.16016
1227.675, 40.78516
1228.157, 48.84766
1228.639, 114.2461
1229.122, 251.1602
1229.604, 256.3125
1230.086, 102.2969
1230.568, 10.48047
1231.050, 100.4492
1231.532, 216.8750
1232.014, 150.9727
1232.496, 23.74219
1232.979, 5.656250
1233.461, 87.41016
1233.943, 152.6250
1234.425, 188.2773
1234.907, 195.7734
1235.389, 179.2344
1235.871, 146.8477
1236.353, 67.65234
1236.835, 2.011719
1237.318, 52.53906
1237.800, 247.4844
1238.282, 328.0078
1238.764, 288.7539
1239.246, 226.5312
1239.728, 175.9727
1240.210, 148.5664
1240.692, 179.2031
1241.175, 226.1289
1241.657, 227.8086
1242.139, 171.9375
1242.621, 148.3516
1243.103, 157.8633
1243.585, 163.4531
1244.067, 134.1055
1244.549, 105.5859
1245.031, 108.0156
1245.514, 123.1797
1245.996, 122.9961
1246.478, 105.2461
1246.960, 102.9414
1247.442, 116.2109
1247.924, 136.8086
1248.406, 158.3594
1248.888, 190.0977
1249.370, 264.6914
1249.853, 335.3008
1250.335, 330.3672
1250.817, 253.8047
1251.299, 205.2305
1251.781, 190.2188
1252.263, 197.8281
1252.745, 276.1602
1253.227, 312.7148
1253.710, 207.9805
1254.192, 58.84375
1254.674, 34.05859
1255.156, 101.9258
1255.638, 141.1094
1256.120, 143.4219
1256.602, 120.8516
1257.084, 43.05469
1257.567, 12.86719
1258.049, 25.50391
1258.531, 3.945313
1259.013, 55.23047
1259.495, 137.9141
1259.977, 196.7930
1260.459, 227.6680
1260.941, 226.6289
1261.423, 157.7773
1261.906, 124.0742
1262.388, 162.8711
1262.870, 222.3633
1263.352, 224.2266
1263.834, 189.9336
1264.316, 166.4375
1264.798, 156.1719
1265.280, 140.9766
1265.762, 106.4102
1266.245, 79.02344
1266.727, 69.11719
1267.209, 61.16016
1267.691, 17.71875
1268.173, 29.12109
1268.655, 6.144531
1269.137, 85.59766
1269.619, 118.5352
1270.102, 43.11719
1270.584, 16.83594
1271.066, 84.75391
1271.548, 168.8828
1272.030, 157.5000
1272.512, 113.5938
1272.994, 112.5469
1273.476, 158.4141
1273.958, 202.4102
1274.441, 252.8398
1274.923, 242.3711
1275.405, 143.5312
1275.887, 37.80078
1276.369, 3.328125
1276.851, 0.2500000
1277.333, 51.50781
1277.815, 135.1406
1278.297, 164.2500
1278.780, 134.7344
1279.262, 119.7773
1279.744, 132.6094
1280.226, 146.4180
1280.708, 145.6250
1281.190, 131.2109
1281.672, 95.01953
1282.154, 47.93750
1282.637, 23.89062
1283.119, 23.51953
1283.601, 60.66406
1284.083, 158.5703
1284.565, 220.0156
1285.047, 152.5117
1285.529, 68.64844
1286.011, 10.76953
1286.494, 12.48047
1286.976, 57.53906
1287.458, 183.4922
1287.940, 224.5781
1288.422, 140.7734
1288.904, 80.91016
1289.386, 139.4844
1289.868, 175.6133
1290.350, 132.6953
1290.833, 56.99609
1291.315, 40.33984
1291.797, 60.82031
1292.279, 76.41406
1292.761, 75.85156
1293.243, 79.08594
1293.725, 89.16406
1294.207, 89.51953
1294.689, 72.90234
1295.172, 48.90234
1295.654, 19.88281
1296.136, 0.8945310
1296.618, 12.76172
1297.100, 69.36328
1297.582, 77.42188
1298.064, 27.89453
1298.546, 0.0000000E+00
##END=



