##NAMES=Tsepinite-K
##RRUFFID=R070215
##IDEAL CHEMISTRY=(K,Ba,Na)_2_(Ti,Nb)_2_Si_4_O_12_(OH,O)_2_&#183;3H_2_O
##LOCALITY=Karnasurt Mt, Lovozero Massif, Kola Peninsula, Murmanskaya Oblast'; Northern Region, Russia
##OWNER=RRUFF
##SOURCE=Michael Scott
##DESCRIPTION=Light orange acicular crystals
##STATUS=The identification of this mineral is not yet confirmed.
##URL=rruff.info/R070215
188.5157, 0.0000000E+00
188.9978, 38.02637
189.4800, 69.79492
189.9621, 87.80957
190.4442, 44.84375
190.9263, 1.021484
191.4084, 23.76953
191.8905, 24.42578
192.3727, 16.31738
192.8548, 47.67871
193.3369, 51.58496
193.8190, 48.13281
194.3011, 55.04688
194.7832, 79.08887
195.2654, 118.2256
195.7475, 168.2383
196.2296, 232.4365
196.7117, 302.7461
197.1938, 383.2822
197.6759, 465.7334
198.1581, 541.4512
198.6402, 607.9658
199.1223, 669.9512
199.6044, 736.9863
200.0865, 815.0918
200.5686, 885.5742
201.0508, 935.2979
201.5329, 985.5146
202.0150, 1054.530
202.4971, 1146.926
202.9792, 1248.329
203.4613, 1335.041
203.9435, 1397.398
204.4256, 1465.645
204.9077, 1542.716
205.3898, 1624.286
205.8719, 1717.696
206.3540, 1819.915
206.8362, 1908.461
207.3183, 1942.506
207.8004, 1878.197
208.2825, 1872.100
208.7646, 1965.674
209.2467, 2078.617
209.7289, 2173.785
210.2110, 2241.902
210.6931, 2287.352
211.1752, 2309.273
211.6573, 2294.854
212.1395, 2304.062
212.6216, 2352.346
213.1037, 2409.047
213.5858, 2461.734
214.0679, 2508.818
214.5500, 2553.797
215.0322, 2598.598
215.5143, 2641.432
215.9964, 2695.432
216.4785, 2787.051
216.9606, 2865.512
217.4427, 2907.555
217.9249, 2918.137
218.4070, 2916.250
218.8891, 2915.070
219.3712, 2914.322
219.8533, 2926.555
220.3354, 2966.371
220.8176, 3005.725
221.2997, 3045.078
221.7818, 3078.088
222.2639, 3092.383
222.7460, 3075.959
223.2281, 3032.955
223.7103, 3009.932
224.1924, 3056.578
224.6745, 3067.623
225.1566, 2994.902
225.6387, 2878.154
226.1208, 2778.361
226.6030, 2732.768
227.0851, 2726.131
227.5672, 2693.650
228.0493, 2610.320
228.5314, 2533.217
229.0135, 2478.098
229.4957, 2432.039
229.9778, 2380.834
230.4599, 2318.189
230.9420, 2246.232
231.4241, 2168.627
231.9062, 2080.051
232.3884, 1995.441
232.8705, 1913.469
233.3526, 1837.580
233.8347, 1771.320
234.3168, 1715.898
234.7989, 1666.449
235.2811, 1613.359
235.7632, 1548.625
236.2453, 1499.783
236.7274, 1488.896
237.2095, 1478.652
237.6916, 1434.076
238.1738, 1352.969
238.6559, 1272.191
239.1380, 1243.828
239.6201, 1287.635
240.1022, 1310.488
240.5843, 1287.020
241.0665, 1260.078
241.5486, 1255.791
242.0307, 1271.084
242.5128, 1280.537
242.9949, 1255.402
243.4770, 1191.707
243.9592, 1139.916
244.4413, 1101.080
244.9234, 1074.229
245.4055, 1072.916
245.8876, 1084.912
246.3697, 1069.680
246.8519, 1010.898
247.3340, 914.4121
247.8161, 836.0078
248.2982, 780.1836
248.7803, 738.9102
249.2624, 720.3203
249.7446, 711.6738
250.2267, 690.0254
250.7088, 637.4570
251.1909, 568.5586
251.6730, 528.0723
252.1551, 532.1836
252.6373, 531.8965
253.1194, 503.4453
253.6015, 466.2363
254.0836, 442.9922
254.5657, 444.0449
255.0478, 453.6855
255.5300, 445.9434
256.0121, 416.5156
256.4942, 385.9023
256.9763, 352.5527
257.4584, 324.5918
257.9406, 308.9414
258.4227, 307.2891
258.9048, 313.7852
259.3869, 325.0840
259.8690, 341.5586
260.3511, 353.8828
260.8333, 359.1270
261.3154, 360.2617
261.7975, 360.5098
262.2796, 359.6836
262.7617, 354.1855
263.2438, 335.9492
263.7260, 308.5020
264.2081, 293.9297
264.6902, 300.0918
265.1723, 311.1523
265.6544, 311.8223
266.1365, 306.4414
266.6187, 310.1895
267.1008, 334.8926
267.5829, 372.6895
268.0650, 412.3887
268.5471, 459.8496
269.0292, 489.0215
269.5114, 459.6709
269.9935, 401.1504
270.4756, 362.5469
270.9577, 355.9268
271.4398, 374.8418
271.9219, 424.0684
272.4041, 504.9199
272.8862, 570.6016
273.3683, 586.3867
273.8504, 577.2217
274.3325, 595.3506
274.8146, 663.0225
275.2968, 721.8584
275.7789, 711.8701
276.2610, 653.7686
276.7431, 638.0771
277.2252, 710.8926
277.7073, 821.6016
278.1895, 883.5518
278.6716, 888.9375
279.1537, 895.1592
279.6358, 930.4121
280.1179, 978.1162
280.6000, 1007.708
281.0822, 1010.951
281.5643, 1005.064
282.0464, 1006.562
282.5285, 1014.785
283.0106, 1039.473
283.4927, 1102.729
283.9749, 1169.671
284.4570, 1202.604
284.9391, 1200.999
285.4212, 1200.494
285.9033, 1233.465
286.3854, 1298.761
286.8676, 1338.400
287.3497, 1326.850
287.8318, 1316.868
288.3139, 1330.192
288.7960, 1365.481
289.2781, 1422.133
289.7603, 1505.216
290.2424, 1600.518
290.7245, 1645.275
291.2066, 1580.332
291.6887, 1541.530
292.1708, 1563.992
292.6530, 1618.295
293.1351, 1668.496
293.6172, 1701.907
294.0993, 1728.331
294.5814, 1764.790
295.0635, 1815.184
295.5457, 1869.666
296.0278, 1932.328
296.5099, 1995.607
296.9920, 2055.033
297.4741, 2109.664
297.9562, 2158.818
298.4384, 2199.715
298.9205, 2228.809
299.4026, 2275.432
299.8847, 2351.900
300.3668, 2432.938
300.8489, 2511.039
301.3311, 2587.222
301.8131, 2666.345
302.2953, 2753.128
302.7774, 2843.979
303.2595, 2919.757
303.7416, 2969.320
304.2237, 3019.430
304.7058, 3076.071
305.1880, 3135.819
305.6701, 3198.531
306.1522, 3264.631
306.6343, 3323.684
307.1164, 3351.156
307.5985, 3332.371
308.0807, 3336.855
308.5628, 3405.987
309.0449, 3482.133
309.5270, 3532.211
310.0091, 3553.118
310.4912, 3560.805
310.9734, 3564.985
311.4555, 3566.312
311.9376, 3573.937
312.4197, 3599.615
312.9018, 3614.907
313.3839, 3605.155
313.8661, 3573.023
314.3482, 3524.881
314.8303, 3447.246
315.3124, 3364.702
315.7945, 3328.020
316.2766, 3345.682
316.7588, 3352.740
317.2409, 3305.399
317.7230, 3229.366
318.2051, 3164.573
318.6872, 3113.557
319.1693, 3077.631
319.6515, 3072.077
320.1336, 3088.768
320.6157, 3083.603
321.0978, 3032.326
321.5799, 2966.584
322.0620, 2936.268
322.5442, 2942.676
323.0263, 2962.149
323.5084, 3002.105
323.9905, 3044.620
324.4726, 3061.547
324.9547, 3048.192
325.4369, 3032.072
325.9190, 3041.223
326.4011, 3078.622
326.8832, 3103.893
327.3653, 3102.766
327.8474, 3103.652
328.3296, 3126.038
328.8117, 3164.370
329.2938, 3200.389
329.7759, 3222.885
330.2580, 3234.443
330.7401, 3243.777
331.2223, 3247.354
331.7044, 3250.912
332.1865, 3251.875
332.6686, 3252.770
333.1507, 3259.503
333.6328, 3272.983
334.1150, 3284.100
334.5971, 3279.975
335.0792, 3261.755
335.5613, 3222.476
336.0434, 3144.079
336.5255, 3063.959
337.0077, 3005.811
337.4898, 2965.139
337.9719, 2921.148
338.4540, 2858.015
338.9361, 2777.130
339.4182, 2690.134
339.9004, 2586.723
340.3825, 2494.217
340.8646, 2424.820
341.3467, 2367.890
341.8288, 2310.068
342.3109, 2245.681
342.7931, 2179.988
343.2752, 2123.209
343.7573, 2077.522
344.2394, 2023.748
344.7215, 1944.468
345.2036, 1865.550
345.6858, 1807.984
346.1679, 1772.511
346.6500, 1743.812
347.1321, 1711.570
347.6142, 1678.732
348.0963, 1656.557
348.5785, 1651.222
349.0606, 1640.128
349.5427, 1587.663
350.0248, 1512.798
350.5069, 1475.262
350.9890, 1519.771
351.4712, 1578.025
351.9533, 1598.037
352.4354, 1583.183
352.9175, 1550.812
353.3996, 1505.232
353.8817, 1451.547
354.3639, 1402.662
354.8460, 1359.257
355.3281, 1318.271
355.8102, 1280.795
356.2923, 1244.665
356.7744, 1208.915
357.2566, 1172.879
357.7387, 1135.359
358.2208, 1095.075
358.7029, 1051.736
359.1850, 1006.090
359.6671, 960.2764
360.1493, 910.7656
360.6314, 853.4160
361.1135, 791.1973
361.5956, 729.0293
362.0777, 668.6904
362.5598, 612.8203
363.0420, 570.9473
363.5241, 550.5801
364.0062, 533.1611
364.4883, 531.1846
364.9704, 521.9434
365.4525, 478.7959
365.9347, 399.5010
366.4168, 314.7578
366.8989, 262.2656
367.3810, 243.7744
367.8631, 218.8018
368.3452, 178.1279
368.8274, 139.9600
369.3095, 112.7754
369.7916, 94.70410
370.2737, 82.01855
370.7558, 79.02637
371.2379, 75.43457
371.7201, 47.29004
372.2022, 9.258789
372.6843, 51.80176
373.1664, 52.42285
373.6485, 34.24414
374.1306, 35.59766
374.6128, 64.72754
375.0949, 87.64844
375.5770, 76.64746
376.0591, 48.49609
376.5412, 38.81543
377.0233, 56.32910
377.5055, 80.69922
377.9876, 90.20020
378.4697, 82.66602
378.9518, 84.91797
379.4339, 106.6562
379.9160, 129.7227
380.3982, 143.8018
380.8803, 150.1211
381.3624, 153.0566
381.8445, 154.7207
382.3266, 155.6641
382.8087, 157.9375
383.2909, 164.7939
383.7730, 168.3779
384.2551, 163.3711
384.7372, 158.4121
385.2193, 165.1182
385.7014, 182.5732
386.1836, 194.8975
386.6657, 180.9385
387.1478, 138.1865
387.6299, 118.5801
388.1120, 146.2607
388.5941, 169.8906
389.0763, 172.9932
389.5584, 161.2393
390.0405, 143.2217
390.5226, 121.3242
391.0047, 98.35156
391.4868, 79.51270
391.9690, 65.56641
392.4511, 48.35547
392.9332, 20.80957
393.4153, 6.176758
393.8974, 21.09570
394.3795, 24.02051
394.8617, 26.65820
395.3438, 33.54492
395.8259, 44.20215
396.3080, 57.95703
396.7901, 74.74707
397.2722, 95.19922
397.7544, 122.4902
398.2365, 153.8184
398.7186, 175.6113
399.2007, 180.6953
399.6828, 184.3389
400.1649, 191.4033
400.6471, 201.1211
401.1292, 211.3525
401.6113, 221.4619
402.0934, 234.8271
402.5755, 258.2510
403.0576, 300.5645
403.5398, 324.7793
404.0219, 315.5273
404.5040, 305.4365
404.9861, 317.8223
405.4682, 343.4824
405.9503, 354.5908
406.4325, 330.4736
406.9146, 285.5547
407.3967, 274.6797
407.8788, 321.3027
408.3609, 353.8135
408.8430, 341.0049
409.3252, 321.3936
409.8073, 325.3848
410.2894, 357.4062
410.7715, 400.7969
411.2536, 449.6719
411.7357, 500.2070
412.2179, 528.1875
412.7000, 524.7100
413.1821, 516.0674
413.6642, 517.0400
414.1463, 526.0176
414.6284, 541.4316
415.1106, 565.5723
415.5927, 593.0215
416.0748, 621.4590
416.5569, 650.1953
417.0390, 674.6113
417.5211, 690.9668
418.0033, 710.4346
418.4854, 753.0234
418.9675, 831.1357
419.4496, 888.8223
419.9317, 908.1816
420.4138, 919.2461
420.8960, 937.3457
421.3781, 964.9219
421.8602, 1002.766
422.3423, 1052.377
422.8244, 1111.198
423.3065, 1168.168
423.7887, 1224.797
424.2708, 1277.159
424.7529, 1330.283
425.2350, 1375.970
425.7171, 1403.158
426.1992, 1412.521
426.6814, 1419.399
427.1635, 1440.278
427.6456, 1473.670
428.1277, 1498.054
428.6098, 1506.258
429.0919, 1519.562
429.5741, 1548.128
430.0562, 1585.603
430.5383, 1629.502
431.0204, 1688.432
431.5025, 1743.099
431.9846, 1771.588
432.4668, 1778.137
432.9489, 1783.257
433.4310, 1793.187
433.9131, 1809.826
434.3952, 1835.164
434.8773, 1868.577
435.3595, 1894.444
435.8416, 1914.662
436.3237, 1927.347
436.8058, 1924.141
437.2879, 1910.059
437.7701, 1902.475
438.2522, 1911.818
438.7343, 1928.036
439.2164, 1922.868
439.6985, 1873.132
440.1806, 1843.831
440.6628, 1849.318
441.1449, 1861.768
441.6270, 1867.212
442.1091, 1864.007
442.5912, 1854.280
443.0733, 1838.227
443.5555, 1815.621
444.0376, 1789.983
444.5197, 1766.483
445.0018, 1733.455
445.4839, 1669.117
445.9660, 1595.824
446.4482, 1542.552
446.9303, 1517.607
447.4124, 1487.870
447.8945, 1428.194
448.3766, 1350.468
448.8587, 1279.459
449.3409, 1218.304
449.8230, 1158.511
450.3051, 1095.165
450.7872, 1028.181
451.2693, 954.7451
451.7514, 859.9336
452.2336, 774.2432
452.7157, 708.7764
453.1978, 658.6797
453.6799, 622.5771
454.1620, 598.4785
454.6441, 573.0830
455.1263, 528.5117
455.6084, 461.7578
456.0905, 393.2559
456.5726, 303.3369
457.0547, 232.0908
457.5368, 204.2227
458.0190, 200.4492
458.5011, 189.2168
458.9832, 156.2910
459.4653, 115.6758
459.9474, 88.53613
460.4295, 75.26465
460.9117, 55.56152
461.3938, 14.34863
461.8759, 18.96875
462.3580, 9.991211
462.8401, 32.78320
463.3222, 65.21387
463.8044, 64.33887
464.2865, 56.94238
464.7686, 65.33789
465.2507, 87.81543
465.7328, 116.3965
466.2149, 148.3535
466.6971, 181.8643
467.1792, 211.2822
467.6613, 222.3379
468.1434, 262.2090
468.6255, 349.8008
469.1076, 449.2236
469.5898, 543.6250
470.0719, 630.0674
470.5540, 703.8838
471.0361, 759.0635
471.5182, 809.2852
472.0003, 901.8330
472.4825, 1056.377
472.9646, 1197.888
473.4467, 1288.314
473.9288, 1376.121
474.4109, 1491.745
474.8930, 1636.062
475.3752, 1793.957
475.8573, 1954.523
476.3394, 2123.765
476.8215, 2318.866
477.3036, 2540.043
477.7857, 2757.895
478.2679, 2954.463
478.7500, 3140.727
479.2321, 3344.447
479.7142, 3560.095
480.1963, 3798.132
480.6784, 4078.339
481.1606, 4369.795
481.6427, 4641.371
482.1248, 4894.389
482.6069, 5152.270
483.0890, 5436.664
483.5711, 5738.566
484.0533, 6012.908
484.5354, 6240.389
485.0175, 6471.927
485.4996, 6736.596
485.9817, 6992.829
486.4638, 7202.982
486.9460, 7365.908
487.4281, 7509.042
487.9102, 7669.598
488.3923, 7826.423
488.8744, 7914.125
489.3565, 7928.902
489.8387, 7893.229
490.3208, 7814.279
490.8029, 7689.920
491.2850, 7527.580
491.7671, 7330.494
492.2492, 7087.583
492.7314, 6783.950
493.2135, 6440.620
493.6956, 6074.432
494.1777, 5691.760
494.6598, 5298.270
495.1419, 4895.403
495.6241, 4488.422
496.1062, 4099.410
496.5883, 3712.551
497.0704, 3372.305
497.5525, 3108.278
498.0346, 2871.104
498.5168, 2615.129
498.9989, 2339.416
499.4810, 2083.355
499.9631, 1884.337
500.4452, 1730.399
500.9273, 1579.098
501.4095, 1427.576
501.8916, 1289.459
502.3737, 1165.002
502.8558, 1061.531
503.3379, 990.8613
503.8200, 959.6279
504.3022, 935.3652
504.7843, 901.6504
505.2664, 871.1992
505.7485, 861.2969
506.2306, 871.5293
506.7127, 888.3545
507.1949, 902.6318
507.6770, 916.4531
508.1591, 938.1660
508.6412, 952.8105
509.1233, 999.7295
509.6054, 1098.261
510.0876, 1214.605
510.5697, 1329.591
511.0518, 1438.889
511.5339, 1541.053
512.0161, 1630.518
512.4982, 1714.839
512.9803, 1815.285
513.4624, 1932.032
513.9445, 2061.822
514.4266, 2213.935
514.9088, 2369.563
515.3909, 2496.501
515.8730, 2590.522
516.3551, 2711.686
516.8372, 2901.932
517.3193, 3109.839
517.8015, 3285.194
518.2836, 3433.573
518.7657, 3597.636
519.2478, 3801.972
519.7299, 4023.132
520.2120, 4204.271
520.6942, 4322.494
521.1763, 4444.462
521.6584, 4561.684
522.1405, 4689.682
522.6226, 4851.980
523.1047, 5032.375
523.5869, 5189.738
524.0690, 5303.353
524.5511, 5383.510
525.0332, 5440.588
525.5153, 5474.713
525.9974, 5509.453
526.4796, 5556.070
526.9617, 5595.758
527.4438, 5608.654
527.9259, 5596.926
528.4080, 5566.833
528.8901, 5507.182
529.3723, 5441.117
529.8544, 5390.051
530.3365, 5340.860
530.8186, 5268.582
531.3007, 5164.305
531.7828, 5036.568
532.2650, 4892.123
532.7471, 4723.221
533.2292, 4583.266
533.7113, 4515.443
534.1934, 4425.936
534.6755, 4270.229
535.1577, 4082.761
535.6398, 3907.479
536.1219, 3755.805
536.6040, 3620.818
537.0861, 3502.567
537.5682, 3396.223
538.0504, 3285.503
538.5325, 3168.236
539.0146, 3055.165
539.4967, 2961.026
539.9788, 2877.721
540.4609, 2767.748
540.9431, 2602.843
541.4252, 2453.111
541.9073, 2335.974
542.3894, 2236.736
542.8715, 2144.321
543.3536, 2055.694
543.8358, 1969.701
544.3179, 1884.652
544.8000, 1801.102
545.2821, 1723.590
545.7642, 1651.680
546.2463, 1587.958
546.7285, 1544.692
547.2106, 1504.225
547.6927, 1453.306
548.1748, 1390.679
548.6569, 1318.604
549.1390, 1232.419
549.6211, 1145.152
550.1032, 1068.246
550.5853, 1001.551
551.0674, 948.7734
551.5496, 912.6309
552.0317, 884.0840
552.5138, 847.6631
552.9959, 799.7334
553.4780, 751.0684
553.9601, 694.1855
554.4423, 645.4570
554.9244, 612.8379
555.4065, 591.4873
555.8886, 576.2168
556.3707, 565.4248
556.8528, 552.1514
557.3350, 522.4102
557.8171, 479.7021
558.2992, 454.6250
558.7813, 454.6152
559.2634, 456.9658
559.7455, 447.5762
560.2277, 428.4854
560.7098, 408.6621
561.1919, 389.4980
561.6740, 370.5234
562.1561, 347.0312
562.6382, 324.3213
563.1204, 307.8955
563.6025, 299.4189
564.0846, 299.3955
564.5667, 308.2803
565.0488, 320.5410
565.5309, 318.3906
566.0131, 295.3926
566.4952, 276.6729
566.9773, 282.0391
567.4594, 281.3682
567.9415, 243.2256
568.4236, 178.0527
568.9058, 135.5156
569.3879, 147.0029
569.8700, 180.8828
570.3521, 212.3262
570.8342, 238.9287
571.3163, 252.5645
571.7985, 249.7734
572.2806, 235.7568
572.7627, 216.1738
573.2448, 190.4668
573.7269, 178.6494
574.2090, 197.9199
574.6912, 204.9814
575.1733, 176.8359
575.6554, 140.2891
576.1375, 125.5762
576.6196, 137.9033
577.1017, 158.7812
577.5839, 174.9248
578.0660, 187.0049
578.5481, 195.3662
579.0302, 199.2197
579.5123, 206.6377
579.9944, 227.8223
580.4766, 249.4629
580.9587, 239.7100
581.4408, 187.2510
581.9229, 156.0195
582.4050, 173.9316
582.8871, 198.5264
583.3693, 202.9316
583.8514, 191.3887
584.3335, 176.4668
584.8156, 164.0059
585.2977, 154.5830
585.7798, 148.5615
586.2620, 145.8066
586.7441, 149.1201
587.2262, 160.6494
587.7083, 174.8174
588.1904, 195.7881
588.6725, 215.3770
589.1547, 218.7490
589.6368, 200.8145
590.1189, 174.8232
590.6010, 140.0352
591.0831, 104.5488
591.5652, 77.93262
592.0474, 61.25781
592.5295, 52.62402
593.0116, 50.93945
593.4937, 56.43457
593.9758, 72.62598
594.4579, 113.5674
594.9401, 131.6660
595.4222, 97.47070
595.9043, 62.59082
596.3864, 60.62695
596.8685, 78.39844
597.3506, 78.76270
597.8328, 40.21094
598.3149, 4.446289
598.7970, 26.51758
599.2791, 31.61230
599.7612, 31.40430
600.2433, 28.17578
600.7255, 30.60645
601.2076, 48.74609
601.6897, 79.00586
602.1718, 91.89746
602.6539, 72.14355
603.1360, 55.24316
603.6182, 37.47168
604.1003, 28.40820
604.5824, 47.05664
605.0645, 83.70996
605.5466, 98.94727
606.0287, 57.89941
606.5109, 8.2030997E-02
606.9930, 8.857422
607.4751, 24.35547
607.9572, 44.00098
608.4393, 33.59277
608.9214, 17.78223
609.4036, 22.67383
609.8857, 48.41113
610.3678, 62.92969
610.8499, 55.90332
611.3320, 51.79785
611.8141, 61.15332
612.2963, 73.08594
612.7784, 75.32812
613.2605, 67.52246
613.7426, 58.75781
614.2247, 55.70312
614.7068, 56.70996
615.1890, 58.46973
615.6711, 61.08691
616.1532, 62.10547
616.6353, 60.68262
617.1174, 57.44531
617.5995, 50.46973
618.0817, 39.66602
618.5638, 39.99609
619.0459, 64.90234
619.5280, 86.14941
620.0101, 88.03418
620.4922, 82.53223
620.9744, 89.00684
621.4565, 108.5137
621.9386, 120.7031
622.4207, 104.4697
622.9028, 67.46973
623.3849, 38.54980
623.8671, 17.79004
624.3492, 4.911133
624.8313, 1.825195
625.3134, 4.361328
625.7955, 8.392578
626.2776, 13.84766
626.7598, 19.99805
627.2419, 30.80566
627.7240, 37.86816
628.2061, 37.73730
628.6882, 30.73926
629.1703, 12.49512
629.6525, 15.27441
630.1346, 36.08887
630.6167, 29.51074
631.0988, 2.740234
631.5809, 0.2011720
632.0630, 29.36035
632.5452, 48.07227
633.0273, 35.10938
633.5094, 13.19238
633.9915, 7.531250
634.4736, 17.29297
634.9557, 28.60156
635.4379, 37.20117
635.9200, 48.30957
636.4021, 69.62402
636.8842, 93.61035
637.3663, 108.7861
637.8484, 112.4248
638.3306, 108.0781
638.8127, 95.72070
639.2948, 79.06543
639.7769, 84.53613
640.2590, 120.3047
640.7411, 148.9834
641.2233, 156.1904
641.7054, 155.3838
642.1875, 156.4775
642.6696, 160.1191
643.1517, 176.6641
643.6339, 223.3779
644.1160, 267.3535
644.5981, 292.0049
645.0802, 301.6797
645.5623, 296.0215
646.0444, 279.0244
646.5266, 271.3535
647.0087, 292.9814
647.4908, 339.3887
647.9729, 394.9814
648.4550, 467.1904
648.9371, 516.3535
649.4193, 522.5703
649.9014, 512.5322
650.3835, 506.6680
650.8656, 505.6816
651.3477, 516.1162
651.8298, 544.6416
652.3120, 578.4805
652.7941, 617.2393
653.2762, 655.1699
653.7583, 684.0322
654.2404, 703.0859
654.7225, 717.2100
655.2047, 728.9766
655.6868, 740.6172
656.1689, 760.6611
656.6510, 790.5771
657.1331, 814.9932
657.6152, 826.5947
658.0974, 838.1260
658.5795, 863.1621
659.0616, 897.3486
659.5437, 924.0850
660.0258, 941.8779
660.5079, 956.4951
660.9901, 966.3896
661.4722, 975.3711
661.9543, 988.7168
662.4364, 1003.630
662.9185, 1009.252
663.4006, 996.5840
663.8828, 986.1670
664.3649, 1026.490
664.8470, 1117.022
665.3291, 1173.444
665.8112, 1178.745
666.2933, 1162.900
666.7755, 1137.808
667.2576, 1107.535
667.7397, 1092.756
668.2218, 1104.014
668.7039, 1116.453
669.1860, 1127.467
669.6682, 1134.653
670.1503, 1137.885
670.6324, 1136.713
671.1145, 1127.694
671.5966, 1107.773
672.0787, 1087.148
672.5609, 1084.304
673.0430, 1095.680
673.5251, 1096.735
674.0072, 1085.427
674.4893, 1061.651
674.9714, 1019.748
675.4536, 969.8848
675.9357, 938.5771
676.4178, 930.4590
676.8999, 927.3135
677.3820, 932.5664
677.8641, 940.5537
678.3463, 962.0391
678.8284, 978.8721
679.3105, 956.0107
679.7926, 883.1504
680.2747, 807.6621
680.7568, 786.1318
681.2390, 791.8789
681.7211, 752.1953
682.2032, 667.1895
682.6853, 600.1514
683.1674, 580.1191
683.6495, 584.8564
684.1317, 580.6543
684.6138, 565.7559
685.0959, 550.7490
685.5780, 540.7256
686.0601, 525.2803
686.5422, 499.4277
687.0244, 469.7080
687.5065, 445.0195
687.9886, 424.5840
688.4707, 395.4395
688.9528, 337.8799
689.4349, 277.4922
689.9171, 240.8926
690.3992, 225.4922
690.8813, 232.3545
691.3634, 260.4863
691.8455, 279.8438
692.3276, 256.3193
692.8098, 197.2158
693.2919, 169.2559
693.7740, 188.7832
694.2561, 203.5674
694.7382, 202.5732
695.2203, 194.3057
695.7025, 180.8389
696.1846, 164.6797
696.6667, 155.0625
697.1488, 163.4512
697.6309, 165.0264
698.1130, 136.6650
698.5952, 99.58691
699.0773, 82.85156
699.5594, 85.76172
700.0415, 85.93652
700.5236, 68.21289
701.0057, 47.04297
701.4879, 58.50977
701.9700, 105.1709
702.4521, 129.6602
702.9342, 121.9795
703.4163, 104.1992
703.8984, 84.32129
704.3806, 65.13770
704.8627, 52.53906
705.3448, 45.58105
705.8269, 47.13770
706.3090, 65.19531
706.7911, 84.29297
707.2733, 95.10645
707.7554, 100.5840
708.2375, 104.1084
708.7196, 107.3633
709.2017, 117.5244
709.6838, 154.2676
710.1660, 199.9883
710.6481, 198.5068
711.1302, 152.9307
711.6123, 130.6113
712.0944, 158.3848
712.5765, 205.7207
713.0587, 235.2676
713.5408, 245.9873
714.0229, 261.2100
714.5050, 289.8594
714.9871, 310.5674
715.4692, 314.7109
715.9514, 313.9990
716.4335, 314.8164
716.9156, 319.0488
717.3977, 330.4619
717.8798, 352.7676
718.3619, 379.6279
718.8441, 406.5215
719.3262, 434.3545
719.8083, 468.1123
720.2904, 506.1621
720.7725, 533.7656
721.2546, 538.7373
721.7368, 536.1680
722.2189, 567.0225
722.7010, 638.2100
723.1831, 695.2002
723.6652, 732.6875
724.1473, 757.9785
724.6295, 766.6650
725.1116, 768.8945
725.5937, 788.1357
726.0758, 833.6348
726.5579, 863.4570
727.0400, 853.1475
727.5222, 842.3291
728.0043, 850.9629
728.4864, 876.5479
728.9685, 918.3164
729.4506, 973.4736
729.9327, 1022.885
730.4149, 1045.776
730.8970, 1051.800
731.3791, 1059.676
731.8612, 1069.935
732.3433, 1091.359
732.8254, 1129.072
733.3076, 1160.632
733.7897, 1158.521
734.2718, 1127.180
734.7539, 1125.443
735.2360, 1168.330
735.7181, 1216.231
736.2003, 1278.631
736.6824, 1331.858
737.1645, 1351.320
737.6466, 1350.333
738.1287, 1368.079
738.6108, 1426.370
739.0930, 1476.841
739.5751, 1483.714
740.0572, 1473.975
740.5393, 1478.211
741.0214, 1495.423
741.5035, 1510.540
741.9857, 1516.400
742.4678, 1521.306
742.9499, 1540.282
743.4320, 1571.602
743.9141, 1589.018
744.3962, 1589.090
744.8784, 1594.537
745.3605, 1621.510
745.8426, 1646.226
746.3247, 1628.373
746.8068, 1558.776
747.2889, 1534.609
747.7711, 1601.146
748.2532, 1651.457
748.7353, 1647.383
749.2174, 1626.385
749.6995, 1623.974
750.1816, 1638.267
750.6638, 1643.350
751.1459, 1619.543
751.6280, 1596.663
752.1101, 1607.978
752.5922, 1637.724
753.0743, 1659.482
753.5565, 1669.082
754.0386, 1666.243
754.5207, 1650.016
755.0028, 1627.399
755.4849, 1616.425
755.9670, 1621.131
756.4492, 1592.326
756.9313, 1506.863
757.4134, 1444.980
757.8955, 1454.678
758.3776, 1496.694
758.8597, 1515.851
759.3419, 1513.146
759.8240, 1487.021
760.3061, 1408.745
760.7882, 1341.087
761.2703, 1312.538
761.7524, 1303.237
762.2346, 1293.594
762.7167, 1280.669
763.1988, 1268.413
763.6809, 1256.133
764.1630, 1250.729
764.6451, 1272.305
765.1273, 1304.765
765.6094, 1303.291
766.0915, 1264.653
766.5736, 1222.332
767.0557, 1197.187
767.5378, 1180.247
768.0200, 1149.749
768.5021, 1101.441
768.9842, 1067.598
769.4663, 1056.634
769.9484, 1043.054
770.4305, 1008.193
770.9127, 969.9971
771.3948, 956.8359
771.8769, 970.8428
772.3590, 979.8682
772.8411, 982.6836
773.3232, 977.1602
773.8054, 958.4316
774.2875, 933.6201
774.7696, 904.3643
775.2517, 875.4004
775.7338, 862.3086
776.2159, 881.2549
776.6981, 903.2627
777.1802, 891.8115
777.6623, 859.5898
778.1444, 835.2236
778.6265, 821.9453
779.1086, 810.5020
779.5908, 796.5430
780.0729, 779.3945
780.5550, 752.6240
781.0371, 712.4316
781.5192, 707.0273
782.0013, 754.6445
782.4835, 788.3184
782.9656, 776.6680
783.4477, 744.1748
783.9298, 718.2998
784.4119, 699.0566
784.8940, 691.5322
785.3762, 703.3555
785.8583, 715.7344
786.3404, 722.6572
786.8225, 732.0742
787.3046, 756.4971
787.7867, 785.9775
788.2689, 794.2334
788.7510, 768.0469
789.2331, 735.0967
789.7152, 709.9443
790.1973, 692.0898
790.6794, 687.1562
791.1616, 694.2739
791.6437, 700.9614
792.1258, 700.0156
792.6079, 696.8047
793.0900, 701.7524
793.5721, 714.1450
794.0543, 717.5610
794.5364, 710.2241
795.0185, 695.1094
795.5006, 669.0195
795.9827, 648.5659
796.4648, 653.6294
796.9470, 679.8716
797.4291, 686.6694
797.9112, 654.2646
798.3933, 630.8359
798.8754, 624.7925
799.3575, 621.8154
799.8397, 613.1489
800.3218, 601.3042
800.8039, 592.3569
801.2860, 588.3848
801.7681, 587.9438
802.2502, 590.6533
802.7324, 594.1934
803.2145, 603.2241
803.6966, 610.3179
804.1787, 597.5288
804.6608, 564.0488
805.1429, 533.0786
805.6251, 526.6260
806.1072, 531.0293
806.5893, 512.0688
807.0714, 474.3984
807.5535, 456.4121
808.0356, 465.8203
808.5178, 474.4365
808.9999, 461.7798
809.4820, 439.2490
809.9641, 438.0400
810.4462, 467.9399
810.9283, 482.9839
811.4105, 478.2729
811.8926, 466.6133
812.3747, 450.7910
812.8568, 431.8057
813.3389, 406.4087
813.8210, 374.8970
814.3032, 360.3345
814.7853, 383.2031
815.2674, 401.8921
815.7495, 401.2554
816.2316, 391.0986
816.7137, 373.4043
817.1959, 354.7793
817.6780, 351.6758
818.1601, 374.3872
818.6422, 397.6265
819.1243, 399.6001
819.6064, 388.3975
820.0886, 373.2739
820.5707, 356.4688
821.0528, 344.9263
821.5349, 340.3423
822.0170, 330.4229
822.4991, 296.4248
822.9813, 248.2480
823.4634, 233.9478
823.9455, 255.6553
824.4276, 259.3364
824.9097, 228.4546
825.3918, 200.4253
825.8740, 207.2202
826.3561, 235.5688
826.8382, 239.6719
827.3203, 202.5190
827.8024, 180.4590
828.2845, 183.4609
828.7667, 189.5376
829.2488, 195.2236
829.7309, 197.0684
830.2130, 190.9683
830.6951, 176.6680
831.1772, 157.3174
831.6594, 122.5610
832.1415, 96.46875
832.6236, 96.65723
833.1057, 105.1206
833.5878, 107.9990
834.0699, 101.6270
834.5521, 80.63184
835.0342, 39.33154
835.5163, 1.546387
835.9984, 7.748535
836.4805, 0.9360350
836.9626, 2.619141
837.4448, 3.220703
837.9269, 8.998535
838.4090, 22.19141
838.8911, 31.96338
839.3732, 23.92383
839.8553, 5.949707
840.3375, 12.95020
840.8196, 45.79492
841.3017, 54.68506
841.7838, 26.30615
842.2659, 4.075684
842.7480, 11.62500
843.2302, 6.314941
843.7123, 14.86084
844.1944, 45.65723
844.6765, 61.47021
845.1586, 45.65381
845.6407, 39.66748
846.1229, 72.95312
846.6050, 111.7607
847.0871, 118.6855
847.5692, 96.37354
848.0513, 84.20850
848.5334, 101.8652
849.0156, 110.9141
849.4977, 89.88574
849.9798, 66.28418
850.4619, 64.81689
850.9440, 77.13281
851.4261, 80.29834
851.9083, 66.62012
852.3904, 55.25391
852.8725, 63.67041
853.3546, 76.63867
853.8367, 78.33447
854.3188, 72.05322
854.8010, 65.05908
855.2831, 59.12598
855.7652, 53.18994
856.2473, 46.70410
856.7294, 39.04932
857.2115, 26.50977
857.6937, 11.50977
858.1758, 8.218262
858.6579, 17.29004
859.1400, 19.77002
859.6221, 6.684570
860.1042, 15.98779
860.5864, 42.39258
861.0685, 71.77539
861.5506, 81.49316
862.0327, 62.11768
862.5148, 60.55664
862.9969, 90.45312
863.4791, 134.6333
863.9612, 185.4917
864.4433, 238.5493
864.9254, 276.3823
865.4075, 288.8267
865.8896, 307.4268
866.3718, 324.7871
866.8539, 356.9077
867.3360, 423.5654
867.8181, 498.8965
868.3002, 548.4487
868.7823, 572.8848
869.2645, 612.6245
869.7466, 688.8916
870.2287, 767.7217
870.7108, 835.6221
871.1929, 900.8716
871.6750, 968.0605
872.1572, 1039.153
872.6393, 1117.714
873.1214, 1205.394
873.6035, 1292.238
874.0856, 1376.793
874.5677, 1452.489
875.0499, 1499.489
875.5320, 1536.147
876.0141, 1605.940
876.4962, 1711.625
876.9783, 1816.177
877.4604, 1895.697
877.9426, 1956.108
878.4247, 1997.356
878.9068, 2027.221
879.3889, 2080.791
879.8710, 2157.432
880.3531, 2220.607
880.8353, 2254.727
881.3174, 2278.792
881.7995, 2317.653
882.2816, 2365.514
882.7637, 2383.444
883.2458, 2368.067
883.7280, 2348.235
884.2101, 2330.268
884.6922, 2301.830
885.1743, 2249.789
885.6564, 2188.851
886.1385, 2153.790
886.6207, 2156.148
887.1028, 2132.021
887.5849, 2063.480
888.0670, 1997.311
888.5491, 1938.199
889.0313, 1893.041
889.5134, 1880.196
889.9955, 1888.601
890.4776, 1866.389
890.9597, 1790.021
891.4418, 1719.808
891.9240, 1661.947
892.4061, 1613.907
892.8882, 1578.393
893.3703, 1549.193
893.8524, 1519.673
894.3345, 1488.895
894.8167, 1455.417
895.2988, 1415.172
895.7809, 1376.540
896.2630, 1340.272
896.7451, 1310.417
897.2272, 1291.100
897.7094, 1281.958
898.1915, 1284.132
898.6736, 1298.222
899.1557, 1309.138
899.6378, 1298.587
900.1199, 1282.140
900.6021, 1282.943
901.0842, 1294.138
901.5663, 1298.147
902.0484, 1291.063
902.5305, 1280.200
903.0126, 1271.318
903.4948, 1263.391
903.9769, 1251.376
904.4590, 1237.344
904.9411, 1232.088
905.4232, 1236.925
905.9053, 1246.163
906.3875, 1256.172
906.8696, 1261.458
907.3517, 1257.108
907.8338, 1247.252
908.3159, 1244.097
908.7980, 1246.851
909.2802, 1246.467
909.7623, 1243.060
910.2444, 1235.209
910.7265, 1218.076
911.2086, 1204.204
911.6907, 1215.232
912.1729, 1251.235
912.6550, 1275.337
913.1371, 1282.929
913.6192, 1294.380
914.1013, 1319.926
914.5834, 1336.102
915.0656, 1317.181
915.5477, 1285.393
916.0298, 1293.123
916.5119, 1352.997
916.9940, 1402.166
917.4761, 1442.515
917.9583, 1472.253
918.4404, 1480.225
918.9225, 1486.315
919.4046, 1504.042
919.8867, 1531.557
920.3688, 1564.949
920.8510, 1607.883
921.3331, 1650.849
921.8152, 1692.740
922.2973, 1733.266
922.7794, 1763.373
923.2615, 1797.864
923.7437, 1858.441
924.2258, 1942.750
924.7079, 2021.186
925.1900, 2087.032
925.6721, 2142.911
926.1542, 2183.381
926.6364, 2219.860
927.1185, 2251.733
927.6006, 2290.035
928.0827, 2353.984
928.5648, 2445.914
929.0469, 2546.177
929.5291, 2669.470
930.0112, 2771.372
930.4933, 2795.387
930.9754, 2795.395
931.4575, 2839.581
931.9396, 2922.358
932.4218, 3005.989
932.9039, 3077.443
933.3860, 3148.343
933.8681, 3230.210
934.3502, 3311.565
934.8323, 3377.246
935.3145, 3432.557
935.7966, 3487.221
936.2787, 3542.808
936.7608, 3599.901
937.2429, 3659.620
937.7250, 3712.147
938.2072, 3741.839
938.6893, 3755.693
939.1714, 3770.470
939.6535, 3786.958
940.1356, 3808.036
940.6177, 3834.065
941.0999, 3853.873
941.5820, 3859.362
942.0641, 3863.215
942.5462, 3893.876
943.0283, 3943.872
943.5104, 3969.674
943.9926, 3971.797
944.4747, 3986.059
944.9568, 4023.922
945.4389, 4063.248
945.9210, 4085.708
946.4031, 4091.023
946.8853, 4074.611
947.3674, 4036.516
947.8495, 3999.911
948.3316, 3966.163
948.8137, 3935.451
949.2958, 3908.062
949.7780, 3882.176
950.2601, 3854.774
950.7422, 3828.137
951.2243, 3820.983
951.7064, 3841.979
952.1885, 3820.520
952.6707, 3737.758
953.1528, 3661.042
953.6349, 3626.855
954.1170, 3602.900
954.5991, 3542.510
955.0812, 3447.598
955.5634, 3370.347
956.0455, 3321.470
956.5276, 3258.021
957.0097, 3170.436
957.4918, 3074.956
957.9739, 2978.030
958.4561, 2880.696
958.9382, 2786.380
959.4203, 2695.831
959.9024, 2591.808
960.3845, 2466.302
960.8666, 2342.897
961.3488, 2220.115
961.8309, 2107.595
962.3130, 2024.731
962.7951, 1949.789
963.2772, 1832.078
963.7593, 1655.697
964.2415, 1521.975
964.7236, 1468.735
965.2057, 1403.123
965.6878, 1292.805
966.1699, 1181.407
966.6520, 1101.270
967.1342, 1038.951
967.6163, 963.5127
968.0984, 870.1001
968.5805, 780.4023
969.0626, 689.3784
969.5447, 609.7612
970.0269, 553.1523
970.5090, 501.4067
970.9911, 432.4385
971.4732, 358.3599
971.9553, 316.5137
972.4374, 323.9082
972.9196, 314.5029
973.4017, 259.5259
973.8838, 211.2534
974.3659, 199.8696
974.8480, 193.1226
975.3301, 156.2485
975.8123, 99.74854
976.2944, 61.72705
976.7765, 52.33350
977.2586, 47.53906
977.7407, 43.58105
978.2228, 41.38135
978.7050, 41.81494
979.1871, 43.87646
979.6692, 50.65137
980.1513, 58.23633
980.6334, 52.57764
981.1155, 24.53027
981.5977, 2.585449
982.0798, 0.4077150
982.5619, 0.3012700
983.0440, 8.910156
983.5261, 19.41064
984.0082, 20.45215
984.4904, 14.18164
984.9725, 12.90723
985.4546, 23.80225
985.9367, 28.05225
986.4188, 6.157715
986.9009, 9.899414
987.3831, 7.798828
987.8652, 35.42822
988.3473, 43.61768
988.8294, 33.58643
989.3115, 24.44287
989.7936, 19.90918
990.2758, 22.66406
990.7579, 46.75195
991.2400, 64.33252
991.7221, 52.51270
992.2042, 27.13867
992.6863, 2.926758
993.1685, 15.41895
993.6506, 20.17725
994.1327, 3.654785
994.6148, 11.56104
995.0969, 19.46387
995.5790, 18.35742
996.0612, 5.131348
996.5433, 30.48486
997.0254, 26.06689
997.5075, 2.998047
997.9896, 19.46631
998.4717, 7.999512
998.9539, 9.299805
999.4360, 32.68604
999.9181, 47.23389
1000.400, 31.61133
1000.882, 7.910645
1001.364, 7.342773
1001.847, 27.37158
1002.329, 40.96094
1002.811, 37.63379
1003.293, 30.68262
1003.775, 23.38037
1004.257, 17.76514
1004.739, 15.79150
1005.221, 16.06982
1005.703, 15.06299
1006.186, 14.38428
1006.668, 23.04932
1007.150, 49.98682
1007.632, 66.22705
1008.114, 46.52881
1008.596, 25.11719
1009.078, 26.71826
1009.560, 37.72363
1010.043, 43.31152
1010.525, 41.28613
1011.007, 30.92920
1011.489, 6.862305
1011.971, 6.455078
1012.453, 12.07617
1012.935, 32.29785
1013.417, 30.57715
1013.899, 24.37891
1014.382, 40.15820
1014.864, 70.36670
1015.346, 80.28906
1015.828, 53.07471
1016.310, 37.40186
1016.792, 67.50684
1017.274, 95.60010
1017.756, 89.07324
1018.239, 72.69287
1018.721, 71.93311
1019.203, 84.83838
1019.685, 98.46680
1020.167, 110.8691
1020.649, 118.5957
1021.131, 113.1855
1021.613, 111.9790
1022.095, 124.4941
1022.578, 143.5435
1023.060, 166.4277
1023.542, 189.3486
1024.024, 203.6284
1024.506, 205.8794
1024.988, 211.1792
1025.470, 227.0093
1025.952, 241.8164
1026.435, 244.8457
1026.917, 251.0747
1027.399, 279.3281
1027.881, 318.0396
1028.363, 338.2241
1028.845, 332.2607
1029.327, 342.0186
1029.809, 393.5376
1030.292, 436.0112
1030.774, 446.4902
1031.256, 453.1450
1031.738, 474.3574
1032.220, 505.4697
1032.702, 539.1230
1033.184, 575.5186
1033.666, 603.5811
1034.148, 611.1807
1034.630, 626.2227
1035.113, 657.1226
1035.595, 692.4727
1036.077, 731.6548
1036.559, 768.3555
1037.041, 787.8003
1037.523, 788.9189
1038.005, 811.2847
1038.487, 874.9365
1038.970, 927.5488
1039.452, 957.1191
1039.934, 987.9409
1040.416, 1039.282
1040.898, 1088.201
1041.380, 1105.490
1041.862, 1095.654
1042.344, 1103.167
1042.826, 1135.239
1043.309, 1167.138
1043.791, 1197.355
1044.273, 1231.620
1044.755, 1274.007
1045.237, 1315.409
1045.719, 1347.226
1046.201, 1370.382
1046.683, 1386.094
1047.166, 1394.021
1047.648, 1394.554
1048.130, 1384.010
1048.612, 1375.215
1049.094, 1374.187
1049.576, 1374.495
1050.058, 1369.925
1050.540, 1362.540
1051.022, 1357.955
1051.505, 1356.061
1051.987, 1353.396
1052.469, 1350.782
1052.951, 1339.619
1053.433, 1317.580
1053.915, 1290.638
1054.397, 1260.109
1054.879, 1229.288
1055.361, 1205.942
1055.844, 1188.093
1056.326, 1153.409
1056.808, 1101.030
1057.290, 1065.002
1057.772, 1051.645
1058.254, 1048.676
1058.736, 1049.329
1059.218, 1045.851
1059.701, 1028.987
1060.183, 999.7632
1060.665, 955.8477
1061.147, 901.8975
1061.629, 865.6650
1062.111, 846.8169
1062.593, 830.1699
1063.075, 809.2544
1063.557, 779.1299
1064.040, 730.5854
1064.522, 679.7671
1065.004, 663.2383
1065.486, 665.5259
1065.968, 646.9727
1066.450, 611.5269
1066.932, 584.3120
1067.414, 570.5376
1067.896, 561.4502
1068.379, 552.8838
1068.861, 539.2788
1069.343, 506.3816
1069.825, 469.5959
1070.307, 453.2175
1070.789, 449.6001
1071.271, 442.5564
1071.753, 430.1592
1072.236, 420.4436
1072.718, 418.1833
1073.200, 409.2925
1073.682, 371.8455
1074.164, 336.1025
1074.646, 335.3318
1075.128, 344.9919
1075.610, 331.3723
1076.093, 301.1675
1076.575, 282.0093
1077.057, 281.5220
1077.539, 280.5024
1078.021, 267.8003
1078.503, 256.5811
1078.985, 261.5708
1079.467, 261.8745
1079.949, 230.4775
1080.432, 188.0173
1080.914, 170.6052
1081.396, 181.2964
1081.878, 191.8853
1082.360, 206.7180
1082.842, 206.6785
1083.324, 170.6003
1083.806, 140.8940
1084.288, 143.3337
1084.771, 156.8364
1085.253, 159.3447
1085.735, 152.6902
1086.217, 146.9348
1086.699, 146.6064
1087.181, 134.4077
1087.663, 100.9421
1088.145, 75.02197
1088.628, 65.26367
1089.110, 63.05713
1089.592, 63.75562
1090.074, 65.57275
1090.556, 63.56494
1091.038, 57.31104
1091.520, 62.01440
1092.002, 81.87134
1092.484, 83.66235
1092.967, 59.09961
1093.449, 35.55811
1093.931, 26.44385
1094.413, 26.64600
1094.895, 30.66162
1095.377, 37.24390
1095.859, 45.15479
1096.341, 52.52490
1096.823, 37.17822
1097.306, 1.593262
1097.788, 12.89746
1098.270, 5.961182
1098.752, 31.59766
1099.234, 43.83887
1099.716, 47.35645
1100.198, 45.73633
1100.680, 42.52051
1101.163, 49.87720
1101.645, 60.64819
1102.127, 51.26562
1102.609, 23.91382
1103.091, 5.864258
1103.573, 10.24316
1104.055, 21.25513
1104.537, 33.69312
1105.020, 38.57715
1105.502, 20.43188
1105.984, 4.610840
1106.466, 18.94995
1106.948, 23.09229
1107.430, 22.52759
1107.912, 18.56812
1108.394, 9.907959
1108.876, 12.21973
1109.359, 26.73999
1109.841, 18.49365
1110.323, 8.459229
1110.805, 10.31812
1111.287, 17.23730
1111.769, 22.17676
1112.251, 23.80786
1112.733, 18.98608
1113.215, 3.028076
1113.698, 7.982422
1114.180, 10.50073
1114.662, 13.30103
1115.144, 24.15112
1115.626, 27.02686
1116.108, 6.682129
1116.590, 24.30176
1117.072, 44.05225
1117.555, 52.54980
1118.037, 42.71753
1118.519, 7.889160
1119.001, 5.346436
1119.483, 11.53638
1119.965, 29.87598
1120.447, 37.62231
1120.929, 42.14160
1121.411, 51.31519
1121.894, 62.49170
1122.376, 72.94141
1122.858, 79.40088
1123.340, 57.69824
1123.822, 13.89160
1124.304, 17.56055
1124.786, 28.22314
1125.268, 21.58984
1125.750, 1.235107
1126.233, 26.70044
1126.715, 39.50977
1127.197, 45.70996
1127.679, 53.58911
1128.161, 60.72437
1128.643, 60.37524
1129.125, 56.30542
1129.607, 62.56494
1130.090, 80.71558
1130.572, 87.40723
1131.054, 63.10938
1131.536, 38.61621
1132.018, 23.79932
1132.500, 20.56958
1132.982, 39.93066
1133.464, 64.47461
1133.947, 74.40723
1134.429, 70.64819
1134.911, 63.86670
1135.393, 55.18188
1135.875, 44.21289
1136.357, 21.21948
1136.839, 10.93286
1137.321, 24.98340
1137.803, 42.13330
1138.286, 52.26025
1138.768, 55.91724
1139.250, 51.37769
1139.732, 40.87817
1140.214, 48.66943
1140.696, 79.56323
1141.178, 88.88867
1141.660, 71.53638
1142.142, 56.38647
1142.625, 52.51855
1143.107, 57.80762
1143.589, 72.20288
1144.071, 86.75513
1144.553, 85.50073
1145.035, 71.40112
1145.517, 45.98071
1145.999, 17.77832
1146.482, 17.14819
1146.964, 40.62793
1147.446, 56.95996
1147.928, 55.10596
1148.410, 55.59082
1148.892, 78.96826
1149.374, 101.4712
1149.856, 99.04053
1150.339, 88.23364
1150.821, 84.30908
1151.303, 83.99194
1151.785, 79.09302
1152.267, 70.78149
1152.749, 68.86816
1153.231, 78.57983
1153.713, 83.27319
1154.195, 72.95850
1154.677, 65.72876
1155.160, 71.76074
1155.642, 75.97900
1156.124, 68.24951
1156.606, 56.92432
1157.088, 55.02954
1157.570, 62.03711
1158.052, 73.82446
1158.534, 94.28931
1159.017, 100.4888
1159.499, 89.25220
1159.981, 74.74487
1160.463, 60.30200
1160.945, 50.47925
1161.427, 49.15332
1161.909, 52.10620
1162.391, 53.12939
1162.874, 52.09155
1163.356, 45.06909
1163.838, 35.33911
1164.320, 36.96069
1164.802, 49.49780
1165.284, 64.97290
1165.766, 79.42236
1166.248, 82.88647
1166.730, 63.45410
1167.213, 44.55127
1167.695, 52.22974
1168.177, 62.79907
1168.659, 45.60522
1169.141, 26.23413
1169.623, 44.03247
1170.105, 87.16333
1170.587, 112.3032
1171.069, 110.0676
1171.552, 102.4180
1172.034, 86.69727
1172.516, 79.60449
1172.998, 89.19531
1173.480, 91.33911
1173.962, 70.23901
1174.444, 46.78516
1174.926, 39.92993
1175.409, 45.40356
1175.891, 48.97119
1176.373, 48.37231
1176.855, 38.83643
1177.337, 26.97168
1177.819, 28.61597
1178.301, 46.40942
1178.783, 63.25439
1179.266, 71.05811
1179.748, 68.21997
1180.230, 48.71411
1180.712, 25.01318
1181.194, 15.25854
1181.676, 16.30371
1182.158, 29.40649
1182.640, 46.74658
1183.122, 53.76709
1183.604, 50.68604
1184.087, 50.68872
1184.569, 59.92651
1185.051, 65.21436
1185.533, 59.63135
1186.015, 49.49146
1186.497, 32.97607
1186.979, 17.01489
1187.461, 5.493164
1187.944, 1.004150
1188.426, 4.937012
1188.908, 5.494629
1189.390, 1.754883
1189.872, 20.62012
1190.354, 33.74170
1190.836, 40.78491
1191.318, 43.98706
1191.801, 43.46680
1192.283, 39.80713
1192.765, 32.45581
1193.247, 26.20654
1193.729, 27.59668
1194.211, 32.36670
1194.693, 28.92432
1195.175, 21.20044
1195.657, 17.05078
1196.140, 17.91626
1196.622, 31.98511
1197.104, 55.55298
1197.586, 63.17114
1198.068, 41.71924
1198.550, 22.30151
1199.032, 24.69189
1199.514, 33.84912
1199.996, 50.94360
1200.479, 59.70630
1200.961, 35.94824
1201.443, 2.561035
1201.925, 2.671875
1202.407, 17.29614
1202.889, 21.39722
1203.371, 2.9541001E-02
1203.853, 4.277344
1204.336, 16.12793
1204.818, 26.87158
1205.300, 19.65405
1205.782, 13.05420
1206.264, 15.91162
1206.746, 26.10254
1207.228, 44.56226
1207.710, 61.28027
1208.193, 41.36963
1208.675, 2.901367
1209.157, 11.37769
1209.639, 50.09375
1210.121, 63.94458
1210.603, 47.98096
1211.085, 27.94360
1211.567, 14.15503
1212.049, 9.759766
1212.531, 24.87769
1213.014, 40.46802
1213.496, 46.72778
1213.978, 48.66016
1214.460, 44.92432
1214.942, 41.62378
1215.424, 51.67603
1215.906, 69.63135
1216.388, 69.58008
1216.871, 49.29565
1217.353, 36.06006
1217.835, 31.54639
1218.317, 33.16528
1218.799, 41.45557
1219.281, 42.54712
1219.763, 28.18506
1220.245, 11.97266
1220.728, 7.881104
1221.210, 13.73804
1221.692, 35.85498
1222.174, 60.80029
1222.656, 55.81787
1223.138, 33.94043
1223.620, 19.48462
1224.102, 15.42920
1224.584, 19.74585
1225.067, 33.37622
1225.549, 38.34302
1226.031, 12.25024
1226.513, 0.8090820
1226.995, 36.63818
1227.477, 30.63208
1227.959, 0.0000000E+00
##END=



