##NAMES=Tsumebite
##RRUFFID=R080020
##IDEAL CHEMISTRY=Pb_2_Cu(PO_4_)(SO_4_)(OH)
##LOCALITY=Mex-Tex mine, Bingham, Hansonburg District, Socorro County, New Mexico, USA
##OWNER=RRUFF
##SOURCE=William W. Pinch
##DESCRIPTION=Teal-green micro-crystals, massive, associated with quartz
##STATUS=The identification of this mineral has been confirmed by single-crystal X-ray diffraction.
##URL=rruff.info/R080020
139.6894, 0.0000000E+00
140.1716, 4.4769000E-02
140.6537, 3.2410000E-02
141.1358, 0.8445430
141.6179, 2.588623
142.1000, 4.847260
142.5821, 7.067596
143.0643, 9.244507
143.5464, 11.32281
144.0285, 13.31448
144.5106, 15.30405
144.9927, 16.98584
145.4748, 18.28662
145.9570, 19.27515
146.4391, 20.15939
146.9212, 21.07578
147.4033, 21.69998
147.8854, 21.84738
148.3675, 21.05872
148.8497, 20.61456
149.3318, 20.50061
149.8139, 20.66013
150.2960, 21.11804
150.7781, 22.35687
151.2602, 23.57458
151.7424, 24.27664
152.2245, 23.88474
152.7066, 23.61667
153.1887, 23.56320
153.6708, 23.73236
154.1529, 23.93579
154.6351, 24.36792
155.1172, 24.81479
155.5993, 25.10748
156.0814, 25.08511
156.5635, 25.14780
157.0456, 25.65839
157.5278, 26.70447
158.0099, 27.61816
158.4920, 26.73676
158.9741, 25.24094
159.4562, 24.10162
159.9383, 23.79572
160.4205, 23.83182
160.9026, 23.83875
161.3847, 23.79599
161.8668, 24.13068
162.3489, 24.00592
162.8310, 23.06760
163.3132, 21.75064
163.7953, 19.91443
164.2774, 18.14307
164.7595, 16.91757
165.2416, 16.39832
165.7237, 15.62317
166.2059, 13.42242
166.6880, 10.71234
167.1701, 8.862671
167.6522, 9.263367
168.1343, 10.13477
168.6164, 10.18866
169.0986, 9.164612
169.5807, 7.891052
170.0628, 6.874329
170.5449, 6.005524
171.0270, 5.079865
171.5091, 3.852417
171.9913, 2.593048
172.4734, 1.569794
172.9555, 0.8384090
173.4376, 0.2674560
173.9197, 0.1988530
174.4018, 0.5881650
174.8840, 0.9691470
175.3661, 1.670532
175.8482, 2.282806
176.3303, 2.156036
176.8124, 0.9825740
177.2945, 0.4179380
177.7767, 1.234375
178.2588, 1.554321
178.7409, 1.664032
179.2230, 1.687714
179.7051, 1.584259
180.1872, 1.223175
180.6694, 0.4133300
181.1515, 0.3660890
181.6336, 0.1141050
182.1157, 0.9958800
182.5978, 1.763397
183.0799, 0.8955990
183.5621, 1.002960
184.0442, 2.164917
184.5263, 2.105499
185.0084, 1.326050
185.4905, 0.5941470
185.9726, 8.9386001E-02
186.4547, 0.7005920
186.9369, 1.150879
187.4190, 1.469086
187.9011, 1.842407
188.3832, 2.393250
188.8653, 2.975952
189.3474, 3.178986
189.8296, 2.984924
190.3117, 2.758759
190.7938, 2.606964
191.2759, 2.594055
191.7580, 3.286987
192.2401, 5.162048
192.7223, 7.656738
193.2044, 8.855774
193.6865, 8.609467
194.1686, 8.165985
194.6507, 8.807190
195.1328, 10.47302
195.6150, 11.88596
196.0971, 12.64633
196.5792, 12.94302
197.0613, 13.53543
197.5434, 14.53497
198.0255, 15.73865
198.5077, 17.10138
198.9898, 18.58292
199.4719, 19.93118
199.9540, 21.27402
200.4361, 22.53973
200.9182, 22.97980
201.4004, 22.29202
201.8825, 21.42752
202.3646, 21.57065
202.8467, 22.89523
203.3288, 24.06180
203.8109, 24.71503
204.2931, 24.92578
204.7752, 25.28055
205.2573, 25.86163
205.7394, 26.37244
206.2215, 26.48615
206.7036, 26.15927
207.1858, 25.72345
207.6679, 25.21527
208.1500, 24.64511
208.6321, 24.21503
209.1142, 23.98849
209.5963, 23.77686
210.0785, 23.37643
210.5606, 22.77255
211.0427, 22.15530
211.5248, 21.44962
212.0069, 20.64413
212.4890, 20.26550
212.9712, 20.45688
213.4533, 20.73096
213.9354, 20.63089
214.4175, 20.13028
214.8996, 19.57822
215.3817, 18.98358
215.8639, 18.30563
216.3460, 17.42053
216.8281, 16.13620
217.3102, 14.96484
217.7923, 14.57788
218.2744, 15.31039
218.7566, 15.95297
219.2387, 16.25995
219.7208, 16.22641
220.2029, 15.89545
220.6850, 15.11884
221.1671, 14.23410
221.6493, 13.64688
222.1314, 13.46246
222.6135, 13.30301
223.0956, 13.06354
223.5777, 12.72424
224.0598, 12.66843
224.5420, 13.09955
225.0241, 13.57632
225.5062, 13.52887
225.9883, 12.47452
226.4704, 11.94183
226.9525, 12.45068
227.4347, 14.05743
227.9168, 15.18857
228.3989, 15.73773
228.8810, 15.93555
229.3631, 15.95447
229.8452, 15.57013
230.3274, 15.45285
230.8095, 15.89319
231.2916, 16.92941
231.7737, 17.35568
232.2558, 16.88403
232.7379, 16.10599
233.2201, 15.58707
233.7022, 15.39575
234.1843, 15.40582
234.6664, 15.75314
235.1485, 16.44836
235.6306, 16.85208
236.1128, 16.90103
236.5949, 16.70126
237.0770, 16.32706
237.5591, 15.67453
238.0412, 15.03848
238.5233, 14.45068
239.0055, 13.88300
239.4876, 13.44562
239.9697, 13.18063
240.4518, 13.00940
240.9339, 12.88364
241.4160, 12.81924
241.8982, 12.55499
242.3803, 12.06046
242.8624, 11.39011
243.3445, 10.99585
243.8266, 11.13675
244.3087, 11.22208
244.7909, 10.69736
245.2730, 9.047913
245.7551, 7.811768
246.2372, 7.292633
246.7193, 7.436798
247.2014, 7.560760
247.6836, 7.714569
248.1657, 7.773224
248.6478, 7.636536
249.1299, 7.235168
249.6120, 6.792297
250.0941, 6.353882
250.5762, 5.907745
251.0584, 5.334625
251.5405, 4.546173
252.0226, 3.749664
252.5047, 3.118164
252.9868, 2.723816
253.4689, 2.343689
253.9511, 1.997803
254.4332, 1.655151
254.9153, 1.092987
255.3974, 5.6580000E-02
255.8795, 0.7968440
256.3617, 0.9353940
256.8438, 9.0851001E-02
257.3259, 0.6046750
257.8080, 0.1803280
258.2901, 0.8276060
258.7722, 0.9933170
259.2544, 4.9102999E-02
259.7365, 1.315857
260.2186, 2.318268
260.7007, 3.045654
261.1828, 3.473938
261.6649, 3.456818
262.1471, 3.177307
262.6292, 3.248352
263.1113, 3.902588
263.5934, 4.423431
264.0755, 4.397644
264.5576, 3.642853
265.0398, 2.973480
265.5219, 2.404938
266.0040, 1.930542
266.4861, 1.557922
266.9682, 1.386230
267.4503, 1.088196
267.9325, 0.4429630
268.4146, 0.7116390
268.8967, 1.507477
269.3788, 1.935760
269.8609, 2.008575
270.3430, 1.590912
270.8252, 0.4533080
271.3073, 0.4085390
271.7894, 0.3966060
272.2715, 0.6262820
272.7536, 1.004578
273.2357, 0.5804440
273.7179, 0.2569270
274.2000, 0.9625550
274.6821, 1.519684
275.1642, 1.977905
275.6463, 2.338806
276.1284, 2.605133
276.6106, 2.853119
277.0927, 3.069397
277.5748, 3.288757
278.0569, 3.550201
278.5390, 3.851379
279.0211, 4.211792
279.5032, 4.704376
279.9854, 5.292511
280.4675, 5.557709
280.9496, 5.397400
281.4317, 5.263794
281.9138, 5.699432
282.3959, 6.727631
282.8781, 7.795654
283.3602, 8.780914
283.8423, 9.692657
284.3244, 10.61172
284.8065, 11.57523
285.2886, 12.38110
285.7708, 12.58160
286.2529, 12.23306
286.7350, 12.55200
287.2171, 14.03918
287.6992, 16.18277
288.1813, 17.43063
288.6635, 17.74310
289.1456, 18.03336
289.6277, 19.01764
290.1098, 20.62207
290.5919, 22.43170
291.0740, 24.54504
291.5562, 26.59442
292.0383, 27.64603
292.5204, 27.79181
293.0025, 28.04907
293.4846, 29.27664
293.9667, 31.22241
294.4489, 32.86771
294.9310, 34.05270
295.4131, 35.02722
295.8952, 36.08218
296.3773, 37.20810
296.8594, 38.34573
297.3416, 39.34686
297.8237, 40.36349
298.3058, 41.84457
298.7879, 43.92661
299.2700, 46.03870
299.7521, 47.29990
300.2343, 47.97122
300.7164, 48.83676
301.1985, 50.44019
301.6806, 52.41553
302.1627, 54.17035
302.6448, 55.67667
303.1270, 57.09943
303.6091, 58.62788
304.0912, 60.16103
304.5733, 61.55141
305.0554, 62.53989
305.5375, 63.46559
306.0197, 64.88782
306.5018, 66.76535
306.9839, 68.36440
307.4660, 68.73630
307.9481, 68.54184
308.4302, 68.71365
308.9124, 69.93359
309.3945, 71.34824
309.8766, 72.23772
310.3587, 72.68195
310.8408, 73.05249
311.3229, 73.85614
311.8051, 74.57977
312.2872, 74.61328
312.7693, 73.42642
313.2514, 72.15631
313.7335, 71.42911
314.2156, 71.18079
314.6978, 71.15353
315.1799, 71.33038
315.6620, 71.47858
316.1441, 71.44705
316.6262, 71.35251
317.1083, 70.98407
317.5905, 70.06360
318.0726, 68.75552
318.5547, 67.36615
319.0368, 65.90579
319.5189, 64.45752
320.0010, 63.07141
320.4832, 61.75137
320.9653, 60.49225
321.4474, 59.46411
321.9295, 58.43198
322.4116, 57.12000
322.8937, 54.77872
323.3759, 52.82068
323.8580, 51.99185
324.3401, 52.40353
324.8222, 52.10086
325.3043, 50.31232
325.7864, 47.95184
326.2686, 45.68692
326.7507, 43.43912
327.2328, 41.51096
327.7149, 40.21353
328.1970, 39.49271
328.6791, 38.37894
329.1613, 36.35519
329.6434, 34.25159
330.1255, 32.45782
330.6076, 31.39044
331.0897, 30.16284
331.5718, 28.63858
332.0540, 26.94574
332.5361, 25.49307
333.0182, 24.25012
333.5003, 23.26147
333.9824, 22.65125
334.4645, 22.72382
334.9467, 22.19836
335.4288, 20.82758
335.9109, 19.03745
336.3930, 17.52411
336.8751, 16.30316
337.3572, 15.30875
337.8394, 14.58133
338.3215, 14.14145
338.8036, 13.53336
339.2857, 12.73459
339.7678, 11.80670
340.2499, 10.72693
340.7321, 9.450256
341.2142, 8.403137
341.6963, 7.768127
342.1784, 7.433350
342.6605, 6.850800
343.1426, 5.973724
343.6248, 5.071381
344.1069, 4.344543
344.5890, 3.797913
345.0711, 3.384949
345.5532, 3.155640
346.0353, 2.969177
346.5175, 2.485229
346.9996, 1.704987
347.4817, 0.9418030
347.9638, 0.2368770
348.4459, 0.3204650
348.9280, 0.2396550
349.4102, 0.6524960
349.8923, 1.597351
350.3744, 1.351257
350.8565, 0.2272950
351.3386, 0.5581970
351.8207, 4.4098001E-02
352.3029, 1.047028
352.7850, 1.365692
353.2671, 0.8882450
353.7492, 0.5760800
354.2313, 1.893768
354.7134, 3.867340
355.1956, 4.772552
355.6777, 3.511841
356.1598, 1.423248
356.6419, 0.5237730
357.1240, 2.301758
357.6061, 3.765594
358.0883, 4.690277
358.5704, 5.324280
359.0525, 5.905701
359.5346, 6.526489
360.0167, 7.026062
360.4988, 7.423431
360.9810, 7.636292
361.4631, 7.473969
361.9452, 6.562531
362.4273, 5.482147
362.9094, 4.517761
363.3915, 3.690948
363.8737, 3.046234
364.3558, 2.898773
364.8379, 2.852417
365.3200, 2.443939
365.8021, 1.028412
366.2842, 0.2333070
366.7664, 0.7914730
367.2485, 0.6328430
367.7306, 0.9823910
368.2127, 2.348877
368.6948, 4.046173
369.1769, 5.633759
369.6591, 7.175629
370.1412, 8.518250
370.6233, 9.480652
371.1054, 10.21927
371.5875, 11.34094
372.0696, 13.06909
372.5518, 14.88992
373.0339, 16.57330
373.5160, 17.97574
373.9981, 19.68704
374.4802, 21.84714
374.9623, 24.22531
375.4445, 26.38364
375.9266, 28.21024
376.4087, 30.18683
376.8908, 32.45013
377.3729, 35.00339
377.8550, 37.74915
378.3372, 40.73776
378.8193, 43.71924
379.3014, 46.17520
379.7835, 48.07288
380.2656, 50.78015
380.7477, 54.81546
381.2299, 59.56439
381.7120, 63.55392
382.1941, 66.73691
382.6762, 69.69604
383.1583, 72.83957
383.6404, 76.07632
384.1226, 78.90323
384.6047, 81.22958
385.0868, 83.28616
385.5689, 85.59998
386.0510, 87.97400
386.5331, 89.71030
387.0153, 90.30746
387.4974, 90.16357
387.9795, 89.87369
388.4616, 89.44958
388.9437, 88.64182
389.4258, 87.10721
389.9080, 85.10880
390.3901, 83.00845
390.8722, 80.65225
391.3543, 78.55328
391.8364, 77.49454
392.3185, 77.14465
392.8007, 76.24210
393.2828, 73.80258
393.7649, 70.82837
394.2470, 67.97659
394.7291, 65.30127
395.2112, 62.88016
395.6934, 60.88077
396.1755, 59.11493
396.6576, 57.30490
397.1397, 54.98090
397.6218, 52.97772
398.1039, 51.72839
398.5861, 51.33188
399.0682, 50.66171
399.5503, 49.35095
400.0324, 47.88116
400.5145, 46.61581
400.9966, 45.57156
401.4788, 44.71390
401.9609, 44.15356
402.4430, 43.79382
402.9251, 43.22787
403.4072, 42.27161
403.8893, 41.39093
404.3714, 40.82751
404.8535, 40.66821
405.3357, 40.43719
405.8178, 40.08289
406.2999, 39.67453
406.7820, 39.37717
407.2641, 39.25180
407.7462, 39.02972
408.2284, 38.49609
408.7105, 37.79550
409.1926, 37.78799
409.6747, 38.61829
410.1568, 39.57001
410.6389, 39.93393
411.1211, 39.82410
411.6032, 39.89111
412.0853, 40.23917
412.5674, 40.82443
413.0495, 41.65903
413.5316, 42.71552
414.0138, 43.82037
414.4959, 44.81302
414.9780, 45.73874
415.4601, 46.72705
415.9422, 47.81943
416.4243, 49.00113
416.9065, 50.31479
417.3886, 51.69104
417.8707, 53.00424
418.3528, 54.16968
418.8349, 55.33157
419.3170, 56.66354
419.7992, 58.17624
420.2813, 59.64172
420.7634, 60.60693
421.2455, 61.73947
421.7276, 63.51123
422.2097, 66.18176
422.6919, 68.98807
423.1740, 72.19318
423.6561, 75.38791
424.1382, 77.93283
424.6203, 78.37497
425.1024, 79.39468
425.5846, 81.87741
426.0667, 85.90726
426.5488, 89.69528
427.0309, 93.03336
427.5130, 96.35495
427.9951, 99.93552
428.4773, 103.6829
428.9594, 107.8991
429.4415, 112.6561
429.9236, 117.8503
430.4057, 123.2812
430.8878, 128.8505
431.3700, 134.8943
431.8521, 141.7520
432.3342, 149.4268
432.8163, 156.6400
433.2984, 163.3154
433.7805, 169.8119
434.2627, 176.3123
434.7448, 182.8763
435.2269, 190.1461
435.7090, 198.6566
436.1911, 207.7202
436.6732, 216.0740
437.1554, 223.7532
437.6375, 230.7501
438.1196, 237.3140
438.6017, 243.1118
439.0838, 247.5146
439.5659, 250.3743
440.0481, 252.2876
440.5302, 253.7910
441.0123, 254.7213
441.4944, 254.8066
441.9765, 254.1044
442.4586, 252.3883
442.9408, 249.1275
443.4229, 244.5175
443.9050, 239.8680
444.3871, 236.2067
444.8692, 232.4292
445.3513, 227.7676
445.8335, 221.5710
446.3156, 215.4211
446.7977, 209.4533
447.2798, 203.7652
447.7619, 198.5603
448.2440, 193.7261
448.7262, 189.5677
449.2083, 186.4101
449.6904, 184.3029
450.1725, 181.7455
450.6546, 178.1436
451.1367, 174.8784
451.6189, 173.0771
452.1010, 173.0459
452.5831, 173.4163
453.0652, 174.0190
453.5473, 175.0035
454.0294, 176.6989
454.5116, 179.1328
454.9937, 182.2466
455.4758, 185.9030
455.9579, 190.1356
456.4400, 195.5195
456.9221, 202.1531
457.4043, 209.5288
457.8864, 217.1632
458.3685, 225.1347
458.8506, 233.9870
459.3327, 243.9836
459.8148, 254.5244
460.2970, 265.3336
460.7791, 276.2653
461.2612, 286.4984
461.7433, 296.1484
462.2254, 304.5153
462.7076, 310.9082
463.1897, 315.3328
463.6718, 317.9842
464.1539, 319.2795
464.6360, 318.7175
465.1181, 315.7568
465.6003, 309.8650
466.0824, 302.0182
466.5645, 291.6706
467.0466, 279.3905
467.5287, 267.3322
468.0108, 255.9715
468.4930, 244.6408
468.9751, 233.0262
469.4572, 220.9402
469.9393, 209.3705
470.4214, 198.3405
470.9035, 187.9044
471.3857, 178.1710
471.8678, 169.2260
472.3499, 160.6477
472.8320, 152.1852
473.3141, 143.9738
473.7962, 136.3174
474.2784, 129.2137
474.7605, 122.7093
475.2426, 116.8481
475.7247, 111.5988
476.2068, 106.9655
476.6889, 102.9430
477.1711, 99.40744
477.6532, 96.35175
478.1353, 93.68225
478.6174, 91.10928
479.0995, 88.32159
479.5816, 85.82248
480.0638, 84.43851
480.5459, 83.91580
481.0280, 83.34656
481.5101, 82.47824
481.9922, 81.17548
482.4743, 79.18982
482.9565, 76.34161
483.4386, 73.62457
483.9207, 71.50665
484.4028, 69.72128
484.8849, 67.99344
485.3670, 66.53281
485.8492, 64.86423
486.3313, 62.87650
486.8134, 60.60440
487.2955, 58.18643
487.7776, 55.40103
488.2597, 52.82758
488.7419, 50.74045
489.2240, 49.27414
489.7061, 47.77301
490.1882, 46.25095
490.6703, 44.67120
491.1524, 42.89420
491.6346, 40.84634
492.1167, 39.04135
492.5988, 37.55927
493.0809, 36.33539
493.5630, 35.29462
494.0451, 34.41772
494.5273, 33.56488
495.0094, 32.72705
495.4915, 31.82654
495.9736, 30.61786
496.4557, 29.08145
496.9378, 27.50772
497.4200, 26.18018
497.9021, 24.99283
498.3842, 23.81677
498.8663, 22.59399
499.3484, 21.37762
499.8305, 20.33075
500.3127, 19.32697
500.7948, 18.04770
501.2769, 16.06943
501.7590, 14.03697
502.2411, 12.23119
502.7232, 10.66527
503.2054, 9.240173
503.6875, 7.849243
504.1696, 6.669556
504.6517, 5.893845
505.1338, 6.045959
505.6159, 5.646774
506.0981, 4.340973
506.5802, 2.557144
507.0623, 1.307358
507.5444, 0.6927490
508.0265, 0.2323300
508.5086, 0.2396700
508.9908, 0.7163240
509.4729, 1.120438
509.9550, 1.440323
510.4371, 1.758240
510.9192, 2.104095
511.4013, 2.496521
511.8835, 3.065689
512.3655, 3.927155
512.8477, 4.664215
513.3298, 4.596588
513.8119, 4.015106
514.2940, 3.615082
514.7761, 3.868347
515.2582, 4.299469
515.7404, 4.626617
516.2225, 4.836487
516.7046, 4.884415
517.1867, 4.587097
517.6688, 4.235474
518.1509, 4.058182
518.6331, 4.262512
519.1152, 4.216354
519.5973, 3.618011
520.0794, 2.795334
520.5615, 2.170181
521.0436, 1.870682
521.5258, 1.576675
522.0079, 1.237656
522.4900, 0.8699490
522.9721, 0.5426180
523.4542, 0.2641750
523.9363, 1.3580000E-02
524.4185, 0.1917270
524.9006, 0.3544460
525.3827, 0.6077420
525.8648, 0.9499360
526.3469, 1.407944
526.8290, 2.005096
527.3112, 2.746719
527.7933, 3.685898
528.2754, 4.961853
528.7575, 6.229538
529.2396, 7.038406
529.7217, 7.505157
530.2039, 7.959778
530.6860, 8.512299
531.1681, 9.161896
531.6502, 9.881592
532.1323, 10.67451
532.6144, 11.65874
533.0966, 13.13959
533.5787, 14.66125
534.0608, 15.92485
534.5429, 16.85275
535.0250, 17.54544
535.5071, 17.89539
535.9893, 18.04979
536.4714, 18.23611
536.9535, 18.62503
537.4356, 18.70546
537.9177, 18.27299
538.3998, 17.42599
538.8820, 16.82385
539.3641, 16.53217
539.8462, 16.23100
540.3283, 15.77675
540.8104, 15.16586
541.2925, 14.29620
541.7747, 13.14389
542.2568, 11.89647
542.7389, 10.65204
543.2210, 9.470413
543.7031, 8.487122
544.1852, 7.731049
544.6674, 7.205017
545.1495, 7.067825
545.6316, 7.182571
546.1137, 7.206909
546.5958, 6.985046
547.0779, 6.635147
547.5601, 6.136139
548.0422, 5.483566
548.5243, 5.020248
549.0064, 4.874268
549.4885, 4.900726
549.9706, 5.015045
550.4528, 5.262604
550.9349, 5.493820
551.4170, 5.672867
551.8991, 5.859711
552.3812, 6.180222
552.8633, 6.699936
553.3455, 7.059875
553.8276, 7.094925
554.3097, 6.954361
554.7918, 7.206345
555.2739, 7.849670
555.7560, 8.398056
556.2382, 8.437683
556.7203, 8.194641
557.2024, 8.177475
557.6845, 8.415314
558.1666, 8.714752
558.6487, 8.922089
559.1309, 9.095428
559.6130, 9.313629
560.0951, 9.635437
560.5772, 9.929520
561.0593, 10.19760
561.5414, 10.38446
562.0236, 10.39232
562.5057, 9.750504
562.9878, 9.387833
563.4699, 9.806671
563.9520, 10.88998
564.4341, 11.37798
564.9163, 10.91914
565.3984, 10.35295
565.8805, 10.05920
566.3626, 10.04889
566.8447, 10.19910
567.3268, 10.56783
567.8090, 10.94702
568.2911, 11.16270
568.7732, 11.20096
569.2553, 10.86096
569.7374, 9.925766
570.2195, 8.909897
570.7017, 8.639832
571.1838, 8.976807
571.6659, 9.348862
572.1480, 9.473328
572.6301, 9.442184
573.1122, 9.312744
573.5944, 9.105957
574.0765, 8.917053
574.5586, 8.807236
575.0407, 8.749969
575.5228, 8.718781
576.0049, 8.685715
576.4871, 8.680252
576.9692, 8.765411
577.4513, 8.904648
577.9334, 9.041626
578.4155, 9.103455
578.8976, 9.300171
579.3798, 9.783081
579.8619, 10.32455
580.3440, 10.21401
580.8261, 9.382645
581.3082, 8.777878
581.7903, 8.847183
582.2725, 9.422546
582.7546, 10.13531
583.2367, 10.97102
583.7188, 11.67357
584.2009, 11.88606
584.6830, 11.90979
585.1652, 12.17307
585.6473, 12.76523
586.1294, 13.32123
586.6115, 13.55231
587.0936, 13.66487
587.5757, 13.87592
588.0579, 14.55954
588.5400, 14.97263
589.0221, 14.57066
589.5042, 13.83833
589.9863, 14.01144
590.4684, 15.95181
590.9506, 17.45781
591.4327, 17.80316
591.9148, 17.13216
592.3969, 16.89018
592.8790, 17.16522
593.3611, 17.56583
593.8433, 17.84946
594.3254, 18.05771
594.8075, 18.29915
595.2896, 18.53026
595.7717, 18.92091
596.2538, 20.02715
596.7360, 21.39839
597.2181, 22.06485
597.7002, 21.34410
598.1823, 20.71303
598.6644, 21.51042
599.1465, 23.07774
599.6287, 24.31046
600.1108, 24.49950
600.5929, 24.52078
601.0750, 24.64594
601.5571, 24.90189
602.0392, 25.15358
602.5214, 25.16260
603.0035, 25.38089
603.4856, 26.15430
603.9677, 27.57974
604.4498, 28.45085
604.9319, 28.66554
605.4141, 28.53226
605.8962, 28.18478
606.3783, 27.67790
606.8604, 27.51814
607.3425, 27.88704
607.8246, 28.09773
608.3068, 27.05731
608.7889, 25.25597
609.2710, 23.79169
609.7531, 23.43074
610.2352, 23.06714
610.7173, 21.74135
611.1995, 19.82561
611.6816, 18.31888
612.1637, 17.85683
612.6458, 17.56374
613.1279, 17.12721
613.6100, 16.51830
614.0922, 15.84222
614.5743, 14.96681
615.0564, 14.20526
615.5385, 13.75119
616.0206, 13.65132
616.5027, 13.57895
616.9849, 13.55914
617.4670, 13.50348
617.9491, 13.20847
618.4312, 12.75145
618.9133, 12.59647
619.3954, 12.92163
619.8776, 13.36197
620.3597, 13.33846
620.8418, 13.07364
621.3239, 13.09384
621.8060, 14.10631
622.2881, 15.02415
622.7703, 15.05774
623.2524, 14.41891
623.7345, 13.99426
624.2166, 14.12456
624.6987, 14.40192
625.1808, 14.71080
625.6630, 15.05904
626.1451, 15.26256
626.6272, 15.19728
627.1093, 15.16531
627.5914, 15.58783
628.0735, 16.56213
628.5557, 16.41457
629.0378, 14.86789
629.5199, 12.96555
630.0020, 12.02672
630.4841, 11.75063
630.9662, 11.14503
631.4484, 9.803055
631.9305, 8.398010
632.4126, 7.703064
632.8947, 7.428009
633.3768, 6.962463
633.8589, 5.850998
634.3411, 4.725952
634.8232, 3.796371
635.3053, 3.067474
635.7874, 2.527802
636.2695, 2.384659
636.7516, 2.191574
637.2338, 1.731415
637.7159, 0.9697880
638.1980, 0.5631260
638.6801, 0.5660860
639.1622, 0.7347260
639.6443, 0.9541780
640.1265, 1.196899
640.6086, 1.212570
641.0907, 0.9428710
641.5728, 0.6652830
642.0549, 0.7723540
642.5370, 1.062439
643.0192, 1.131134
643.5013, 0.7316890
643.9834, 0.3673860
644.4655, 0.5561070
644.9476, 0.9596410
645.4297, 1.005539
645.9119, 8.2090003E-03
646.3940, 0.7886510
646.8761, 0.8355410
647.3582, 0.3602450
647.8403, 0.1722720
648.3224, 0.4452970
648.8046, 0.6521760
649.2867, 0.5628660
649.7688, 0.2184600
650.2509, 2.6703000E-02
650.7330, 0.1798860
651.2151, 0.1583710
651.6973, 0.3010710
652.1794, 0.9539030
652.6615, 1.119995
653.1436, 0.7306370
653.6257, 0.3147130
654.1078, 0.3820500
654.5900, 0.6027530
655.0721, 0.5715640
655.5542, 4.8981000E-02
656.0363, 0.4091030
656.5184, 8.0352999E-02
657.0005, 0.8518680
657.4827, 1.145370
657.9648, 0.4971920
658.4469, 0.1307370
658.9290, 0.3393550
659.4111, 0.8276980
659.8932, 0.8110500
660.3754, 0.2183990
660.8575, 0.2236790
661.3396, 0.1060030
661.8217, 0.2537230
662.3038, 0.1019440
662.7859, 1.047287
663.2681, 1.732193
663.7502, 1.343674
664.2323, 0.6158290
664.7144, 0.2808690
665.1965, 0.3649440
665.6786, 0.4329380
666.1608, 0.1366730
666.6429, 0.1091770
667.1250, 3.1189000E-02
667.6071, 0.9289090
668.0892, 1.255692
668.5714, 0.7126770
669.0535, 5.6992002E-02
669.5356, 0.5177920
670.0177, 0.6621700
670.4998, 0.5170440
670.9819, 3.4479999E-03
671.4641, 0.5922390
671.9462, 0.7402800
672.4283, 0.5563960
672.9104, 0.4877470
673.3925, 0.7548070
673.8746, 1.034134
674.3568, 0.9225620
674.8389, 0.5753330
675.3210, 0.3282620
675.8031, 0.5081180
676.2852, 0.6226350
676.7673, 0.3759000
677.2495, 0.1540070
677.7316, 0.4464720
678.2137, 0.4397580
678.6958, 0.2568210
679.1779, 0.1494750
679.6600, 0.7599790
680.1422, 0.9983980
680.6243, 0.8209530
681.1064, 0.5580140
681.5885, 0.4358060
682.0706, 0.4120480
682.5527, 0.2927250
683.0349, 6.1508000E-02
683.5170, 1.5410000E-03
683.9991, 0.5480650
684.4812, 1.278107
684.9633, 1.698227
685.4454, 1.642136
685.9276, 1.509552
686.4097, 1.338547
686.8918, 1.208633
687.3739, 1.207764
687.8560, 1.382156
688.3381, 1.602463
688.8203, 1.862762
689.3024, 2.163269
689.7845, 2.565140
690.2666, 3.090210
690.7487, 3.355606
691.2308, 3.139679
691.7130, 2.789413
692.1951, 2.977570
692.6772, 3.572052
693.1593, 4.102020
693.6414, 4.412567
694.1235, 4.505722
694.6057, 4.225403
695.0878, 3.678650
695.5699, 3.312546
696.0520, 3.505157
696.5341, 3.686661
697.0162, 3.610336
697.4984, 3.284134
697.9805, 3.046158
698.4626, 2.949463
698.9447, 2.838501
699.4268, 2.550690
699.9089, 2.109909
700.3911, 2.078522
700.8732, 2.487305
701.3553, 2.905746
701.8374, 2.924500
702.3195, 2.708496
702.8016, 2.518951
703.2838, 2.381180
703.7659, 2.302811
704.2480, 2.308624
704.7301, 2.349487
705.2122, 2.372101
705.6943, 2.320862
706.1765, 2.233658
706.6586, 2.069077
707.1407, 1.930420
707.6228, 1.957428
708.1049, 2.199310
708.5870, 2.314331
709.0692, 2.238220
709.5513, 2.037766
710.0334, 1.753448
710.5155, 1.453552
710.9976, 1.394882
711.4797, 1.756561
711.9618, 2.227280
712.4439, 2.584824
712.9260, 2.828156
713.4081, 2.964279
713.8903, 2.746140
714.3724, 2.569077
714.8545, 2.700882
715.3366, 3.064606
715.8187, 2.996597
716.3008, 2.072693
716.7830, 1.373383
717.2651, 1.386154
717.7472, 2.008209
718.2293, 2.118469
718.7114, 1.667923
719.1935, 1.140594
719.6757, 0.7889400
720.1578, 0.6104580
720.6399, 0.4991300
721.1220, 0.4553990
721.6041, 0.5778350
722.0862, 1.211212
722.5684, 1.839127
723.0505, 1.986908
723.5326, 1.434555
724.0147, 1.202057
724.4968, 1.937057
724.9789, 2.602478
725.4611, 2.431854
725.9432, 1.036316
726.4253, 0.3383640
726.9074, 0.4606930
727.3895, 0.9005130
727.8716, 1.325623
728.3538, 1.692703
728.8359, 1.668030
729.3180, 1.085434
729.8001, 0.4876400
730.2822, 0.3445740
730.7643, 0.4990390
731.2465, 0.7552190
731.7286, 1.153732
732.2107, 1.493713
732.6928, 1.753494
733.1749, 1.902084
733.6570, 1.874130
734.1392, 1.492310
734.6213, 1.331360
735.1034, 1.528793
735.5855, 1.879150
736.0676, 1.963867
736.5497, 1.814301
737.0319, 1.789810
737.5140, 2.112411
737.9961, 2.438278
738.4782, 2.144928
738.9603, 1.483673
739.4424, 1.099472
739.9246, 1.635101
740.4067, 2.166428
740.8888, 2.255829
741.3709, 1.975311
741.8530, 1.715027
742.3351, 1.552475
742.8173, 1.312225
743.2994, 0.8539730
743.7815, 0.2713930
744.2636, 0.1546940
744.7457, 0.5375520
745.2278, 0.9109500
745.7100, 0.9076080
746.1921, 0.7238310
746.6742, 0.7196040
747.1563, 0.8820340
747.6384, 1.119019
748.1205, 1.576492
748.6027, 1.930664
749.0848, 1.920654
749.5669, 1.520615
750.0490, 1.086594
750.5311, 0.5289150
751.0132, 9.2072003E-02
751.4954, 0.1338500
751.9775, 0.1507870
752.4596, 0.1548000
752.9417, 0.8620450
753.4238, 1.520370
753.9059, 1.775574
754.3881, 1.721176
754.8702, 1.560257
755.3523, 1.308228
755.8344, 1.069183
756.3165, 0.8685460
756.7986, 0.7532350
757.2808, 0.7854920
757.7629, 1.016449
758.2450, 1.239639
758.7271, 1.460907
759.2092, 1.637695
759.6913, 1.719849
760.1735, 1.656311
760.6556, 1.702759
761.1377, 1.878799
761.6198, 2.102203
762.1019, 2.305023
762.5840, 2.481720
763.0662, 2.637329
763.5483, 2.792694
764.0304, 2.803345
764.5125, 2.198578
764.9946, 1.537735
765.4767, 1.529572
765.9589, 3.025787
766.4410, 3.945068
766.9231, 3.448318
767.4052, 2.518372
767.8873, 2.174423
768.3694, 2.580841
768.8516, 3.061234
769.3337, 3.657974
769.8158, 4.030701
770.2979, 3.297760
770.7800, 1.850571
771.2621, 1.206757
771.7443, 2.058807
772.2264, 3.099243
772.7085, 3.166733
773.1906, 2.718674
773.6727, 2.439590
774.1548, 2.686798
774.6370, 2.922485
775.1191, 3.106796
775.6012, 3.205170
776.0833, 3.118607
776.5654, 2.778259
777.0475, 2.536789
777.5297, 2.440170
778.0118, 2.520676
778.4939, 3.002518
778.9760, 3.738968
779.4581, 4.166672
779.9402, 3.859711
780.4224, 3.488739
780.9045, 3.705963
781.3866, 4.213928
781.8687, 4.461243
782.3508, 3.864471
782.8329, 3.516846
783.3151, 3.606049
783.7972, 4.061127
784.2793, 4.945450
784.7614, 6.474838
785.2435, 7.131317
785.7256, 6.170944
786.2078, 4.554214
786.6899, 4.357590
787.1720, 5.239700
787.6541, 5.905716
788.1362, 5.598282
788.6183, 5.060196
789.1005, 4.607361
789.5826, 4.318237
790.0647, 4.395447
790.5468, 5.393845
791.0289, 6.170181
791.5110, 6.460938
791.9932, 6.348129
792.4753, 5.905838
792.9574, 5.066544
793.4395, 4.593872
793.9216, 4.874878
794.4037, 5.520004
794.8859, 5.851913
795.3680, 5.924240
795.8501, 5.907684
796.3322, 5.705322
796.8143, 5.602814
797.2964, 5.820602
797.7786, 6.285004
798.2607, 6.720367
798.7428, 7.188812
799.2249, 7.467941
799.7070, 7.456284
800.1891, 7.231766
800.6713, 7.012970
801.1534, 6.812164
801.6355, 6.713181
802.1176, 6.756958
802.5997, 6.936234
803.0818, 7.343399
803.5640, 7.888031
804.0461, 8.337616
804.5282, 8.671432
805.0103, 8.809692
805.4924, 8.582138
805.9745, 8.116318
806.4567, 7.957092
806.9388, 8.280228
807.4209, 8.580933
807.9030, 8.726013
808.3851, 8.702255
808.8672, 8.496979
809.3494, 8.147110
809.8315, 7.967331
810.3136, 8.314438
810.7957, 8.680161
811.2778, 8.428574
811.7599, 7.752716
812.2421, 7.207428
812.7242, 7.171158
813.2063, 7.103500
813.6884, 6.851730
814.1705, 6.472916
814.6526, 6.124039
815.1348, 5.798218
815.6169, 5.387573
816.0990, 4.804153
816.5811, 4.198639
817.0632, 3.833679
817.5453, 3.689926
818.0275, 3.706985
818.5096, 3.949081
818.9917, 4.186768
819.4738, 4.337906
819.9559, 4.442657
820.4380, 4.561813
820.9202, 4.829437
821.4023, 4.985718
821.8844, 4.908463
822.3665, 4.681686
822.8486, 4.568527
823.3307, 4.588852
823.8129, 4.722458
824.2950, 5.073715
824.7771, 5.299866
825.2592, 4.752213
825.7413, 3.736938
826.2234, 2.939072
826.7056, 2.698929
827.1877, 2.665283
827.6698, 2.819763
828.1519, 3.067215
828.6340, 3.200348
829.1161, 3.185883
829.5983, 3.148132
830.0804, 3.121277
830.5625, 3.062378
831.0446, 2.764954
831.5267, 2.322525
832.0089, 2.247574
832.4910, 2.882462
832.9731, 3.619202
833.4552, 4.013657
833.9373, 4.115845
834.4194, 4.005035
834.9016, 3.400574
835.3837, 2.985733
835.8658, 2.897171
836.3479, 2.992706
836.8300, 3.075912
837.3121, 3.142181
837.7943, 3.178131
838.2764, 3.182343
838.7585, 3.147781
839.2406, 3.080048
839.7227, 2.959824
840.2048, 2.711960
840.6870, 2.154572
841.1691, 1.821075
841.6512, 2.162338
842.1333, 2.769196
842.6154, 3.172592
843.0975, 3.457703
843.5797, 3.240005
844.0618, 2.269196
844.5439, 1.232727
845.0260, 1.106613
845.5081, 1.695862
845.9902, 2.064377
846.4724, 2.077164
846.9545, 1.832825
847.4366, 1.110809
847.9187, 0.3380130
848.4008, 4.2557001E-02
848.8829, 0.5810090
849.3651, 0.8653720
849.8472, 0.6292110
850.3293, 0.2430110
850.8114, 5.6473002E-02
851.2935, 0.2725220
851.7756, 0.3190920
852.2578, 0.1745150
852.7399, 4.1049998E-03
853.2220, 7.1075000E-02
853.7041, 8.0963001E-02
854.1862, 0.1353910
854.6683, 0.2458040
855.1505, 0.2996980
855.6326, 0.1333160
856.1147, 2.2110000E-02
856.5968, 1.8620000E-03
857.0789, 0.2144930
857.5610, 0.4369350
858.0432, 0.7567440
858.5253, 0.7800600
859.0074, 8.1649996E-02
859.4895, 1.451050
859.9716, 1.893509
860.4537, 1.467255
860.9359, 0.8717500
861.4180, 0.4295500
861.9001, 7.7804998E-02
862.3822, 0.2814940
862.8643, 0.6367800
863.3464, 0.7544710
863.8286, 0.6110990
864.3107, 0.2454990
864.7928, 0.4803620
865.2749, 1.389816
865.7570, 1.496658
866.2391, 0.8520660
866.7213, 0.3758390
867.2034, 0.7733310
867.6855, 1.387894
868.1676, 1.546066
868.6497, 1.346481
869.1318, 1.071182
869.6140, 0.7155460
870.0961, 0.4049680
870.5782, 9.0590999E-02
871.0603, 0.1299130
871.5424, 9.2956997E-02
872.0245, 0.8347630
872.5067, 1.263382
872.9888, 1.046936
873.4709, 0.6325680
873.9530, 0.7393040
874.4351, 1.164169
874.9172, 1.477554
875.3994, 1.616364
875.8815, 1.483688
876.3636, 0.6032260
876.8457, 0.3784790
877.3278, 0.5317380
877.8099, 0.4969940
878.2921, 1.280991
878.7742, 1.703018
879.2563, 1.831238
879.7384, 1.600739
880.2205, 1.154892
880.7026, 0.9522550
881.1848, 1.135239
881.6669, 1.199005
882.1490, 0.6309360
882.6311, 9.7167999E-02
883.1132, 0.5716090
883.5953, 0.6949010
884.0775, 0.6369480
884.5596, 0.2483980
885.0417, 2.8336000E-02
885.5238, 0.2969670
886.0059, 1.079529
886.4880, 1.353592
886.9702, 1.095245
887.4523, 0.7675780
887.9344, 0.5033420
888.4165, 0.4723510
888.8986, 0.9018400
889.3807, 1.796112
889.8629, 2.662933
890.3450, 3.569397
890.8271, 4.258865
891.3092, 4.526672
891.7913, 4.492706
892.2734, 4.811768
892.7556, 5.462799
893.2377, 6.160278
893.7198, 6.637405
894.2019, 7.187668
894.6840, 8.292374
895.1661, 9.747055
895.6483, 10.96210
896.1304, 11.49135
896.6125, 12.08907
897.0946, 12.81242
897.5767, 13.76050
898.0588, 15.21582
898.5410, 17.21910
899.0231, 18.95915
899.5052, 20.17946
899.9873, 21.34714
900.4694, 23.09982
900.9515, 25.21152
901.4337, 27.31583
901.9158, 29.27090
902.3979, 31.25076
902.8800, 33.22537
903.3621, 35.32376
903.8442, 37.76013
904.3264, 40.65897
904.8085, 42.90427
905.2906, 44.34723
905.7727, 45.77420
906.2548, 48.05157
906.7369, 50.89981
907.2191, 53.75766
907.7012, 56.53351
908.1833, 59.36108
908.6654, 62.34589
909.1475, 65.33151
909.6296, 68.29480
910.1118, 71.23303
910.5939, 73.97061
911.0760, 76.37662
911.5581, 79.17825
912.0402, 83.12686
912.5223, 87.58408
913.0045, 91.03012
913.4866, 93.75937
913.9687, 96.71356
914.4508, 100.6577
914.9329, 104.6288
915.4150, 108.1167
915.8972, 111.3401
916.3793, 114.8778
916.8614, 118.7549
917.3435, 122.4362
917.8256, 125.8307
918.3077, 129.1733
918.7899, 132.9337
919.2720, 136.8556
919.7541, 140.3345
920.2362, 143.0940
920.7183, 145.6344
921.2004, 148.1918
921.6826, 150.6511
922.1647, 152.9274
922.6468, 154.9312
923.1289, 156.8392
923.6110, 158.6503
924.0931, 160.6689
924.5753, 163.3301
925.0574, 166.2242
925.5395, 168.3585
926.0216, 169.7201
926.5037, 171.2177
926.9858, 173.4630
927.4680, 175.9370
927.9501, 178.4409
928.4322, 180.9314
928.9143, 182.9323
929.3964, 184.3531
929.8785, 185.4975
930.3607, 186.4537
930.8428, 187.3712
931.3249, 188.9315
931.8070, 190.6949
932.2891, 191.3105
932.7712, 189.5782
933.2534, 187.2570
933.7355, 185.1731
934.2176, 182.9683
934.6997, 179.9539
935.1818, 176.0199
935.6639, 171.3055
936.1461, 165.5311
936.6282, 159.5793
937.1103, 154.8750
937.5924, 150.8158
938.0745, 146.0924
938.5566, 140.2576
939.0388, 134.4372
939.5209, 129.2202
940.0030, 124.3087
940.4851, 119.4298
940.9672, 114.4904
941.4493, 110.2662
941.9315, 106.8172
942.4136, 103.8767
942.8957, 101.1786
943.3778, 98.86826
943.8599, 97.31412
944.3420, 96.40323
944.8242, 95.53793
945.3063, 94.06308
945.7884, 92.98978
946.2705, 92.76498
946.7526, 93.25577
947.2347, 94.20013
947.7169, 95.61737
948.1990, 97.40231
948.6811, 99.50275
949.1632, 102.0341
949.6453, 105.2838
950.1274, 109.0708
950.6096, 112.9168
951.0917, 116.2686
951.5738, 120.6655
952.0559, 127.2141
952.5380, 134.5220
953.0201, 141.3409
953.5023, 147.4003
953.9844, 155.1721
954.4665, 164.7133
954.9486, 175.0526
955.4307, 185.2097
955.9128, 195.7700
956.3950, 207.4872
956.8771, 220.3808
957.3591, 234.0697
957.8412, 248.2922
958.3234, 263.6313
958.8055, 280.5690
959.2876, 298.7982
959.7697, 317.1335
960.2518, 335.6946
960.7339, 355.3566
961.2161, 376.7917
961.6982, 399.1898
962.1803, 422.4048
962.6624, 446.0284
963.1445, 469.7661
963.6266, 492.6357
964.1088, 517.1231
964.5909, 543.8163
965.0730, 571.5754
965.5551, 599.0287
966.0372, 626.1779
966.5193, 654.3635
967.0015, 683.4819
967.4836, 712.7429
967.9657, 741.7855
968.4478, 770.0098
968.9299, 796.6405
969.4120, 821.6282
969.8942, 846.0426
970.3763, 871.9979
970.8584, 893.3962
971.3405, 908.2861
971.8226, 917.3736
972.3047, 923.2573
972.7869, 925.3014
973.2690, 921.2030
973.7511, 909.1987
974.2332, 892.0660
974.7153, 871.3975
975.1974, 846.4120
975.6796, 815.3517
976.1617, 776.9021
976.6438, 736.3724
977.1259, 694.2900
977.6080, 651.2123
978.0901, 607.6101
978.5723, 564.1865
979.0544, 521.5232
979.5365, 479.9271
980.0186, 440.3828
980.5007, 403.4186
980.9828, 369.4146
981.4650, 338.3544
981.9471, 310.1516
982.4292, 283.5436
982.9113, 258.4699
983.3934, 235.7625
983.8755, 215.9069
984.3577, 198.3208
984.8398, 181.9156
985.3219, 166.9185
985.8040, 154.0863
986.2861, 145.5531
986.7682, 136.3981
987.2504, 124.9801
987.7325, 113.7972
988.2146, 105.9784
988.6967, 101.2847
989.1788, 95.49747
989.6609, 88.29495
990.1431, 81.17035
990.6252, 75.00290
991.1073, 69.58264
991.5894, 64.85156
992.0715, 60.82495
992.5536, 56.92212
993.0358, 52.94971
993.5179, 49.42508
994.0000, 46.70905
994.4821, 44.38849
994.9642, 41.22351
995.4464, 37.59262
995.9285, 34.75195
996.4106, 33.56039
996.8927, 32.51312
997.3748, 30.66309
997.8569, 28.64221
998.3391, 27.24493
998.8212, 26.94800
999.3033, 25.39545
999.7854, 22.35104
1000.268, 19.30588
1000.750, 17.60818
1001.232, 16.74988
1001.714, 16.12997
1002.196, 15.67203
1002.678, 15.03528
1003.160, 13.98071
1003.642, 12.87241
1004.124, 11.82303
1004.607, 10.81113
1005.089, 9.755219
1005.571, 8.657715
1006.053, 7.794373
1006.535, 7.262634
1007.017, 6.874603
1007.499, 6.519409
1007.981, 6.146454
1008.464, 5.690399
1008.946, 5.122955
1009.428, 4.484650
1009.910, 3.730042
1010.392, 2.978363
1010.874, 2.256958
1011.356, 1.611328
1011.838, 1.352539
1012.320, 1.408508
1012.803, 1.348999
1013.285, 0.7656560
1013.767, 0.2013850
1014.249, 6.0547002E-02
1014.731, 0.1010130
1015.213, 0.2788090
1015.695, 1.220245
1016.177, 1.644867
1016.659, 1.291351
1017.142, 0.7065120
1017.624, 0.5018310
1018.106, 0.5080870
1018.588, 0.4462890
1019.070, 0.2238770
1019.552, 0.2804570
1020.034, 0.8192750
1020.516, 1.535248
1020.999, 2.493042
1021.481, 3.513580
1021.963, 3.428040
1022.445, 2.377350
1022.927, 1.310089
1023.409, 0.5033570
1023.891, 5.9356999E-02
1024.373, 0.4058230
1024.855, 1.052856
1025.338, 1.055756
1025.820, 0.1050720
1026.302, 0.4091490
1026.784, 0.4936830
1027.266, 1.479492
1027.748, 1.059143
1028.230, 8.4229996E-03
1028.712, 8.1573002E-02
1029.195, 0.8554380
1029.677, 1.578278
1030.159, 1.494781
1030.641, 1.169678
1031.123, 0.6434330
1031.605, 0.1019590
1032.087, 0.4287720
1032.569, 1.547394
1033.052, 1.991943
1033.534, 0.9788820
1034.016, 2.7465999E-02
1034.498, 0.7039490
1034.980, 1.996826
1035.462, 2.386047
1035.944, 1.229767
1036.426, 0.4263920
1036.908, 6.9061004E-02
1037.391, 0.2000730
1037.873, 0.7303470
1038.355, 1.336609
1038.837, 1.462494
1039.319, 1.197571
1039.801, 0.9437260
1040.283, 0.7895510
1040.765, 0.7971500
1041.247, 0.9327090
1041.730, 1.262085
1042.212, 2.006348
1042.694, 3.170593
1043.176, 4.164276
1043.658, 4.933655
1044.140, 5.349548
1044.622, 4.938843
1045.104, 4.375732
1045.587, 4.356873
1046.069, 4.992859
1046.551, 5.544128
1047.033, 5.935822
1047.515, 6.367981
1047.997, 6.989532
1048.479, 7.619690
1048.961, 7.677612
1049.443, 7.431427
1049.926, 7.598694
1050.408, 8.796143
1050.890, 9.787659
1051.372, 10.01559
1051.854, 9.957458
1052.336, 9.939392
1052.818, 9.957092
1053.300, 10.07578
1053.782, 10.29599
1054.265, 10.67596
1054.747, 11.47668
1055.229, 12.26422
1055.711, 12.80869
1056.193, 13.03860
1056.675, 12.65134
1057.157, 11.08755
1057.639, 10.43677
1058.122, 11.24338
1058.604, 12.50565
1059.086, 12.90796
1059.568, 12.73044
1060.050, 12.47864
1060.532, 12.21387
1061.014, 12.04913
1061.496, 12.10513
1061.979, 12.20938
1062.461, 12.36075
1062.943, 12.49622
1063.425, 12.20264
1063.907, 11.53284
1064.389, 11.00711
1064.871, 10.87582
1065.353, 10.86124
1065.835, 10.73978
1066.318, 10.62323
1066.800, 10.67715
1067.282, 11.02759
1067.764, 11.10110
1068.246, 10.83530
1068.728, 10.58038
1069.210, 10.77911
1069.692, 11.05566
1070.174, 10.59106
1070.657, 9.621460
1071.139, 9.100983
1071.621, 9.896912
1072.103, 10.39517
1072.585, 10.19836
1073.067, 9.759766
1073.549, 9.849030
1074.031, 10.31113
1074.514, 10.35211
1074.996, 9.845612
1075.478, 9.437408
1075.960, 9.754272
1076.442, 10.11081
1076.924, 10.02786
1077.406, 9.580872
1077.888, 9.190918
1078.370, 8.817596
1078.853, 8.922699
1079.335, 9.897430
1079.817, 10.93726
1080.299, 11.25061
1080.781, 11.04004
1081.263, 10.49823
1081.745, 9.327759
1082.227, 8.644409
1082.709, 8.543793
1083.192, 8.656738
1083.674, 8.822144
1084.156, 9.014557
1084.638, 9.321167
1085.120, 9.654968
1085.602, 9.848907
1086.084, 9.450867
1086.566, 9.440521
1087.048, 10.20697
1087.531, 11.09531
1088.013, 11.52185
1088.495, 11.52271
1088.977, 10.97491
1089.459, 9.865936
1089.941, 8.984497
1090.423, 9.190887
1090.905, 9.532532
1091.388, 9.417664
1091.870, 8.941589
1092.352, 8.496460
1092.834, 8.055939
1093.316, 7.835297
1093.798, 7.984711
1094.280, 8.176422
1094.762, 7.957336
1095.245, 7.575256
1095.727, 7.371948
1096.209, 7.433167
1096.691, 7.493439
1097.173, 7.566711
1097.655, 7.553711
1098.137, 7.395081
1098.619, 7.151703
1099.101, 6.905518
1099.583, 6.672577
1100.066, 6.521179
1100.548, 6.711029
1101.030, 6.558624
1101.512, 5.589050
1101.994, 4.534790
1102.476, 3.879517
1102.958, 3.628906
1103.440, 3.970825
1103.923, 4.833282
1104.405, 5.441589
1104.887, 5.123596
1105.369, 4.645355
1105.851, 4.423676
1106.333, 4.331299
1106.815, 4.111023
1107.297, 3.740173
1107.780, 3.374451
1108.262, 3.010559
1108.744, 2.739655
1109.226, 2.683136
1109.708, 2.725494
1110.190, 2.752686
1110.672, 2.761841
1111.154, 2.830170
1111.636, 3.055145
1112.119, 3.051697
1112.601, 2.665924
1113.083, 2.160675
1113.565, 1.940277
1114.047, 1.870453
1114.529, 1.662689
1115.011, 1.201721
1115.493, 1.042542
1115.975, 1.615112
1116.458, 2.024963
1116.940, 1.779755
1117.422, 1.170929
1117.904, 1.207794
1118.386, 1.715210
1118.868, 2.070984
1119.350, 1.935577
1119.832, 1.842865
1120.315, 2.033295
1120.797, 2.347321
1121.279, 2.758514
1121.761, 3.259064
1122.243, 3.065216
1122.725, 2.237885
1123.207, 1.732269
1123.689, 2.577576
1124.172, 3.456543
1124.654, 3.274750
1125.136, 2.638672
1125.618, 2.698364
1126.100, 3.659821
1126.582, 4.273560
1127.064, 4.452423
1127.546, 4.403839
1128.028, 4.206726
1128.510, 3.950531
1128.993, 3.695862
1129.475, 3.465561
1129.957, 3.310440
1130.439, 3.246643
1130.921, 3.231705
1131.403, 3.285126
1131.885, 3.317276
1132.367, 3.142700
1132.850, 2.891434
1133.332, 2.849228
1133.814, 3.056702
1134.296, 2.866562
1134.778, 1.652664
1135.260, 0.9162450
1135.742, 1.298920
1136.224, 2.185608
1136.707, 2.192642
1137.189, 1.655319
1137.671, 1.526123
1138.153, 2.193863
1138.635, 2.556915
1139.117, 1.784851
1139.599, 1.054764
1140.081, 1.040115
1140.563, 1.522797
1141.046, 1.406067
1141.528, 0.7983400
1142.010, 0.2264860
1142.492, 5.8272999E-02
1142.974, 0.3108060
1143.456, 0.8801570
1143.938, 1.302322
1144.420, 1.066177
1144.902, 0.1466980
1145.385, 0.2664790
1145.867, 0.1962280
1146.349, 8.9233004E-02
1146.831, 0.2479400
1147.313, 0.4340970
1147.795, 0.5245970
1148.277, 0.5179140
1148.759, 0.4503940
1149.242, 0.3120570
1149.724, 5.9677001E-02
1150.206, 0.6896510
1150.688, 1.193024
1151.170, 1.214508
1151.652, 0.9800110
1152.134, 0.5830990
1152.616, 0.1007840
1153.099, 0.1842800
1153.581, 0.1404110
1154.063, 0.4002380
1154.545, 1.139832
1155.027, 1.789948
1155.509, 1.483383
1155.991, 0.8439030
1156.473, 0.6812130
1156.955, 1.029877
1157.438, 1.312805
1157.920, 1.409500
1158.402, 1.574326
1158.884, 1.901871
1159.366, 2.248840
1159.848, 2.381348
1160.330, 2.383728
1160.812, 2.352509
1161.294, 2.283081
1161.777, 2.454819
1162.259, 3.132477
1162.741, 3.664551
1163.223, 3.835678
1163.705, 3.709229
1164.187, 3.214554
1164.669, 2.564789
1165.151, 2.274887
1165.634, 2.546722
1166.116, 2.920288
1166.598, 3.393448
1167.080, 3.767502
1167.562, 3.933792
1168.044, 3.934891
1168.526, 3.850327
1169.008, 3.729019
1169.490, 3.752365
1169.973, 4.070374
1170.455, 4.386871
1170.937, 4.620575
1171.419, 4.805542
1171.901, 4.955475
1172.383, 5.075012
1172.865, 5.178146
1173.347, 5.268188
1173.829, 5.367416
1174.312, 5.384003
1174.794, 5.527267
1175.276, 6.160477
1175.758, 6.742737
1176.240, 6.638214
1176.722, 5.871643
1177.204, 5.475616
1177.686, 5.461533
1178.169, 5.667725
1178.651, 6.386856
1179.133, 6.872055
1179.615, 6.354034
1180.097, 5.561554
1180.579, 5.651306
1181.061, 6.638733
1181.543, 7.288895
1182.026, 7.518509
1182.508, 7.454742
1182.990, 7.031967
1183.472, 6.502090
1183.954, 5.897308
1184.436, 5.356598
1184.918, 5.232529
1185.400, 5.558746
1185.882, 5.577332
1186.365, 5.162689
1186.847, 4.818970
1187.329, 5.351379
1187.811, 5.776840
1188.293, 5.050201
1188.775, 3.542236
1189.257, 2.738464
1189.739, 2.691376
1190.221, 2.647308
1190.704, 2.457611
1191.186, 2.248978
1191.668, 2.196793
1192.150, 2.134537
1192.632, 1.781754
1193.114, 1.212997
1193.596, 1.270615
1194.078, 2.047943
1194.561, 2.423904
1195.043, 1.979126
1195.525, 1.438843
1196.007, 1.701645
1196.489, 2.133942
1196.971, 1.966248
1197.453, 1.149445
1197.935, 0.9621280
1198.417, 1.521927
1198.900, 1.693985
1199.382, 0.9034420
1199.864, 1.8646000E-02
1200.346, 0.1460420
1200.828, 5.7174999E-02
1201.310, 1.7197000E-02
1201.792, 0.3422700
1202.274, 0.4419560
1202.756, 0.2130130
1203.239, 5.0735001E-02
1203.721, 0.2412870
1204.203, 0.3403930
1204.685, 0.3303220
1205.167, 0.2229920
1205.649, 1.9881999E-02
1206.131, 0.4925230
1206.613, 0.5786590
1207.096, 0.2429200
1207.578, 0.1036070
1208.060, 0.2423550
1208.542, 0.2496190
1209.024, 0.1432500
1209.506, 2.1957001E-02
1209.988, 4.8447002E-02
1210.470, 0.3033600
1210.953, 0.4417420
1211.435, 0.4368590
1211.917, 0.3886260
1212.399, 0.2942960
1212.881, 0.2649080
1213.363, 0.4251860
1213.845, 0.6771390
1214.327, 0.8221890
1214.809, 0.7488400
1215.292, 0.9910740
1215.774, 1.588486
1216.256, 2.105591
1216.738, 2.081558
1217.220, 1.941116
1217.702, 2.160065
1218.184, 2.547363
1218.666, 2.653061
1219.148, 2.299683
1219.631, 2.399460
1220.113, 3.047241
1220.595, 3.570267
1221.077, 3.298584
1221.559, 2.798401
1222.041, 2.490967
1222.523, 2.378952
1223.005, 2.408127
1223.488, 2.593719
1223.970, 2.895096
1224.452, 3.333405
1224.934, 3.638733
1225.416, 3.389969
1225.898, 3.103195
1226.380, 3.324097
1226.862, 3.842285
1227.344, 4.005447
1227.827, 3.732346
1228.309, 3.627029
1228.791, 3.751892
1229.273, 3.888153
1229.755, 3.829071
1230.237, 3.730606
1230.719, 3.658524
1231.201, 3.659988
1231.683, 3.937454
1232.166, 4.559998
1232.648, 4.507492
1233.130, 3.626434
1233.612, 2.782227
1234.094, 2.709030
1234.576, 2.896667
1235.058, 3.082733
1235.540, 3.216080
1236.023, 3.146439
1236.505, 2.866928
1236.987, 2.884766
1237.469, 3.287155
1237.951, 3.618881
1238.433, 3.523911
1238.915, 3.255417
1239.397, 2.879578
1239.880, 2.493668
1240.362, 2.318970
1240.844, 2.378555
1241.326, 2.413330
1241.808, 2.398682
1242.290, 2.498428
1242.772, 2.976669
1243.254, 3.425537
1243.736, 3.623123
1244.219, 3.639847
1244.701, 3.638855
1245.183, 3.610489
1245.665, 3.452011
1246.147, 3.132034
1246.629, 2.895432
1247.111, 2.979523
1247.593, 3.054352
1248.075, 2.977341
1248.558, 2.811050
1249.040, 2.802124
1249.522, 2.891998
1250.004, 2.907242
1250.486, 2.773621
1250.968, 2.716751
1251.450, 2.761154
1251.932, 3.038483
1252.415, 3.847870
1252.897, 4.573044
1253.379, 3.580048
1253.861, 1.622498
1254.343, 1.156143
1254.825, 2.670761
1255.307, 3.620224
1255.789, 2.638641
1256.271, 1.707108
1256.754, 1.467239
1257.236, 1.607773
1257.718, 1.664719
1258.200, 1.745270
1258.682, 2.130112
1259.164, 2.907883
1259.646, 3.152878
1260.128, 2.403122
1260.610, 1.963455
1261.093, 2.352432
1261.575, 2.941223
1262.057, 2.715820
1262.539, 2.130646
1263.021, 1.858490
1263.503, 2.002396
1263.985, 2.308929
1264.467, 2.957672
1264.950, 3.006424
1265.432, 1.942947
1265.914, 0.8419040
1266.396, 1.479767
1266.878, 2.609436
1267.360, 2.579300
1267.842, 1.227844
1268.324, 1.067291
1268.807, 2.330414
1269.289, 2.694168
1269.771, 1.172211
1270.253, 0.2894440
1270.735, 0.6617430
1271.217, 2.217834
1271.699, 2.570297
1272.181, 1.896225
1272.663, 1.509750
1273.146, 1.414871
1273.628, 1.626770
1274.110, 2.250916
1274.592, 2.739304
1275.074, 2.639130
1275.556, 2.273544
1276.038, 1.769455
1276.520, 1.231979
1277.002, 1.063904
1277.485, 1.212372
1277.967, 1.299667
1278.449, 1.185059
1278.931, 1.290619
1279.413, 2.223938
1279.895, 2.932678
1280.377, 2.923615
1280.859, 2.469849
1281.342, 2.329575
1281.824, 2.407547
1282.306, 2.400299
1282.788, 2.229462
1283.270, 1.975662
1283.752, 1.311829
1284.234, 1.202469
1284.716, 2.241959
1285.198, 3.557617
1285.681, 3.328201
1286.163, 2.316238
1286.645, 1.879364
1287.127, 2.290955
1287.609, 2.537842
1288.091, 2.411209
1288.573, 2.301514
1289.055, 2.188110
1289.537, 2.079239
1290.020, 1.909531
1290.502, 1.807358
1290.984, 2.072250
1291.466, 2.704086
1291.948, 2.639618
1292.430, 1.749939
1292.912, 1.157745
1293.394, 1.200272
1293.877, 1.392960
1294.359, 1.202972
1294.841, 1.018784
1295.323, 1.338074
1295.805, 1.973831
1296.287, 2.243988
1296.769, 2.154373
1297.251, 1.570587
1297.734, 0.3663790
1298.216, 0.4528050
1298.698, 1.7867999E-02
1299.180, 0.7958830
1299.662, 1.697372
1300.144, 2.483856
1300.626, 2.469437
1301.108, 1.972885
1301.590, 2.324646
1302.073, 2.888306
1302.555, 3.706009
1303.037, 2.677704
1303.519, 1.443604
1304.001, 0.6574100
1304.483, 0.1533360
1304.965, 0.0000000E+00
##END=



