##NAMES=Tugtupite
##RRUFFID=R050562
##IDEAL CHEMISTRY=Na_4_BeAlSi_4_O_12_Cl
##LOCALITY=Kvanefjeld, Ilimaussag, Greenland
##OWNER=RRUFF
##SOURCE=Dave Bunk Minerals
##DESCRIPTION=Pink fragment
##STATUS=The identification of this mineral is confirmed by single-crystal X-ray diffraction and chemical analysis.
##URL=rruff.info/R050562
##MEASURED CHEMISTRY=Na_4.00_Be_1.00_Al_1.00_Si_4.00_O_12_Cl_1.00_; BeO estimated by difference; trace amounts of Fe
132.5773, 0.0000000E+00
133.0594, 5.377625
133.5415, 2.717682
134.0237, 1.556976
134.5058, 1.019897
134.9879, 1.237457
135.4700, 4.522949
135.9521, 8.807892
136.4343, 15.38281
136.9164, 24.56821
137.3985, 34.20300
137.8806, 43.28781
138.3627, 52.16028
138.8448, 58.20044
139.3270, 60.78842
139.8091, 60.13562
140.2912, 57.54620
140.7733, 51.52582
141.2554, 46.15033
141.7375, 45.98932
142.2197, 52.85004
142.7018, 60.20715
143.1839, 66.74609
143.6660, 72.37854
144.1481, 77.73102
144.6302, 82.06055
145.1124, 86.62732
145.5945, 92.73151
146.0766, 100.2828
146.5587, 109.6627
147.0408, 120.9117
147.5230, 133.8402
148.0051, 148.9099
148.4872, 163.4873
148.9693, 175.2393
149.4514, 186.7888
149.9335, 196.2410
150.4157, 207.5595
150.8978, 221.3520
151.3799, 237.4799
151.8620, 256.7842
152.3441, 277.5273
152.8262, 301.5586
153.3084, 332.0190
153.7905, 373.0586
154.2726, 416.8315
154.7547, 460.8610
155.2368, 501.1302
155.7189, 546.6194
156.2011, 604.0301
156.6832, 667.9830
157.1653, 723.5900
157.6474, 777.1597
158.1295, 815.7178
158.6116, 832.6310
159.0938, 822.5974
159.5759, 797.5432
160.0580, 754.3192
160.5401, 697.0622
161.0222, 639.7896
161.5044, 585.1851
161.9865, 533.1403
162.4686, 483.5438
162.9507, 435.1741
163.4328, 390.4655
163.9149, 349.5280
164.3971, 312.1993
164.8792, 279.8033
165.3613, 254.4269
165.8434, 233.4584
166.3255, 214.4373
166.8076, 195.6803
167.2898, 179.6453
167.7719, 167.4432
168.2540, 159.0054
168.7361, 153.9847
169.2182, 153.7494
169.7003, 156.3297
170.1825, 159.3740
170.6646, 162.4794
171.1467, 165.4099
171.6288, 167.2397
172.1109, 168.0262
172.5931, 170.6971
173.0752, 177.9808
173.5573, 188.5989
174.0394, 200.8133
174.5215, 214.3398
175.0036, 229.2269
175.4858, 244.8032
175.9679, 260.5025
176.4500, 277.1668
176.9321, 297.1608
177.4142, 318.3876
177.8963, 336.2582
178.3785, 347.7143
178.8606, 353.0332
179.3427, 353.6136
179.8248, 349.8488
180.3069, 340.6198
180.7890, 323.5806
181.2712, 299.9071
181.7533, 273.3076
182.2354, 243.7096
182.7175, 212.6619
183.1996, 183.2500
183.6818, 154.7451
184.1639, 130.4886
184.6460, 114.6251
185.1281, 106.3557
185.6102, 100.8488
186.0923, 96.62408
186.5745, 93.42902
187.0566, 90.38153
187.5387, 87.26324
188.0208, 84.90924
188.5029, 83.93243
188.9850, 84.42102
189.4672, 87.33044
189.9493, 94.28448
190.4314, 103.4418
190.9135, 111.4883
191.3956, 117.7328
191.8777, 124.0491
192.3599, 134.0309
192.8420, 147.5933
193.3241, 162.0081
193.8062, 175.3712
194.2883, 188.0433
194.7704, 202.7560
195.2526, 219.7883
195.7347, 238.5779
196.2168, 257.8827
196.6989, 277.5707
197.1810, 299.0392
197.6632, 321.9147
198.1453, 346.3997
198.6274, 376.5226
199.1095, 412.6839
199.5916, 454.4332
200.0737, 500.9014
200.5559, 552.7130
201.0380, 606.6088
201.5201, 664.7554
202.0022, 729.1085
202.4843, 779.6479
202.9664, 818.6143
203.4486, 840.0280
203.9307, 827.5132
204.4128, 777.7624
204.8949, 708.6915
205.3770, 624.3206
205.8591, 521.1220
206.3413, 427.5292
206.8234, 344.6061
207.3055, 272.3253
207.7876, 211.0289
208.2697, 161.8553
208.7519, 121.4240
209.2340, 88.19440
209.7161, 62.57092
210.1982, 42.30695
210.6803, 28.24744
211.1624, 18.90735
211.6446, 10.27814
212.1267, 2.199219
212.6088, 4.605408
213.0909, 9.728577
213.5730, 12.98505
214.0551, 15.14954
214.5373, 15.95721
215.0194, 15.80170
215.5015, 15.71423
215.9836, 15.50873
216.4657, 15.72156
216.9478, 16.95551
217.4300, 20.06744
217.9121, 21.27063
218.3942, 19.53345
218.8763, 16.12122
219.3584, 14.92737
219.8405, 17.03320
220.3227, 19.45483
220.8048, 20.55579
221.2869, 19.57568
221.7690, 19.75940
222.2511, 22.47864
222.7333, 26.07031
223.2154, 25.32263
223.6975, 18.32922
224.1796, 10.15717
224.6617, 3.280151
225.1438, 1.530884
225.6260, 7.076477
226.1081, 13.32684
226.5902, 20.39636
227.0723, 28.58276
227.5544, 39.08685
228.0365, 49.00842
228.5187, 56.82434
229.0008, 61.38593
229.4829, 66.65161
229.9650, 73.10229
230.4471, 80.17737
230.9292, 86.24506
231.4114, 90.07599
231.8935, 94.86572
232.3756, 101.9971
232.8577, 112.3702
233.3398, 123.0654
233.8220, 133.3406
234.3041, 144.1843
234.7862, 157.7178
235.2683, 174.1003
235.7504, 192.8203
236.2325, 213.7595
236.7147, 235.7664
237.1968, 262.1722
237.6789, 293.2559
238.1610, 328.6663
238.6431, 368.5063
239.1252, 418.7499
239.6074, 464.9958
240.0895, 500.9675
240.5716, 521.7323
241.0537, 546.1960
241.5358, 579.0665
242.0179, 613.3850
242.5001, 635.7241
242.9822, 644.8686
243.4643, 643.7877
243.9464, 630.9335
244.4285, 599.8246
244.9106, 578.2043
245.3928, 568.4852
245.8749, 566.5547
246.3570, 565.6400
246.8391, 566.1507
247.3212, 566.9081
247.8034, 567.5202
248.2855, 567.9067
248.7676, 568.7445
249.2497, 571.1819
249.7318, 573.2831
250.2139, 571.4081
250.6961, 561.8527
251.1782, 555.1086
251.6603, 553.9804
252.1424, 558.7542
252.6245, 567.7496
253.1066, 581.2453
253.5888, 598.7751
254.0709, 619.9729
254.5530, 644.8757
255.0351, 673.5200
255.5172, 705.8140
255.9993, 741.9924
256.4815, 780.6920
256.9636, 821.1118
257.4457, 864.3763
257.9278, 912.6568
258.4099, 968.0339
258.8921, 1023.864
259.3742, 1078.582
259.8563, 1131.641
260.3384, 1188.990
260.8205, 1251.070
261.3026, 1316.043
261.7848, 1383.404
262.2669, 1453.551
262.7490, 1523.587
263.2311, 1593.026
263.7132, 1661.943
264.1953, 1726.899
264.6775, 1787.628
265.1596, 1844.041
265.6417, 1896.670
266.1238, 1946.458
266.6059, 1988.907
267.0880, 2023.410
267.5702, 2049.953
268.0523, 2066.270
268.5344, 2072.102
269.0165, 2068.497
269.4986, 2055.786
269.9807, 2033.051
270.4629, 2004.344
270.9450, 1969.867
271.4271, 1929.811
271.9092, 1886.004
272.3913, 1838.456
272.8734, 1787.335
273.3556, 1731.226
273.8377, 1668.912
274.3198, 1610.524
274.8019, 1557.600
275.2840, 1507.974
275.7661, 1455.341
276.2483, 1399.655
276.7304, 1342.303
277.2125, 1283.669
277.6946, 1222.935
278.1768, 1167.308
278.6589, 1117.667
279.1410, 1072.968
279.6231, 1030.462
280.1052, 989.2238
280.5873, 953.0172
281.0695, 925.5690
281.5516, 906.9280
282.0337, 888.6646
282.5158, 869.5931
282.9979, 852.7906
283.4800, 842.9000
283.9622, 839.9398
284.4443, 842.2234
284.9264, 849.4571
285.4085, 861.3914
285.8906, 877.8152
286.3727, 899.2319
286.8549, 922.6455
287.3370, 945.3633
287.8191, 967.3367
288.3012, 986.8198
288.7833, 1006.171
289.2654, 1022.276
289.7476, 1025.250
290.2297, 1015.295
290.7118, 990.2823
291.1939, 944.2221
291.6760, 879.6760
292.1581, 808.3367
292.6403, 729.3860
293.1224, 648.5710
293.6045, 576.7219
294.0866, 514.4443
294.5687, 458.7675
295.0508, 406.8593
295.5330, 359.4055
296.0151, 320.1649
296.4972, 290.8302
296.9793, 268.1042
297.4614, 248.3273
297.9435, 231.1201
298.4257, 215.5427
298.9078, 201.2223
299.3899, 188.0827
299.8720, 176.1635
300.3541, 164.9448
300.8362, 155.7471
301.3184, 151.3562
301.8005, 150.7679
302.2826, 150.0688
302.7647, 146.0671
303.2469, 140.8132
303.7290, 137.1036
304.2111, 135.3137
304.6932, 135.0385
305.1753, 136.1852
305.6574, 138.6055
306.1396, 141.9408
306.6217, 145.8056
307.1038, 150.6393
307.5859, 157.2415
308.0680, 165.8610
308.5501, 174.7240
309.0323, 181.0402
309.5144, 186.9457
309.9965, 195.7982
310.4786, 212.3005
310.9607, 230.0020
311.4428, 244.1702
311.9250, 254.7380
312.4071, 264.3154
312.8892, 271.9044
313.3713, 280.0291
313.8534, 291.4709
314.3355, 311.5402
314.8177, 331.0398
315.2998, 344.2234
315.7819, 352.1851
316.2640, 361.1289
316.7461, 373.8136
317.2282, 388.4333
317.7104, 404.0607
318.1925, 423.0107
318.6746, 439.1445
319.1567, 450.3669
319.6388, 457.2469
320.1209, 460.9823
320.6031, 460.5690
321.0852, 458.1381
321.5673, 454.4834
322.0494, 448.8868
322.5315, 444.0287
323.0136, 439.0073
323.4958, 435.3189
323.9779, 435.3925
324.4600, 441.2699
324.9421, 449.5461
325.4242, 461.8691
325.9064, 481.8636
326.3885, 490.1049
326.8706, 483.8376
327.3527, 465.6008
327.8348, 438.0685
328.3170, 393.9943
328.7991, 348.1542
329.2812, 300.5511
329.7633, 250.6878
330.2454, 209.4161
330.7275, 180.2399
331.2097, 157.2090
331.6918, 136.3949
332.1739, 117.6768
332.6560, 101.2556
333.1381, 87.87384
333.6202, 77.00403
334.1024, 66.60004
334.5845, 55.79541
335.0666, 46.90271
335.5487, 41.80621
336.0308, 42.82904
336.5129, 40.88239
336.9951, 34.56610
337.4772, 26.05170
337.9593, 19.59320
338.4414, 15.76245
338.9235, 12.35999
339.4056, 8.222107
339.8878, 3.234985
340.3699, 1.3245000E-02
340.8520, 0.9261470
341.3341, 1.090698
341.8162, 2.960144
342.2983, 6.812073
342.7805, 9.199707
343.2626, 8.437134
343.7447, 5.301453
344.2268, 3.825867
344.7089, 4.128723
345.1910, 5.452576
345.6732, 7.816406
346.1553, 10.98706
346.6374, 12.50940
347.1195, 11.45331
347.6016, 9.031250
348.0837, 7.450134
348.5659, 6.683044
349.0480, 6.603455
349.5301, 7.636597
350.0122, 9.265808
350.4944, 10.03784
350.9765, 9.600159
351.4586, 8.801575
351.9407, 8.309509
352.4228, 8.154114
352.9049, 8.635010
353.3871, 11.46924
353.8692, 14.72522
354.3513, 15.32843
354.8334, 12.93585
355.3155, 9.642090
355.7976, 6.964050
356.2798, 4.826782
356.7619, 2.808167
357.2440, 0.8115230
357.7261, 1.259460
358.2082, 3.325256
358.6903, 5.401245
359.1725, 7.768066
359.6546, 11.36096
360.1367, 14.98889
360.6188, 17.42773
361.1009, 17.41040
361.5830, 17.65564
362.0652, 19.35358
362.5473, 22.19092
363.0294, 25.39490
363.5115, 29.01459
363.9936, 32.72675
364.4757, 36.31860
364.9579, 39.75574
365.4400, 43.26813
365.9221, 46.99341
366.4042, 50.83337
366.8863, 54.66107
367.3684, 58.20844
367.8506, 62.01837
368.3327, 65.63489
368.8148, 68.84467
369.2969, 74.80334
369.7790, 86.36255
370.2611, 98.69611
370.7433, 108.3409
371.2254, 111.9904
371.7075, 118.0336
372.1896, 128.0065
372.6717, 140.9792
373.1538, 152.7667
373.6360, 162.3970
374.1181, 172.3632
374.6002, 183.7028
375.0823, 196.6817
375.5645, 210.3361
376.0466, 224.5792
376.5287, 239.3964
377.0108, 254.8135
377.4929, 270.5717
377.9750, 286.8055
378.4572, 302.9677
378.9393, 319.3501
379.4214, 338.6213
379.9035, 361.0977
380.3856, 384.4943
380.8677, 405.5170
381.3499, 424.5018
381.8320, 445.8767
382.3141, 471.2590
382.7962, 499.0315
383.2783, 526.9553
383.7604, 554.8732
384.2426, 582.2515
384.7247, 609.4979
385.2068, 635.8389
385.6889, 661.4575
386.1710, 686.6602
386.6531, 708.9205
387.1353, 726.8919
387.6174, 740.0401
388.0995, 747.2426
388.5816, 748.9917
389.0637, 744.0332
389.5458, 730.7834
390.0280, 709.2050
390.5101, 681.5763
390.9922, 646.7979
391.4743, 607.9503
391.9564, 567.9244
392.4385, 527.6489
392.9207, 486.6013
393.4028, 443.0182
393.8849, 398.4910
394.3670, 357.5473
394.8491, 322.8225
395.3312, 291.9222
395.8134, 263.6200
396.2955, 237.7867
396.7776, 214.1841
397.2597, 192.6293
397.7418, 173.4518
398.2239, 157.0399
398.7061, 146.3939
399.1882, 135.9523
399.6703, 123.9612
400.1524, 110.1471
400.6346, 97.90063
401.1167, 88.50537
401.5988, 80.19946
402.0809, 71.56238
402.5630, 61.65466
403.0451, 52.78906
403.5273, 45.02545
404.0094, 38.32654
404.4915, 33.29163
404.9736, 30.97339
405.4557, 28.34631
405.9378, 23.46643
406.4200, 15.89685
406.9021, 10.63916
407.3842, 8.107361
407.8663, 6.732483
408.3484, 4.847839
408.8305, 2.534058
409.3127, 0.1127320
409.7948, 3.644653
410.2769, 7.200806
410.7590, 7.565552
411.2411, 4.844666
411.7232, 2.784241
412.2054, 5.090881
412.6875, 9.890381
413.1696, 12.26758
413.6517, 11.22101
414.1338, 8.906494
414.6159, 7.902466
415.0981, 7.681213
415.5802, 6.808960
416.0623, 5.027100
416.5444, 2.033875
417.0265, 2.907593
417.5086, 9.838501
417.9908, 16.60663
418.4729, 20.57056
418.9550, 24.01056
419.4371, 29.39801
419.9192, 39.16174
420.4013, 49.08185
420.8835, 56.77417
421.3656, 63.07953
421.8477, 70.72925
422.3298, 80.77820
422.8119, 92.02075
423.2940, 104.2230
423.7762, 117.6272
424.2583, 130.8417
424.7404, 142.8458
425.2225, 154.7663
425.7047, 168.2044
426.1868, 182.7750
426.6689, 199.1974
427.1510, 218.1515
427.6331, 239.3864
428.1152, 260.6210
428.5974, 281.1747
429.0795, 303.1791
429.5616, 327.8746
430.0437, 354.8740
430.5258, 385.8147
431.0079, 420.8654
431.4901, 459.4522
431.9722, 499.7103
432.4543, 541.0037
432.9364, 588.7283
433.4185, 645.3323
433.9006, 709.5370
434.3828, 774.6188
434.8649, 840.4673
435.3470, 908.4703
435.8291, 982.7940
436.3112, 1061.004
436.7933, 1135.187
437.2755, 1206.864
437.7576, 1268.578
438.2397, 1315.095
438.7218, 1344.044
439.2039, 1347.370
439.6860, 1310.996
440.1682, 1251.781
440.6503, 1182.407
441.1324, 1102.632
441.6145, 1029.216
442.0966, 970.2914
442.5787, 923.7159
443.0609, 887.2186
443.5430, 862.4716
444.0251, 845.1069
444.5072, 833.8188
444.9893, 828.7684
445.4714, 830.2435
445.9536, 839.2811
446.4357, 853.9863
446.9178, 873.3713
447.3999, 896.7842
447.8820, 926.9578
448.3641, 964.2112
448.8463, 1008.095
449.3284, 1058.589
449.8105, 1113.252
450.2926, 1177.936
450.7747, 1253.275
451.2569, 1339.760
451.7390, 1437.078
452.2211, 1545.867
452.7032, 1666.388
453.1853, 1797.996
453.6674, 1941.662
454.1496, 2097.852
454.6317, 2266.667
455.1138, 2450.526
455.5959, 2650.449
456.0780, 2867.864
456.5602, 3100.553
457.0423, 3353.561
457.5244, 3616.852
458.0065, 3882.034
458.4886, 4145.431
458.9707, 4392.198
459.4529, 4626.070
459.9350, 4830.602
460.4171, 4976.958
460.8992, 5066.144
461.3813, 5088.502
461.8634, 5032.931
462.3456, 4906.799
462.8277, 4723.943
463.3098, 4454.875
463.7919, 4158.828
464.2740, 3854.614
464.7561, 3544.683
465.2383, 3249.314
465.7204, 2975.577
466.2025, 2716.748
466.6846, 2471.396
467.1667, 2239.050
467.6488, 2021.547
468.1310, 1813.538
468.6131, 1620.916
469.0952, 1448.169
469.5773, 1296.471
470.0594, 1163.394
470.5415, 1048.788
471.0237, 952.9354
471.5058, 867.1817
471.9879, 792.2756
472.4700, 725.5679
472.9521, 666.4142
473.4342, 614.6553
473.9164, 568.7358
474.3985, 528.5963
474.8806, 493.0753
475.3627, 460.4451
475.8448, 430.6346
476.3270, 402.8416
476.8091, 377.1292
477.2912, 353.2882
477.7733, 331.7429
478.2554, 312.3655
478.7375, 293.2401
479.2197, 272.1345
479.7018, 250.5751
480.1839, 231.0304
480.6660, 214.5289
481.1481, 198.7115
481.6302, 182.0873
482.1124, 165.1385
482.5945, 148.6794
483.0766, 131.0901
483.5587, 115.7557
484.0408, 105.2000
484.5229, 99.34045
485.0051, 93.04388
485.4872, 84.73181
485.9693, 76.15234
486.4514, 68.35535
486.9335, 61.00684
487.4156, 55.03784
487.8978, 51.52625
488.3799, 48.85217
488.8620, 43.90662
489.3441, 34.98853
489.8262, 28.10284
490.3083, 25.25610
490.7905, 25.85437
491.2726, 25.33606
491.7547, 23.37207
492.2368, 21.90717
492.7189, 22.69830
493.2010, 25.44061
493.6832, 27.88007
494.1653, 29.69794
494.6474, 31.68335
495.1295, 34.93134
495.6116, 39.20367
496.0938, 43.81659
496.5759, 48.61493
497.0580, 53.52075
497.5401, 57.85620
498.0222, 61.96112
498.5044, 67.34943
498.9865, 74.84827
499.4686, 84.09167
499.9507, 94.95233
500.4328, 107.6057
500.9149, 121.0635
501.3971, 134.7146
501.8792, 149.2153
502.3613, 165.3153
502.8434, 180.7409
503.3255, 200.7430
503.8076, 227.4554
504.2898, 259.7362
504.7719, 292.6256
505.2540, 325.6664
505.7361, 359.7935
506.2182, 395.8490
506.7003, 433.8558
507.1825, 473.1001
507.6646, 514.8036
508.1467, 555.1288
508.6288, 592.6812
509.1109, 627.4448
509.5930, 649.0988
510.0752, 656.3672
510.5573, 648.4099
511.0394, 621.1740
511.5215, 575.9793
512.0037, 521.0058
512.4858, 453.7507
512.9679, 382.5107
513.4500, 317.9271
513.9321, 260.4006
514.4142, 209.5922
514.8964, 166.1771
515.3785, 128.7720
515.8606, 96.38708
516.3427, 68.35205
516.8248, 45.42017
517.3069, 29.71625
517.7891, 19.08154
518.2712, 9.482178
518.7533, 0.9457400
519.2354, 9.304138
519.7175, 14.05225
520.1996, 15.31860
520.6818, 16.74939
521.1639, 18.69623
521.6460, 20.37592
522.1281, 21.45471
522.6102, 22.14294
523.0923, 21.29108
523.5745, 18.43811
524.0566, 14.74561
524.5387, 11.98511
525.0208, 10.14410
525.5029, 8.024780
525.9850, 5.546875
526.4672, 2.340149
526.9493, 2.904114
527.4314, 10.03186
527.9135, 17.16742
528.3956, 23.00787
528.8777, 28.37390
529.3599, 33.68903
529.8420, 38.93256
530.3241, 46.45258
530.8062, 59.20526
531.2883, 74.68390
531.7704, 89.60553
532.2526, 102.5341
532.7347, 115.9594
533.2168, 130.1514
533.6989, 145.3641
534.1810, 162.6234
534.6631, 182.2267
535.1453, 203.9135
535.6274, 226.8140
536.1095, 251.1147
536.5916, 278.8424
537.0737, 311.6053
537.5558, 345.6184
538.0380, 377.4197
538.5201, 406.2589
539.0022, 440.6626
539.4843, 481.2054
539.9664, 526.2819
540.4485, 572.3929
540.9307, 619.5945
541.4128, 670.8691
541.8949, 727.5533
542.3770, 787.5765
542.8591, 848.2826
543.3412, 909.4335
543.8234, 973.8389
544.3055, 1041.871
544.7876, 1114.643
545.2697, 1192.291
545.7518, 1274.792
546.2339, 1362.501
546.7161, 1455.945
547.1982, 1553.873
547.6803, 1657.446
548.1624, 1771.337
548.6445, 1884.066
549.1266, 1993.439
549.6088, 2100.872
550.0909, 2209.542
550.5730, 2325.580
551.0551, 2434.159
551.5372, 2533.423
552.0193, 2622.782
552.5015, 2691.674
552.9836, 2741.119
553.4657, 2766.863
553.9478, 2766.824
554.4299, 2740.866
554.9120, 2685.520
555.3942, 2599.775
555.8763, 2491.690
556.3584, 2364.096
556.8405, 2221.362
557.3226, 2073.982
557.8047, 1921.478
558.2869, 1769.965
558.7690, 1622.150
559.2511, 1479.132
559.7332, 1345.357
560.2154, 1221.847
560.6975, 1109.102
561.1796, 1006.744
561.6617, 914.8055
562.1439, 831.5080
562.6260, 757.0903
563.1081, 691.2858
563.5902, 632.4476
564.0723, 582.7615
564.5544, 534.9857
565.0366, 487.0820
565.5187, 442.4623
566.0008, 407.4088
566.4829, 383.2141
566.9650, 359.4597
567.4471, 333.4512
567.9293, 306.8525
568.4114, 285.0658
568.8935, 267.7281
569.3756, 251.2781
569.8577, 233.3640
570.3398, 215.1467
570.8220, 199.4230
571.3041, 185.9902
571.7862, 173.7993
572.2683, 162.3906
572.7504, 151.5795
573.2325, 140.8235
573.7147, 129.6131
574.1968, 119.8148
574.6789, 112.8301
575.1610, 107.4570
575.6431, 102.0513
576.1252, 96.80548
576.6074, 91.02618
577.0895, 83.98480
577.5716, 76.13751
578.0537, 68.73975
578.5358, 61.58868
579.0179, 55.31262
579.5001, 50.33044
579.9822, 46.57709
580.4643, 43.48676
580.9464, 41.35004
581.4285, 38.65350
581.9106, 33.04834
582.3928, 25.62238
582.8749, 20.20862
583.3570, 17.44171
583.8391, 16.03125
584.3212, 15.70062
584.8033, 15.67151
585.2855, 14.45209
585.7676, 10.46045
586.2497, 6.335938
586.7318, 3.271179
587.2139, 1.071167
587.6960, 0.8228760
588.1782, 4.070068
588.6603, 5.557739
589.1424, 3.071899
589.6245, 3.673889
590.1066, 7.175354
590.5887, 6.218628
591.0709, 3.709839
591.5530, 1.142761
592.0351, 1.576904
592.5172, 3.773315
592.9993, 5.502869
593.4814, 6.490784
593.9636, 6.060120
594.4457, 4.446594
594.9278, 2.846008
595.4099, 1.357422
595.8920, 0.3412480
596.3741, 0.5739140
596.8563, 1.664368
597.3384, 2.622253
597.8205, 3.232300
598.3026, 3.291382
598.7847, 2.437561
599.2668, 0.7657470
599.7490, 0.8465580
600.2311, 2.324158
600.7132, 3.507996
601.1953, 4.110718
601.6774, 3.626587
602.1595, 4.336365
602.6417, 6.942505
603.1238, 9.893982
603.6059, 11.54443
604.0880, 11.52325
604.5701, 12.32666
605.0522, 14.27435
605.5344, 17.05780
606.0165, 20.14960
606.4986, 23.57849
606.9807, 27.37122
607.4628, 31.27594
607.9449, 35.79932
608.4271, 42.51849
608.9092, 50.74792
609.3913, 57.52057
609.8735, 58.20343
610.3556, 59.19385
610.8377, 64.95917
611.3198, 75.90588
611.8019, 88.58606
612.2841, 103.5539
612.7662, 118.9551
613.2483, 133.7618
613.7304, 146.8643
614.2125, 161.3150
614.6946, 177.8558
615.1768, 195.0470
615.6589, 210.5227
616.1410, 223.7210
616.6231, 240.4045
617.1052, 261.9218
617.5873, 286.9620
618.0695, 312.9292
618.5516, 339.7324
619.0337, 366.2441
619.5158, 389.4159
619.9979, 413.7313
620.4800, 443.8790
620.9622, 479.8334
621.4443, 520.3502
621.9264, 565.0187
622.4085, 614.0151
622.8906, 667.3919
623.3727, 724.5432
623.8549, 788.8465
624.3370, 863.3351
624.8191, 943.9197
625.3012, 1026.856
625.7833, 1111.557
626.2654, 1201.490
626.7476, 1298.685
627.2297, 1398.284
627.7118, 1496.922
628.1939, 1594.913
628.6760, 1681.494
629.1581, 1760.053
629.6403, 1816.594
630.1224, 1830.561
630.6045, 1803.141
631.0866, 1739.575
631.5687, 1630.359
632.0508, 1494.822
632.5330, 1339.276
633.0151, 1169.637
633.4972, 1012.407
633.9793, 877.2453
634.4614, 758.8082
634.9435, 654.5903
635.4257, 566.1094
635.9078, 489.8015
636.3899, 427.0780
636.8720, 374.1495
637.3541, 330.0496
637.8362, 294.9209
638.3184, 266.1093
638.8005, 244.4721
639.2826, 227.0889
639.7647, 210.1107
640.2468, 193.9941
640.7289, 182.1241
641.2111, 176.2086
641.6932, 172.6004
642.1753, 166.4536
642.6574, 158.9838
643.1395, 153.1757
643.6216, 150.1732
644.1038, 149.3491
644.5859, 151.4126
645.0680, 155.6231
645.5501, 158.8096
646.0322, 157.3024
646.5143, 157.4105
646.9965, 161.9178
647.4786, 171.2719
647.9607, 180.5227
648.4428, 190.2167
648.9249, 199.0800
649.4070, 205.6141
649.8892, 209.7450
650.3713, 216.5334
650.8534, 226.8257
651.3355, 236.9312
651.8176, 243.4736
652.2997, 246.9704
652.7819, 248.3447
653.2640, 247.7750
653.7461, 245.1519
654.2282, 240.0189
654.7103, 232.7648
655.1924, 224.0818
655.6746, 215.7371
656.1567, 204.1680
656.6388, 186.1369
657.1209, 164.2621
657.6030, 145.8977
658.0851, 131.6758
658.5673, 119.4358
659.0494, 108.7787
659.5316, 99.57678
660.0137, 91.41882
660.4958, 84.50854
660.9779, 77.28052
661.4600, 67.35138
661.9421, 56.53656
662.4243, 50.01434
662.9064, 47.82208
663.3885, 46.26691
663.8706, 42.49774
664.3527, 38.04773
664.8348, 34.55035
665.3170, 32.52374
665.7991, 30.28790
666.2812, 26.62720
666.7633, 22.85864
667.2454, 20.25958
667.7275, 19.41034
668.2097, 18.80310
668.6918, 18.47369
669.1739, 18.29041
669.6560, 18.44562
670.1381, 19.13025
670.6202, 17.73529
671.1024, 12.68384
671.5845, 6.722168
672.0666, 5.634460
672.5487, 8.357361
673.0308, 10.80981
673.5129, 10.70337
673.9951, 9.663025
674.4772, 8.730835
674.9593, 7.975647
675.4414, 7.671387
675.9235, 8.425598
676.4056, 9.195435
676.8878, 9.610291
677.3699, 9.659485
677.8520, 9.070251
678.3341, 7.330811
678.8162, 5.723267
679.2983, 5.009277
679.7805, 5.237366
680.2626, 5.728943
680.7447, 6.537903
681.2268, 7.279297
681.7089, 7.471741
682.1910, 7.299805
682.6732, 7.209595
683.1553, 7.252136
683.6374, 7.486023
684.1195, 8.333862
684.6016, 9.261719
685.0837, 9.633240
685.5659, 9.608643
686.0480, 8.536804
686.5301, 4.718445
687.0122, 0.1978760
687.4943, 1.415039
687.9764, 2.068542
688.4586, 3.874939
688.9407, 2.127808
689.4228, 1.489136
689.9049, 2.320984
690.3870, 0.3308110
690.8691, 1.951111
691.3513, 3.882874
691.8334, 5.110107
692.3155, 4.588806
692.7976, 2.626282
693.2797, 0.7008060
693.7618, 0.1553340
694.2440, 0.8155520
694.7261, 2.128906
695.2082, 4.058655
695.6903, 5.247620
696.1724, 4.619385
696.6545, 3.834778
697.1367, 3.911987
697.6188, 5.217834
698.1009, 4.368896
698.5830, 0.3557130
699.0651, 3.527344
699.5472, 4.326538
700.0294, 2.401428
700.5115, 0.7725220
700.9936, 0.3592530
701.4757, 1.174377
701.9578, 1.994019
702.4399, 2.591125
702.9221, 2.520569
703.4042, 1.427734
703.8863, 0.4213870
704.3684, 5.5969000E-02
704.8505, 5.8715999E-02
705.3326, 0.3497920
705.8148, 2.126953
706.2969, 3.026245
706.7790, 2.741272
707.2611, 1.602844
707.7432, 3.8940001E-02
708.2253, 2.399109
708.7075, 3.955505
709.1896, 4.101135
709.6718, 3.601318
710.1539, 3.929810
710.6360, 4.981262
711.1181, 6.303406
711.6002, 8.643738
712.0823, 10.40149
712.5645, 9.382874
713.0466, 6.443970
713.5287, 4.762085
714.0108, 6.690552
714.4929, 8.872925
714.9750, 9.827698
715.4572, 9.668457
715.9393, 10.03388
716.4214, 11.43463
716.9035, 12.21802
717.3856, 10.77460
717.8677, 7.541382
718.3499, 8.312012
718.8320, 13.21252
719.3141, 18.01550
719.7962, 19.57898
720.2783, 18.95557
720.7604, 17.24200
721.2426, 14.49689
721.7247, 12.57092
722.2068, 12.78064
722.6889, 14.06628
723.1710, 15.85004
723.6531, 18.69189
724.1353, 20.18384
724.6174, 19.23950
725.0995, 17.93805
725.5816, 18.28448
726.0637, 20.68079
726.5458, 21.84979
727.0280, 21.37830
727.5101, 20.25372
727.9922, 19.17938
728.4743, 18.43390
728.9564, 19.19806
729.4385, 22.46716
729.9207, 25.12500
730.4028, 23.99561
730.8849, 20.89984
731.3670, 18.38098
731.8491, 16.91156
732.3312, 16.39923
732.8134, 17.22577
733.2955, 18.88965
733.7776, 20.94617
734.2597, 24.22003
734.7418, 25.11151
735.2239, 21.93024
735.7061, 17.02570
736.1882, 16.20898
736.6703, 18.93225
737.1524, 21.00696
737.6345, 20.31537
738.1166, 18.60834
738.5988, 17.84357
739.0809, 17.67242
739.5630, 17.09253
740.0451, 14.48920
740.5272, 12.56732
741.0093, 12.74658
741.4915, 14.74908
741.9736, 16.70612
742.4557, 18.78333
742.9378, 20.42554
743.4199, 21.23444
743.9020, 21.42047
744.3842, 22.44574
744.8663, 24.26080
745.3484, 25.48505
745.8305, 25.01038
746.3126, 23.82135
746.7947, 23.60138
747.2769, 24.15973
747.7590, 24.75433
748.2411, 25.81848
748.7232, 26.34882
749.2053, 25.24756
749.6874, 22.08594
750.1696, 20.66895
750.6517, 22.10718
751.1338, 23.82660
751.6159, 24.32916
752.0980, 23.54193
752.5801, 23.20807
753.0623, 23.38251
753.5444, 23.15607
754.0265, 21.51007
754.5086, 19.09534
754.9907, 16.93439
755.4728, 14.96991
755.9550, 13.73993
756.4371, 14.60370
756.9192, 15.78333
757.4013, 15.69586
757.8835, 13.35065
758.3656, 11.72009
758.8477, 11.22858
759.3298, 11.15631
759.8120, 10.90808
760.2941, 10.44751
760.7762, 10.45972
761.2583, 11.15735
761.7404, 11.98492
762.2225, 12.11774
762.7047, 11.88715
763.1868, 12.38330
763.6689, 14.14240
764.1510, 14.79584
764.6331, 10.90778
765.1152, 6.055298
765.5974, 4.112854
766.0795, 8.082947
766.5616, 11.26221
767.0437, 13.08606
767.5258, 14.05084
768.0079, 14.43390
768.4901, 14.04071
768.9722, 14.73975
769.4543, 16.88501
769.9364, 19.64417
770.4185, 21.96960
770.9006, 23.93567
771.3828, 25.77527
771.8649, 27.49280
772.3470, 29.26953
772.8291, 30.94196
773.3112, 32.83978
773.7933, 35.42908
774.2755, 39.48383
774.7576, 43.41534
775.2397, 47.02167
775.7218, 50.49963
776.2039, 54.16766
776.6860, 58.02100
777.1682, 62.50964
777.6503, 67.93036
778.1324, 73.53595
778.6145, 78.60577
779.0966, 82.89453
779.5787, 85.73334
780.0609, 85.92999
780.5430, 86.06287
781.0251, 87.97949
781.5072, 90.82153
781.9893, 93.00983
782.4714, 93.42291
782.9536, 94.36865
783.4357, 96.75293
783.9178, 99.38873
784.3999, 99.11414
784.8820, 95.59509
785.3641, 94.46399
785.8463, 98.54626
786.3284, 103.5975
786.8105, 101.7826
787.2926, 95.34460
787.7747, 89.80103
788.2568, 89.83752
788.7390, 88.98114
789.2211, 83.43433
789.7032, 74.72693
790.1853, 66.32806
790.6674, 57.87036
791.1495, 50.97546
791.6317, 46.22107
792.1138, 42.95673
792.5959, 40.01080
793.0780, 37.36731
793.5601, 34.00043
794.0422, 29.02417
794.5244, 23.91162
795.0065, 20.94098
795.4886, 19.38922
795.9707, 17.59467
796.4528, 13.33307
796.9349, 10.30493
797.4171, 11.65607
797.8992, 15.31488
798.3813, 15.21173
798.8634, 8.606323
799.3455, 4.143799
799.8276, 4.147156
800.3098, 6.964111
800.7919, 9.289490
801.2740, 11.01843
801.7561, 10.83203
802.2382, 6.729187
802.7203, 2.446777
803.2025, 2.429626
803.6846, 5.322876
804.1667, 8.022156
804.6488, 10.12744
805.1309, 11.08136
805.6130, 10.11169
806.0952, 8.064087
806.5773, 6.395691
807.0594, 5.436096
807.5416, 4.194519
808.0237, 2.206116
808.5058, 9.0392999E-02
808.9879, 0.8682250
809.4700, 0.7725830
809.9521, 2.0081000E-02
810.4343, 2.120972
810.9164, 3.777588
811.3985, 2.717773
811.8806, 0.1605830
812.3627, 1.346130
812.8448, 0.3106690
813.3270, 1.241089
813.8091, 0.3076170
814.2912, 1.493835
814.7733, 1.770691
815.2554, 0.3372190
815.7375, 1.038330
816.2197, 1.930847
816.7018, 2.470276
817.1839, 2.792664
817.6660, 2.910950
818.1481, 2.802368
818.6302, 1.916931
819.1124, 1.560059
819.5945, 3.268555
820.0766, 5.615295
820.5587, 5.911438
821.0408, 2.500000
821.5229, 0.2110600
822.0051, 0.2949830
822.4872, 0.5591430
822.9693, 2.748230
823.4514, 6.045715
823.9335, 7.694946
824.4156, 6.757507
824.8978, 4.720093
825.3799, 1.858459
825.8620, 0.7169800
826.3441, 1.130188
826.8262, 3.690674
827.3083, 7.363586
827.7905, 7.394592
828.2726, 6.117798
828.7547, 6.592896
829.2368, 9.335388
829.7189, 11.30328
830.2010, 11.99255
830.6832, 11.92566
831.1653, 11.91187
831.6474, 11.74823
832.1295, 10.71429
832.6116, 8.334717
833.0938, 6.047974
833.5759, 4.419189
834.0580, 3.664917
834.5401, 3.941711
835.0222, 6.551147
835.5043, 7.733276
835.9865, 7.249023
836.4686, 5.906128
836.9507, 4.177002
837.4328, 1.724182
837.9149, 1.167480
838.3970, 3.052246
838.8792, 5.475647
839.3613, 6.693176
839.8434, 7.198914
840.3255, 7.582764
840.8076, 7.891907
841.2897, 8.132874
841.7719, 8.693298
842.2540, 8.934998
842.7361, 8.238953
843.2182, 6.021362
843.7003, 4.681458
844.1824, 4.371765
844.6646, 4.827271
845.1467, 5.416748
845.6288, 5.901611
846.1109, 7.320984
846.5930, 9.923401
847.0751, 11.36255
847.5573, 8.362488
848.0394, 4.872864
848.5215, 4.132813
849.0036, 7.074219
849.4857, 8.982727
849.9678, 9.987061
850.4500, 9.755676
850.9321, 7.243225
851.4142, 2.597412
851.8963, 0.3842160
852.3784, 0.6160280
852.8605, 1.567261
853.3427, 2.113342
853.8248, 2.751587
854.3069, 4.153442
854.7890, 5.983337
855.2711, 7.485535
855.7532, 8.457031
856.2354, 9.080811
856.7175, 9.105835
857.1996, 8.683655
857.6818, 9.657898
858.1639, 12.31042
858.6460, 14.27051
859.1281, 14.25818
859.6102, 12.98718
860.0923, 11.43726
860.5745, 9.735413
861.0566, 8.376648
861.5387, 8.686157
862.0208, 8.254883
862.5029, 4.585754
862.9850, 0.6754760
863.4672, 2.126831
863.9493, 1.983093
864.4314, 5.612549
864.9135, 7.423462
865.3956, 7.853943
865.8777, 7.773010
866.3599, 7.155029
866.8420, 5.796143
867.3241, 2.990967
867.8062, 0.5598140
868.2883, 0.2095950
868.7704, 0.3444820
869.2526, 1.621765
869.7347, 5.243591
870.2168, 6.507690
870.6989, 3.693542
871.1810, 0.2958980
871.6631, 1.872253
872.1453, 7.996582
872.6274, 11.21478
873.1095, 10.21075
873.5916, 7.557129
874.0737, 4.928040
874.5558, 2.670898
875.0380, 1.306702
875.5201, 1.275940
876.0022, 1.067749
876.4843, 0.6043700
876.9664, 1.731384
877.4485, 0.6807250
877.9307, 3.039734
878.4128, 5.711975
878.8949, 7.427490
879.3770, 7.583252
879.8591, 4.062134
880.3412, 0.6201170
880.8234, 2.168457
881.3055, 0.4069820
881.7876, 1.637207
882.2697, 3.418945
882.7518, 4.332153
883.2339, 3.505310
883.7161, 1.096924
884.1982, 0.5932620
884.6803, 2.668091
885.1624, 4.008423
885.6445, 2.326050
886.1266, 0.8242190
886.6088, 1.970337
887.0909, 1.306702
887.5730, 0.3391110
888.0551, 4.386108
888.5372, 7.462585
889.0193, 7.236572
889.5015, 4.598145
889.9836, 2.656067
890.4657, 1.741638
890.9478, 0.7436520
891.4299, 0.9391480
891.9120, 2.273132
892.3942, 0.1231690
892.8763, 4.367737
893.3584, 5.934387
893.8405, 1.369751
894.3226, 2.587585
894.8047, 0.9216920
895.2869, 7.072754
895.7690, 9.884155
896.2511, 5.299133
896.7332, 2.142395
897.2153, 0.7019650
897.6974, 0.3227540
898.1796, 0.7473140
898.6617, 1.798035
899.1438, 1.888000
899.6259, 0.8074340
900.1080, 7.6782003E-02
900.5901, 2.337952
901.0723, 4.652588
901.5544, 3.423035
902.0365, 2.617188
902.5186, 5.133362
903.0007, 1.082764
903.4828, 3.327271
903.9650, 5.199097
904.4471, 4.756348
904.9292, 3.940674
905.4113, 2.772461
905.8935, 1.803955
906.3756, 1.747803
906.8577, 1.786621
907.3398, 0.4769290
907.8220, 1.608887
908.3041, 2.176025
908.7862, 0.8663330
909.2683, 3.718872
909.7504, 6.084961
910.2325, 7.484375
910.7147, 5.766602
911.1968, 1.003174
911.6789, 1.468018
912.1610, 0.6638180
912.6431, 3.869995
913.1252, 3.929077
913.6074, 2.448975
914.0895, 1.899536
914.5716, 3.222534
915.0537, 5.142334
915.5358, 8.711792
916.0179, 11.66907
916.5001, 11.32617
916.9822, 7.419189
917.4643, 5.895996
917.9464, 7.327759
918.4285, 9.020264
918.9106, 8.195557
919.3928, 6.311890
919.8749, 5.221069
920.3570, 5.145630
920.8391, 4.669067
921.3212, 2.174561
921.8033, 0.7020260
922.2855, 1.731445
922.7676, 4.931641
923.2497, 6.809692
923.7318, 7.354736
924.2139, 7.042725
924.6960, 5.735229
925.1782, 3.989136
925.6603, 1.874512
926.1424, 0.1105960
926.6245, 0.5758060
927.1066, 2.106445
927.5887, 4.962646
928.0709, 7.319458
928.5530, 9.446533
929.0351, 12.15344
929.5172, 15.57849
929.9993, 17.18518
930.4814, 16.03613
930.9636, 14.49719
931.4457, 15.15833
931.9278, 17.15820
932.4099, 19.62292
932.8920, 22.95618
933.3741, 24.77405
933.8563, 23.01538
934.3384, 20.94397
934.8205, 20.72998
935.3026, 22.65137
935.7847, 24.04565
936.2668, 24.81580
936.7490, 26.04749
937.2311, 29.62073
937.7132, 33.39539
938.1953, 34.01367
938.6774, 32.10767
939.1595, 31.80066
939.6417, 35.33691
940.1238, 38.49866
940.6059, 40.26770
941.0880, 41.28564
941.5701, 43.21680
942.0522, 45.96240
942.5344, 48.20032
943.0165, 49.39453
943.4986, 50.29858
943.9807, 51.31775
944.4628, 52.71948
944.9449, 55.05249
945.4271, 61.25183
945.9092, 63.40247
946.3913, 58.84985
946.8734, 52.86926
947.3555, 50.58496
947.8376, 51.67456
948.3198, 52.01904
948.8019, 51.41602
949.2840, 50.61218
949.7661, 50.90967
950.2482, 51.10535
950.7303, 49.18457
951.2125, 44.96313
951.6946, 42.86597
952.1767, 44.37512
952.6588, 46.23120
953.1409, 46.86047
953.6230, 46.81128
954.1052, 47.81226
954.5873, 49.90271
955.0695, 53.63879
955.5516, 60.26196
956.0337, 67.26721
956.5158, 72.27588
956.9979, 76.41663
957.4800, 81.68274
957.9622, 89.69397
958.4443, 95.88562
958.9264, 98.79932
959.4085, 102.1304
959.8906, 110.5548
960.3727, 122.9136
960.8549, 134.4207
961.3370, 144.5312
961.8191, 155.9008
962.3012, 171.6923
962.7833, 188.5148
963.2654, 203.2410
963.7476, 215.8177
964.2297, 231.6779
964.7118, 251.3158
965.1939, 271.5255
965.6760, 290.8643
966.1581, 309.8491
966.6403, 330.8107
967.1224, 352.6648
967.6045, 373.1075
968.0866, 392.3988
968.5687, 408.3019
969.0508, 421.8058
969.5330, 430.3010
970.0151, 430.8373
970.4972, 422.6931
970.9793, 409.5950
971.4614, 391.7850
971.9435, 369.4250
972.4257, 339.7441
972.9078, 307.0662
973.3899, 276.9307
973.8720, 250.1364
974.3541, 226.8163
974.8362, 208.1296
975.3184, 191.5300
975.8005, 175.7728
976.2826, 161.0031
976.7647, 149.8757
977.2468, 142.3964
977.7289, 136.6256
978.2111, 132.5820
978.6932, 128.8394
979.1753, 123.4613
979.6574, 117.2908
980.1395, 112.0239
980.6216, 109.5519
981.1038, 105.8850
981.5859, 100.5138
982.0680, 94.30591
982.5501, 88.49683
983.0322, 82.87573
983.5143, 75.66162
983.9965, 66.55835
984.4786, 58.10730
984.9607, 52.19104
985.4428, 47.81409
985.9249, 45.08289
986.4070, 43.94922
986.8892, 39.83752
987.3713, 31.16650
987.8534, 23.87634
988.3355, 20.46802
988.8176, 19.60840
989.2997, 19.16541
989.7819, 18.76941
990.2640, 17.29614
990.7461, 13.69788
991.2282, 9.874390
991.7103, 5.871094
992.1924, 2.500977
992.6746, 0.7983400
993.1567, 1.101807
993.6388, 1.458008
994.1209, 1.870850
994.6030, 1.888306
995.0851, 1.139771
995.5673, 0.2518310
996.0494, 3.012085
996.5315, 6.870117
997.0136, 8.260620
997.4957, 2.688232
997.9778, 1.450439
998.4600, 1.077148
998.9421, 2.167236
999.4242, 3.379883
999.9063, 2.750366
1000.388, 2.051147
1000.871, 1.765259
1001.353, 1.810425
1001.835, 2.449219
1002.317, 3.227539
1002.799, 3.573730
1003.281, 3.247437
1003.763, 2.925903
1004.245, 2.775757
1004.728, 2.184814
1005.210, 0.2012940
1005.692, 2.574341
1006.174, 4.545410
1006.656, 5.649902
1007.138, 5.689575
1007.620, 2.277588
1008.102, 0.2084960
1008.584, 2.986328
1009.067, 8.519775
1009.549, 11.99561
1010.031, 13.24622
1010.513, 14.06567
1010.995, 14.64233
1011.477, 15.47058
1011.959, 16.75647
1012.441, 18.81287
1012.924, 22.50317
1013.406, 28.64844
1013.888, 33.08069
1014.370, 33.64258
1014.852, 34.53516
1015.334, 38.53772
1015.816, 44.79346
1016.298, 47.74390
1016.780, 47.78308
1017.263, 48.03809
1017.745, 50.13477
1018.227, 53.07007
1018.709, 56.86719
1019.191, 60.86694
1019.673, 63.61157
1020.155, 64.01477
1020.637, 66.44897
1021.120, 71.67896
1021.602, 77.61816
1022.084, 82.44141
1022.566, 86.17078
1023.048, 87.88721
1023.530, 87.57666
1024.012, 89.76709
1024.494, 98.36084
1024.976, 107.6216
1025.458, 115.1078
1025.941, 121.5994
1026.423, 129.3395
1026.905, 138.4004
1027.387, 149.4081
1027.869, 163.0132
1028.351, 177.3981
1028.833, 191.1340
1029.316, 204.4442
1029.798, 217.5983
1030.280, 229.4600
1030.762, 244.1132
1031.244, 261.7896
1031.726, 281.3621
1032.208, 302.5981
1032.690, 325.1753
1033.172, 347.2637
1033.655, 369.3412
1034.137, 393.6777
1034.619, 419.9686
1035.101, 450.3107
1035.583, 485.0537
1036.065, 523.9070
1036.547, 566.5225
1037.029, 612.5695
1037.511, 662.2347
1037.994, 715.0027
1038.476, 772.2556
1038.958, 835.2150
1039.440, 901.9854
1039.922, 970.0713
1040.404, 1040.034
1040.886, 1108.267
1041.368, 1175.478
1041.851, 1240.275
1042.333, 1302.528
1042.815, 1362.849
1043.297, 1420.967
1043.779, 1478.482
1044.261, 1537.584
1044.743, 1595.199
1045.225, 1660.787
1045.708, 1735.376
1046.190, 1821.525
1046.672, 1920.742
1047.154, 2032.682
1047.636, 2162.981
1048.118, 2313.275
1048.600, 2471.649
1049.082, 2642.385
1049.564, 2807.216
1050.047, 2964.964
1050.529, 3104.997
1051.011, 3168.784
1051.493, 3151.892
1051.975, 3065.770
1052.457, 2904.422
1052.939, 2690.490
1053.421, 2437.722
1053.903, 2165.380
1054.386, 1904.597
1054.868, 1660.907
1055.350, 1445.453
1055.832, 1265.396
1056.314, 1114.626
1056.796, 990.3169
1057.278, 890.6974
1057.760, 806.3743
1058.243, 736.7606
1058.725, 677.0417
1059.207, 626.7654
1059.689, 582.8402
1060.171, 543.0875
1060.653, 507.0597
1061.135, 474.3083
1061.617, 446.1667
1062.099, 418.5002
1062.582, 391.4258
1063.064, 364.3348
1063.546, 335.4075
1064.028, 306.1305
1064.510, 279.2888
1064.992, 254.9764
1065.474, 232.6604
1065.956, 211.7493
1066.438, 193.2339
1066.921, 177.5233
1067.403, 163.8676
1067.885, 151.3357
1068.367, 139.6158
1068.849, 126.3187
1069.331, 110.6382
1069.813, 96.48779
1070.295, 87.20593
1070.778, 80.02710
1071.260, 73.35413
1071.742, 66.96484
1072.224, 60.14807
1072.706, 52.70142
1073.188, 45.97864
1073.670, 40.16028
1074.152, 35.74280
1074.635, 34.18457
1075.117, 34.15918
1075.599, 33.65381
1076.081, 32.77625
1076.563, 29.57751
1077.045, 22.55261
1077.527, 15.87683
1078.009, 12.73877
1078.491, 12.33337
1078.974, 11.74243
1079.456, 10.97241
1079.938, 10.08862
1080.420, 8.606934
1080.902, 7.599121
1081.384, 9.222290
1081.866, 10.52612
1082.348, 6.434937
1082.831, 3.439209
1083.313, 7.328491
1083.795, 3.979858
1084.277, 3.9429002E-02
1084.759, 1.411621
1085.241, 4.031006
1085.723, 3.924316
1086.205, 1.284424
1086.688, 8.1055000E-02
1087.170, 0.2816160
1087.652, 0.6921390
1088.134, 0.8017580
1088.616, 0.6604000
1089.098, 0.1760250
1089.580, 0.4510500
1090.062, 0.8991700
1090.544, 1.104004
1091.026, 1.110718
1091.509, 0.2591550
1091.991, 0.2362060
1092.473, 2.072021
1092.955, 5.197632
1093.437, 7.555786
1093.919, 9.343628
1094.401, 11.36292
1094.883, 14.28284
1095.366, 16.93445
1095.848, 17.75598
1096.330, 18.86780
1096.812, 22.96008
1097.294, 30.74683
1097.776, 33.33081
1098.258, 30.62854
1098.740, 27.80798
1099.223, 27.97778
1099.705, 29.78528
1100.187, 32.73462
1100.669, 36.36877
1101.151, 39.56567
1101.633, 42.21021
1102.115, 44.54736
1102.597, 46.54590
1103.079, 48.57520
1103.562, 50.64990
1104.044, 53.20251
1104.526, 57.00317
1105.008, 62.04761
1105.490, 67.30859
1105.972, 73.33386
1106.454, 77.91370
1106.936, 79.53088
1107.418, 80.81067
1107.901, 87.69458
1108.383, 98.31506
1108.865, 106.7502
1109.347, 111.2202
1109.829, 117.1667
1110.311, 126.8641
1110.793, 139.2281
1111.275, 154.2716
1111.758, 171.2734
1112.240, 185.8698
1112.722, 198.5824
1113.204, 212.5682
1113.686, 228.9263
1114.168, 247.3234
1114.650, 267.8033
1115.132, 289.7936
1115.615, 312.5505
1116.097, 335.4829
1116.579, 363.3539
1117.061, 396.0345
1117.543, 429.7941
1118.025, 460.7797
1118.507, 492.4431
1118.989, 529.0337
1119.471, 564.3877
1119.953, 601.8369
1120.436, 643.1061
1120.918, 682.9817
1121.400, 728.7703
1121.882, 777.4091
1122.364, 826.3955
1122.846, 876.0325
1123.328, 926.9645
1123.810, 979.4594
1124.293, 1032.500
1124.775, 1090.767
1125.257, 1144.265
1125.739, 1190.938
1126.221, 1231.937
1126.703, 1270.849
1127.185, 1305.214
1127.667, 1327.624
1128.150, 1337.304
1128.632, 1334.426
1129.114, 1316.181
1129.596, 1287.758
1130.078, 1251.260
1130.560, 1207.017
1131.042, 1155.845
1131.524, 1098.581
1132.006, 1037.958
1132.489, 973.8704
1132.971, 909.9719
1133.453, 848.1975
1133.935, 789.3336
1134.417, 733.8115
1134.899, 681.2146
1135.381, 632.5997
1135.863, 587.4680
1136.346, 545.9788
1136.828, 509.2766
1137.310, 475.4503
1137.792, 442.8981
1138.274, 412.0771
1138.756, 383.9138
1139.238, 358.8422
1139.720, 333.3774
1140.203, 306.8390
1140.685, 283.3977
1141.167, 266.8445
1141.649, 253.6019
1142.131, 239.3710
1142.613, 224.5637
1143.095, 209.3705
1143.577, 192.3445
1144.059, 178.6470
1144.542, 169.0701
1145.024, 161.0582
1145.506, 151.5997
1145.988, 142.6528
1146.470, 139.4293
1146.952, 140.1941
1147.434, 136.8906
1147.916, 122.2140
1148.398, 109.9412
1148.881, 102.3839
1149.363, 96.73706
1149.845, 89.47131
1150.327, 81.47107
1150.809, 74.52454
1151.291, 68.91711
1151.773, 65.46863
1152.255, 66.82361
1152.738, 67.66992
1153.220, 66.58862
1153.702, 64.14807
1154.184, 60.87866
1154.666, 57.13293
1155.148, 54.46228
1155.630, 53.14539
1156.112, 50.48291
1156.594, 42.91064
1157.077, 36.55212
1157.559, 34.66919
1158.041, 36.00793
1158.523, 36.56274
1159.005, 36.34546
1159.487, 35.43896
1159.969, 33.73474
1160.451, 32.04797
1160.933, 32.14966
1161.416, 31.28003
1161.898, 26.69434
1162.380, 19.02185
1162.862, 14.60229
1163.344, 13.37720
1163.826, 13.16223
1164.308, 13.69458
1164.790, 13.79492
1165.273, 11.78394
1165.755, 9.207153
1166.237, 8.076782
1166.719, 8.749756
1167.201, 6.712891
1167.683, 1.702148
1168.165, 1.844604
1168.647, 0.9394530
1169.130, 1.580444
1169.612, 3.701782
1170.094, 5.436279
1170.576, 6.869873
1171.058, 8.372192
1171.540, 8.253662
1172.022, 6.373657
1172.504, 3.881714
1172.986, 0.8099370
1173.469, 1.831421
1173.951, 2.978638
1174.433, 2.776611
1174.915, 1.351074
1175.397, 2.202515
1175.879, 3.894165
1176.361, 3.352295
1176.843, 1.980469
1177.326, 0.4730220
1177.808, 0.8142090
1178.290, 1.284058
1178.772, 1.085449
1179.254, 0.9764400
1179.736, 1.779053
1180.218, 1.022583
1180.700, 2.105469
1181.182, 5.080078
1181.665, 4.355103
1182.147, 2.259766
1182.629, 2.662109
1183.111, 5.309448
1183.593, 6.595337
1184.075, 4.728516
1184.557, 4.305664
1185.039, 6.726318
1185.521, 9.138428
1186.004, 7.002686
1186.486, 2.595459
1186.968, 0.8603520
1187.450, 2.993530
1187.932, 3.383667
1188.414, 0.5114750
1188.896, 1.199463
1189.378, 7.6537997E-02
1189.861, 1.699585
1190.343, 0.2279050
1190.825, 3.754517
1191.307, 4.859985
1191.789, 2.789063
1192.271, 0.7165530
1192.753, 1.273315
1193.235, 1.965088
1193.718, 0.3698730
1194.200, 1.804443
1194.682, 0.3500980
1195.164, 2.710205
1195.646, 2.727905
1196.128, 2.012085
1196.610, 4.767944
1197.092, 3.105347
1197.574, 0.9460450
1198.057, 0.5402830
1198.539, 1.187622
1199.021, 6.0913000E-02
1199.503, 2.061279
1199.985, 3.406982
1200.467, 3.369751
1200.949, 3.095337
1201.431, 2.792480
1201.913, 2.342773
1202.396, 1.528931
1202.878, 0.7342530
1203.360, 0.8569340
1203.842, 1.598633
1204.324, 2.283813
1204.806, 2.667480
1205.288, 3.132568
1205.770, 3.894775
1206.253, 4.468018
1206.735, 4.398193
1207.217, 4.037476
1207.699, 4.377075
1208.181, 5.277222
1208.663, 6.508423
1209.145, 9.239624
1209.627, 9.532837
1210.109, 5.760742
1210.592, 1.697021
1211.074, 9.9730998E-02
1211.556, 0.2982180
1212.038, 1.388794
1212.520, 2.671265
1213.002, 2.073608
1213.484, 4.129272
1213.966, 7.252563
1214.448, 5.212036
1214.931, 2.263794
1215.413, 1.660278
1215.895, 2.738037
1216.377, 4.357788
1216.859, 6.026978
1217.341, 6.226196
1217.823, 2.369751
1218.305, 4.9561001E-02
1218.788, 6.2743999E-02
1219.270, 1.158081
1219.752, 2.591675
1220.234, 4.148193
1220.716, 5.396484
1221.198, 6.285034
1221.680, 6.666382
1222.162, 4.632324
1222.645, 5.360718
1223.127, 10.68274
1223.609, 15.75562
1224.091, 14.82629
1224.573, 10.78064
1225.055, 9.955688
1225.537, 11.75220
1226.019, 12.97888
1226.501, 12.70154
1226.984, 11.80908
1227.466, 10.00647
1227.948, 8.355469
1228.430, 7.532959
1228.912, 7.795166
1229.394, 10.78882
1229.876, 15.53345
1230.358, 17.79187
1230.841, 15.41406
1231.323, 12.20361
1231.805, 7.929810
1232.287, 4.866821
1232.769, 6.796875
1233.251, 10.68628
1233.733, 11.39844
1234.215, 9.434692
1234.698, 8.200928
1235.180, 9.078369
1235.662, 8.370117
1236.144, 5.232910
1236.626, 2.474487
1237.108, 4.166504
1237.590, 7.109741
1238.072, 6.690918
1238.554, 8.372925
1239.036, 9.882202
1239.519, 8.799805
1240.001, 11.12769
1240.483, 9.484741
1240.965, 6.745239
1241.447, 5.134155
1241.929, 4.477783
1242.411, 5.052490
1242.893, 6.517944
1243.376, 7.186157
1243.858, 6.735962
1244.340, 6.994019
1244.822, 8.267090
1245.304, 8.823486
1245.786, 5.222290
1246.268, 2.280640
1246.750, 5.282104
1247.233, 12.76855
1247.715, 15.07983
1248.197, 11.16162
1248.679, 9.377197
1249.161, 10.44971
1249.643, 11.98743
1250.125, 11.62695
1250.607, 10.84326
1251.089, 11.68433
1251.572, 13.84180
1252.054, 14.91931
1252.536, 14.85815
1253.018, 14.36438
1253.500, 13.63403
1253.982, 12.98999
1254.464, 12.62561
1254.946, 12.27258
1255.428, 11.51282
1255.911, 10.77832
1256.393, 11.06018
1256.875, 12.03772
1257.357, 12.16638
1257.839, 11.30090
1258.321, 10.52332
1258.803, 11.10339
1259.285, 10.05054
1259.768, 5.468872
1260.250, 0.3543700
1260.732, 0.8992920
1261.214, 5.822998
1261.696, 9.154175
1262.178, 9.985962
1262.660, 10.27429
1263.142, 11.30469
1263.625, 11.57886
1264.107, 10.31311
1264.589, 8.463989
1265.071, 7.093384
1265.553, 6.406616
1266.035, 8.017578
1266.517, 11.90735
1266.999, 12.69446
1267.481, 4.400757
1267.964, 0.2856450
1268.446, 4.398315
1268.928, 11.09753
1269.410, 12.47266
1269.892, 11.05066
1270.374, 12.17920
1270.856, 11.36206
1271.338, 9.376221
1271.820, 10.07007
1272.303, 5.798950
1272.785, 4.857300
1273.267, 5.633057
1273.749, 7.151367
1274.231, 8.376221
1274.713, 7.502808
1275.195, 5.021362
1275.677, 2.817261
1276.160, 0.6950680
1276.642, 0.2613530
1277.124, 0.1298830
1277.606, 1.629883
1278.088, 5.419800
1278.570, 8.970703
1279.052, 9.909546
1279.534, 8.868896
1280.016, 8.054199
1280.499, 7.502075
1280.981, 6.660767
1281.463, 5.422363
1281.945, 3.848755
1282.427, 1.808350
1282.909, 0.7716060
1283.391, 2.546631
1283.873, 5.389160
1284.356, 5.909180
1284.838, 4.545654
1285.320, 4.116455
1285.802, 4.784302
1286.284, 5.594971
1286.766, 5.885376
1287.248, 5.967041
1287.730, 6.007446
1288.213, 5.837769
1288.695, 4.518311
1289.177, 2.951416
1289.659, 4.289063
1290.141, 8.215698
1290.623, 10.56213
1291.105, 8.697632
1291.587, 6.297607
1292.069, 3.369995
1292.552, 1.393433
1293.034, 3.050415
1293.516, 6.142578
1293.998, 7.666138
1294.480, 7.555786
1294.962, 6.267456
1295.444, 3.202148
1295.926, 1.506226
1296.408, 1.603149
1296.891, 2.622681
1297.373, 5.062134
1297.855, 6.807007
1298.337, 4.772827
1298.819, 0.7751460
1299.301, 0.1827390
1299.783, 2.274658
1300.265, 3.697266
1300.748, 3.767578
1301.230, 3.051880
1301.712, 1.187134
1302.194, 1.1353000E-02
1302.676, 0.0000000E+00
##END=



