##NAMES=Tugtupite
##RRUFFID=R050278
##IDEAL CHEMISTRY=Na_4_BeAlSi_4_O_12_Cl
##LOCALITY=Kvanefjeld, Ilimaussag, Greenland
##OWNER=RRUFF
##SOURCE=Marcus Origlieri
##DESCRIPTION=Pink fine-grained aggregate associated with albite
##STATUS=The identification of this mineral has been confirmed by X-ray diffraction and chemical analysis
##URL=rruff.info/R050278
##MEASURED CHEMISTRY=Na_4.00_Be_1.00_Al_1.00_Si_4.00_O_12_Cl_1.00_ ; Be not measured but estimated by charge balance
108.691, 0.000
110.082, 129.007
111.473, 67.839
112.864, 284.809
114.254, 507.961
115.644, 708.018
117.034, 828.838
118.424, 564.739
119.813, 121.457
121.203, 205.670
122.592, 196.809
123.981, 167.695
125.369, 188.670
126.758, 255.501
128.146, 257.978
129.534, 218.899
130.922, 342.094
132.309, 141.406
133.696, 61.704
135.083, 114.128
136.470, 172.816
137.857, 101.451
139.243, 179.752
140.630, 111.788
142.016, 238.591
143.401, 120.078
144.787, 277.157
146.172, 219.746
147.557, 383.777
148.942, 366.196
150.327, 461.958
151.711, 551.018
153.096, 771.337
154.480, 1145.886
155.863, 1210.641
157.247, 1577.580
158.630, 1921.688
160.013, 2012.948
161.396, 1847.350
162.779, 1656.879
164.161, 1524.530
165.544, 1208.292
166.926, 1065.158
168.308, 922.514
169.689, 702.761
171.070, 774.788
172.452, 789.963
173.833, 766.616
175.213, 675.221
176.594, 834.887
177.974, 791.409
179.354, 1214.800
180.734, 1283.068
182.114, 1150.222
183.493, 966.267
184.872, 1142.215
186.251, 834.074
187.630, 841.851
189.008, 502.659
190.387, 689.380
191.765, 628.002
193.143, 644.504
194.520, 748.920
195.898, 676.267
197.275, 946.560
198.652, 1131.809
200.029, 1585.018
201.405, 1992.196
202.782, 2341.350
204.158, 2219.482
205.534, 2347.561
206.909, 1975.625
208.285, 1447.681
209.660, 1164.729
211.035, 759.769
212.410, 433.804
213.784, 494.835
215.159, 350.860
216.533, 345.884
217.907, 287.324
219.281, 132.923
220.654, 177.939
222.027, 113.952
223.400, 101.964
224.773, 136.972
226.146, 148.144
227.518, 219.855
228.891, 199.869
230.263, 211.577
231.634, 322.849
233.006, 446.251
234.377, 536.479
235.748, 587.723
237.119, 822.274
238.490, 1012.829
239.860, 1357.396
241.231, 1583.107
242.601, 1708.689
243.970, 1562.855
245.340, 1592.039
246.709, 1598.240
248.079, 1598.461
249.448, 1573.046
250.816, 1502.948
252.185, 1471.215
253.553, 1526.490
254.921, 1433.772
256.289, 1694.057
257.657, 1850.344
259.024, 2277.801
260.391, 2359.318
261.758, 3002.607
263.125, 3310.422
264.492, 3939.914
265.858, 4512.312
267.224, 4791.076
268.590, 5058.312
269.956, 4817.559
271.321, 5011.811
272.687, 4624.062
274.052, 4147.807
275.416, 3747.176
276.781, 3581.947
278.146, 3026.012
279.510, 2636.307
280.874, 2604.785
282.237, 2336.416
283.601, 2416.178
284.964, 2324.061
286.327, 2447.051
287.690, 2882.014
289.053, 2842.076
290.416, 2827.227
291.778, 2705.457
293.140, 2203.756
294.502, 1835.119
295.863, 1343.543
297.225, 1235.021
298.586, 832.543
299.947, 689.672
301.308, 618.275
302.668, 428.916
304.029, 562.590
305.389, 440.291
306.749, 422.021
308.108, 344.771
309.468, 342.252
310.827, 406.326
312.186, 425.127
313.545, 420.939
314.903, 585.762
316.262, 655.596
317.620, 817.848
318.978, 1133.285
320.336, 1135.141
321.693, 1377.000
323.051, 1435.861
324.408, 1976.727
325.765, 2024.598
327.121, 1921.508
328.478, 1929.336
329.834, 1463.207
331.190, 1086.078
332.546, 744.943
333.902, 505.332
335.257, 507.654
336.612, 201.488
337.967, 185.307
339.322, 164.107
340.677, 40.109
342.031, 61.639
343.385, 229.627
344.739, 37.023
346.093, 61.342
347.446, 83.744
348.799, 51.186
350.153, 79.619
351.505, 11.094
352.858, 126.586
354.210, 202.135
355.563, 40.252
356.915, 96.367
358.267, 142.035
359.618, 187.760
360.969, 239.553
362.321, 59.428
363.672, 82.660
365.022, 51.742
366.373, 59.816
367.723, 60.092
369.073, 60.762
370.423, 61.197
371.773, 98.811
373.122, 34.195
374.471, 104.773
375.821, 365.727
377.169, 111.672
378.518, 447.727
379.866, 183.770
381.215, 341.857
382.563, 683.934
383.910, 601.010
385.258, 714.076
386.605, 1164.131
387.952, 1352.178
389.299, 1139.254
390.646, 1173.227
391.992, 932.113
393.339, 798.922
394.685, 686.676
396.031, 391.338
397.376, 640.928
398.722, 238.340
400.067, 349.729
401.412, 201.107
402.757, 260.564
404.101, 336.986
405.446, 306.375
406.790, 120.762
408.134, 340.143
409.478, 110.518
410.821, 209.889
412.165, 207.256
413.508, 85.617
414.851, 133.168
416.193, 232.352
417.536, 126.705
418.878, 150.051
420.220, 240.674
421.562, 210.010
422.904, 48.664
424.245, 253.891
425.586, 306.170
426.927, 239.877
428.268, 573.035
429.609, 513.367
430.949, 635.576
432.289, 1024.775
433.629, 1461.643
434.969, 1543.473
436.309, 2429.215
437.648, 2735.393
438.987, 3422.584
440.326, 2888.707
441.665, 2226.967
443.003, 1839.793
444.342, 1874.211
445.680, 1499.779
447.018, 1646.279
448.355, 1534.982
449.693, 1567.271
451.030, 1976.721
452.367, 2306.746
453.704, 3461.092
455.041, 4261.699
456.377, 6302.977
457.713, 7913.926
459.049, 10337.852
460.385, 12253.758
461.721, 13107.648
463.056, 12601.527
464.391, 10641.375
465.726, 8386.207
467.061, 7088.016
468.395, 5448.797
469.730, 4045.557
471.064, 3622.289
472.398, 2700.998
473.731, 2873.684
475.065, 2552.336
476.398, 2652.971
477.731, 2684.574
479.064, 2750.156
480.397, 2376.715
481.729, 1937.246
483.062, 1712.756
484.394, 1411.178
485.725, 1359.697
487.057, 1016.131
488.389, 830.545
489.720, 760.936
491.051, 511.297
492.382, 657.646
493.712, 604.967
495.043, 710.293
496.373, 675.586
497.703, 565.855
499.032, 867.096
500.362, 1314.139
501.691, 1799.623
503.020, 2362.779
504.349, 2842.918
505.678, 3862.424
507.007, 4281.256
508.335, 4312.609
509.663, 4331.465
510.991, 3976.744
512.319, 3325.502
513.646, 2422.986
514.973, 1859.746
516.300, 1315.285
517.627, 1040.279
518.954, 810.541
520.280, 474.836
521.607, 490.572
522.933, 292.031
524.259, 226.088
525.584, 275.975
526.910, 41.635
528.235, 204.510
529.560, 417.924
530.885, 263.504
532.209, 234.117
533.534, 308.447
534.858, 483.463
536.182, 443.123
537.506, 736.025
538.829, 709.418
540.152, 1087.570
541.476, 1023.523
542.799, 1747.635
544.121, 1538.240
545.444, 2390.766
546.766, 3059.932
548.088, 3733.180
549.410, 4655.576
550.732, 5679.209
552.053, 6851.557
553.375, 7685.459
554.696, 7502.004
556.017, 7309.262
557.337, 6512.971
558.658, 5433.051
559.978, 4336.275
561.298, 3190.461
562.618, 3007.855
563.938, 1857.262
565.257, 1810.023
566.576, 1585.176
567.895, 958.258
569.214, 1133.260
570.533, 1059.949
571.851, 759.600
573.170, 583.084
574.488, 693.975
575.805, 603.840
577.123, 551.455
578.440, 289.412
579.758, 821.314
581.075, 656.736
582.391, 292.590
583.708, 572.322
585.024, 252.688
586.341, 144.291
587.657, 335.383
588.972, 391.359
590.288, 515.684
591.603, 203.467
592.918, 37.115
594.233, 233.117
595.548, 435.285
596.863, 364.996
598.177, 142.111
599.491, 108.791
600.805, 210.195
602.119, 307.625
603.432, 270.152
604.746, 283.283
606.059, 231.803
607.372, 328.178
608.685, 285.916
609.997, 570.619
611.309, 304.115
612.621, 237.236
613.933, 313.607
615.245, 579.807
616.557, 455.773
617.868, 668.904
619.179, 694.768
620.490, 812.859
621.801, 707.617
623.111, 1491.461
624.421, 1503.879
625.731, 2693.480
627.041, 3090.031
628.351, 4644.975
629.660, 5159.047
630.970, 5362.443
632.279, 5143.826
633.588, 3546.061
634.896, 2639.289
636.205, 1916.219
637.513, 1807.188
638.821, 1707.438
640.129, 770.590
641.437, 993.371
642.744, 643.758
644.051, 463.314
645.358, 494.232
646.665, 821.459
647.972, 883.285
649.278, 788.705
650.584, 846.244
651.890, 777.799
653.196, 1138.701
654.502, 715.125
655.807, 683.646
657.113, 232.811
658.418, 543.576
659.722, 614.570
661.027, 261.986
662.331, 323.053
663.636, 192.559
664.940, 192.947
666.244, 114.143
667.547, 236.031
668.851, 26.824
670.154, 402.752
671.457, 2.170
672.760, 39.721
674.062, 572.344
675.365, 157.615
676.667, 163.955
677.969, 223.260
679.271, 117.920
680.572, 133.764
681.874, 134.252
683.175, 191.668
684.476, 130.635
685.777, 232.680
687.077, 216.359
688.378, 204.340
689.678, 175.146
690.978, 337.713
692.278, 176.910
693.577, 412.441
694.877, 495.238
696.176, 175.766
697.475, 330.484
698.774, 16.613
700.072, 161.615
701.371, 173.139
702.669, 52.857
703.967, 196.906
705.265, 181.133
706.562, 357.336
707.860, 178.828
709.157, 50.662
710.454, 116.350
711.751, 105.480
713.047, 312.799
714.344, 4.832
715.640, 414.061
716.936, 278.879
718.232, 119.447
719.527, 346.992
720.823, 253.652
722.118, 115.006
723.413, 161.209
724.708, 120.199
726.002, 236.980
727.297, 237.312
728.591, 25.719
729.885, 364.590
731.179, 397.621
732.472, 162.189
733.766, 92.334
735.059, 120.646
736.352, 223.809
737.645, 305.215
738.937, 385.496
740.230, 461.445
741.522, 154.854
742.814, 265.748
744.106, 284.783
745.397, 430.891
746.689, 311.309
747.980, 148.471
749.271, 405.822
750.562, 21.877
751.853, 543.445
753.143, 164.371
754.433, 255.590
755.723, 308.479
757.013, 68.699
758.303, 253.965
759.592, 337.822
760.881, 472.090
762.170, 494.131
763.459, 717.381
764.748, 553.539
766.036, 442.078
767.325, 714.576
768.613, 208.008
769.901, 475.506
771.188, 567.162
772.476, 229.889
773.763, 520.730
775.050, 214.555
776.337, 637.805
777.624, 249.814
778.910, 340.766
780.196, 547.412
781.482, 572.576
782.768, 418.453
784.054, 373.672
785.339, 839.562
786.625, 513.631
787.910, 298.131
789.195, 670.146
790.479, 344.982
791.764, 82.736
793.048, 480.396
794.332, 249.982
795.616, 326.480
796.900, 167.008
798.183, 352.701
799.467, 46.740
800.750, 164.887
802.033, 248.371
803.316, 11.641
804.598, 531.215
805.880, 80.004
807.163, 414.627
808.445, 276.328
809.726, 238.094
811.008, 311.145
812.289, 389.779
813.570, 325.541
814.851, 448.902
816.132, 659.225
817.413, 411.725
818.693, 189.588
819.973, 572.357
821.253, 190.508
822.533, 272.281
823.813, 461.672
825.092, 338.969
826.371, 298.086
827.650, 262.496
828.929, 339.699
830.208, 316.613
831.486, 321.816
832.764, 60.180
834.042, 181.855
835.320, 172.230
836.598, 84.512
837.875, 399.012
839.152, 283.090
840.429, 133.637
841.706, 537.699
842.983, 74.770
844.259, 119.180
845.536, 429.941
846.812, 64.238
848.088, 193.586
849.363, 83.668
850.639, 460.176
851.914, 233.219
853.189, 11.891
854.464, 335.809
855.739, 270.312
857.013, 365.590
858.288, 110.477
859.562, 52.305
860.836, 204.785
862.110, 180.449
863.383, 24.441
864.656, 444.734
865.930, 132.246
867.203, 94.668
868.475, 179.094
869.748, 124.395
871.020, 3.508
872.292, 148.273
873.564, 101.957
874.836, 156.195
876.108, 15.184
877.379, 202.605
878.650, 233.152
879.922, 82.168
881.192, 150.215
882.463, 276.984
883.733, 86.488
885.004, 179.109
886.274, 261.684
887.544, 133.891
888.813, 504.180
890.083, 160.152
891.352, 94.684
892.621, 548.793
893.890, 226.156
895.159, 219.168
896.427, 25.434
897.695, 107.988
898.964, 15.293
900.232, 135.340
901.499, 76.965
902.767, 150.645
904.034, 379.266
905.301, 36.766
906.568, 195.664
907.835, 460.500
909.102, 223.496
910.368, 279.336
911.634, 98.953
912.900, 223.840
914.166, 208.211
915.432, 568.598
916.697, 197.996
917.962, 141.680
919.227, 337.195
920.492, 268.316
921.757, 308.074
923.021, 86.879
924.285, 292.789
925.550, 599.414
926.813, 232.188
928.077, 351.445
929.341, 153.328
930.604, 148.738
931.867, 442.418
933.130, 62.820
934.393, 114.785
935.655, 561.965
936.918, 76.555
938.180, 703.516
939.442, 375.965
940.703, 233.578
941.965, 521.465
943.226, 570.922
944.488, 584.609
945.749, 617.918
947.009, 626.484
948.270, 478.199
949.530, 418.176
950.791, 316.855
952.051, 582.047
953.311, 168.801
954.570, 28.820
955.830, 553.113
957.089, 636.160
958.348, 517.059
959.607, 233.480
960.866, 438.781
962.124, 111.305
963.383, 472.062
964.641, 382.082
965.899, 458.754
967.156, 908.875
968.414, 809.277
969.671, 942.098
970.928, 845.918
972.185, 771.109
973.442, 939.871
974.699, 663.902
975.955, 549.664
977.211, 831.828
978.468, 289.773
979.723, 830.496
980.979, 712.461
982.234, 445.258
983.490, 901.000
984.745, 141.316
986.000, 701.316
987.254, 660.203
988.509, 37.656
989.763, 699.332
991.017, 266.453
992.271, 343.867
993.525, 310.848
994.779, 416.852
996.032, 473.551
997.285, 404.504
998.538, 720.574
999.791, 548.273
1001.044, 613.824
1002.296, 280.570
1003.548, 641.387
1004.800, 343.293
1006.052, 436.246
1007.304, 572.898
1008.555, 362.027
1009.807, 686.078
1011.058, 721.688
1012.309, 680.570
1013.559, 613.750
1014.810, 609.230
1016.060, 448.328
1017.310, 724.984
1018.560, 587.012
1019.810, 74.516
1021.060, 615.180
1022.309, 951.223
1023.558, 582.051
1024.807, 1143.918
1026.056, 1588.594
1027.305, 774.004
1028.553, 974.000
1029.801, 1377.438
1031.049, 1412.656
1032.297, 1577.340
1033.545, 1281.480
1034.793, 1802.379
1036.040, 1597.230
1037.287, 1851.797
1038.534, 2228.305
1039.781, 2450.020
1041.027, 3009.977
1042.274, 3312.113
1043.520, 3464.113
1044.766, 4211.656
1046.012, 4541.035
1047.257, 5241.766
1048.503, 7196.715
1049.748, 9873.594
1050.993, 11573.898
1052.238, 12794.680
1053.483, 11488.734
1054.727, 8726.156
1055.971, 6281.355
1057.216, 5438.238
1058.459, 4100.539
1059.703, 3317.816
1060.947, 2726.445
1062.190, 2687.637
1063.433, 2310.703
1064.676, 2189.027
1065.919, 1926.047
1067.162, 1355.105
1068.404, 1788.211
1069.646, 812.848
1070.888, 964.961
1072.130, 1225.125
1073.372, 902.219
1074.613, 1067.230
1075.855, 1002.961
1077.096, 579.250
1078.337, 481.133
1079.578, 1001.738
1080.818, 552.746
1082.059, 846.453
1083.299, 632.508
1084.539, 697.723
1085.779, 540.949
1087.018, 584.984
1088.258, 683.016
1089.497, 651.195
1090.736, 904.238
1091.975, 704.691
1093.213, 843.559
1094.452, 633.859
1095.690, 1276.070
1096.928, 894.684
1098.166, 1416.770
1099.404, 1459.598
1100.642, 1467.512
1101.879, 1598.148
1103.116, 1638.258
1104.353, 1332.414
1105.590, 1395.617
1106.827, 928.316
1108.063, 1442.652
1109.299, 690.020
1110.536, 1276.711
1111.771, 1225.156
1113.007, 840.598
1114.243, 1370.621
1115.478, 1286.676
1116.713, 1129.270
1117.948, 1506.430
1119.183, 1733.262
1120.418, 1530.508
1121.652, 2322.133
1122.886, 3116.652
1124.120, 3403.039
1125.354, 3988.293
1126.588, 3785.402
1127.821, 4721.375
1129.055, 4603.797
1130.288, 4920.590
1131.521, 4659.352
1132.753, 3996.082
1133.986, 3275.793
1135.218, 2841.996
1136.450, 2886.035
1137.682, 1718.848
1138.914, 2031.211
1140.146, 1264.656
1141.377, 1125.273
1142.609, 960.570
1143.840, 682.145
1145.071, 676.629
1146.301, 741.613
1147.532, 607.543
1148.762, 565.957
1149.992, 545.258
1151.222, 155.297
1152.452, 464.297
1153.682, 527.652
1154.911, 165.879
1156.140, 477.418
1157.369, 153.000
1158.598, 167.234
1159.827, 102.293
1161.055, 262.758
1162.284, 133.480
1163.512, 271.027
1164.740, 50.617
1165.967, 365.594
1167.195, 319.164
1168.422, 250.449
1169.650, 263.855
1170.877, 132.480
1172.103, 108.055
1173.330, 54.785
1174.557, 146.164
1175.783, 110.543
1177.009, 112.941
1178.235, 343.387
1179.461, 72.801
1180.686, 148.207
1181.912, 147.492
1183.137, 93.086
1184.362, 245.531
1185.587, 42.113
1186.811, 28.141
1188.036, 412.250
1189.260, 60.270
1190.484, 154.184
1191.708, 326.000
1192.932, 585.535
1194.155, 14.016
1195.378, 116.367
1196.602, 279.660
1197.825, 474.898
1199.047, 114.070
1200.270, 527.156
1201.492, 156.148
1202.715, 842.562
1203.937, 249.789
1205.159, 490.152
1206.380, 724.059
1207.602, 682.957
1208.823, 850.129
1210.044, 736.332
1211.265, 646.812
1212.486, 496.949
1213.707, 435.004
1214.927, 400.984
1216.147, 649.898
1217.367, 290.742
1218.587, 708.797
1219.807, 491.508
1221.027, 466.156
1222.246, 712.750
1223.465, 554.305
1224.684, 757.816
1225.903, 899.305
1227.121, 738.777
1228.340, 910.164
1229.558, 1109.684
1230.776, 932.148
1231.994, 742.629
1233.212, 598.137
1234.429, 766.688
1235.646, 837.305
1236.864, 474.859
1238.081, 995.754
1239.297, 748.172
1240.514, 1062.059
1241.730, 1225.273
1242.947, 748.031
1244.163, 785.359
1245.378, 740.414
1246.594, 1052.008
1247.810, 905.543
1249.025, 559.898
1250.240, 885.047
1251.455, 471.922
1252.670, 700.445
1253.885, 684.691
1255.099, 582.066
1256.313, 654.832
1257.527, 67.496
1258.741, 207.973
1259.955, 781.852
1261.168, 194.980
1262.382, 529.219
1263.595, 731.234
1264.808, 740.254
1266.021, 414.078
1267.233, 643.340
1268.446, 532.473
1269.658, 773.832
1270.870, 657.867
1272.082, 532.520
1273.294, 540.754
1274.505, 356.422
1275.716, 469.102
1276.928, 351.484
1278.139, 407.223
1279.349, 569.816
1280.560, 514.453
1281.770, 650.000
1282.981, 450.109
1284.191, 271.102
1285.401, 687.246
1286.610, 437.840
1287.820, 510.488
1289.029, 697.633
1290.239, 30.680
1291.448, 754.293
1292.656, 266.922
1293.865, 498.617
1295.073, 508.641
1296.282, 450.395
1297.490, 503.570
1298.698, 226.422
1299.906, 477.312
1301.113, 310.152
1302.320, 422.418
1303.528, 346.316
1304.735, 457.848
1305.942, 138.887
1307.148, 404.465
1308.355, 692.219
1309.561, 128.395
1310.767, 799.805
1311.973, 353.152
1313.179, 398.516
1314.384, 14.598
1315.590, 723.262
1316.795, 372.062
1318.000, 519.996
1319.205, 149.832
1320.410, 735.602
1321.614, 285.324
1322.819, 1.000
1324.023, 0.000
##END=



