##NAMES=Tugtupite
##RRUFFID=R050278
##IDEAL CHEMISTRY=Na_4_BeAlSi_4_O_12_Cl
##LOCALITY=Kvanefjeld, Ilimaussag, Greenland
##OWNER=RRUFF
##SOURCE=Marcus Origlieri
##DESCRIPTION=Pink fine-grained aggregate associated with albite
##STATUS=The identification of this mineral has been confirmed by X-ray diffraction and chemical analysis
##URL=rruff.info/R050278
##MEASURED CHEMISTRY=Na_4.00_Be_1.00_Al_1.00_Si_4.00_O_12_Cl_1.00_ ; Be not measured but estimated by charge balance
133.6528, 0.0000000E+00
134.1349, 0.6999050
134.6170, 0.6113890
135.0991, 0.1984250
135.5812, 0.1639860
136.0633, 0.5458220
136.5455, 1.205734
137.0276, 1.139725
137.5097, 0.4890140
137.9918, 0.2899170
138.4739, 0.9043880
138.9560, 1.812164
139.4382, 2.485062
139.9203, 2.873016
140.4024, 3.102829
140.8845, 3.076508
141.3666, 2.948273
141.8487, 3.035904
142.3309, 3.575180
142.8130, 4.438507
143.2951, 5.228439
143.7772, 5.961334
144.2593, 6.572891
144.7414, 6.853470
145.2236, 6.978546
145.7057, 7.374863
146.1878, 8.415115
146.6699, 10.12683
147.1520, 11.92410
147.6341, 13.80363
148.1163, 15.78102
148.5984, 17.86227
149.0805, 20.04413
149.5626, 22.33598
150.0447, 24.71397
150.5268, 27.09340
151.0090, 29.90790
151.4911, 33.02715
151.9732, 36.54216
152.4553, 40.58069
152.9374, 45.11156
153.4195, 50.00087
153.9017, 54.94142
154.3838, 59.33316
154.8659, 65.10730
155.3480, 72.70876
155.8301, 81.45935
156.3122, 91.16873
156.7944, 101.8884
157.2765, 112.4859
157.7586, 121.0330
158.2407, 128.2138
158.7228, 132.3991
159.2049, 132.8102
159.6871, 129.8669
160.1692, 124.1633
160.6513, 115.1421
161.1334, 104.3334
161.6155, 94.06114
162.0976, 84.28149
162.5798, 75.08411
163.0619, 66.61052
163.5440, 58.84404
164.0261, 51.57135
164.5082, 44.72827
164.9903, 38.48117
165.4725, 32.83606
165.9546, 27.81796
166.4367, 23.53815
166.9188, 20.33058
167.4009, 18.37729
167.8830, 16.72554
168.3652, 15.07845
168.8473, 13.66261
169.3294, 12.73074
169.8115, 12.36768
170.2936, 12.30299
170.7757, 11.95065
171.2579, 10.84691
171.7400, 10.35063
172.2221, 10.86406
172.7042, 12.45712
173.1863, 14.62276
173.6684, 16.96336
174.1506, 19.37277
174.6327, 21.57300
175.1148, 23.23792
175.5969, 25.24969
176.0790, 27.75038
176.5611, 30.51682
177.0433, 33.56857
177.5254, 36.96017
178.0075, 40.68282
178.4896, 44.14485
178.9717, 48.18294
179.4538, 51.08878
179.9360, 52.47786
180.4181, 52.43501
180.9002, 51.04051
181.3823, 48.21536
181.8644, 44.11189
182.3465, 39.74347
182.8287, 34.51059
183.3108, 29.63422
183.7929, 25.76820
184.2750, 22.81123
184.7571, 20.17758
185.2392, 17.48926
185.7214, 14.95158
186.2035, 12.95889
186.6856, 11.48145
187.1677, 10.59715
187.6498, 10.60936
188.1319, 11.55573
188.6141, 12.49484
189.0962, 12.79985
189.5783, 12.80981
190.0604, 12.95096
190.5425, 13.20792
191.0246, 13.75110
191.5068, 14.88634
191.9889, 16.80508
192.4710, 18.79344
192.9531, 20.48503
193.4352, 22.09528
193.9173, 23.83214
194.3995, 25.78912
194.8816, 27.89848
195.3637, 29.98828
195.8458, 31.85461
196.3279, 34.10835
196.8100, 36.86107
197.2922, 40.03622
197.7743, 43.53648
198.2564, 47.31561
198.7385, 51.38310
199.2206, 55.75937
199.7027, 60.25945
200.1849, 65.40880
200.6670, 71.54239
201.1491, 78.24345
201.6312, 85.33920
202.1133, 92.84924
202.5954, 100.2938
203.0776, 104.7252
203.5597, 105.9318
204.0418, 103.9089
204.5239, 97.60770
205.0060, 88.12354
205.4881, 76.81769
205.9703, 64.35640
206.4524, 50.98773
206.9345, 39.38576
207.4166, 29.43303
207.8987, 21.08327
208.3808, 14.82446
208.8630, 10.25545
209.3451, 6.647385
209.8272, 3.627151
210.3093, 1.165222
210.7914, 1.050690
211.2735, 3.215790
211.7557, 5.001694
212.2378, 6.205292
212.7199, 6.902100
213.2020, 7.357635
213.6841, 7.745636
214.1662, 7.983810
214.6484, 7.828506
215.1305, 6.994873
215.6126, 6.083115
216.0947, 5.393616
216.5768, 4.908752
217.0589, 4.545547
217.5410, 4.353119
218.0232, 4.204010
218.5053, 3.798370
218.9874, 2.995590
219.4695, 2.094757
219.9516, 1.423767
220.4337, 0.9723360
220.9159, 0.2497410
221.3980, 1.111969
221.8801, 2.850235
222.3622, 4.492920
222.8443, 5.805588
223.3264, 7.345062
223.8086, 9.996689
224.2907, 13.93155
224.7728, 17.31732
225.2549, 18.85577
225.7370, 19.68921
226.2191, 20.80597
226.7013, 22.46249
227.1834, 24.27626
227.6655, 25.64844
228.1476, 26.38750
228.6297, 27.51192
229.1118, 29.41364
229.5940, 31.76677
230.0761, 34.50368
230.5582, 37.60271
231.0403, 40.80049
231.5224, 43.62381
232.0045, 45.87309
232.4867, 48.33652
232.9688, 51.17992
233.4509, 54.28220
233.9330, 57.56580
234.4151, 61.01241
234.8972, 64.68074
235.3794, 68.71033
235.8615, 73.33859
236.3436, 77.83267
236.8257, 81.58458
237.3078, 85.53745
237.7899, 90.39850
238.2721, 96.35844
238.7542, 103.0770
239.2363, 109.8931
239.7184, 116.2584
240.2005, 124.0010
240.6826, 133.2256
241.1648, 143.4965
241.6469, 154.8502
242.1290, 167.0933
242.6111, 179.5316
243.0932, 191.4012
243.5753, 205.2585
244.0575, 212.5806
244.5396, 211.2475
245.0217, 205.7765
245.5038, 197.9980
245.9859, 188.8402
246.4680, 180.0538
246.9502, 173.9606
247.4323, 171.5770
247.9144, 169.8624
248.3965, 169.0965
248.8786, 168.7354
249.3607, 168.2782
249.8429, 167.6935
250.3250, 167.4285
250.8071, 167.9881
251.2892, 169.4889
251.7713, 171.7361
252.2534, 174.8591
252.7356, 178.5686
253.2177, 182.7614
253.6998, 187.3714
254.1819, 192.2201
254.6640, 197.0297
255.1461, 201.7103
255.6283, 207.4741
256.1104, 214.6055
256.5925, 222.5480
257.0746, 231.0793
257.5567, 240.1533
258.0388, 249.4985
258.5210, 258.8442
259.0031, 268.2423
259.4852, 278.2391
259.9673, 289.2879
260.4494, 300.6400
260.9315, 311.7689
261.4137, 322.6855
261.8958, 333.6205
262.3779, 344.8356
262.8600, 356.2881
263.3421, 367.4373
263.8242, 378.5583
264.3064, 389.1146
264.7885, 398.5023
265.2706, 406.7848
265.7527, 414.7837
266.2348, 423.3786
266.7169, 431.6852
267.1991, 437.8089
267.6812, 441.3829
268.1633, 443.1146
268.6454, 443.1129
269.1275, 441.4019
269.6096, 438.7885
270.0918, 435.8467
270.5739, 432.0098
271.0560, 426.5448
271.5381, 419.1633
272.0202, 410.7623
272.5023, 402.0729
272.9845, 393.0550
273.4666, 383.1199
273.9487, 371.5273
274.4308, 359.2426
274.9129, 347.5017
275.3951, 336.3937
275.8772, 325.6107
276.3593, 314.7985
276.8414, 304.0909
277.3235, 294.2375
277.8056, 285.6621
278.2878, 277.8049
278.7699, 269.8391
279.2520, 261.7315
279.7341, 254.5880
280.2162, 249.5015
280.6983, 246.1004
281.1805, 242.4816
281.6626, 237.7299
282.1447, 233.7545
282.6268, 231.9653
283.1089, 232.1117
283.5910, 233.1453
284.0732, 234.4765
284.5553, 236.2066
285.0374, 238.7307
285.5195, 242.0660
286.0016, 246.2612
286.4837, 251.3702
286.9659, 257.2240
287.4480, 263.5865
287.9301, 271.0912
288.4122, 278.9026
288.8943, 285.0195
289.3764, 290.2124
289.8586, 291.6333
290.3407, 288.2980
290.8228, 280.8192
291.3049, 269.4317
291.7870, 253.7328
292.2691, 234.9787
292.7513, 214.5426
293.2334, 191.3233
293.7155, 169.7347
294.1976, 151.5203
294.6797, 135.6396
295.1618, 121.1427
295.6440, 107.8304
296.1261, 95.88040
296.6082, 85.69997
297.0903, 77.48384
297.5724, 70.28676
298.0545, 63.83153
298.5367, 58.29359
299.0188, 54.15593
299.5009, 51.47301
299.9830, 49.26930
300.4651, 46.28241
300.9472, 42.29057
301.4294, 39.08324
301.9115, 37.29599
302.3936, 36.11748
302.8757, 35.27148
303.3578, 34.68964
303.8399, 34.25626
304.3221, 33.84531
304.8042, 33.45551
305.2863, 33.24631
305.7684, 33.00774
306.2505, 33.23367
306.7326, 34.28241
307.2148, 35.97363
307.6969, 37.85275
308.1790, 39.72493
308.6611, 41.54015
309.1432, 42.97446
309.6253, 43.80678
310.1075, 44.54224
310.5896, 45.07732
311.0717, 45.70332
311.5538, 46.92448
312.0359, 49.13789
312.5180, 51.90941
313.0002, 54.07071
313.4823, 55.35356
313.9644, 56.54930
314.4465, 57.98119
314.9286, 59.41342
315.4107, 60.65172
315.8929, 61.64204
316.3750, 62.33958
316.8571, 62.62047
317.3392, 62.36598
317.8213, 62.07956
318.3034, 61.56203
318.7856, 61.24223
319.2677, 61.36928
319.7498, 61.99811
320.2319, 63.11252
320.7140, 64.65718
321.1961, 66.60579
321.6783, 69.20055
322.1604, 72.77368
322.6425, 76.79619
323.1246, 81.00975
323.6067, 85.42183
324.0888, 90.21629
324.5710, 95.71123
325.0531, 101.8142
325.5352, 107.8192
326.0173, 115.4744
326.4994, 120.5096
326.9815, 121.7751
327.4637, 119.4731
327.9458, 113.7846
328.4279, 104.1879
328.9100, 91.74983
329.3921, 79.41252
329.8742, 66.54784
330.3564, 55.23036
330.8385, 46.19691
331.3206, 38.79007
331.8027, 32.38506
332.2848, 26.77403
332.7669, 22.03041
333.2491, 18.44147
333.7312, 16.24960
334.2133, 14.19838
334.6954, 11.94031
335.1775, 9.765259
335.6596, 7.885712
336.1418, 6.319046
336.6239, 4.949600
337.1060, 3.587677
337.5881, 2.227753
338.0702, 1.268829
338.5523, 1.125351
339.0345, 1.028168
339.5165, 0.4747160
339.9987, 0.4367220
340.4808, 1.280533
340.9629, 1.748703
341.4450, 1.906891
341.9271, 2.058594
342.4092, 2.232513
342.8914, 2.344879
343.3735, 2.361649
343.8556, 2.299759
344.3377, 2.146332
344.8198, 1.797043
345.3019, 1.477478
345.7841, 1.751984
346.2662, 2.869492
346.7483, 3.598038
347.2304, 2.894714
347.7125, 1.815765
348.1946, 1.266541
348.6768, 1.460358
349.1589, 2.002930
349.6410, 2.694855
350.1231, 3.520508
350.6052, 3.791855
351.0873, 2.968353
351.5695, 1.920410
352.0516, 1.474335
352.5337, 1.620819
353.0158, 1.715454
353.4979, 1.272522
353.9800, 0.4526370
354.4622, 0.1857150
354.9443, 0.5195620
355.4264, 0.8111570
355.9085, 1.274078
356.3906, 1.842865
356.8727, 2.373459
357.3549, 2.762482
357.8370, 3.114883
358.3191, 3.568710
358.8012, 4.128372
359.2833, 4.834534
359.7654, 5.884155
360.2476, 7.016052
360.7297, 7.762344
361.2118, 7.883896
361.6939, 8.030106
362.1760, 8.728088
362.6581, 9.902634
363.1403, 11.13795
363.6224, 12.31934
364.1045, 13.49719
364.5866, 14.73839
365.0687, 16.03419
365.5508, 17.39365
366.0330, 18.91635
366.5151, 20.47446
366.9972, 21.78160
367.4793, 22.73743
367.9614, 23.73262
368.4435, 25.15158
368.9257, 26.94481
369.4078, 28.83612
369.8899, 30.85919
370.3720, 32.90614
370.8541, 34.87540
371.3362, 36.78238
371.8184, 38.67386
372.3005, 40.57054
372.7826, 42.49268
373.2647, 44.49030
373.7468, 46.69641
374.2289, 48.79341
374.7111, 50.39320
375.1932, 51.83290
375.6753, 53.89995
376.1574, 56.91411
376.6395, 60.27437
377.1216, 62.94263
377.6038, 64.60831
378.0859, 66.78059
378.5680, 70.02922
379.0501, 73.58733
379.5322, 76.72311
380.0143, 79.37402
380.4965, 81.93904
380.9786, 84.75769
381.4607, 87.84914
381.9428, 90.90765
382.4249, 94.11870
382.9070, 97.11862
383.3892, 99.68573
383.8713, 101.9295
384.3534, 104.1362
384.8355, 106.4839
385.3176, 108.7239
385.7997, 110.0974
386.2819, 110.1203
386.7640, 109.8081
387.2461, 109.3143
387.7282, 108.4269
388.2103, 106.9392
388.6924, 104.8088
389.1746, 102.1362
389.6567, 99.03922
390.1388, 95.54449
390.6209, 91.41953
391.1030, 86.34833
391.5851, 81.06403
392.0673, 75.89655
392.5494, 70.77394
393.0315, 65.32684
393.5136, 59.21187
393.9957, 52.66246
394.4778, 47.17752
394.9600, 43.55185
395.4421, 39.93434
395.9242, 35.67705
396.4063, 31.46570
396.8884, 28.03740
397.3705, 25.61176
397.8527, 23.71178
398.3348, 21.69635
398.8169, 19.53893
399.2990, 17.46559
399.7811, 15.31033
400.2632, 13.38652
400.7454, 12.03735
401.2275, 11.12955
401.7096, 10.15527
402.1917, 8.635498
402.6738, 6.727707
403.1559, 5.272079
403.6381, 4.297165
404.1202, 3.615601
404.6023, 3.410782
405.0844, 3.455734
405.5665, 3.411346
406.0486, 3.133987
406.5308, 2.600967
407.0129, 1.753372
407.4950, 0.5583040
407.9771, 0.6734160
408.4592, 1.982864
408.9413, 3.057892
409.4235, 3.667267
409.9056, 3.859650
410.3877, 3.901184
410.8698, 3.884323
411.3519, 3.778732
411.8340, 3.557098
412.3162, 3.213745
412.7983, 2.834885
413.2804, 2.480698
413.7625, 2.120743
414.2446, 1.702118
414.7267, 1.188492
415.2089, 0.6547390
415.6910, 0.2467800
416.1731, 9.2880003E-02
416.6552, 0.6504670
417.1373, 1.515106
417.6194, 2.692795
418.1016, 4.301758
418.5837, 6.453506
419.0658, 8.393494
419.5479, 9.611526
420.0300, 10.65356
420.5121, 12.20248
420.9943, 14.35846
421.4764, 16.78348
421.9585, 19.22530
422.4406, 21.67093
422.9227, 24.01476
423.4048, 26.23021
423.8870, 28.37140
424.3691, 30.46971
424.8512, 32.49489
425.3333, 34.30005
425.8154, 35.79155
426.2975, 37.22502
426.7797, 39.23094
427.2618, 42.34364
427.7439, 45.23563
428.2260, 47.24467
428.7081, 49.49934
429.1902, 53.03294
429.6724, 57.82118
430.1545, 63.01752
430.6366, 67.82509
431.1187, 72.21024
431.6008, 76.90677
432.0829, 81.59204
432.5651, 87.03479
433.0472, 93.40324
433.5293, 100.6495
434.0114, 108.8708
434.4935, 118.0819
434.9756, 127.9159
435.4578, 137.7261
435.9399, 147.4892
436.4220, 157.2045
436.9041, 168.3094
437.3862, 178.2663
437.8683, 186.0369
438.3505, 191.3587
438.8326, 193.9280
439.3147, 193.4833
439.7968, 190.1096
440.2789, 183.6606
440.7610, 172.9770
441.2432, 161.8895
441.7253, 151.1409
442.2074, 141.5516
442.6895, 134.3398
443.1716, 129.9774
443.6537, 127.5898
444.1359, 126.5810
444.6180, 126.9045
445.1001, 128.3111
445.5822, 130.9174
446.0643, 134.3210
446.5464, 138.0545
447.0286, 142.0917
447.5107, 146.7411
447.9928, 151.9308
448.4749, 157.8770
448.9570, 164.7079
449.4391, 172.4833
449.9213, 181.4498
450.4034, 191.8876
450.8855, 203.5887
451.3676, 215.5560
451.8497, 227.2622
452.3318, 239.9604
452.8140, 253.9085
453.2961, 269.1075
453.7782, 285.1954
454.2603, 302.1956
454.7424, 320.9404
455.2245, 342.6372
455.7067, 367.7137
456.1888, 393.4181
456.6709, 419.5837
457.1530, 446.3998
457.6351, 474.7004
458.1172, 503.6475
458.5994, 532.8064
459.0815, 562.1511
459.5636, 589.6541
460.0457, 610.6132
460.5278, 625.6314
461.0099, 632.1050
461.4921, 630.7688
461.9742, 621.5425
462.4563, 603.1823
462.9384, 576.4549
463.4205, 544.0047
463.9026, 506.8251
464.3848, 465.5447
464.8669, 425.8793
465.3490, 387.6900
465.8311, 351.5425
466.3132, 316.8254
466.7953, 284.2923
467.2775, 255.0998
467.7596, 229.8521
468.2417, 207.3137
468.7238, 186.5182
469.2059, 167.3532
469.6880, 150.4573
470.1702, 136.1344
470.6523, 123.8009
471.1344, 113.4077
471.6165, 104.6185
472.0986, 96.63170
472.5807, 89.27759
473.0629, 82.57011
473.5450, 76.62497
474.0271, 71.37628
474.5092, 66.39980
474.9913, 61.49216
475.4734, 56.78436
475.9556, 52.65984
476.4377, 49.17142
476.9198, 45.98807
477.4019, 43.00092
477.8840, 40.34656
478.3661, 38.42526
478.8483, 37.11374
479.3304, 35.60843
479.8125, 33.14856
480.2946, 29.82838
480.7767, 27.07092
481.2589, 25.06262
481.7410, 23.42374
482.2231, 22.34058
482.7052, 21.48561
483.1873, 20.49661
483.6694, 19.26917
484.1516, 17.97783
484.6337, 16.80228
485.1158, 15.70270
485.5979, 14.93398
486.0800, 14.83403
486.5621, 14.71387
487.0443, 14.24461
487.5264, 13.57819
488.0085, 12.95499
488.4906, 12.40562
488.9727, 12.14363
489.4548, 12.65349
489.9370, 13.98982
490.4191, 15.16023
490.9012, 15.59201
491.3833, 16.10513
491.8654, 17.49994
492.3475, 19.72321
492.8297, 22.20245
493.3118, 25.13614
493.7939, 27.95302
494.2760, 29.76324
494.7581, 30.57603
495.2402, 31.18721
495.7224, 31.93513
496.2045, 32.86923
496.6866, 34.17690
497.1687, 36.04181
497.6508, 37.83449
498.1329, 39.09244
498.6151, 40.38354
499.0972, 42.35370
499.5793, 45.08171
500.0614, 48.22459
500.5435, 51.44254
501.0256, 54.75601
501.5078, 58.50175
501.9899, 62.90274
502.4720, 67.46210
502.9541, 71.81219
503.4362, 76.39412
503.9183, 81.65021
504.4004, 87.73665
504.8825, 94.44940
505.3647, 101.5264
505.8468, 108.9629
506.3289, 116.9539
506.8110, 125.9887
507.2931, 134.9760
507.7752, 144.1102
508.2574, 152.7849
508.7395, 160.0190
509.2216, 165.7441
509.7037, 169.1554
510.1858, 169.4382
510.6679, 166.5999
511.1501, 160.3432
511.6322, 149.9749
512.1143, 136.9993
512.5964, 122.2960
513.0786, 106.1519
513.5607, 90.59294
514.0428, 75.75856
514.5249, 62.13316
515.0070, 50.25255
515.4891, 40.02689
515.9713, 31.27910
516.4534, 23.93983
516.9355, 17.85645
517.4176, 12.77817
517.8997, 8.928329
518.3818, 5.739227
518.8640, 3.385117
519.3461, 1.504822
519.8282, 0.1637570
520.3103, 1.612656
520.7924, 2.649460
521.2745, 3.098053
521.7567, 3.127319
522.2388, 3.492691
522.7209, 4.752426
523.2030, 5.297287
523.6851, 4.296005
524.1672, 3.053299
524.6494, 2.737762
525.1315, 3.298676
525.6136, 3.567261
526.0957, 2.283417
526.5778, 1.3519000E-02
527.0599, 1.167252
527.5421, 0.7518160
528.0242, 0.6689000
528.5063, 1.948914
528.9884, 4.021698
529.4705, 6.167175
529.9526, 8.323090
530.4348, 10.46938
530.9169, 12.32117
531.3990, 14.26857
531.8811, 17.05658
532.3632, 20.75841
532.8453, 24.61623
533.3275, 28.06105
533.8096, 31.20357
534.2917, 34.67120
534.7738, 38.38123
535.2559, 42.43927
535.7380, 46.82152
536.2202, 51.65723
536.7023, 57.07211
537.1844, 62.95018
537.6665, 69.11098
538.1486, 75.44711
538.6307, 82.00945
539.1129, 88.19712
539.5950, 93.19379
540.0771, 98.85973
540.5592, 105.8115
541.0413, 113.3747
541.5234, 120.8849
542.0056, 128.1941
542.4877, 135.6181
542.9698, 143.4427
543.4519, 151.6349
543.9340, 159.8606
544.4161, 167.8914
544.8983, 176.4571
545.3804, 186.1572
545.8625, 196.7160
546.3446, 207.7985
546.8267, 219.4587
547.3088, 231.3680
547.7910, 243.3112
548.2731, 255.3886
548.7552, 268.1088
549.2373, 281.5311
549.7194, 295.0945
550.2015, 308.4081
550.6837, 321.4430
551.1658, 333.1628
551.6479, 344.1203
552.1300, 353.2810
552.6121, 361.2915
553.0942, 367.0084
553.5764, 369.1169
554.0585, 367.2590
554.5406, 361.9633
555.0227, 353.7666
555.5048, 342.6052
555.9869, 328.8835
556.4691, 311.7122
556.9512, 293.0222
557.4333, 272.4466
557.9154, 251.3091
558.3975, 231.3609
558.8796, 213.1755
559.3618, 195.9870
559.8439, 179.0720
560.3260, 162.6409
560.8081, 147.6758
561.2902, 134.3804
561.7723, 122.1590
562.2545, 110.4070
562.7366, 99.40150
563.2187, 89.76373
563.7008, 81.73762
564.1829, 74.83037
564.6650, 69.30386
565.1472, 64.64597
565.6293, 60.18914
566.1114, 55.78454
566.5935, 51.51735
567.0756, 47.45688
567.5577, 43.60312
568.0399, 40.05841
568.5220, 36.81615
569.0041, 33.92842
569.4862, 31.59000
569.9683, 29.50165
570.4504, 27.33719
570.9326, 25.03311
571.4147, 22.89000
571.8968, 21.29830
572.3789, 20.15826
572.8610, 18.64467
573.3431, 16.47232
573.8253, 14.78738
574.3074, 14.53291
574.7895, 14.95249
575.2716, 15.02999
575.7537, 14.69505
576.2358, 14.01556
576.7180, 12.78485
577.2001, 11.34227
577.6822, 10.13148
578.1643, 9.164383
578.6464, 8.353935
579.1285, 7.689400
579.6107, 7.149521
580.0928, 6.543457
580.5749, 5.786301
581.0570, 5.002213
581.5391, 4.252335
582.0212, 3.574806
582.5034, 2.910278
582.9855, 2.245384
583.4676, 1.692932
583.9497, 1.419716
584.4318, 1.365082
584.9139, 1.197319
585.3961, 0.8890230
585.8782, 0.5411300
586.3602, 7.1898997E-02
586.8423, 0.3388370
587.3245, 0.4952850
587.8066, 0.4239040
588.2887, 0.3869250
588.7708, 0.6413570
589.2529, 0.8957600
589.7350, 0.6835630
590.2172, 0.1015010
590.6993, 0.2466430
591.1814, 9.3810998E-02
591.6635, 0.3090740
592.1456, 0.5397190
592.6277, 0.4685970
593.1099, 0.6751250
593.5920, 1.751549
594.0741, 2.507050
594.5562, 1.989334
595.0383, 0.7865370
595.5204, 1.0452000E-02
596.0026, 0.1355820
596.4847, 0.7266460
596.9668, 1.243065
597.4489, 1.747673
597.9310, 1.657402
598.4131, 0.5245360
598.8953, 0.6406100
599.3774, 1.465096
599.8595, 1.958618
600.3416, 2.100235
600.8237, 1.809937
601.3058, 1.392189
601.7880, 0.8869250
602.2701, 0.4524000
602.7522, 0.5500720
603.2343, 1.272369
603.7164, 2.184792
604.1985, 2.998245
604.6807, 3.701836
605.1628, 4.193565
605.6449, 4.135437
606.1270, 4.340637
606.6091, 5.069061
607.0912, 6.036507
607.5734, 6.950745
608.0555, 7.804306
608.5376, 8.812775
609.0197, 10.17105
609.5018, 11.79212
609.9839, 13.28479
610.4661, 14.49724
610.9482, 16.01869
611.4303, 18.07622
611.9124, 20.45293
612.3945, 23.04453
612.8766, 25.82672
613.3588, 28.70586
613.8409, 31.65160
614.3230, 34.67215
614.8051, 37.76667
615.2872, 40.94427
615.7693, 44.19774
616.2515, 47.52847
616.7336, 50.85156
617.2157, 53.99519
617.6978, 56.91569
618.1799, 59.97232
618.6620, 63.02916
619.1442, 66.35581
619.6263, 70.08260
620.1084, 74.12160
620.5905, 78.19917
621.0726, 82.28358
621.5547, 86.80903
622.0369, 92.45387
622.5190, 99.15891
623.0011, 105.7019
623.4832, 111.6900
623.9653, 118.3690
624.4474, 126.5994
624.9296, 135.7529
625.4117, 144.8557
625.8938, 153.5621
626.3759, 163.5154
626.8580, 176.6320
627.3401, 190.7399
627.8223, 203.6657
628.3044, 215.1304
628.7865, 225.2466
629.2686, 234.2833
629.7507, 241.3344
630.2328, 244.1206
630.7150, 242.9952
631.1971, 236.5537
631.6792, 223.2439
632.1613, 206.9487
632.6434, 188.0613
633.1255, 167.8725
633.6077, 148.1084
634.0898, 129.3583
634.5719, 112.1539
635.0540, 97.18799
635.5361, 84.37518
636.0182, 73.57511
636.5004, 64.94170
636.9825, 57.78629
637.4646, 51.79796
637.9467, 46.92270
638.4288, 42.73662
638.9109, 39.20441
639.3931, 36.25607
639.8752, 34.05463
640.3573, 32.33890
640.8394, 30.86068
641.3215, 29.57563
641.8036, 28.56023
642.2858, 27.88945
642.7679, 27.51209
643.2500, 27.11731
643.7321, 26.57840
644.2142, 26.17621
644.6964, 26.10544
645.1785, 26.18929
645.6606, 26.14935
646.1427, 26.04235
646.6248, 26.25106
647.1069, 27.06680
647.5891, 28.19350
648.0712, 29.45474
648.5533, 30.77956
649.0354, 31.94177
649.5175, 32.88249
649.9996, 33.72564
650.4818, 34.54045
650.9639, 35.29510
651.4460, 36.21976
651.9281, 37.46391
652.4102, 38.80062
652.8923, 40.49901
653.3745, 42.10991
653.8566, 43.20795
654.3387, 43.72258
654.8208, 43.83719
655.3029, 43.71216
655.7850, 43.28088
656.2672, 42.33875
656.7493, 40.87263
657.2314, 38.90159
657.7135, 36.21718
658.1956, 33.30831
658.6777, 30.69051
659.1599, 28.28815
659.6420, 25.63188
660.1241, 22.20758
660.6062, 19.04549
661.0883, 16.63424
661.5704, 14.81146
662.0526, 13.43379
662.5347, 12.42255
663.0168, 11.58733
663.4989, 10.73186
663.9810, 9.886482
664.4631, 9.359047
664.9453, 9.423615
665.4274, 9.226082
665.9095, 8.309593
666.3916, 7.272118
666.8737, 6.517082
667.3558, 6.034302
667.8380, 5.611984
668.3201, 5.191338
668.8022, 4.762329
669.2843, 4.285507
669.7664, 3.789505
670.2485, 3.310509
670.7307, 2.853935
671.2128, 2.637581
671.6949, 2.977402
672.1770, 3.866722
672.6591, 4.231964
673.1412, 3.392555
673.6234, 2.885246
674.1055, 3.321793
674.5876, 3.884315
675.0697, 3.811264
675.5518, 3.109138
676.0339, 2.321098
676.5161, 1.722237
676.9982, 1.348030
677.4803, 1.343796
677.9624, 1.689407
678.4445, 2.003387
678.9266, 2.212158
679.4088, 2.292152
679.8909, 2.172226
680.3730, 1.852905
680.8551, 1.648155
681.3372, 1.751297
681.8193, 1.725349
682.3015, 1.257515
682.7836, 0.7039410
683.2657, 0.4438780
683.7478, 0.5170360
684.2299, 0.7772370
684.7120, 1.183693
685.1942, 1.596756
685.6763, 1.487846
686.1584, 0.7316670
686.6405, 0.3575820
687.1226, 0.8413700
687.6047, 1.455101
688.0869, 1.481834
688.5690, 1.058182
689.0511, 0.7185670
689.5332, 0.6146160
690.0153, 0.5326310
690.4974, 0.3169170
690.9796, 9.5656998E-02
691.4617, 5.3169001E-02
691.9438, 0.2034380
692.4259, 0.4331440
692.9080, 0.6756670
693.3901, 0.8882980
693.8723, 0.9044110
694.3544, 0.6901090
694.8365, 0.3684770
695.3186, 0.3059920
695.8007, 0.8055570
696.2828, 0.7134930
696.7650, 0.1889040
697.2471, 0.3279040
697.7292, 0.8253860
698.2113, 1.108971
698.6934, 0.9782180
699.1755, 0.5795750
699.6577, 3.9276000E-02
700.1398, 0.5701290
700.6219, 0.9209750
701.1040, 0.7289120
701.5861, 0.2220380
702.0682, 0.2414400
702.5504, 1.274742
703.0325, 1.725090
703.5146, 1.029526
703.9967, 0.1678620
704.4788, 0.5633620
704.9609, 1.105064
705.4431, 1.387306
705.9252, 1.373489
706.4073, 1.146698
706.8894, 0.5309300
707.3715, 0.1758580
707.8536, 0.3131940
708.3358, 0.1394200
708.8179, 0.5905690
709.3000, 0.7006840
709.7821, 0.5455020
710.2642, 0.2873540
710.7463, 0.2113040
711.2285, 0.4902950
711.7106, 0.4457020
712.1927, 0.3046570
712.6748, 6.8138003E-02
713.1569, 0.1750640
713.6390, 0.2814330
714.1212, 0.2051470
714.6033, 0.1170500
715.0854, 0.1328430
715.5675, 0.2395400
716.0496, 0.4645230
716.5317, 0.7907100
717.0139, 0.9960780
717.4960, 0.9511800
717.9781, 0.8201980
718.4602, 0.9015660
718.9423, 1.299881
719.4244, 1.479630
719.9066, 1.177399
720.3887, 0.9814830
720.8708, 1.183189
721.3529, 1.524963
721.8350, 1.704041
722.3171, 1.666618
722.7993, 1.570740
723.2814, 1.477394
723.7635, 1.427879
724.2456, 1.569794
724.7277, 1.866203
725.2098, 1.983353
725.6920, 1.789673
726.1741, 1.482544
726.6562, 1.293411
727.1383, 1.230652
727.6204, 1.081665
728.1025, 0.5555650
728.5847, 0.3259660
729.0668, 0.8017580
729.5489, 1.407082
730.0310, 1.605141
730.5131, 1.417831
730.9952, 1.234642
731.4774, 1.279991
731.9595, 1.435631
732.4416, 1.538452
732.9237, 1.604721
733.4058, 1.734856
733.8879, 1.957397
734.3701, 2.140579
734.8522, 2.199738
735.3343, 2.125816
735.8164, 1.859123
736.2985, 0.9029690
736.7806, 0.4828950
737.2628, 1.034592
737.7449, 1.726448
738.2270, 2.135094
738.7091, 2.269234
739.1912, 2.215874
739.6733, 1.982117
740.1555, 1.726578
740.6376, 1.631699
741.1197, 1.635162
741.6018, 1.532669
742.0839, 1.314934
742.5660, 1.247696
743.0482, 1.512146
743.5303, 1.910782
744.0124, 2.040451
744.4945, 1.802414
744.9766, 1.620857
745.4587, 1.338280
745.9409, 1.281631
746.4230, 1.770607
746.9051, 2.432686
747.3872, 2.823334
747.8693, 2.861847
748.3514, 2.795700
748.8336, 2.778755
749.3157, 2.773476
749.7978, 2.713539
750.2799, 2.610680
750.7620, 2.504929
751.2441, 2.402473
751.7263, 2.390167
752.2084, 2.619423
752.6905, 3.070404
753.1726, 3.039925
753.6547, 1.965141
754.1368, 1.299057
754.6190, 1.506348
755.1011, 1.950905
755.5832, 2.277588
756.0653, 2.440910
756.5474, 2.420494
757.0295, 2.117363
757.5117, 1.835930
757.9938, 1.809341
758.4759, 1.954453
758.9580, 2.171204
759.4401, 2.426308
759.9222, 2.449158
760.4044, 1.984039
760.8865, 1.301407
761.3686, 1.089272
761.8507, 1.540199
762.3328, 1.875725
762.8149, 1.946861
763.2971, 2.047356
763.7792, 2.455429
764.2613, 2.885651
764.7434, 2.881172
765.2255, 2.327644
765.7076, 1.855247
766.1898, 1.832840
766.6719, 1.970886
767.1540, 2.003929
767.6361, 1.965759
768.1182, 1.984390
768.6003, 2.095161
769.0825, 2.221390
769.5646, 2.284355
770.0467, 2.303795
770.5288, 2.459396
771.0109, 2.732117
771.4930, 3.242744
771.9752, 4.260406
772.4573, 5.260017
772.9394, 5.767097
773.4215, 5.870071
773.9036, 5.914635
774.3857, 5.638779
774.8679, 5.761169
775.3500, 6.937363
775.8321, 8.392494
776.3142, 9.311119
776.7963, 9.727493
777.2784, 10.02608
777.7606, 10.37835
778.2427, 11.01090
778.7248, 12.60629
779.2069, 15.05123
779.6890, 16.31093
780.1711, 15.98558
780.6533, 15.67922
781.1354, 16.18374
781.6175, 17.15955
782.0996, 18.01117
782.5817, 18.67401
783.0638, 19.53622
783.5460, 20.77731
784.0281, 22.02424
784.5102, 23.14312
784.9923, 24.18554
785.4744, 25.21918
785.9565, 26.25021
786.4387, 27.24528
786.9208, 28.23670
787.4029, 29.11813
787.8850, 29.76878
788.3671, 30.16640
788.8492, 30.24464
789.3314, 29.99900
789.8135, 29.28933
790.2956, 27.95620
790.7777, 26.10938
791.2598, 24.18871
791.7419, 22.15668
792.2241, 20.13721
792.7062, 18.11018
793.1883, 16.11353
793.6704, 14.05143
794.1525, 12.07264
794.6346, 10.43570
795.1168, 9.201897
795.5989, 8.224709
796.0810, 7.448502
796.5631, 6.863754
797.0452, 6.667160
797.5273, 6.644592
798.0095, 6.077705
798.4916, 4.766014
798.9737, 3.423332
799.4558, 2.851120
799.9379, 2.942558
800.4200, 2.928963
800.9022, 2.798698
801.3843, 2.607193
801.8664, 2.347229
802.3485, 2.053017
802.8306, 1.653862
803.3127, 1.235535
803.7949, 1.103584
804.2770, 1.532295
804.7591, 1.816246
805.2412, 1.701157
805.7233, 1.410881
806.2054, 0.9680630
806.6876, 0.5529330
807.1697, 0.4539340
807.6518, 0.8229060
808.1339, 1.300194
808.6160, 1.529221
809.0981, 1.532974
809.5803, 1.285637
810.0624, 0.7888950
810.5445, 0.5778270
811.0266, 0.9157410
811.5087, 1.366714
811.9908, 1.406540
812.4730, 1.030258
812.9551, 0.6829150
813.4372, 0.3753130
813.9193, 7.9735003E-02
814.4014, 0.4577330
814.8835, 0.7660220
815.3657, 0.2731860
815.8478, 0.7142330
816.3299, 1.295700
816.8120, 1.062218
817.2941, 0.7453840
817.7762, 0.9557340
818.2584, 1.318848
818.7405, 1.200867
819.2226, 0.7304150
819.7047, 0.6260530
820.1868, 1.197632
820.6689, 1.878044
821.1511, 1.852371
821.6332, 1.160652
822.1153, 0.5246890
822.5974, 0.1416400
823.0795, 0.3843230
823.5616, 0.2123180
824.0438, 0.9258960
824.5259, 0.9606320
825.0080, 0.3850780
825.4901, 7.2219998E-02
825.9722, 0.4160920
826.4543, 0.5989380
826.9365, 0.6651540
827.4186, 0.5234680
827.9007, 0.1356120
828.3828, 1.031052
828.8649, 1.469223
829.3470, 1.149323
829.8292, 0.7157290
830.3113, 0.8914110
830.7934, 1.371986
831.2755, 1.508926
831.7576, 1.316139
832.2397, 1.082809
832.7219, 0.8948750
833.2040, 0.6873090
833.6861, 0.3736340
834.1682, 2.5390999E-02
834.6503, 0.1263200
835.1324, 0.2162320
835.6146, 0.5170750
836.0967, 0.6426160
836.5788, 0.7481540
837.0609, 1.028473
837.5430, 1.339272
838.0251, 1.453186
838.5073, 1.219185
838.9894, 1.080193
839.4715, 1.314034
839.9536, 1.584671
840.4357, 1.571838
840.9178, 1.395027
841.4000, 1.365280
841.8821, 1.569237
842.3642, 1.766632
842.8463, 1.753998
843.3284, 1.560028
843.8105, 1.114914
844.2927, 0.4720990
844.7748, 0.1993030
845.2569, 0.4386220
845.7390, 0.8506770
846.2211, 1.224602
846.7032, 1.552452
847.1854, 1.791718
847.6675, 1.933266
848.1496, 2.000587
848.6317, 1.996048
849.1138, 1.912651
849.5959, 1.677414
850.0781, 1.394859
850.5602, 1.190323
851.0423, 1.097183
851.5244, 1.201088
852.0065, 1.707695
852.4886, 2.161179
852.9708, 2.229332
853.4529, 2.101257
853.9350, 2.066551
854.4171, 2.159119
854.8992, 2.197754
855.3813, 2.025467
855.8635, 1.806145
856.3456, 1.856415
856.8277, 2.125870
857.3098, 2.360664
857.7919, 2.532570
858.2740, 2.571342
858.7562, 2.415878
859.2383, 2.159294
859.7204, 1.949654
860.2025, 1.764748
860.6846, 1.742401
861.1667, 2.036102
861.6489, 2.263145
862.1310, 2.527283
862.6131, 2.532455
863.0952, 1.729424
863.5773, 0.3546450
864.0594, 0.3734050
864.5416, 0.2562410
865.0237, 0.8905640
865.5058, 0.8718720
865.9879, 0.6362000
866.4700, 0.4785840
866.9521, 0.4875870
867.4343, 0.8447800
867.9164, 1.606415
868.3985, 2.294022
868.8806, 2.347137
869.3627, 1.950500
869.8448, 1.482582
870.3270, 0.9729840
870.8091, 0.6631320
871.2912, 0.6288830
871.7733, 0.7155840
872.2554, 0.7896880
872.7375, 0.8350070
873.2197, 0.7975620
873.7018, 0.6053770
874.1839, 0.4768300
874.6660, 0.4086990
875.1481, 0.4322810
875.6302, 0.5697480
876.1124, 0.8069840
876.5945, 1.211586
877.0766, 1.850548
877.5587, 2.136238
878.0408, 1.589371
878.5229, 1.092918
879.0051, 1.141991
879.4872, 1.404327
879.9693, 1.437775
880.4514, 1.267105
880.9335, 1.301697
881.4156, 1.881683
881.8978, 2.414513
882.3799, 2.132034
882.8620, 1.385948
883.3441, 0.8380970
883.8262, 0.5403980
884.3083, 0.4787750
884.7905, 0.6570660
885.2726, 0.8697050
885.7547, 0.8283840
886.2368, 0.5523760
886.7189, 0.3839650
887.2010, 0.3470760
887.6832, 0.3116460
888.1653, 0.2561420
888.6474, 0.1769260
889.1295, 1.3702000E-02
889.6116, 0.1682360
890.0938, 9.7900003E-02
890.5759, 0.4670410
891.0580, 0.7860410
891.5401, 0.5397110
892.0222, 0.3861690
892.5043, 0.8930440
892.9865, 1.491608
893.4686, 1.282379
893.9507, 0.2681050
894.4328, 0.3844830
894.9149, 0.1080930
895.3970, 0.8535230
895.8792, 1.442696
896.3613, 1.760338
896.8434, 1.438477
897.3255, 0.6603930
897.8076, 0.1627120
898.2897, 0.3097840
898.7719, 0.6854710
899.2540, 0.8097840
899.7361, 0.7096020
900.2182, 0.4386980
900.7003, 8.8959998E-03
901.1824, 0.3864820
901.6646, 0.7104950
902.1467, 0.8052290
902.6288, 0.4642560
903.1109, 0.1996540
903.5930, 0.5896070
904.0751, 0.5896530
904.5573, 0.6630780
905.0394, 0.9202730
905.5215, 1.139130
906.0036, 1.254784
906.4857, 1.239052
906.9678, 1.020058
907.4500, 0.5773320
907.9321, 0.1547700
908.4142, 0.4068450
908.8963, 0.7047120
909.3784, 0.4304350
909.8605, 3.6651999E-02
910.3427, 0.3498760
910.8248, 0.5362320
911.3069, 0.8564150
911.7890, 1.482559
912.2711, 1.900063
912.7532, 1.510780
913.2354, 0.8492280
913.7175, 0.5143970
914.1996, 0.4875180
914.6817, 0.7038420
915.1638, 1.094162
915.6459, 1.315636
916.1280, 0.9961700
916.6101, 0.4330830
917.0922, 0.3827510
917.5743, 0.7908860
918.0565, 1.130585
918.5386, 1.332253
919.0207, 1.535622
919.5028, 1.852501
919.9849, 2.094582
920.4670, 1.890541
920.9492, 1.179375
921.4313, 0.7788240
921.9134, 0.7790830
922.3955, 0.8674620
922.8776, 0.9362340
923.3597, 1.052391
923.8419, 1.354897
924.3240, 1.748817
924.8061, 1.932251
925.2882, 1.792152
925.7703, 1.691528
926.2524, 1.682426
926.7346, 1.671017
927.2167, 1.557205
927.6988, 1.462063
928.1809, 1.614105
928.6630, 1.987564
929.1451, 2.194374
929.6273, 1.903061
930.1094, 1.613956
930.5915, 1.760433
931.0736, 2.085812
931.5557, 2.187225
932.0378, 2.158112
932.5200, 2.478912
933.0021, 3.312645
933.4842, 4.063507
933.9663, 3.942276
934.4484, 3.319599
934.9305, 3.264160
935.4127, 3.736599
935.8948, 4.204727
936.3769, 4.492683
936.8590, 4.659298
937.3411, 4.793411
937.8232, 4.967213
938.3054, 5.307461
938.7875, 5.826767
939.2696, 6.239613
939.7517, 6.553970
940.2338, 6.762470
940.7159, 6.812344
941.1981, 6.788490
941.6802, 6.752396
942.1623, 6.748890
942.6444, 6.909718
943.1265, 7.112080
943.6086, 7.587391
944.0908, 8.835724
944.5729, 9.791164
945.0550, 9.774372
945.5371, 9.344429
946.0192, 9.258347
946.5013, 9.570320
946.9835, 9.744602
947.4656, 9.491325
947.9477, 9.276348
948.4298, 9.516502
948.9119, 9.681824
949.3940, 9.155632
949.8762, 8.188190
950.3583, 7.424477
950.8404, 7.072887
951.3225, 6.865257
951.8046, 6.632874
952.2867, 6.390537
952.7689, 6.361439
953.2510, 6.355637
953.7331, 5.939209
954.2152, 5.143715
954.6973, 4.493134
955.1794, 4.303158
955.6616, 4.357754
956.1437, 4.404743
956.6258, 4.432999
957.1079, 4.334183
957.5900, 4.135803
958.0721, 4.217831
958.5543, 4.698742
959.0364, 5.110954
959.5185, 5.015163
960.0006, 4.592728
960.4827, 4.449886
960.9648, 4.633732
961.4470, 4.803452
961.9291, 4.912880
962.4112, 5.084923
962.8933, 5.377079
963.3754, 5.751995
963.8575, 6.166149
964.3397, 6.619995
964.8218, 7.110683
965.3039, 7.739815
965.7860, 8.204639
966.2681, 8.249554
966.7502, 8.337433
967.2324, 8.874409
967.7145, 9.590099
968.1966, 9.953552
968.6787, 9.875534
969.1608, 10.02170
969.6429, 10.94820
970.1251, 11.49953
970.6072, 11.05626
971.0893, 10.31765
971.5714, 9.907646
972.0535, 9.673920
972.5356, 9.103420
973.0178, 8.021336
973.4999, 6.929344
973.9820, 5.958088
974.4641, 5.180759
974.9462, 4.781494
975.4283, 4.549961
975.9105, 4.237476
976.3926, 3.790943
976.8747, 3.145679
977.3568, 2.197861
977.8389, 1.484978
978.3210, 1.894779
978.8032, 2.642117
979.2853, 2.376362
979.7674, 1.413120
980.2495, 0.8230060
980.7316, 0.8324090
981.2137, 0.9123840
981.6959, 0.6643520
982.1780, 0.2726710
982.6601, 1.5423000E-02
983.1422, 0.1605450
983.6243, 0.1509510
984.1064, 0.8746380
984.5886, 1.252132
985.0707, 0.9977760
985.5528, 0.5389400
986.0349, 0.2821730
986.5170, 0.2161410
986.9991, 0.3678360
987.4813, 0.7645910
987.9634, 0.8955120
988.4455, 0.6430740
988.9276, 0.5428730
989.4097, 0.9405590
989.8918, 1.347519
990.3740, 1.043240
990.8561, 8.3534002E-02
991.3382, 0.3522420
991.8203, 6.2602997E-02
992.3024, 7.2136000E-02
992.7845, 0.8631970
993.2667, 1.535137
993.7488, 1.077454
994.2309, 0.1207920
994.7130, 0.2784460
995.1951, 4.7966000E-02
995.6772, 8.3022997E-02
996.1594, 2.2136999E-02
996.6415, 3.0210000E-03
997.1236, 0.1328540
997.6057, 0.2156520
998.0878, 7.1490002E-03
998.5699, 0.3286400
999.0521, 0.2857210
999.5342, 0.2452660
1000.016, 0.4456830
1000.498, 0.1768680
1000.981, 0.7199590
1001.463, 0.7807350
1001.945, 0.7025760
1002.427, 0.7935030
1002.909, 0.9894790
1003.391, 1.064445
1003.873, 0.9454230
1004.355, 0.8710940
1004.837, 0.9675830
1005.320, 1.120831
1005.802, 1.304077
1006.284, 1.470718
1006.766, 1.602783
1007.248, 1.668518
1007.730, 1.533192
1008.212, 1.104210
1008.694, 0.8664130
1009.177, 1.393581
1009.659, 2.097298
1010.141, 2.442066
1010.623, 2.483063
1011.105, 2.210758
1011.587, 1.749954
1012.069, 1.489765
1012.551, 1.627846
1013.033, 2.053642
1013.516, 2.915142
1013.998, 3.825817
1014.480, 4.018505
1014.962, 3.702919
1015.444, 3.506008
1015.926, 3.549194
1016.408, 3.594486
1016.890, 3.477551
1017.372, 3.375504
1017.855, 3.636936
1018.337, 4.112122
1018.819, 4.228512
1019.301, 4.068672
1019.783, 4.324738
1020.265, 5.148098
1020.747, 5.797081
1021.229, 5.665092
1021.712, 5.200539
1022.194, 5.430096
1022.676, 6.240753
1023.158, 6.517311
1023.640, 6.224213
1024.122, 6.103058
1024.604, 6.369194
1025.086, 6.847279
1025.568, 7.385654
1026.051, 7.956299
1026.533, 8.563629
1027.015, 9.236725
1027.497, 9.702076
1027.979, 9.868782
1028.461, 10.08223
1028.943, 10.41923
1029.425, 10.92054
1029.908, 11.64400
1030.390, 12.52687
1030.872, 13.30750
1031.354, 13.87273
1031.836, 14.92890
1032.318, 16.68181
1032.800, 18.24497
1033.282, 19.12275
1033.765, 20.15116
1034.247, 22.14554
1034.729, 24.89021
1035.211, 27.53767
1035.693, 30.01065
1036.175, 32.56377
1036.657, 34.94378
1037.139, 37.92850
1037.621, 41.95849
1038.104, 46.41381
1038.586, 50.71594
1039.068, 54.95523
1039.550, 59.61340
1040.032, 65.02192
1040.514, 69.93129
1040.996, 73.93769
1041.478, 78.06619
1041.960, 82.53461
1042.443, 87.34415
1042.925, 92.57635
1043.407, 98.14915
1043.889, 103.7636
1044.371, 109.3139
1044.853, 115.1733
1045.335, 121.1407
1045.817, 127.7194
1046.300, 135.3400
1046.782, 143.4072
1047.264, 151.1772
1047.746, 158.9128
1048.228, 167.6377
1048.710, 177.6842
1049.192, 187.9308
1049.674, 199.1556
1050.156, 209.4760
1050.639, 220.3214
1051.121, 228.2157
1051.603, 230.4153
1052.085, 227.1308
1052.567, 219.2273
1053.049, 206.0951
1053.531, 190.7158
1054.013, 171.8020
1054.495, 152.9136
1054.978, 134.3269
1055.460, 117.2989
1055.942, 103.2044
1056.424, 91.62862
1056.906, 81.36134
1057.388, 72.08775
1057.870, 64.43765
1058.352, 59.46096
1058.835, 55.11234
1059.317, 50.61094
1059.799, 46.28919
1060.281, 42.42897
1060.763, 39.02119
1061.245, 35.99091
1061.727, 33.39021
1062.209, 30.82460
1062.692, 28.07802
1063.174, 25.46448
1063.656, 23.01851
1064.138, 20.86419
1064.620, 19.35391
1065.102, 18.16941
1065.584, 16.52021
1066.066, 14.17851
1066.548, 12.16297
1067.031, 10.96489
1067.513, 10.05243
1067.995, 9.281738
1068.477, 8.585449
1068.959, 7.933640
1069.441, 7.311378
1069.923, 6.753433
1070.405, 6.262913
1070.887, 5.535309
1071.370, 3.889061
1071.852, 2.699974
1072.334, 3.091675
1072.816, 3.811325
1073.298, 3.820354
1073.780, 3.327038
1074.262, 2.822414
1074.744, 2.414558
1075.227, 2.072395
1075.709, 1.967552
1076.191, 1.671516
1076.673, 0.7041660
1077.155, 0.2711520
1077.637, 0.7743300
1078.119, 0.8801460
1078.601, 0.6552090
1079.083, 0.1867290
1079.566, 9.2689998E-02
1080.048, 0.1218610
1080.530, 0.3023800
1081.012, 5.5302002E-02
1081.494, 0.1784860
1081.976, 6.9274999E-02
1082.458, 0.4705240
1082.940, 0.4477920
1083.422, 4.1645002E-02
1083.905, 7.8204997E-02
1084.387, 0.5712890
1084.869, 0.8820920
1085.351, 8.5116997E-02
1085.833, 1.106903
1086.315, 1.403046
1086.797, 1.228046
1087.279, 0.7351800
1087.761, 0.1178590
1088.244, 9.2430003E-02
1088.726, 0.4005510
1089.208, 0.7440150
1089.690, 0.3401220
1090.172, 4.1331999E-02
1090.654, 0.1694720
1091.136, 0.5499110
1091.618, 0.5506400
1092.101, 0.3232460
1092.583, 0.4426190
1093.065, 1.096836
1093.547, 1.696949
1094.029, 2.108669
1094.511, 2.296608
1094.993, 1.795563
1095.475, 1.453861
1095.958, 2.377392
1096.440, 3.929733
1096.922, 4.665501
1097.404, 4.292114
1097.886, 4.068611
1098.368, 4.376152
1098.850, 4.943901
1099.332, 6.149506
1099.814, 7.105808
1100.297, 6.828144
1100.779, 6.039078
1101.261, 5.957199
1101.743, 6.678120
1102.225, 7.297108
1102.707, 7.553368
1103.189, 7.737511
1103.671, 7.737530
1104.153, 7.895882
1104.636, 8.436741
1105.118, 9.224583
1105.600, 10.10901
1106.082, 11.07342
1106.564, 12.14510
1107.046, 13.46108
1107.528, 14.57877
1108.010, 15.26113
1108.493, 15.92954
1108.975, 16.45387
1109.457, 17.29266
1109.939, 19.10915
1110.421, 21.57143
1110.903, 23.63605
1111.385, 25.10334
1111.867, 26.56900
1112.349, 27.68985
1112.832, 29.36642
1113.314, 32.16152
1113.796, 35.26397
1114.278, 38.15060
1114.760, 40.94448
1115.242, 43.88190
1115.724, 46.99569
1116.206, 50.11731
1116.688, 53.20623
1117.171, 56.36634
1117.653, 59.42686
1118.135, 62.79618
1118.617, 66.60007
1119.099, 70.86598
1119.581, 75.78928
1120.063, 81.30371
1120.545, 86.34532
1121.028, 90.60172
1121.510, 95.08914
1121.992, 99.73963
1122.474, 104.8233
1122.956, 110.6525
1123.438, 116.6317
1123.920, 122.2952
1124.402, 127.6365
1124.885, 132.7619
1125.367, 137.9254
1125.849, 141.9108
1126.331, 144.4893
1126.813, 146.7239
1127.295, 149.0446
1127.777, 150.5134
1128.259, 150.4266
1128.741, 149.1188
1129.224, 147.2968
1129.706, 144.9590
1130.188, 141.0206
1130.670, 135.3153
1131.152, 129.3080
1131.634, 123.1985
1132.116, 116.7972
1132.598, 109.9313
1133.080, 103.0246
1133.563, 96.51785
1134.045, 90.40775
1134.527, 84.71480
1135.009, 79.37382
1135.491, 73.99929
1135.973, 68.59109
1136.455, 63.53392
1136.937, 58.96523
1137.420, 54.85656
1137.902, 51.21796
1138.384, 47.99848
1138.866, 45.28250
1139.348, 42.89724
1139.830, 39.97879
1140.312, 36.72309
1140.794, 34.31792
1141.276, 32.92389
1141.759, 31.50977
1142.241, 29.49717
1142.723, 27.38480
1143.205, 25.90549
1143.687, 24.67913
1144.169, 22.87568
1144.651, 20.87810
1145.133, 19.70911
1145.615, 19.19826
1146.098, 18.34207
1146.580, 16.84982
1147.062, 15.44876
1147.544, 14.73114
1148.026, 14.23046
1148.508, 13.39439
1148.990, 12.51468
1149.472, 12.11051
1149.955, 11.92412
1150.437, 11.29824
1150.919, 10.28260
1151.401, 9.692154
1151.883, 10.01095
1152.365, 10.12676
1152.847, 8.992874
1153.329, 7.815460
1153.812, 7.649422
1154.294, 7.799606
1154.776, 7.292557
1155.258, 6.433956
1155.740, 6.263897
1156.222, 7.020321
1156.704, 7.330338
1157.186, 6.350002
1157.668, 5.381100
1158.151, 4.837730
1158.633, 4.463188
1159.115, 4.141891
1159.597, 3.852421
1160.079, 3.582458
1160.561, 3.330544
1161.043, 3.092281
1161.525, 2.819069
1162.007, 2.662342
1162.490, 2.859615
1162.972, 2.862190
1163.454, 2.351990
1163.936, 1.781441
1164.418, 1.445213
1164.900, 1.360874
1165.382, 1.620453
1165.864, 2.291553
1166.347, 2.551956
1166.829, 2.238914
1167.311, 2.007317
1167.793, 1.973705
1168.275, 1.927776
1168.757, 1.776039
1169.239, 1.574566
1169.721, 1.390518
1170.203, 1.207443
1170.686, 0.9272650
1171.168, 0.5408100
1171.650, 0.3786090
1172.132, 0.4673390
1172.614, 0.5089910
1173.096, 0.4235310
1173.578, 0.3625680
1174.060, 0.4379160
1174.542, 0.5177350
1175.025, 0.2410700
1175.507, 0.1354520
1175.989, 0.5362010
1176.471, 1.855053
1176.953, 2.235504
1177.435, 1.647251
1177.917, 0.9337500
1178.399, 0.4477840
1178.882, 0.4234310
1179.364, 1.290119
1179.846, 2.106869
1180.328, 1.418301
1180.810, 0.1773030
1181.292, 0.3523640
1181.774, 0.3069800
1182.256, 8.9859001E-02
1182.739, 0.6233290
1183.221, 0.7351190
1183.703, 0.1393810
1184.185, 0.2693410
1184.667, 0.3562050
1185.149, 0.9678150
1185.631, 0.7404250
1186.113, 0.3374750
1186.595, 0.4238970
1187.078, 0.7814870
1187.560, 0.9760890
1188.042, 0.9457440
1188.524, 0.7587360
1189.006, 0.1066210
1189.488, 0.1322980
1189.970, 0.7346840
1190.452, 1.342789
1190.934, 0.9014430
1191.417, 0.2107620
1191.899, 9.2326999E-02
1192.381, 8.7646000E-02
1192.863, 4.6619002E-02
1193.345, 0.3355750
1193.827, 0.5881960
1194.309, 0.8763160
1194.791, 0.8885960
1195.274, 0.4732250
1195.756, 0.1237830
1196.238, 9.2758000E-02
1196.720, 0.1501430
1197.202, 5.2220002E-03
1197.684, 0.2071690
1198.166, 3.3679999E-02
1198.648, 0.7060700
1199.130, 1.226276
1199.613, 1.569168
1200.095, 1.565334
1200.577, 1.193951
1201.059, 0.7366980
1201.541, 0.3459590
1202.023, 9.6919999E-02
1202.505, 4.3517999E-02
1202.987, 0.2286950
1203.469, 1.036953
1203.952, 1.973053
1204.434, 1.794895
1204.916, 0.8116460
1205.398, 8.4380999E-02
1205.880, 7.5038999E-02
1206.362, 9.6325003E-02
1206.844, 0.4848860
1207.326, 0.8813360
1207.809, 1.119762
1208.291, 1.225876
1208.773, 1.255310
1209.255, 1.135616
1209.737, 0.5160100
1210.219, 0.2294120
1210.701, 0.2375490
1211.183, 0.6524730
1211.666, 1.274597
1212.148, 1.165413
1212.630, 1.042576
1213.112, 0.9992290
1213.594, 0.9667470
1214.076, 1.044018
1214.558, 1.165882
1215.040, 1.345554
1215.522, 1.543255
1216.005, 1.631607
1216.487, 1.636330
1216.969, 1.537155
1217.451, 1.230576
1217.933, 1.163136
1218.415, 1.657200
1218.897, 1.949162
1219.379, 1.707561
1219.861, 1.036880
1220.344, 0.3064690
1220.826, 0.1128460
1221.308, 0.2234690
1221.790, 1.107414
1222.272, 1.464230
1222.754, 1.357697
1223.236, 1.275623
1223.718, 1.299072
1224.201, 1.157124
1224.683, 0.7331430
1225.165, 0.1932370
1225.647, 0.8905750
1226.129, 1.701809
1226.611, 1.167278
1227.093, 0.2010770
1227.575, 2.8477000E-02
1228.057, 0.4046590
1228.540, 0.3645360
1229.022, 0.0000000E+00
##END=



