##NAMES=Tuscanite
##RRUFFID=R050324
##IDEAL CHEMISTRY=KCa_6_(Si,Al)_10_O_22_(SO_4_,CO_3_)_2_(OH)&#183;H_2_O
##LOCALITY=Valle Biachella, Sacrofano, Roma, Lazio, Italy
##OWNER=RRUFF
##SOURCE=Marcus Origlieri
##DESCRIPTION=Colorless platy crystals
##STATUS=The identification of this mineral is confirmed by single-crystal X-ray diffraction and chemical analysis.
##URL=rruff.info/R050324
##MEASURED CHEMISTRY=K_1.00_(Ca_5.55_Na_0.45_)_Σ=6_(Si_6.62_Al_3.38_)_10_O_22_((SO_4_)_1.80_(PO_4_)_0.17_(CO_3_)_0.03_)_Σ=2_(OH)·H_2_O
155.6807, 0.0000000E+00
156.1628, 5.7861000E-02
156.6449, 0.7981870
157.1271, 1.926880
157.6092, 2.553802
158.0913, 2.235809
158.5734, 2.069244
159.0555, 2.265717
159.5376, 2.600616
160.0198, 2.870239
160.5019, 2.333252
160.9840, 1.962891
161.4661, 2.956787
161.9482, 4.197662
162.4303, 5.123901
162.9125, 4.622589
163.3946, 2.909698
163.8767, 1.769165
164.3588, 2.199982
164.8409, 3.228882
165.3230, 3.303314
165.8052, 1.670044
166.2873, 0.3974910
166.7694, 1.195526
167.2515, 0.4093320
167.7336, 0.6192930
168.2157, 1.559692
168.6979, 2.288910
169.1800, 2.608978
169.6621, 2.359222
170.1442, 1.698639
170.6263, 1.036835
171.1084, 0.2138060
171.5906, 0.3217470
172.0727, 0.4326480
172.5548, 0.2188420
173.0369, 0.2090150
173.5190, 0.8207090
174.0011, 1.581848
174.4833, 2.204285
174.9654, 2.476349
175.4475, 2.820526
175.9296, 3.533783
176.4117, 4.382263
176.8938, 4.895782
177.3760, 4.648376
177.8581, 3.603699
178.3402, 3.346558
178.8223, 4.551727
179.3044, 5.781219
179.7865, 6.447906
180.2687, 6.665741
180.7508, 6.948730
181.2329, 7.794525
181.7150, 9.297913
182.1971, 9.981415
182.6792, 9.355133
183.1614, 8.450104
183.6435, 7.641968
184.1256, 7.026672
184.6077, 6.829651
185.0898, 7.345093
185.5719, 8.639008
186.0541, 9.816315
186.5362, 10.81897
187.0183, 11.71655
187.5004, 12.67230
187.9825, 13.72858
188.4646, 14.44940
188.9468, 13.96689
189.4289, 12.65875
189.9110, 12.17013
190.3931, 13.64053
190.8752, 15.91565
191.3573, 17.11572
191.8395, 16.81061
192.3216, 16.27383
192.8037, 16.36551
193.2858, 16.95462
193.7679, 17.84689
194.2500, 19.30786
194.7322, 21.04529
195.2143, 22.05267
195.6964, 21.82440
196.1785, 21.61594
196.6606, 22.08429
197.1427, 23.12360
197.6249, 24.38513
198.1070, 25.94745
198.5891, 27.86603
199.0712, 29.05807
199.5533, 28.43262
200.0354, 28.11670
200.5176, 29.15198
200.9997, 31.15427
201.4818, 33.16757
201.9639, 34.44116
202.4460, 35.08908
202.9281, 36.60391
203.4103, 40.46152
203.8924, 43.58188
204.3745, 44.85501
204.8566, 44.67200
205.3387, 43.97321
205.8208, 43.55908
206.3030, 43.49509
206.7851, 43.97714
207.2672, 45.87167
207.7493, 47.46878
208.2314, 47.69110
208.7135, 46.89780
209.1957, 46.30136
209.6778, 47.10410
210.1599, 49.61542
210.6420, 51.01904
211.1241, 50.77435
211.6062, 50.12268
212.0884, 49.51132
212.5705, 49.03894
213.0526, 48.76447
213.5347, 48.86609
214.0168, 49.28833
214.4989, 49.71756
214.9811, 50.24518
215.4632, 50.71194
215.9453, 50.79773
216.4274, 50.56247
216.9095, 50.71457
217.3916, 52.12692
217.8737, 54.79462
218.3559, 56.31931
218.8380, 56.17471
219.3201, 55.20886
219.8022, 53.85693
220.2843, 52.15683
220.7664, 50.77795
221.2486, 50.41162
221.7307, 50.86829
222.2128, 51.29825
222.6949, 52.03436
223.1770, 52.45889
223.6591, 51.61859
224.1413, 49.29465
224.6234, 46.83832
225.1055, 45.54739
225.5876, 44.86981
226.0697, 43.84210
226.5518, 41.98843
227.0340, 39.77502
227.5161, 37.81299
227.9982, 36.07037
228.4803, 34.74866
228.9624, 34.15683
229.4445, 33.93802
229.9267, 33.74265
230.4088, 33.54852
230.8909, 33.29681
231.3730, 32.83350
231.8551, 32.14636
232.3372, 31.33032
232.8194, 30.01227
233.3015, 28.66040
233.7836, 28.02704
234.2657, 28.71271
234.7478, 29.94147
235.2299, 29.75073
235.7121, 27.28906
236.1942, 25.02209
236.6763, 23.51886
237.1584, 22.56635
237.6405, 21.87494
238.1227, 21.32648
238.6048, 21.34222
239.0869, 23.17511
239.5690, 29.01050
240.0511, 32.25519
240.5332, 30.28021
241.0154, 26.33032
241.4975, 23.48071
241.9796, 23.03168
242.4617, 24.21936
242.9438, 25.25879
243.4259, 26.54602
243.9081, 26.95709
244.3902, 25.67584
244.8723, 23.90924
245.3544, 22.62994
245.8365, 22.17664
246.3186, 22.45215
246.8008, 23.39429
247.2829, 26.35980
247.7650, 28.10406
248.2471, 27.82916
248.7292, 26.59491
249.2113, 25.14862
249.6935, 23.83197
250.1756, 22.92041
250.6577, 22.95087
251.1398, 25.09760
251.6219, 26.48865
252.1040, 26.74280
252.5862, 26.46393
253.0683, 25.93976
253.5504, 25.31219
254.0325, 24.98132
254.5146, 25.66553
254.9967, 28.36029
255.4789, 30.22681
255.9610, 30.79645
256.4431, 30.81439
256.9252, 30.90784
257.4073, 31.23254
257.8894, 31.56110
258.3716, 31.52142
258.8537, 30.71216
259.3358, 30.74097
259.8179, 32.59485
260.3000, 34.70557
260.7821, 35.52246
261.2643, 34.83057
261.7464, 33.80560
262.2285, 33.71582
262.7106, 34.79749
263.1927, 36.00165
263.6748, 37.56268
264.1570, 39.07288
264.6391, 40.14478
265.1212, 40.74597
265.6033, 41.13477
266.0854, 41.50781
266.5675, 41.85620
267.0497, 42.13220
267.5318, 42.20374
268.0139, 42.28345
268.4960, 42.48425
268.9781, 42.82050
269.4602, 43.43365
269.9424, 44.69904
270.4245, 46.38580
270.9066, 47.09723
271.3887, 45.96802
271.8708, 44.49231
272.3529, 44.00989
272.8351, 44.43188
273.3172, 44.40289
273.7993, 42.76196
274.2814, 40.13885
274.7635, 38.63794
275.2456, 39.26678
275.7278, 39.94629
276.2099, 39.11163
276.6920, 36.91382
277.1741, 34.56073
277.6562, 32.52643
278.1383, 30.75092
278.6205, 28.99817
279.1026, 27.13202
279.5847, 25.56964
280.0668, 24.87836
280.5489, 24.87427
281.0310, 24.36328
281.5132, 22.54358
281.9953, 20.42065
282.4774, 19.58411
282.9595, 20.29352
283.4416, 20.72906
283.9237, 19.68597
284.4059, 17.42419
284.8880, 14.92224
285.3701, 12.06641
285.8522, 9.549255
286.3343, 8.228577
286.8164, 8.039124
287.2986, 7.795898
287.7807, 6.832336
288.2628, 5.316101
288.7449, 3.724792
289.2270, 1.975769
289.7091, 0.4418330
290.1913, 0.4002080
290.6734, 0.7424320
291.1555, 1.259644
291.6376, 2.432312
292.1197, 3.992493
292.6018, 5.317810
293.0840, 6.376404
293.5661, 7.204468
294.0482, 7.491028
294.5303, 7.601257
295.0124, 8.273743
295.4945, 10.49921
295.9767, 13.09137
296.4588, 13.59839
296.9409, 11.36511
297.4230, 9.196472
297.9051, 8.732239
298.3872, 9.141968
298.8694, 9.555115
299.3515, 9.741455
299.8336, 9.792114
300.3157, 9.809875
300.7978, 9.788757
301.2799, 9.739502
301.7621, 10.03125
302.2442, 10.10724
302.7263, 9.229919
303.2084, 7.109558
303.6905, 4.894775
304.1726, 3.906372
304.6548, 4.203552
305.1369, 4.089539
305.6190, 2.854126
306.1011, 1.336182
306.5832, 0.1651000
307.0653, 0.6200560
307.5475, 1.278259
308.0296, 2.177490
308.5117, 3.266663
308.9938, 3.721008
309.4759, 2.747681
309.9580, 1.881714
310.4402, 2.203552
310.9223, 3.504333
311.4044, 4.962219
311.8865, 6.092957
312.3686, 6.962280
312.8507, 7.757568
313.3329, 7.994263
313.8150, 8.994385
314.2971, 12.30786
314.7792, 16.73474
315.2613, 20.02039
315.7434, 20.69415
316.2256, 19.90637
316.7077, 20.18433
317.1898, 21.89478
317.6719, 23.75360
318.1540, 25.34418
318.6361, 26.70374
319.1183, 27.65033
319.6004, 27.87897
320.0825, 28.42450
320.5646, 31.23413
321.0467, 36.83960
321.5288, 41.28790
322.0110, 41.88629
322.4931, 41.68787
322.9752, 43.30652
323.4573, 47.17133
323.9394, 51.12378
324.4215, 52.55231
324.9037, 51.51709
325.3858, 52.26776
325.8679, 57.00256
326.3500, 62.28839
326.8321, 65.29572
327.3142, 66.36755
327.7964, 67.89490
328.2785, 72.08508
328.7606, 78.25977
329.2427, 83.01349
329.7248, 85.39197
330.2069, 87.65894
330.6891, 91.36462
331.1712, 95.97565
331.6533, 100.3931
332.1354, 103.9469
332.6175, 107.0881
333.0996, 110.9485
333.5818, 115.9894
334.0639, 120.3340
334.5460, 122.1970
335.0281, 123.1049
335.5102, 124.6622
335.9923, 127.3023
336.4745, 130.6970
336.9566, 134.8699
337.4387, 139.8802
337.9208, 144.2678
338.4029, 147.5105
338.8850, 149.8779
339.3671, 151.0293
339.8492, 150.7820
340.3314, 151.6931
340.8135, 156.8702
341.2956, 165.4736
341.7777, 171.7243
342.2598, 173.6388
342.7419, 174.2391
343.2241, 176.2698
343.7062, 179.4413
344.1883, 182.2730
344.6704, 183.3467
345.1525, 183.7280
345.6346, 186.1537
346.1168, 191.4628
346.5989, 196.4323
347.0810, 198.0178
347.5631, 197.6532
348.0452, 197.8432
348.5273, 199.9320
349.0095, 202.2369
349.4916, 202.7745
349.9737, 201.4885
350.4558, 199.6110
350.9379, 197.4318
351.4200, 195.1609
351.9022, 193.3632
352.3843, 192.5494
352.8664, 190.8463
353.3485, 186.0157
353.8306, 178.9200
354.3127, 173.4119
354.7949, 171.2550
355.2770, 170.2078
355.7591, 167.1679
356.2412, 162.1515
356.7233, 157.2929
357.2054, 153.5218
357.6876, 150.3516
358.1697, 147.0246
358.6518, 143.4343
359.1339, 139.7626
359.6160, 136.0401
360.0981, 132.3347
360.5803, 129.0331
361.0624, 126.4354
361.5445, 124.1945
362.0266, 122.3270
362.5087, 120.6293
362.9908, 118.0378
363.4730, 113.5994
363.9551, 108.1614
364.4372, 104.2558
364.9193, 102.4679
365.4014, 100.9677
365.8835, 99.12402
366.3657, 97.03546
366.8478, 94.80841
367.3299, 92.42322
367.8120, 90.14771
368.2941, 88.43927
368.7762, 87.36230
369.2584, 86.49347
369.7405, 85.89020
370.2226, 85.40033
370.7047, 84.87311
371.1868, 84.29602
371.6689, 83.72717
372.1511, 83.19800
372.6332, 82.71576
373.1153, 82.46863
373.5974, 83.01544
374.0795, 83.24597
374.5616, 82.36536
375.0438, 80.72614
375.5259, 79.17249
376.0080, 78.10327
376.4901, 77.57935
376.9722, 77.86401
377.4543, 79.68958
377.9365, 81.34937
378.4186, 82.71442
378.9007, 83.80762
379.3828, 84.40503
379.8649, 84.51282
380.3470, 84.79620
380.8292, 86.33698
381.3113, 90.09570
381.7934, 92.15326
382.2755, 91.18933
382.7576, 89.91504
383.2397, 89.78589
383.7219, 90.76978
384.2040, 92.11499
384.6861, 93.20129
385.1682, 94.08710
385.6503, 95.61011
386.1324, 99.29456
386.6146, 101.9185
387.0967, 102.0698
387.5788, 101.1068
388.0609, 100.6743
388.5430, 101.4763
389.0251, 103.2011
389.5073, 105.3694
389.9894, 108.5555
390.4715, 110.9355
390.9536, 111.6592
391.4357, 112.2368
391.9178, 113.8322
392.4000, 116.3975
392.8821, 118.8859
393.3642, 120.0363
393.8463, 119.7737
394.3284, 120.7502
394.8105, 124.0629
395.2927, 127.4257
395.7748, 129.6827
396.2569, 131.5209
396.7390, 134.3145
397.2211, 139.0102
397.7032, 144.4843
398.1854, 148.0027
398.6675, 148.8987
399.1496, 149.9250
399.6317, 151.8168
400.1138, 154.1830
400.5959, 156.8350
401.0781, 159.7260
401.5602, 162.7322
402.0423, 165.5696
402.5244, 168.2935
403.0065, 171.7686
403.4886, 176.7253
403.9708, 181.4946
404.4529, 184.5378
404.9350, 186.4401
405.4171, 188.8931
405.8992, 192.9368
406.3813, 197.7624
406.8635, 202.5109
407.3456, 207.3176
407.8277, 210.7628
408.3098, 211.2928
408.7919, 210.4110
409.2740, 210.6735
409.7562, 212.4291
410.2383, 214.7891
410.7204, 217.6995
411.2025, 220.8368
411.6846, 223.1057
412.1667, 223.9932
412.6489, 224.6865
413.1310, 227.3134
413.6131, 231.8607
414.0952, 234.1972
414.5773, 232.4783
415.0594, 229.0155
415.5416, 225.5941
416.0237, 222.3770
416.5058, 219.2501
416.9879, 216.0264
417.4700, 212.8687
417.9521, 210.6592
418.4343, 210.8096
418.9164, 210.0582
419.3985, 206.4026
419.8806, 201.6241
420.3627, 198.7252
420.8448, 198.6324
421.3270, 199.3335
421.8091, 197.8134
422.2912, 193.1903
422.7733, 188.6752
423.2554, 183.9401
423.7375, 179.5912
424.2197, 176.3063
424.7018, 173.8215
425.1839, 171.3209
425.6660, 168.2748
426.1481, 164.7954
426.6302, 160.9963
427.1124, 155.2903
427.5945, 151.0400
428.0766, 149.8933
428.5587, 149.8817
429.0408, 148.8651
429.5229, 146.2524
430.0051, 143.1211
430.4872, 141.0619
430.9693, 140.4154
431.4514, 139.1206
431.9335, 136.2590
432.4156, 133.5623
432.8978, 131.7189
433.3799, 130.6035
433.8620, 129.7700
434.3441, 129.0466
434.8262, 128.4693
435.3083, 128.0079
435.7905, 127.6578
436.2726, 127.2045
436.7547, 126.5206
437.2368, 125.7747
437.7189, 125.0578
438.2010, 124.3304
438.6832, 123.5754
439.1653, 122.9946
439.6474, 122.5251
440.1295, 121.5494
440.6116, 119.8776
441.0938, 117.8625
441.5759, 115.1881
442.0580, 112.2556
442.5401, 110.4895
443.0222, 110.4149
443.5043, 111.6052
443.9865, 114.5305
444.4686, 118.8578
444.9507, 121.6951
445.4328, 121.5032
445.9149, 119.1471
446.3970, 116.4019
446.8792, 112.8926
447.3613, 110.1140
447.8434, 109.2047
448.3255, 108.9076
448.8076, 107.7554
449.2897, 105.4768
449.7719, 102.4468
450.2540, 98.89514
450.7361, 94.76221
451.2182, 91.12897
451.7003, 87.69055
452.1824, 84.99420
452.6646, 84.35217
453.1467, 84.33319
453.6288, 82.33209
454.1109, 77.18976
454.5930, 70.52637
455.0751, 65.58765
455.5573, 63.63068
456.0394, 60.97223
456.5215, 56.66437
457.0036, 52.57117
457.4857, 49.77246
457.9678, 48.21344
458.4500, 47.21796
458.9321, 46.29651
459.4142, 45.49750
459.8963, 45.25153
460.3784, 46.55945
460.8605, 46.57452
461.3427, 43.40326
461.8248, 39.35461
462.3069, 36.74707
462.7890, 36.15881
463.2711, 36.22980
463.7532, 35.86346
464.2354, 35.03217
464.7175, 33.24054
465.1996, 29.66791
465.6817, 26.35992
466.1638, 24.93408
466.6459, 24.86279
467.1281, 24.85876
467.6102, 24.08795
468.0923, 23.57568
468.5744, 25.15320
469.0565, 28.50818
469.5386, 30.31531
470.0208, 28.75104
470.5029, 25.61682
470.9850, 24.23810
471.4671, 24.90454
471.9492, 25.16327
472.4313, 23.56287
472.9135, 21.72742
473.3956, 21.86597
473.8777, 23.94055
474.3598, 25.66730
474.8419, 25.24573
475.3240, 22.91083
475.8062, 20.96063
476.2883, 18.48804
476.7704, 17.43585
477.2525, 19.97607
477.7346, 23.37909
478.2167, 24.42047
478.6989, 22.24323
479.1810, 18.17157
479.6631, 13.51978
480.1452, 7.888367
480.6273, 4.000061
481.1094, 3.331055
481.5916, 2.914551
482.0737, 2.249023
482.5558, 1.084473
483.0379, 1.152771
483.5200, 4.952087
484.0021, 8.977722
484.4843, 10.32458
484.9664, 8.260254
485.4485, 6.953125
485.9306, 7.633850
486.4127, 8.968872
486.8948, 10.49762
487.3770, 12.01593
487.8591, 12.76282
488.3412, 11.80750
488.8233, 9.922729
489.3054, 8.611206
489.7875, 7.915344
490.2697, 7.402222
490.7518, 6.654175
491.2339, 6.052551
491.7160, 6.436462
492.1981, 8.274292
492.6802, 9.745422
493.1624, 9.761658
493.6445, 9.051025
494.1266, 8.870911
494.6087, 9.408203
495.0908, 9.604248
495.5729, 8.438171
496.0551, 5.922546
496.5372, 3.776733
497.0193, 2.698181
497.5014, 1.132507
497.9835, 2.035828
498.4656, 5.768799
498.9478, 8.404541
499.4299, 9.435242
499.9120, 10.03302
500.3941, 12.00989
500.8762, 15.85101
501.3583, 19.28827
501.8405, 22.37579
502.3226, 25.02185
502.8047, 26.97626
503.2868, 28.48816
503.7689, 30.03058
504.2510, 31.88574
504.7331, 33.73267
505.2152, 35.04730
505.6974, 35.83698
506.1795, 36.00079
506.6616, 35.21136
507.1437, 33.91412
507.6258, 32.10156
508.1079, 29.95660
508.5901, 28.51416
509.0722, 28.73010
509.5543, 29.69794
510.0364, 30.25470
510.5185, 30.41272
511.0006, 29.99011
511.4828, 28.76001
511.9649, 26.98651
512.4470, 25.29816
512.9291, 23.80823
513.4113, 22.03217
513.8934, 19.30249
514.3755, 16.58673
514.8576, 15.08673
515.3397, 14.78381
515.8218, 14.71594
516.3040, 14.12469
516.7861, 13.07001
517.2682, 12.33380
517.7503, 12.35931
518.2324, 12.22961
518.7145, 11.72290
519.1967, 11.07172
519.6788, 10.36810
520.1609, 9.719238
520.6430, 9.381287
521.1251, 9.559937
521.6072, 10.23840
522.0894, 11.64874
522.5715, 14.83801
523.0536, 17.02234
523.5357, 16.93140
524.0178, 15.62653
524.4999, 14.03827
524.9821, 12.31836
525.4642, 11.27917
525.9463, 12.07538
526.4284, 14.28589
526.9105, 16.03601
527.3926, 17.10352
527.8748, 17.39050
528.3569, 16.49707
528.8390, 14.81073
529.3211, 13.51855
529.8032, 12.94055
530.2853, 12.53870
530.7675, 12.04553
531.2496, 11.48224
531.7317, 10.92548
532.2138, 10.41046
532.6959, 10.02356
533.1780, 9.860596
533.6602, 9.928101
534.1423, 10.09418
534.6244, 10.41510
535.1065, 10.74231
535.5886, 11.22144
536.0707, 11.61627
536.5529, 11.50012
537.0350, 10.72577
537.5171, 9.669067
537.9992, 8.973755
538.4813, 8.723572
538.9634, 8.470154
539.4456, 7.982544
539.9277, 7.747009
540.4098, 8.124207
540.8919, 8.854858
541.3740, 9.437561
541.8561, 9.673950
542.3383, 9.757141
542.8204, 10.04492
543.3025, 10.46185
543.7846, 10.35205
544.2667, 9.251343
544.7488, 8.127441
545.2310, 8.360718
545.7131, 9.786621
546.1952, 10.66809
546.6773, 10.79871
547.1594, 10.30261
547.6415, 8.842957
548.1237, 6.811035
548.6058, 5.079773
549.0879, 4.002808
549.5700, 3.368225
550.0521, 2.853882
550.5342, 2.495300
551.0164, 2.307739
551.4985, 2.639038
551.9806, 2.811096
552.4627, 2.376221
552.9448, 1.567017
553.4269, 0.8695680
553.9091, 0.5391240
554.3912, 0.4134520
554.8733, 0.2069090
555.3554, 8.6852998E-02
555.8375, 0.3821410
556.3196, 1.078308
556.8018, 1.458984
557.2839, 0.8791500
557.7660, 0.3450320
558.2481, 1.340698
558.7302, 1.754028
559.2123, 1.867615
559.6945, 1.915039
560.1766, 1.903687
560.6587, 1.933899
561.1408, 2.099304
561.6229, 2.094055
562.1050, 1.437317
562.5872, 4.2699999E-04
563.0693, 1.137390
563.5514, 2.205872
564.0335, 2.718750
564.5156, 2.116394
564.9977, 0.8361210
565.4799, 0.3231810
565.9620, 1.047485
566.4441, 1.639648
566.9262, 2.661621
567.4083, 4.358887
567.8904, 5.477112
568.3726, 5.430359
568.8547, 5.382446
569.3368, 5.845276
569.8189, 6.537903
570.3010, 7.003235
570.7831, 7.065063
571.2653, 6.841858
571.7474, 6.420471
572.2295, 5.817383
572.7116, 4.970337
573.1937, 3.622009
573.6758, 2.684448
574.1580, 3.300110
574.6401, 5.038025
575.1222, 6.192932
575.6043, 6.115906
576.0864, 5.984314
576.5685, 6.625793
577.0507, 7.532532
577.5328, 7.733887
578.0149, 7.023621
578.4970, 6.131958
578.9791, 5.815552
579.4612, 6.086853
579.9434, 6.638977
580.4255, 7.873535
580.9076, 8.922119
581.3897, 9.761719
581.8718, 10.25958
582.3539, 10.17535
582.8361, 9.498657
583.3182, 8.668640
583.8003, 7.654236
584.2824, 6.673462
584.7645, 7.829163
585.2466, 12.20111
585.7288, 15.60944
586.2108, 15.25012
586.6929, 13.01099
587.1750, 11.38800
587.6572, 10.43262
588.1393, 10.61163
588.6214, 13.33325
589.1035, 16.70343
589.5856, 17.93774
590.0677, 16.96960
590.5499, 15.79956
591.0320, 15.69324
591.5141, 16.39966
591.9962, 17.00543
592.4783, 17.49207
592.9604, 17.90753
593.4426, 18.14917
593.9247, 18.41016
594.4068, 19.02838
594.8889, 19.81470
595.3710, 20.12277
595.8531, 19.44370
596.3353, 18.25867
596.8174, 17.50104
597.2995, 17.08780
597.7816, 17.70895
598.2637, 20.34253
598.7458, 23.23019
599.2280, 24.94888
599.7101, 25.60376
600.1922, 25.80185
600.6743, 25.39771
601.1564, 24.91174
601.6385, 24.65903
602.1207, 24.65616
602.6028, 25.07614
603.0849, 26.05521
603.5670, 27.09628
604.0491, 27.44226
604.5313, 26.89545
605.0134, 26.81165
605.4955, 27.39691
605.9776, 28.07126
606.4597, 28.88751
606.9418, 29.59256
607.4240, 29.79718
607.9061, 29.42966
608.3882, 28.94330
608.8703, 28.77414
609.3524, 28.95862
609.8345, 29.67166
610.3167, 31.20749
610.7988, 32.43427
611.2809, 32.30997
611.7630, 31.81921
612.2451, 32.47958
612.7272, 34.73438
613.2094, 36.55225
613.6915, 36.73453
614.1736, 36.10257
614.6557, 35.56116
615.1378, 35.28564
615.6199, 35.47632
616.1021, 36.29053
616.5842, 37.38132
617.0663, 37.80942
617.5484, 36.78076
618.0305, 36.41077
618.5126, 37.45209
618.9948, 38.39914
619.4769, 38.03943
619.9590, 36.87430
620.4411, 36.22934
620.9232, 36.84433
621.4053, 38.09869
621.8875, 39.13037
622.3696, 40.00458
622.8517, 40.82104
623.3338, 41.55881
623.8159, 42.24823
624.2980, 43.08041
624.7802, 43.92554
625.2623, 44.26068
625.7444, 43.26361
626.2265, 42.66364
626.7086, 43.64481
627.1907, 45.35468
627.6729, 46.74033
628.1550, 47.54343
628.6371, 47.73923
629.1192, 47.26642
629.6013, 46.13107
630.0834, 44.59103
630.5656, 41.73404
631.0477, 40.02991
631.5298, 40.84048
632.0119, 42.05789
632.4940, 41.90677
632.9761, 40.51648
633.4583, 39.45578
633.9404, 40.02075
634.4225, 41.17728
634.9046, 40.95602
635.3867, 39.48245
635.8688, 38.90329
636.3510, 40.25339
636.8331, 41.87714
637.3152, 41.62970
637.7973, 39.26944
638.2794, 37.67007
638.7615, 37.32556
639.2437, 37.20547
639.7258, 37.17163
640.2079, 36.94458
640.6900, 35.97504
641.1721, 34.22305
641.6542, 32.51395
642.1364, 31.74597
642.6185, 31.90295
643.1006, 32.44458
643.5827, 33.98141
644.0648, 34.40005
644.5469, 31.70401
645.0291, 28.29227
645.5112, 26.23529
645.9933, 25.72705
646.4754, 25.92719
646.9575, 26.81448
647.4396, 27.84299
647.9218, 28.66467
648.4039, 29.18271
648.8860, 28.88489
649.3681, 27.47766
649.8502, 25.94662
650.3323, 25.94254
650.8145, 28.14438
651.2966, 28.68347
651.7787, 26.25671
652.2608, 23.76627
652.7429, 22.02399
653.2250, 20.73181
653.7072, 19.52985
654.1893, 18.30383
654.6714, 17.06287
655.1535, 15.56598
655.6356, 14.06369
656.1177, 13.57150
656.5999, 14.24661
657.0820, 14.85934
657.5641, 15.04285
658.0462, 14.62503
658.5283, 12.83115
659.0104, 9.169586
659.4926, 7.060913
659.9747, 8.553833
660.4568, 10.12064
660.9389, 9.196014
661.4210, 6.734100
661.9031, 4.895294
662.3853, 4.539764
662.8674, 5.008820
663.3495, 5.329102
663.8316, 5.485687
664.3137, 5.678040
664.7958, 5.865143
665.2780, 6.188507
665.7601, 7.179535
666.2422, 8.079102
666.7243, 7.683441
667.2064, 5.664856
667.6885, 4.306671
668.1707, 5.490204
668.6528, 7.311829
669.1349, 7.364014
669.6170, 5.922394
670.0991, 4.827515
670.5812, 4.961914
671.0634, 5.704407
671.5455, 5.966675
672.0276, 5.588074
672.5097, 5.365845
672.9918, 5.476166
673.4739, 5.565491
673.9561, 5.482056
674.4382, 5.355255
674.9203, 5.387512
675.4024, 5.629639
675.8845, 5.814484
676.3666, 5.629181
676.8488, 5.265808
677.3309, 5.197144
677.8130, 5.435089
678.2951, 5.534790
678.7772, 5.238922
679.2593, 4.763580
679.7415, 4.483734
680.2236, 4.438232
680.7057, 4.489441
681.1878, 4.743774
681.6699, 4.969696
682.1520, 5.174622
682.6342, 5.248413
683.1163, 4.903595
683.5984, 4.084167
684.0805, 3.361938
684.5626, 3.633057
685.0447, 4.604553
685.5269, 4.413300
686.0090, 2.718811
686.4911, 1.690308
686.9732, 2.720825
687.4553, 4.526917
687.9374, 4.930511
688.4196, 3.804260
688.9017, 2.868774
689.3838, 2.548981
689.8659, 2.330627
690.3480, 1.886414
690.8301, 1.336304
691.3123, 0.8256230
691.7944, 0.4307560
692.2765, 0.3472900
692.7586, 0.8941350
693.2407, 2.012268
693.7228, 2.926178
694.2050, 3.759796
694.6871, 4.040009
695.1692, 3.236359
695.6513, 2.055786
696.1334, 1.151276
696.6155, 0.5366820
697.0977, 0.2675480
697.5798, 0.5424500
698.0619, 0.9897460
698.5440, 1.521362
699.0261, 1.980530
699.5082, 2.014618
699.9904, 1.546021
700.4725, 0.8971560
700.9546, 0.3828740
701.4367, 9.7049996E-03
701.9188, 9.3414001E-02
702.4009, 0.3837280
702.8831, 0.5154420
703.3652, 0.4713130
703.8473, 1.482208
704.3294, 1.649841
704.8115, 1.037659
705.2936, 0.3262940
705.7758, 0.4646000
706.2579, 1.013123
706.7400, 0.8278500
707.2221, 0.2350160
707.7042, 8.9720003E-03
708.1863, 0.3145140
708.6685, 0.6612550
709.1506, 0.5859680
709.6327, 0.1586000
710.1148, 8.0871999E-02
710.5969, 1.0254000E-02
711.0790, 3.1219000E-02
711.5612, 0.1030270
712.0433, 0.1888730
712.5254, 3.6713000E-02
713.0075, 0.4418640
713.4896, 0.5942080
713.9717, 0.2032170
714.4539, 0.2389220
714.9360, 0.1011660
715.4181, 0.2721560
715.9002, 9.9639997E-02
716.3823, 1.323364
716.8644, 2.318634
717.3466, 2.249664
717.8287, 1.353119
718.3108, 0.5779720
718.7929, 0.3000790
719.2750, 0.5357970
719.7571, 0.8100590
720.2393, 1.832123
720.7214, 1.092072
721.2035, 0.5577390
721.6856, 1.343109
722.1677, 0.5478210
722.6498, 0.4370730
723.1320, 0.2329410
723.6141, 0.5502010
724.0962, 0.5632630
724.5783, 0.2601320
725.0604, 1.098663
725.5425, 1.538239
726.0247, 1.588013
726.5068, 1.294617
726.9889, 0.4821170
727.4710, 6.4361997E-02
727.9531, 0.2730710
728.4352, 0.3210450
728.9174, 7.3944002E-02
729.3995, 0.4363710
729.8816, 4.3152001E-02
730.3637, 1.498505
730.8458, 2.719299
731.3279, 2.607880
731.8101, 1.851196
732.2922, 1.606232
732.7743, 1.804932
733.2564, 1.752472
733.7385, 1.148193
734.2206, 0.5271610
734.7028, 0.5892330
735.1849, 1.380829
735.6670, 2.203827
736.1491, 3.292358
736.6312, 4.092468
737.1133, 4.146118
737.5955, 4.148560
738.0776, 5.041016
738.5597, 6.600800
739.0418, 7.354706
739.5239, 5.940735
740.0060, 4.110596
740.4882, 4.012421
740.9703, 5.164856
741.4524, 6.163361
741.9345, 6.714264
742.4166, 7.069183
742.8987, 7.456879
743.3809, 7.792206
743.8630, 7.619873
744.3451, 6.203186
744.8272, 5.662933
745.3093, 6.783203
745.7914, 8.093201
746.2736, 9.024353
746.7557, 9.498291
747.2378, 9.402374
747.7199, 8.563690
748.2020, 7.736816
748.6841, 7.367493
749.1663, 7.444122
749.6484, 8.265076
750.1305, 9.671692
750.6126, 10.57022
751.0947, 10.38022
751.5768, 9.489563
752.0590, 8.505707
752.5411, 7.256744
753.0232, 6.720337
753.5053, 7.319733
753.9874, 8.063934
754.4695, 8.568817
754.9517, 9.119629
755.4338, 10.29480
755.9159, 12.09241
756.3980, 13.18405
756.8801, 12.15189
757.3622, 10.76810
757.8444, 10.93216
758.3265, 12.08215
758.8086, 12.77124
759.2907, 12.64069
759.7728, 12.40823
760.2549, 12.77451
760.7371, 13.65347
761.2192, 14.61469
761.7013, 15.97507
762.1834, 16.47797
762.6655, 14.91278
763.1476, 13.53653
763.6298, 14.26785
764.1119, 16.33939
764.5940, 17.54636
765.0761, 16.98682
765.5582, 16.43314
766.0403, 16.99341
766.5225, 17.85135
767.0046, 17.87753
767.4867, 17.27258
767.9688, 17.22952
768.4509, 18.37875
768.9330, 19.88687
769.4152, 20.27432
769.8973, 19.48984
770.3794, 19.04190
770.8615, 19.16678
771.3436, 19.01941
771.8257, 17.76572
772.3079, 16.37024
772.7900, 16.47437
773.2721, 18.22641
773.7542, 19.44974
774.2363, 19.54880
774.7184, 19.24554
775.2006, 18.90482
775.6827, 18.50449
776.1648, 17.85165
776.6469, 16.95703
777.1290, 16.06638
777.6111, 15.32968
778.0933, 14.73212
778.5754, 14.49930
779.0575, 14.69928
779.5396, 14.47699
780.0217, 13.44235
780.5038, 12.59079
780.9860, 12.78442
781.4681, 13.75003
781.9502, 14.27106
782.4323, 14.09207
782.9144, 13.86057
783.3965, 13.48508
783.8787, 13.21689
784.3608, 13.50220
784.8429, 13.92795
785.3250, 13.63348
785.8071, 12.34210
786.2892, 10.91068
786.7714, 10.04041
787.2535, 9.521912
787.7356, 9.031860
788.2177, 8.576141
788.6998, 8.193756
789.1819, 7.920105
789.6641, 7.706665
790.1462, 7.419312
790.6283, 7.090973
791.1104, 6.786774
791.5925, 6.365784
792.0746, 6.257446
792.5568, 7.083374
793.0389, 7.863800
793.5210, 7.686859
794.0031, 6.786804
794.4852, 6.077423
794.9673, 5.837830
795.4495, 5.850616
795.9316, 6.141418
796.4137, 6.472961
796.8958, 6.547516
797.3779, 6.408951
797.8600, 6.213989
798.3422, 6.053421
798.8243, 5.912735
799.3064, 5.736572
799.7885, 5.489166
800.2706, 5.171478
800.7527, 4.707382
801.2349, 4.490051
801.7170, 4.894333
802.1991, 5.441345
802.6812, 5.270340
803.1633, 4.376678
803.6454, 4.258438
804.1276, 5.986572
804.6097, 7.214951
805.0918, 6.697327
805.5739, 5.637177
806.0560, 5.315750
806.5381, 5.711075
807.0203, 5.888351
807.5024, 5.220139
807.9845, 4.400208
808.4666, 4.606781
808.9487, 5.513245
809.4308, 5.647263
809.9130, 4.807404
810.3951, 4.250183
810.8772, 4.778732
811.3593, 5.941818
811.8414, 6.903030
812.3235, 7.917175
812.8057, 7.731445
813.2878, 4.678101
813.7699, 2.517349
814.2520, 2.947220
814.7341, 4.261520
815.2162, 4.699524
815.6984, 4.184509
816.1805, 3.822739
816.6626, 4.313766
817.1447, 4.847610
817.6268, 4.678497
818.1089, 4.231827
818.5911, 4.205933
819.0732, 4.652405
819.5553, 5.214722
820.0374, 5.691071
820.5195, 5.996765
821.0016, 5.834106
821.4838, 5.178940
821.9659, 4.925583
822.4480, 5.254532
822.9301, 5.600113
823.4122, 5.684525
823.8943, 5.606369
824.3765, 5.497040
824.8586, 5.310074
825.3407, 5.347488
825.8228, 5.911423
826.3049, 6.342056
826.7870, 6.480713
827.2692, 6.337692
827.7513, 5.789230
828.2334, 4.944794
828.7155, 4.244690
829.1976, 3.877441
829.6797, 3.839722
830.1619, 4.361008
830.6440, 5.161285
831.1261, 5.565842
831.6082, 5.507599
832.0903, 5.188492
832.5724, 4.676315
833.0546, 4.246750
833.5367, 4.567734
834.0188, 5.845810
834.5009, 6.457184
834.9830, 6.482346
835.4651, 5.614655
835.9473, 2.399094
836.4294, 0.7063290
836.9115, 0.4641110
837.3936, 2.916946
837.8757, 5.057510
838.3578, 4.478394
838.8400, 3.552368
839.3221, 3.037155
839.8042, 2.691101
840.2863, 2.049194
840.7684, 1.327072
841.2505, 1.413025
841.7327, 2.860519
842.2148, 4.365524
842.6969, 4.175674
843.1790, 2.839691
843.6611, 1.715439
844.1432, 0.9243320
844.6254, 0.9642030
845.1075, 2.181351
845.5896, 3.435226
846.0717, 3.042236
846.5538, 0.9920350
847.0359, 0.1811680
847.5181, 1.430878
848.0002, 2.327026
848.4823, 2.559570
848.9644, 2.126053
849.4465, 0.4660950
849.9286, 1.851700
850.4108, 3.116867
850.8929, 2.695770
851.3750, 2.029358
851.8571, 1.426285
852.3392, 0.9535060
852.8214, 0.9197390
853.3035, 0.9921570
853.7856, 0.3056490
854.2677, 1.322754
854.7498, 2.707108
855.2319, 2.554306
855.7141, 1.439758
856.1962, 0.4852290
856.6783, 0.2677150
857.1604, 0.4333040
857.6425, 0.1273500
858.1246, 0.6780240
858.6068, 0.5869750
859.0889, 2.5467001E-02
859.5710, 0.3659970
860.0531, 0.5150760
860.5352, 0.7144010
861.0173, 1.404205
861.4995, 1.575714
861.9816, 0.1624150
862.4637, 1.698456
862.9458, 2.400589
863.4279, 1.756622
863.9100, 1.298859
864.3922, 1.631058
864.8743, 1.991699
865.3564, 2.040131
865.8385, 1.849884
866.3206, 1.310440
866.8027, 0.6085510
867.2849, 0.4042360
867.7670, 1.170914
868.2491, 2.206497
868.7312, 2.508621
869.2133, 2.365387
869.6954, 2.785843
870.1776, 3.764038
870.6597, 4.076065
871.1418, 3.085739
871.6239, 1.870071
872.1060, 2.066406
872.5881, 3.663834
873.0703, 4.322281
873.5524, 3.558121
874.0345, 3.100220
874.5166, 3.645065
874.9987, 4.249741
875.4808, 3.973145
875.9630, 3.145157
876.4451, 2.769455
876.9272, 3.148987
877.4093, 3.459335
877.8914, 3.406601
878.3735, 3.366623
878.8557, 3.675049
879.3378, 4.104050
879.8199, 4.223175
880.3020, 3.976761
880.7841, 3.799301
881.2662, 4.068878
881.7484, 4.485001
882.2305, 4.598175
882.7126, 4.581223
883.1947, 5.034119
883.6768, 5.935272
884.1589, 6.366943
884.6411, 5.698990
885.1232, 4.479111
885.6053, 3.761795
886.0874, 3.560287
886.5695, 3.479095
887.0516, 3.523865
887.5338, 3.630112
888.0159, 3.743362
888.4980, 3.957504
888.9801, 4.409821
889.4622, 5.101700
889.9443, 5.751892
890.4265, 6.494278
890.9086, 6.994461
891.3907, 7.182617
891.8728, 7.163101
892.3549, 6.774567
892.8370, 6.295166
893.3192, 6.246155
893.8013, 6.757050
894.2834, 7.292587
894.7655, 7.859467
895.2476, 8.454407
895.7297, 8.856628
896.2119, 9.192886
896.6940, 9.740631
897.1761, 10.50829
897.6582, 11.17293
898.1403, 11.44315
898.6224, 11.66951
899.1046, 12.56171
899.5867, 13.96394
900.0688, 15.30156
900.5509, 16.48669
901.0330, 16.90051
901.5151, 16.15979
901.9973, 14.98225
902.4794, 14.39720
902.9615, 14.44899
903.4436, 15.33669
903.9257, 17.50119
904.4078, 19.12247
904.8900, 19.64430
905.3721, 19.93228
905.8542, 20.56464
906.3363, 21.37473
906.8184, 21.96042
907.3005, 22.29198
907.7827, 22.27826
908.2648, 21.48534
908.7469, 21.04349
909.2290, 21.99591
909.7111, 23.28383
910.1932, 23.31165
910.6754, 22.08678
911.1575, 21.39540
911.6396, 22.56029
912.1217, 24.00943
912.6038, 23.83321
913.0859, 23.39720
913.5681, 25.50096
914.0502, 29.30243
914.5323, 30.96179
915.0143, 28.87141
915.4965, 25.81015
915.9786, 25.19975
916.4607, 26.23903
916.9428, 25.91888
917.4249, 24.38408
917.9070, 23.68953
918.3892, 24.39107
918.8713, 25.27924
919.3534, 25.44102
919.8355, 25.20757
920.3176, 25.34137
920.7997, 25.95749
921.2819, 26.13925
921.7640, 25.26581
922.2461, 25.18871
922.7282, 27.33148
923.2103, 30.03310
923.6924, 31.25534
924.1746, 31.06410
924.6567, 30.55765
925.1388, 29.10670
925.6209, 28.35265
926.1030, 29.23428
926.5851, 30.24184
927.0673, 30.30783
927.5494, 29.77794
928.0315, 29.34061
928.5136, 29.15419
928.9957, 29.16104
929.4778, 29.58354
929.9600, 29.94458
930.4421, 29.86151
930.9242, 29.45613
931.4063, 28.80925
931.8884, 28.03525
932.3705, 27.40218
932.8527, 27.03767
933.3348, 26.99455
933.8169, 27.77191
934.2990, 28.82994
934.7811, 28.45755
935.2632, 26.78525
935.7454, 25.19281
936.2275, 24.13245
936.7096, 23.41072
937.1917, 22.86496
937.6738, 22.46222
938.1559, 22.13924
938.6381, 21.95049
939.1202, 21.40092
939.6023, 20.41374
940.0844, 19.13112
940.5665, 17.48830
941.0486, 15.76308
941.5308, 14.35780
942.0129, 13.25076
942.4950, 12.63277
942.9771, 13.60962
943.4592, 13.37556
943.9413, 10.21591
944.4235, 7.074570
944.9056, 5.982864
945.3877, 6.209839
945.8698, 6.139557
946.3519, 5.577606
946.8340, 4.733368
947.3162, 3.253601
947.7983, 1.951263
948.2804, 1.395325
948.7625, 1.166840
949.2446, 0.7679290
949.7267, 0.1843720
950.2089, 0.3304600
950.6910, 0.6843570
951.1731, 0.8533940
951.6552, 0.6530760
952.1373, 0.3761900
952.6194, 0.3248600
953.1016, 0.5272060
953.5837, 1.065826
954.0658, 1.906204
954.5479, 2.698990
955.0300, 3.175674
955.5121, 3.428696
955.9943, 3.613571
956.4764, 3.715240
956.9585, 3.708466
957.4406, 3.583939
957.9227, 3.221420
958.4048, 2.554214
958.8870, 1.732971
959.3691, 0.8485410
959.8512, 1.3430000E-03
960.3333, 0.2474210
960.8154, 1.873764
961.2975, 2.370163
961.7797, 0.9243930
962.2618, 0.4174960
962.7439, 0.1142120
963.2260, 0.9018250
963.7081, 0.5753170
964.1902, 1.421356
964.6724, 3.029556
965.1545, 4.157257
965.6366, 5.031448
966.1187, 5.307297
966.6008, 5.724426
967.0829, 7.023758
967.5651, 8.910294
968.0472, 10.41263
968.5293, 11.12288
969.0114, 12.40234
969.4935, 14.88397
969.9756, 17.45610
970.4578, 19.56020
970.9399, 21.55382
971.4220, 23.79889
971.9041, 26.34064
972.3862, 29.13443
972.8683, 32.14526
973.3505, 35.42552
973.8326, 39.25792
974.3147, 43.15883
974.7968, 46.36159
975.2789, 49.43108
975.7610, 53.38426
976.2432, 58.40738
976.7253, 64.04045
977.2074, 70.14038
977.6895, 76.40143
978.1716, 82.48836
978.6537, 88.49423
979.1359, 94.48866
979.6180, 100.6324
980.1001, 107.4929
980.5822, 115.2506
981.0643, 123.1377
981.5464, 130.3255
982.0286, 137.1051
982.5107, 144.0711
982.9928, 151.1111
983.4749, 157.5439
983.9570, 163.3140
984.4391, 169.6666
984.9213, 177.2934
985.4034, 185.1931
985.8855, 191.8644
986.3676, 197.4610
986.8497, 203.2325
987.3318, 209.2416
987.8140, 214.7011
988.2961, 219.5589
988.7782, 223.4987
989.2603, 226.4804
989.7424, 228.1217
990.2245, 227.6290
990.7067, 224.8829
991.1888, 221.0378
991.6709, 216.5123
992.1530, 209.6684
992.6351, 199.1921
993.1172, 187.6257
993.5994, 176.9020
994.0815, 166.5172
994.5636, 154.8891
995.0457, 141.1346
995.5278, 128.6850
996.0099, 118.3166
996.4921, 108.1280
996.9742, 96.80049
997.4563, 86.15314
997.9384, 77.98004
998.4205, 71.79684
998.9026, 65.82996
999.3848, 59.63567
999.8669, 54.32100
1000.349, 49.84999
1000.831, 46.59312
1001.313, 45.32281
1001.795, 44.92270
1002.277, 44.46814
1002.760, 43.76437
1003.242, 42.47560
1003.724, 39.94365
1004.206, 38.24513
1004.688, 39.00400
1005.170, 40.27571
1005.652, 40.43608
1006.134, 40.17720
1006.617, 40.94348
1007.099, 42.66566
1007.581, 43.71828
1008.063, 43.23007
1008.545, 42.01306
1009.027, 40.29080
1009.509, 38.53012
1009.991, 37.45018
1010.473, 36.71004
1010.956, 35.27258
1011.438, 33.08214
1011.920, 31.55403
1012.402, 31.86775
1012.884, 32.73882
1013.366, 32.55014
1013.848, 31.81943
1014.330, 31.48338
1014.813, 31.52127
1015.295, 31.66499
1015.777, 31.81613
1016.259, 31.77823
1016.741, 31.31419
1017.223, 30.65527
1017.705, 30.13185
1018.187, 29.78583
1018.669, 29.87340
1019.152, 30.37451
1019.634, 30.90187
1020.116, 31.26454
1020.598, 31.37627
1021.080, 31.08376
1021.562, 30.58469
1022.044, 30.36609
1022.526, 30.41106
1023.008, 30.62556
1023.491, 31.00317
1023.973, 31.52180
1024.455, 32.18439
1024.937, 32.87642
1025.419, 33.51785
1025.901, 34.01637
1026.383, 33.83264
1026.865, 32.89612
1027.348, 32.45172
1027.830, 32.71188
1028.312, 33.03139
1028.794, 33.10289
1029.276, 33.07239
1029.758, 33.10548
1030.240, 33.21791
1030.722, 33.60194
1031.204, 34.46127
1031.687, 34.58305
1032.169, 33.56693
1032.651, 32.59183
1033.133, 32.10782
1033.615, 32.10704
1034.097, 32.68810
1034.579, 33.81100
1035.061, 34.60782
1035.544, 34.98682
1036.026, 35.33353
1036.508, 35.87292
1036.990, 35.83154
1037.472, 34.20215
1037.954, 32.49643
1038.436, 32.95889
1038.918, 35.50664
1039.401, 37.18893
1039.883, 37.83615
1040.365, 37.89287
1040.847, 36.42651
1041.329, 35.43367
1041.811, 36.57448
1042.293, 38.20668
1042.775, 37.89604
1043.257, 35.71841
1043.740, 34.62430
1044.222, 34.79216
1044.704, 35.77292
1045.186, 39.24277
1045.668, 41.56409
1046.150, 39.90997
1046.632, 36.97505
1047.114, 36.15585
1047.596, 37.45218
1048.079, 38.40285
1048.561, 38.37433
1049.043, 38.41754
1049.525, 38.75558
1050.007, 39.04263
1050.489, 38.78082
1050.971, 38.62503
1051.453, 39.76575
1051.936, 41.99084
1052.418, 43.06528
1052.900, 41.71674
1053.382, 40.80734
1053.864, 40.59778
1054.346, 40.90369
1054.828, 42.51398
1055.310, 44.30945
1055.792, 44.73801
1056.275, 43.85895
1056.757, 42.92603
1057.239, 41.92908
1057.721, 41.56589
1058.203, 42.29221
1058.685, 43.41541
1059.167, 45.12210
1059.649, 46.73093
1060.131, 47.56458
1060.614, 47.57645
1061.096, 46.97284
1061.578, 45.34882
1062.060, 44.12262
1062.542, 43.87311
1063.024, 44.21246
1063.506, 45.02850
1063.988, 46.25763
1064.471, 48.40692
1064.953, 50.94147
1065.435, 51.92261
1065.917, 50.38184
1066.399, 48.85068
1066.881, 48.39764
1067.363, 48.10916
1067.845, 47.71457
1068.328, 47.00665
1068.810, 45.50369
1069.292, 43.49316
1069.774, 42.08395
1070.256, 41.94073
1070.738, 41.57471
1071.220, 39.56308
1071.702, 38.02020
1072.184, 39.05530
1072.667, 40.47653
1073.149, 39.40186
1073.631, 36.73950
1074.113, 35.58539
1074.595, 36.89508
1075.077, 37.69766
1075.559, 36.20209
1076.041, 34.38321
1076.523, 33.53387
1077.006, 32.72336
1077.488, 30.56934
1077.970, 27.81693
1078.452, 26.39032
1078.934, 26.74615
1079.416, 27.04456
1079.898, 26.57037
1080.380, 25.73288
1080.862, 24.43915
1081.345, 23.18533
1081.827, 22.32251
1082.309, 21.85742
1082.791, 21.82047
1083.273, 22.18018
1083.755, 22.29224
1084.237, 22.24161
1084.719, 21.42758
1085.202, 18.59415
1085.684, 15.81396
1086.166, 15.05423
1086.648, 15.32974
1087.130, 15.05679
1087.612, 14.02356
1088.094, 12.79645
1088.576, 11.28964
1089.058, 10.17102
1089.541, 9.853027
1090.023, 9.902863
1090.505, 10.53885
1090.987, 11.03571
1091.469, 10.38510
1091.951, 8.698792
1092.433, 6.933838
1092.915, 5.098877
1093.397, 3.991394
1093.880, 4.257996
1094.362, 4.931519
1094.844, 5.919983
1095.326, 6.588745
1095.808, 6.116394
1096.290, 4.747864
1096.772, 3.292664
1097.254, 1.682617
1097.737, 1.155396
1098.219, 3.145325
1098.701, 4.965637
1099.183, 5.417603
1099.665, 5.198303
1100.147, 4.795105
1100.629, 4.288635
1101.111, 3.739014
1101.594, 3.185669
1102.076, 2.685547
1102.558, 1.967041
1103.040, 1.757996
1103.522, 3.274780
1104.004, 4.407288
1104.486, 3.090881
1104.968, 0.6730350
1105.450, 0.6711430
1105.932, 0.7501220
1106.415, 0.6063230
1106.897, 0.2296140
1107.379, 1.6418001E-02
1107.861, 5.7799999E-02
1108.343, 6.6405997E-02
1108.825, 0.1007080
1109.307, 0.4146730
1109.789, 2.002136
1110.272, 4.524292
1110.754, 5.190735
1111.236, 1.941589
1111.718, 0.3854370
1112.200, 2.681885
1112.682, 4.573975
1113.164, 4.164001
1113.646, 3.022583
1114.129, 2.409302
1114.611, 2.218994
1115.093, 2.075623
1115.575, 1.672180
1116.057, 2.158508
1116.539, 3.882751
1117.021, 5.994873
1117.503, 9.521057
1117.985, 11.97302
1118.468, 11.07593
1118.950, 8.431763
1119.432, 7.031433
1119.914, 6.961182
1120.396, 7.106384
1120.878, 7.482605
1121.360, 8.073120
1121.842, 9.232300
1122.324, 9.999512
1122.807, 9.831726
1123.289, 9.151367
1123.771, 8.465515
1124.253, 7.725159
1124.735, 6.282471
1125.217, 3.442383
1125.699, 2.347656
1126.181, 4.066833
1126.664, 4.427856
1127.146, 1.383179
1127.628, 1.764709
1128.110, 1.728394
1128.592, 0.2435910
1129.074, 0.3411870
1129.556, 1.653564
1130.038, 2.624146
1130.521, 2.339478
1131.003, 2.586426
1131.485, 3.766113
1131.967, 5.761597
1132.449, 8.653320
1132.931, 11.75159
1133.413, 13.83411
1133.895, 15.16907
1134.377, 17.73938
1134.859, 21.60059
1135.342, 26.66650
1135.824, 32.88281
1136.306, 37.48364
1136.788, 39.21460
1137.270, 40.09583
1137.752, 42.15125
1138.234, 44.94958
1138.716, 47.06702
1139.199, 48.98547
1139.681, 53.19641
1140.163, 59.42383
1140.645, 65.43628
1141.127, 70.49329
1141.609, 74.42542
1142.091, 76.95642
1142.573, 79.37756
1143.056, 83.43933
1143.538, 88.62268
1144.020, 93.95483
1144.502, 99.49365
1144.984, 105.9303
1145.466, 112.9343
1145.948, 117.9551
1146.430, 120.0760
1146.912, 123.8993
1147.395, 135.3478
1147.877, 148.4290
1148.359, 156.4541
1148.841, 161.8658
1149.323, 167.7306
1149.805, 174.2198
1150.287, 180.9413
1150.769, 187.7301
1151.251, 194.3008
1151.734, 199.8851
1152.216, 206.7455
1152.698, 217.7207
1153.180, 229.0684
1153.662, 237.0251
1154.144, 243.6222
1154.626, 251.7714
1155.108, 261.2438
1155.591, 269.8854
1156.073, 276.8888
1156.555, 285.1433
1157.037, 296.5131
1157.519, 308.0905
1158.001, 319.8885
1158.483, 330.3827
1158.965, 337.0385
1159.448, 342.4115
1159.930, 351.2032
1160.412, 363.7192
1160.894, 375.4393
1161.376, 385.9437
1161.858, 395.5385
1162.340, 401.2546
1162.822, 409.6248
1163.304, 425.0800
1163.786, 442.1178
1164.269, 455.6387
1164.751, 466.5870
1165.233, 478.5461
1165.715, 491.8877
1166.197, 504.2145
1166.679, 514.7688
1167.161, 526.4463
1167.643, 539.9036
1168.126, 554.5044
1168.608, 570.6775
1169.090, 586.7992
1169.572, 599.9312
1170.054, 610.3674
1170.536, 621.1792
1171.018, 632.6154
1171.500, 643.3101
1171.983, 653.0498
1172.465, 665.2793
1172.947, 681.3401
1173.429, 697.8174
1173.911, 711.7935
1174.393, 724.2592
1174.875, 737.7852
1175.357, 751.5977
1175.839, 762.8389
1176.322, 772.4773
1176.804, 784.2952
1177.286, 798.5210
1177.768, 812.3696
1178.250, 824.6383
1178.732, 834.6566
1179.214, 840.4258
1179.696, 845.6182
1180.178, 856.3391
1180.661, 869.3733
1181.143, 880.4077
1181.625, 889.1641
1182.107, 894.7871
1182.589, 898.0176
1183.071, 903.0664
1183.553, 912.3672
1184.035, 920.7524
1184.518, 923.1104
1185.000, 925.9890
1185.482, 935.1736
1185.964, 945.8564
1186.446, 953.1045
1186.928, 957.4026
1187.410, 960.7771
1187.892, 963.5203
1188.375, 966.0735
1188.857, 968.3672
1189.339, 970.6958
1189.821, 974.0635
1190.303, 976.4089
1190.785, 976.5452
1191.267, 975.3872
1191.749, 973.6270
1192.231, 971.5442
1192.714, 970.5923
1193.196, 971.9417
1193.678, 969.5640
1194.160, 960.9739
1194.642, 955.9023
1195.124, 957.9131
1195.606, 958.6687
1196.088, 952.8132
1196.570, 944.7830
1197.053, 941.1509
1197.535, 940.4658
1198.017, 935.0681
1198.499, 925.0706
1198.981, 915.6497
1199.463, 907.1438
1199.945, 899.2629
1200.427, 891.8845
1200.910, 883.8459
1201.392, 874.2891
1201.874, 864.2810
1202.356, 855.8306
1202.838, 847.7329
1203.320, 837.1116
1203.802, 824.9502
1204.284, 813.4670
1204.766, 802.6826
1205.249, 791.5415
1205.731, 780.1919
1206.213, 769.7517
1206.695, 759.6748
1207.177, 749.8943
1207.659, 741.3552
1208.141, 731.8264
1208.623, 717.5847
1209.105, 702.2197
1209.588, 691.2517
1210.070, 683.5891
1210.552, 674.2031
1211.034, 661.8044
1211.516, 650.1006
1211.998, 641.3635
1212.480, 631.3325
1212.962, 616.9736
1213.445, 603.4421
1213.927, 594.9109
1214.409, 587.6221
1214.891, 576.9717
1215.373, 563.6729
1215.855, 550.9578
1216.337, 538.6436
1216.819, 527.8884
1217.302, 519.1321
1217.784, 510.4539
1218.266, 502.0803
1218.748, 491.1794
1219.230, 475.2485
1219.712, 458.5488
1220.194, 446.3762
1220.676, 437.7993
1221.158, 430.8772
1221.641, 424.8494
1222.123, 415.3372
1222.605, 402.6118
1223.087, 388.4050
1223.569, 373.7593
1224.051, 361.8796
1224.533, 354.6216
1225.015, 349.6133
1225.497, 345.9939
1225.980, 341.7986
1226.462, 333.8870
1226.944, 324.6272
1227.426, 317.1914
1227.908, 310.9336
1228.390, 304.1042
1228.872, 296.3408
1229.354, 287.6128
1229.837, 277.3840
1230.319, 268.4465
1230.801, 263.0481
1231.283, 257.4497
1231.765, 248.5569
1232.247, 240.3425
1232.729, 237.3840
1233.211, 236.5867
1233.693, 232.5840
1234.176, 225.4321
1234.658, 215.5398
1235.140, 199.1030
1235.622, 193.0271
1236.104, 202.7439
1236.586, 205.1582
1237.068, 192.2454
1237.550, 176.3196
1238.032, 165.8965
1238.515, 159.0964
1238.997, 153.0989
1239.479, 147.8833
1239.961, 143.5107
1240.443, 139.9324
1240.925, 137.5654
1241.407, 135.8315
1241.889, 131.7656
1242.372, 124.9387
1242.854, 118.8816
1243.336, 116.0405
1243.818, 113.0781
1244.300, 105.6404
1244.782, 97.94409
1245.264, 94.24463
1245.746, 92.63062
1246.229, 92.15503
1246.711, 91.18506
1247.193, 86.21899
1247.675, 77.24976
1248.157, 70.29370
1248.639, 67.64429
1249.121, 65.42212
1249.603, 63.60864
1250.085, 61.16846
1250.568, 56.76709
1251.050, 52.83862
1251.532, 51.56372
1252.014, 51.21484
1252.496, 48.77539
1252.978, 44.51074
1253.460, 41.70142
1253.942, 40.49878
1254.424, 39.33521
1254.907, 38.13135
1255.389, 35.77905
1255.871, 31.96582
1256.353, 29.17993
1256.835, 29.16797
1257.317, 28.44287
1257.799, 21.29346
1258.281, 11.77759
1258.764, 6.623779
1259.246, 4.792725
1259.728, 5.704102
1260.210, 7.941162
1260.692, 8.959229
1261.174, 8.311279
1261.656, 7.173096
1262.138, 6.370605
1262.620, 2.983398
1263.103, 11.02979
1263.585, 18.93896
1264.067, 5.798584
1264.549, 8.012451
1265.031, 6.130859
1265.513, 2.384277
1265.995, 4.071289
1266.477, 0.2954100
1266.959, 1.384277
1267.442, 0.2946780
1267.924, 3.4912001E-02
1268.406, 0.4958500
1268.888, 1.618652
1269.370, 3.427490
1269.852, 4.541504
1270.334, 4.209229
1270.816, 2.746338
1271.299, 1.6602000E-02
1271.781, 2.287354
1272.263, 0.4829100
1272.745, 5.868164
1273.227, 7.493164
1273.709, 6.735596
1274.191, 8.094971
1274.673, 11.20435
1275.156, 5.106201
1275.638, 0.4340820
1276.120, 1.557129
1276.602, 2.268555
1277.084, 8.233154
1277.566, 14.94214
1278.048, 20.02051
1278.530, 20.92871
1279.012, 19.09766
1279.495, 14.63257
1279.977, 13.37622
1280.459, 11.29761
1280.941, 8.496094
1281.423, 4.102051
1281.905, 7.134766
1282.387, 10.58643
1282.869, 13.75000
1283.351, 13.06543
1283.834, 6.410645
1284.316, 0.9721680
1284.798, 0.8999020
1285.280, 2.456543
1285.762, 1.347656
1286.244, 0.0000000E+00
##END=



