##NAMES=Tychite
##RRUFFID=R050218
##IDEAL CHEMISTRY=Na_6_Mg_2_(CO_3_)_4_(SO_4_)
##LOCALITY=Searles Lake, Trona, San Bernardino County, California, USA
##OWNER=RRUFF
##SOURCE=Marcus Origlieri
##DESCRIPTION=Colorless octahedral crystals
##STATUS=The identification of this mineral is confirmed by single-crystal X-ray diffraction and chemical analysis.
##URL=rruff.info/R050218
##MEASURED CHEMISTRY=Na_6.00_Mg_2.00_(CO_3_)_4_(S_1.00_O_4_) ; C not measured but estimated by difference and stoichiometry
163.7068, 0.0000000E+00
164.1889, 0.5736080
164.6710, 2.696045
165.1531, 4.317688
165.6352, 5.246399
166.1174, 3.173950
166.5995, 0.8529660
167.0816, 0.3526000
167.5637, 0.4694210
168.0458, 0.4536740
168.5279, 0.2285160
169.0101, 2.4719000E-02
169.4922, 5.4749001E-02
169.9743, 9.0271004E-02
170.4564, 4.9377002E-02
170.9385, 0.8951420
171.4206, 2.431274
171.9028, 4.025940
172.3849, 6.055420
172.8670, 7.898315
173.3491, 8.642944
173.8312, 8.068237
174.3133, 7.655518
174.7955, 9.040588
175.2776, 11.57526
175.7597, 13.87122
176.2418, 15.83179
176.7239, 17.21466
177.2060, 17.30231
177.6882, 15.46820
178.1703, 13.55231
178.6524, 12.66608
179.1345, 12.54626
179.6166, 12.74396
180.0987, 13.45276
180.5809, 14.41876
181.0630, 13.98077
181.5451, 10.47906
182.0272, 7.548950
182.5093, 6.632690
182.9914, 7.436096
183.4736, 9.237244
183.9557, 11.74194
184.4378, 14.99097
184.9199, 17.63416
185.4020, 18.68597
185.8841, 19.97131
186.3663, 22.25958
186.8484, 25.34625
187.3305, 28.41040
187.8126, 30.50073
188.2947, 31.11743
188.7768, 33.86615
189.2590, 40.63092
189.7411, 47.54797
190.2232, 52.71185
190.7053, 56.20477
191.1874, 59.46429
191.6695, 64.05164
192.1517, 70.51251
192.6338, 76.09998
193.1159, 79.95117
193.5980, 83.69189
194.0801, 88.22882
194.5622, 93.68958
195.0444, 99.85651
195.5265, 106.4910
196.0086, 113.6951
196.4907, 121.1898
196.9728, 128.9621
197.4549, 137.0540
197.9371, 145.5545
198.4192, 154.4799
198.9013, 163.6765
199.3834, 172.8188
199.8655, 181.9457
200.3476, 191.9465
200.8298, 203.4561
201.3119, 215.8142
201.7940, 228.0696
202.2761, 240.0616
202.7582, 252.1013
203.2403, 264.3491
203.7225, 276.8189
204.2046, 289.4599
204.6867, 302.8422
205.1688, 316.4219
205.6509, 329.0518
206.1330, 340.5748
206.6152, 351.2138
207.0973, 361.6758
207.5794, 371.7603
208.0615, 380.1948
208.5436, 387.1439
209.0257, 392.1498
209.5079, 392.7563
209.9900, 387.1543
210.4721, 378.8740
210.9542, 369.8351
211.4363, 360.1266
211.9184, 349.8415
212.4006, 338.7408
212.8827, 326.8932
213.3648, 315.7717
213.8469, 305.0455
214.3290, 295.6256
214.8111, 287.6129
215.2933, 281.0903
215.7754, 276.2056
216.2575, 273.2457
216.7396, 272.2913
217.2217, 272.0352
217.7038, 273.0806
218.1859, 274.1599
218.6681, 275.0888
219.1502, 275.7427
219.6323, 276.2207
220.1144, 276.6747
220.5965, 277.1830
221.0786, 276.8083
221.5608, 275.4604
222.0429, 273.1568
222.5250, 269.3569
223.0071, 264.4209
223.4892, 259.3408
223.9713, 255.0256
224.4535, 251.6089
224.9356, 247.3291
225.4177, 241.3865
225.8998, 235.5595
226.3819, 230.4742
226.8640, 226.1624
227.3462, 222.4755
227.8283, 219.2964
228.3104, 216.6396
228.7925, 214.5920
229.2746, 213.1022
229.7567, 212.1250
230.2389, 211.8908
230.7210, 212.2503
231.2031, 212.6708
231.6852, 212.7451
232.1673, 212.4598
232.6494, 212.1204
233.1316, 212.2759
233.6137, 211.9327
234.0958, 209.6431
234.5779, 205.8495
235.0600, 203.2737
235.5421, 204.1950
236.0243, 208.3497
236.5064, 211.5831
236.9885, 212.6078
237.4706, 213.7547
237.9527, 216.5075
238.4348, 220.8474
238.9170, 226.0598
239.3991, 231.7049
239.8812, 238.0218
240.3633, 245.3243
240.8454, 254.3406
241.3275, 263.7866
241.8097, 272.4626
242.2918, 280.4410
242.7739, 288.9482
243.2560, 299.0666
243.7381, 310.0831
244.2202, 320.5574
244.7024, 330.4013
245.1845, 339.5978
245.6666, 348.7809
246.1487, 357.9756
246.6308, 364.8679
247.1129, 368.6311
247.5951, 369.0488
248.0772, 365.8240
248.5593, 358.5444
249.0414, 348.5132
249.5235, 336.6591
250.0056, 322.9225
250.4878, 308.1487
250.9699, 292.0511
251.4520, 275.3506
251.9341, 258.4283
252.4162, 241.1021
252.8983, 224.8849
253.3805, 211.8726
253.8626, 202.3466
254.3447, 193.1016
254.8268, 183.3468
255.3089, 173.6393
255.7910, 164.2411
256.2732, 155.2245
256.7553, 146.8810
257.2374, 140.0432
257.7195, 135.1212
258.2016, 128.8783
258.6837, 119.3644
259.1659, 109.3690
259.6480, 100.4677
260.1301, 92.72137
260.6122, 84.84149
261.0943, 74.94238
261.5764, 62.49402
262.0586, 51.93030
262.5407, 44.74835
263.0228, 38.59491
263.5049, 32.60614
263.9870, 26.78601
264.4691, 21.63959
264.9513, 17.70209
265.4334, 15.13232
265.9155, 12.56189
266.3976, 9.774231
266.8797, 7.253296
267.3618, 5.199402
267.8440, 3.576965
268.3261, 2.237427
268.8082, 1.050415
269.2903, 4.1076999E-02
269.7724, 0.9035640
270.2545, 2.182190
270.7367, 2.980652
271.2188, 2.726624
271.7009, 1.817322
272.1830, 1.098389
272.6651, 1.239502
273.1472, 2.157654
273.6294, 2.394775
274.1115, 1.372375
274.5936, 0.2269290
275.0757, 0.8009640
275.5578, 1.775757
276.0399, 2.908203
276.5221, 4.361572
277.0042, 6.038025
277.4863, 7.259827
277.9684, 7.341980
278.4505, 7.515259
278.9326, 7.717773
279.4148, 8.161621
279.8969, 9.165466
280.3790, 10.96747
280.8611, 13.26495
281.3432, 15.17487
281.8253, 16.04865
282.3075, 17.62567
282.7896, 20.84119
283.2717, 24.47845
283.7538, 27.04736
284.2359, 28.02295
284.7180, 28.22913
285.2002, 29.33502
285.6823, 32.41895
286.1644, 34.86688
286.6465, 35.78784
287.1286, 36.51910
287.6107, 38.47412
288.0929, 41.98328
288.5750, 46.02911
289.0571, 49.03754
289.5392, 50.04169
290.0213, 52.20575
290.5034, 57.08447
290.9856, 61.90436
291.4677, 63.96484
291.9498, 63.26837
292.4319, 62.51398
292.9140, 64.93219
293.3961, 71.65765
293.8783, 76.70032
294.3604, 79.47418
294.8425, 81.31476
295.3246, 82.41193
295.8067, 83.10028
296.2888, 84.27911
296.7710, 86.82538
297.2531, 90.81866
297.7352, 94.23425
298.2173, 96.99603
298.6994, 99.31726
299.1815, 101.2603
299.6637, 102.8574
300.1458, 104.2988
300.6279, 105.8551
301.1100, 107.3150
301.5921, 106.7244
302.0742, 102.6373
302.5564, 98.45447
303.0385, 95.63391
303.5206, 93.37653
304.0027, 90.03925
304.4848, 84.75659
304.9669, 78.09814
305.4491, 71.80841
305.9312, 66.22876
306.4133, 60.56580
306.8954, 54.36157
307.3775, 48.13635
307.8596, 42.56976
308.3418, 37.90631
308.8239, 33.86060
309.3060, 30.01178
309.7881, 26.15540
310.2702, 22.82800
310.7523, 20.20337
311.2345, 18.09894
311.7166, 16.48840
312.1987, 15.33472
312.6808, 14.35669
313.1629, 13.28857
313.6451, 12.19574
314.1272, 10.56384
314.6093, 7.631287
315.0914, 4.781128
315.5735, 2.898621
316.0556, 2.020447
316.5378, 1.710144
317.0199, 1.615540
317.5020, 1.754944
317.9841, 2.395447
318.4662, 4.664001
318.9483, 6.253662
319.4305, 5.772339
319.9126, 3.723938
320.3947, 1.470886
320.8768, 0.2656250
321.3589, 1.462952
321.8410, 1.931885
322.3232, 0.9305420
322.8053, 0.2095950
323.2874, 0.2896120
323.7695, 0.8842160
324.2516, 1.656250
324.7337, 2.489197
325.2159, 3.196960
325.6980, 3.305603
326.1801, 2.290588
326.6622, 1.592529
327.1443, 1.591675
327.6264, 1.824646
328.1086, 1.779419
328.5907, 1.337036
329.0728, 0.8002320
329.5549, 0.5733030
330.0370, 0.7810060
330.5191, 0.9888920
331.0013, 1.328186
331.4834, 1.581238
331.9655, 1.530579
332.4476, 1.204224
332.9297, 0.7945560
333.4118, 0.4169310
333.8940, 6.6405997E-02
334.3761, 0.1226810
334.8582, 1.319641
335.3403, 2.101440
335.8224, 1.261963
336.3045, 0.5035400
336.7867, 1.403381
337.2688, 0.2437130
337.7509, 2.348206
338.2330, 3.329590
338.7151, 0.7301640
339.1972, 1.013367
339.6793, 0.4318240
340.1614, 1.086487
340.6436, 1.587830
341.1257, 0.3534550
341.6078, 1.592957
342.0899, 2.254150
342.5720, 0.4095460
343.0541, 0.6729130
343.5363, 0.7125850
344.0184, 0.2205810
344.5005, 0.6447140
344.9826, 1.734802
345.4647, 2.625793
345.9468, 2.805054
346.4290, 2.081421
346.9111, 1.524902
347.3932, 0.8869630
347.8753, 0.6004030
348.3574, 1.051270
348.8395, 2.046631
349.3217, 3.105530
349.8038, 3.899048
350.2859, 4.426575
350.7680, 4.671204
351.2501, 4.322021
351.7322, 4.027405
352.2144, 3.973755
352.6965, 4.016052
353.1786, 3.956360
353.6607, 3.705566
354.1428, 3.323425
354.6249, 2.908142
355.1071, 2.100830
355.5892, 1.905823
356.0713, 2.902649
356.5534, 4.111877
357.0355, 4.891724
357.5176, 5.071411
357.9998, 4.716675
358.4819, 3.727112
358.9640, 1.694458
359.4461, 0.7666630
359.9282, 2.085205
360.4103, 3.375549
360.8925, 3.396362
361.3746, 2.537415
361.8567, 2.025513
362.3388, 2.830383
362.8209, 4.788818
363.3030, 6.423096
363.7852, 7.771240
364.2673, 8.669495
364.7494, 9.301941
365.2315, 9.413330
365.7136, 8.317139
366.1957, 5.644287
366.6779, 2.639893
367.1600, 2.161194
367.6421, 5.575256
368.1242, 8.074341
368.6063, 8.588623
369.0884, 8.289001
369.5706, 7.709595
370.0527, 7.026306
370.5348, 6.461670
371.0169, 6.357605
371.4990, 6.770569
371.9811, 6.843750
372.4633, 6.126831
372.9454, 5.525146
373.4275, 5.551636
373.9096, 6.014099
374.3917, 6.391968
374.8738, 6.242493
375.3560, 5.848083
375.8381, 6.170410
376.3202, 7.551147
376.8023, 8.860535
377.2844, 9.884644
377.7665, 10.50928
378.2487, 10.45203
378.7308, 9.491760
379.2129, 8.254822
379.6950, 7.595886
380.1771, 7.627747
380.6592, 7.618652
381.1414, 7.244507
381.6235, 6.798767
382.1056, 6.454651
382.5877, 6.223694
383.0698, 6.250793
383.5519, 6.984741
384.0341, 8.166199
384.5162, 8.714233
384.9983, 8.365417
385.4804, 7.658081
385.9625, 6.757263
386.4446, 5.850037
386.9268, 5.348633
387.4089, 5.415710
387.8910, 5.830811
388.3731, 6.782776
388.8552, 8.215515
389.3373, 8.603760
389.8195, 6.512451
390.3016, 3.492493
390.7837, 2.656128
391.2658, 4.757690
391.7479, 6.768066
392.2300, 7.022827
392.7122, 6.049072
393.1943, 5.122498
393.6764, 4.633667
394.1585, 4.445984
394.6406, 4.278503
395.1227, 4.037537
395.6049, 3.679077
396.0870, 3.156311
396.5691, 2.952759
397.0512, 3.134644
397.5333, 3.617859
398.0154, 4.612000
398.4976, 6.654663
398.9797, 9.476868
399.4618, 10.80603
399.9439, 9.653320
400.4260, 8.199097
400.9081, 6.647766
401.3903, 5.405945
401.8724, 5.333130
402.3545, 6.768799
402.8366, 8.658630
403.3187, 9.144653
403.8008, 7.153320
404.2830, 6.026184
404.7651, 6.627686
405.2472, 7.388489
405.7293, 7.243469
406.2114, 6.207642
406.6935, 4.824097
407.1757, 3.435242
407.6578, 2.050049
408.1399, 1.357422
408.6220, 2.118591
409.1041, 2.704529
409.5862, 2.607056
410.0684, 2.187805
410.5505, 1.969971
411.0326, 2.177246
411.5147, 2.575378
411.9968, 2.689209
412.4789, 2.357483
412.9611, 2.070251
413.4432, 1.998840
413.9253, 1.907471
414.4074, 1.538330
414.8895, 0.9340210
415.3716, 0.3959960
415.8538, 0.1601560
416.3359, 0.2157590
416.8180, 0.5150150
417.3001, 1.348389
417.7822, 2.132141
418.2643, 2.644409
418.7465, 2.926453
419.2286, 3.024536
419.7107, 2.940308
420.1928, 2.835693
420.6749, 2.975586
421.1570, 3.400085
421.6392, 3.586060
422.1213, 3.056702
422.6034, 2.544250
423.0855, 2.629944
423.5676, 3.312317
424.0497, 4.197205
424.5319, 5.411255
425.0140, 6.617615
425.4961, 6.620239
425.9782, 4.903931
426.4603, 3.255066
426.9424, 3.114014
427.4246, 3.927856
427.9067, 4.657166
428.3888, 5.104797
428.8709, 5.436340
429.3530, 5.749756
429.8351, 6.046387
430.3173, 6.300659
430.7994, 6.427490
431.2815, 6.636292
431.7636, 7.488770
432.2457, 9.146057
432.7278, 10.21820
433.2100, 10.05035
433.6921, 9.341980
434.1742, 8.620178
434.6563, 8.005127
435.1384, 7.870728
435.6205, 8.664246
436.1027, 10.29572
436.5848, 11.19397
437.0669, 10.95374
437.5490, 10.59241
438.0311, 10.35571
438.5132, 10.22571
438.9954, 10.05457
439.4775, 9.793823
439.9596, 9.750732
440.4417, 10.52216
440.9238, 12.68097
441.4059, 14.33063
441.8881, 14.75519
442.3702, 15.36237
442.8523, 17.29382
443.3344, 20.19025
443.8165, 22.78558
444.2986, 24.08282
444.7808, 24.30444
445.2629, 24.83044
445.7450, 25.85382
446.2271, 26.90155
446.7092, 27.91327
447.1913, 28.88428
447.6735, 29.71204
448.1556, 30.39075
448.6377, 31.23779
449.1198, 32.94049
449.6019, 35.59705
450.0840, 37.18585
450.5662, 36.57495
451.0483, 36.06305
451.5304, 36.96521
452.0125, 38.92596
452.4946, 41.05878
452.9767, 43.02264
453.4589, 44.91357
453.9410, 46.86212
454.4231, 48.85730
454.9052, 50.94525
455.3873, 52.92383
455.8694, 55.21545
456.3516, 58.37482
456.8337, 62.49438
457.3158, 66.87744
457.7979, 71.08954
458.2800, 75.26306
458.7621, 79.92175
459.2443, 85.15527
459.7264, 90.41687
460.2085, 95.54407
460.6906, 100.3216
461.1727, 103.6342
461.6548, 104.9918
462.1370, 105.3911
462.6191, 105.7005
463.1012, 105.3099
463.5833, 102.7775
464.0654, 97.49481
464.5475, 90.68420
465.0297, 84.31842
465.5118, 78.38220
465.9939, 73.00153
466.4760, 68.87231
466.9581, 64.65637
467.4402, 59.16638
467.9224, 52.83228
468.4045, 47.20483
468.8866, 43.37677
469.3687, 40.90009
469.8508, 37.57141
470.3329, 32.14923
470.8151, 27.96399
471.2972, 25.79004
471.7793, 24.63831
472.2614, 23.99365
472.7435, 23.62219
473.2256, 23.06348
473.7078, 21.64325
474.1899, 19.33344
474.6720, 17.17950
475.1541, 14.75092
475.6362, 13.28741
476.1183, 14.13501
476.6005, 16.01105
477.0826, 16.86731
477.5647, 15.72614
478.0468, 14.04645
478.5289, 13.48877
479.0110, 13.94574
479.4932, 14.21191
479.9753, 14.03479
480.4574, 13.39380
480.9395, 11.89673
481.4216, 9.657715
481.9037, 8.306030
482.3859, 8.967041
482.8680, 10.22455
483.3501, 10.72845
483.8322, 10.52148
484.3143, 10.33472
484.7964, 10.61383
485.2786, 11.13226
485.7607, 11.17517
486.2428, 10.58044
486.7249, 10.04651
487.2070, 9.665222
487.6891, 9.198303
488.1713, 8.235535
488.6534, 6.847107
489.1355, 5.713623
489.6176, 5.478516
490.0997, 6.135254
490.5818, 6.858887
491.0640, 8.112671
491.5461, 8.869324
492.0282, 8.465637
492.5103, 7.698486
492.9924, 7.605469
493.4745, 8.452454
493.9567, 9.424194
494.4388, 9.280151
494.9209, 7.892029
495.4030, 6.840027
495.8851, 6.455444
496.3672, 6.093811
496.8494, 5.283142
497.3315, 4.290222
497.8136, 3.650208
498.2957, 3.643860
498.7778, 3.902710
499.2599, 4.061218
499.7421, 4.128662
500.2242, 4.331238
500.7063, 4.940247
501.1884, 5.468018
501.6705, 4.836487
502.1526, 3.074768
502.6348, 2.158691
503.1169, 3.303223
503.5990, 5.062195
504.0811, 6.290039
504.5632, 6.892395
505.0453, 6.819336
505.5274, 5.951721
506.0096, 4.538635
506.4917, 3.299011
506.9738, 1.843079
507.4559, 1.206177
507.9380, 2.198730
508.4201, 3.508789
508.9023, 4.052673
509.3844, 3.773376
509.8665, 3.211121
510.3486, 2.767151
510.8307, 2.448975
511.3128, 2.331177
511.7950, 2.435364
512.2771, 2.738708
512.7592, 3.958618
513.2413, 4.933533
513.7234, 4.156372
514.2056, 1.510437
514.6877, 1.070313
515.1698, 1.493530
515.6519, 1.6785000E-02
516.1340, 1.055603
516.6161, 1.588196
517.0983, 1.869324
517.5804, 2.010132
518.0625, 2.020447
518.5446, 1.844299
519.0267, 1.340454
519.5089, 0.9703980
519.9910, 1.351624
520.4731, 2.128845
520.9552, 2.225647
521.4373, 1.319153
521.9194, 0.1975710
522.4016, 0.4422610
522.8837, 0.5574950
523.3658, 0.3211060
523.8479, 0.9316410
524.3300, 1.832092
524.8121, 1.535339
525.2943, 0.5072020
525.7764, 0.6350100
526.2585, 1.633972
526.7406, 2.090942
527.2227, 1.211121
527.7048, 1.658936
528.1870, 3.513245
528.6691, 4.199341
529.1512, 4.081238
529.6333, 2.625916
530.1154, 0.5741580
530.5975, 0.8717040
531.0797, 1.146667
531.5618, 0.5832520
532.0439, 0.6074830
532.5260, 2.639282
533.0081, 3.507446
533.4902, 2.063416
533.9724, 0.2858280
534.4545, 0.3342900
534.9366, 5.2855998E-02
535.4187, 0.1286620
535.9008, 0.3997800
536.3829, 1.030090
536.8651, 1.059326
537.3472, 0.5510860
537.8293, 0.1528320
538.3114, 1.037292
538.7935, 1.816528
539.2756, 1.897888
539.7578, 1.052246
540.2399, 0.7207030
540.7220, 1.543762
541.2041, 2.480469
541.6862, 3.038147
542.1683, 3.111694
542.6505, 2.412476
543.1326, 0.7227780
543.6147, 1.316895
544.0968, 2.074341
544.5789, 0.7533570
545.0610, 0.2514040
545.5432, 0.9563600
546.0253, 1.304382
546.5074, 0.9935300
546.9895, 0.2857060
547.4716, 0.1863400
547.9537, 3.1067001E-02
548.4359, 0.5819090
548.9180, 1.523315
549.4001, 2.961487
549.8822, 3.515747
550.3643, 2.200867
550.8464, 0.4264530
551.3286, 0.3952640
551.8107, 0.3240360
552.2928, 0.1687620
552.7749, 0.2626950
553.2570, 0.3972170
553.7391, 0.3057250
554.2213, 2.4840999E-02
554.7034, 0.1301880
555.1855, 7.0679002E-02
555.6676, 0.2622070
556.1497, 0.4081420
556.6318, 2.881897
557.1140, 3.949646
557.5961, 2.358215
558.0782, 0.3933110
558.5603, 0.6370850
559.0424, 0.7664790
559.5245, 0.4024660
560.0067, 0.2567750
560.4888, 1.040405
560.9709, 1.444031
561.4530, 1.179626
561.9351, 1.352478
562.4172, 2.820313
562.8994, 4.131165
563.3815, 4.427979
563.8636, 3.900391
564.3457, 3.257141
564.8278, 2.801025
565.3099, 2.479736
565.7921, 2.246155
566.2742, 2.097473
566.7563, 1.897400
567.2384, 1.443115
567.7205, 1.178406
568.2026, 1.914368
568.6848, 3.628601
569.1669, 4.971436
569.6490, 5.834290
570.1311, 6.176025
570.6132, 5.575317
571.0953, 4.447815
571.5775, 3.869263
572.0596, 4.317871
572.5417, 5.080750
573.0238, 4.926941
573.5059, 3.491943
573.9880, 2.510864
574.4702, 2.080811
574.9523, 1.977173
575.4344, 2.279846
575.9165, 2.813965
576.3986, 3.235107
576.8807, 3.358337
577.3629, 3.608643
577.8450, 4.992432
578.3271, 7.483643
578.8092, 8.463379
579.2913, 6.624573
579.7734, 4.855530
580.2556, 6.159912
580.7377, 9.271790
581.2198, 10.98145
581.7019, 9.523254
582.1840, 8.041199
582.6661, 8.973267
583.1483, 11.18750
583.6304, 12.16681
584.1125, 11.26825
584.5946, 10.25903
585.0767, 11.06964
585.5588, 13.76807
586.0409, 16.34375
586.5230, 19.97717
587.0051, 22.09827
587.4872, 21.13306
587.9694, 18.90704
588.4515, 17.24701
588.9336, 16.62079
589.4157, 16.50354
589.8978, 16.30273
590.3799, 16.04053
590.8621, 16.18030
591.3442, 16.86273
591.8263, 17.60114
592.3084, 18.18359
592.7905, 18.71057
593.2726, 19.32037
593.7548, 20.04718
594.2369, 20.44397
594.7190, 19.94702
595.2011, 19.24744
595.6832, 19.45575
596.1653, 20.50897
596.6475, 21.31354
597.1296, 21.13635
597.6117, 20.39124
598.0938, 20.25085
598.5759, 20.94830
599.0580, 21.94849
599.5402, 23.75970
600.0223, 25.43695
600.5044, 26.26550
600.9865, 26.41913
601.4686, 26.39368
601.9507, 26.54150
602.4329, 26.93964
602.9150, 27.31818
603.3971, 27.52936
603.8792, 28.57544
604.3613, 31.28870
604.8434, 34.01624
605.3256, 35.43518
605.8077, 35.93481
606.2898, 36.54352
606.7719, 37.58722
607.2540, 38.78448
607.7361, 39.95190
608.2183, 41.09906
608.7004, 42.16809
609.1825, 43.18524
609.6646, 44.43878
610.1467, 46.12604
610.6288, 48.16113
611.1110, 50.69421
611.5931, 54.48425
612.0752, 58.00964
612.5573, 60.85718
613.0394, 63.25720
613.5215, 65.22375
614.0037, 66.95428
614.4858, 69.10535
614.9679, 72.59015
615.4500, 77.09851
615.9321, 80.87860
616.4142, 83.83197
616.8964, 86.20203
617.3785, 87.45563
617.8606, 88.66962
618.3427, 91.12128
618.8248, 94.90942
619.3069, 98.95526
619.7891, 102.4957
620.2712, 106.3852
620.7533, 111.8572
621.2354, 118.6280
621.7175, 124.9204
622.1996, 129.9109
622.6818, 134.7917
623.1639, 141.8305
623.6460, 151.8961
624.1281, 161.6649
624.6102, 169.5223
625.0923, 178.8608
625.5745, 191.6483
626.0566, 206.6112
626.5387, 221.9647
627.0208, 237.0838
627.5029, 251.8359
627.9850, 267.3115
628.4672, 282.7798
628.9493, 293.6199
629.4314, 299.6818
629.9135, 300.3922
630.3956, 295.1994
630.8777, 284.0109
631.3599, 267.9037
631.8420, 245.5767
632.3241, 221.2888
632.8062, 194.4722
633.2883, 167.6394
633.7704, 142.7097
634.2526, 120.1666
634.7347, 100.4603
635.2168, 83.79767
635.6989, 70.07037
636.1810, 59.08496
636.6631, 51.79828
637.1453, 44.95203
637.6274, 37.90228
638.1095, 31.59363
638.5916, 26.44006
639.0737, 22.39044
639.5558, 19.22562
640.0380, 16.92749
640.5201, 15.34863
641.0022, 14.54160
641.4843, 14.33875
641.9664, 14.37961
642.4485, 14.69949
642.9307, 14.24066
643.4128, 11.71707
643.8949, 7.508087
644.3770, 5.108429
644.8591, 5.454163
645.3412, 6.084747
645.8234, 7.306152
646.3055, 8.173035
646.7876, 7.450714
647.2697, 5.436035
647.7518, 3.672729
648.2339, 3.326172
648.7161, 3.850189
649.1982, 3.766876
649.6803, 2.957367
650.1624, 2.316376
650.6445, 2.142456
651.1266, 2.053558
651.6088, 1.614777
652.0909, 0.9522710
652.5730, 0.6001890
653.0551, 0.9772030
653.5372, 1.357300
654.0193, 1.223022
654.5015, 0.8240970
654.9836, 0.5621640
655.4657, 0.5327150
655.9478, 0.6753540
656.4299, 0.9581300
656.9120, 1.361938
657.3942, 1.702637
657.8763, 2.117157
658.3584, 2.225952
658.8405, 1.849213
659.3226, 1.285797
659.8047, 0.6755070
660.2869, 7.0525996E-02
660.7690, 0.4372860
661.2511, 0.8981020
661.7332, 1.131012
662.2153, 0.7143860
662.6974, 0.2149350
663.1796, 0.8336490
663.6617, 0.8608090
664.1438, 0.8220520
664.6259, 1.436951
665.1080, 2.718079
665.5901, 2.801971
666.0723, 0.5807500
666.5544, 1.295410
667.0365, 2.411194
667.5186, 2.751099
668.0007, 2.052124
668.4828, 0.4830930
668.9650, 1.228302
669.4471, 2.647095
669.9292, 3.674255
670.4113, 3.808258
670.8934, 2.899445
671.3755, 2.455414
671.8577, 3.149658
672.3398, 4.076202
672.8219, 4.261047
673.3040, 3.833008
673.7861, 3.446808
674.2682, 3.460754
674.7504, 3.247498
675.2325, 1.871246
675.7146, 0.3373720
676.1967, 0.5969850
676.6788, 2.721191
677.1609, 4.409821
677.6431, 3.373352
678.1252, 0.2889400
678.6073, 0.8617250
679.0894, 0.8679200
679.5715, 2.220306
680.0536, 2.423218
680.5358, 2.106110
681.0179, 1.308838
681.5000, 0.2752380
681.9821, 7.9773001E-02
682.4642, 1.186066
682.9464, 2.520721
683.4285, 2.258850
683.9106, 1.169769
684.3927, 1.115692
684.8748, 2.482361
685.3569, 4.174744
685.8391, 5.257355
686.3212, 5.771393
686.8033, 6.029053
687.2854, 5.838898
687.7675, 5.685974
688.2496, 5.480591
688.7318, 5.438202
689.2139, 6.001526
689.6960, 6.888031
690.1781, 7.129242
690.6602, 5.921204
691.1423, 4.531158
691.6245, 4.662262
692.1066, 5.933563
692.5887, 6.941315
693.0708, 7.432281
693.5529, 7.455750
694.0350, 6.938934
694.5172, 6.004883
694.9993, 5.384857
695.4814, 4.902527
695.9635, 4.998657
696.4456, 6.215179
696.9277, 7.584808
697.4099, 8.282501
697.8920, 8.535980
698.3741, 9.054108
698.8562, 10.12881
699.3383, 11.89700
699.8204, 15.05872
700.3026, 19.31931
700.7847, 22.36081
701.2668, 23.68924
701.7489, 24.55371
702.2310, 25.72083
702.7131, 27.10535
703.1953, 28.42892
703.6774, 29.75262
704.1595, 30.90591
704.6416, 31.64093
705.1237, 32.39542
705.6058, 33.27802
706.0880, 34.45905
706.5701, 36.38437
707.0522, 39.30640
707.5343, 42.42612
708.0164, 44.38181
708.4985, 45.31693
708.9807, 47.56735
709.4628, 51.67471
709.9449, 55.75455
710.4270, 58.49860
710.9091, 60.69315
711.3912, 63.93878
711.8734, 68.33466
712.3555, 73.35031
712.8376, 78.90182
713.3197, 85.06528
713.8018, 92.12128
714.2839, 99.77856
714.7661, 107.6563
715.2482, 115.5609
715.7303, 123.1277
716.2124, 130.4646
716.6945, 137.4644
717.1766, 142.5142
717.6588, 145.5795
718.1409, 146.7819
718.6230, 146.4005
719.1051, 143.8343
719.5872, 138.3135
720.0693, 129.8582
720.5515, 120.0067
721.0336, 107.8963
721.5157, 95.54120
721.9978, 83.52927
722.4799, 72.35187
722.9620, 62.82733
723.4442, 55.05865
723.9263, 48.32092
724.4084, 41.75964
724.8905, 35.50464
725.3726, 30.05240
725.8547, 25.40778
726.3369, 22.06494
726.8190, 20.53052
727.3011, 19.74533
727.7832, 19.03879
728.2653, 18.31705
728.7474, 17.10867
729.2296, 14.83698
729.7117, 12.64658
730.1938, 11.06601
730.6759, 9.846039
731.1580, 8.681946
731.6401, 7.594269
732.1223, 6.663940
732.6044, 5.951019
733.0865, 5.493439
733.5686, 5.534729
734.0507, 6.217010
734.5328, 6.508026
735.0150, 6.196014
735.4971, 5.615387
735.9792, 4.581909
736.4613, 3.463135
736.9434, 3.371918
737.4255, 4.920593
737.9077, 5.888977
738.3898, 4.799133
738.8719, 3.397278
739.3540, 3.472168
739.8361, 4.582855
740.3182, 5.274811
740.8004, 4.885010
741.2825, 3.816040
741.7646, 2.268799
742.2467, 0.2308350
742.7288, 8.1329003E-02
743.2109, 2.025452
743.6931, 3.952942
744.1752, 4.539124
744.6573, 4.276794
745.1394, 4.070862
745.6215, 3.949860
746.1036, 3.483490
746.5858, 1.814026
747.0679, 0.6022030
747.5500, 1.338684
748.0321, 2.908356
748.5142, 3.624115
748.9963, 3.140930
749.4785, 2.194153
749.9606, 1.258942
750.4427, 0.5135190
750.9248, 0.8444820
751.4069, 2.453400
751.8890, 3.190308
752.3712, 2.118622
752.8533, 0.8413700
753.3354, 0.8643190
753.8175, 1.964935
754.2996, 2.752319
754.7817, 3.351196
755.2639, 3.428864
755.7460, 2.403229
756.2281, 1.224609
756.7102, 0.7343440
757.1923, 0.8332820
757.6744, 0.9723210
758.1566, 0.8693850
758.6387, 0.7403260
759.1208, 0.9174800
759.6029, 1.357849
760.0850, 1.788361
760.5671, 2.233704
761.0493, 2.348022
761.5314, 1.779999
762.0135, 0.9512020
762.4956, 0.7680360
762.9777, 1.574280
763.4598, 1.776611
763.9420, 0.4794620
764.4241, 0.4531560
764.9062, 0.2171630
765.3883, 1.476929
765.8704, 1.963531
766.3525, 1.467285
766.8347, 0.8367920
767.3168, 0.7799680
767.7989, 0.9822390
768.2810, 0.7836910
768.7631, 0.2485350
769.2452, 7.2479002E-02
769.7274, 6.6829999E-03
770.2095, 5.3557999E-02
770.6916, 0.3031310
771.1737, 1.002869
771.6558, 1.412079
772.1379, 1.718689
772.6201, 1.433594
773.1022, 0.3430790
773.5843, 1.878387
774.0664, 1.821777
774.5485, 0.7447200
775.0306, 6.1951000E-02
775.5128, 0.3168640
775.9949, 0.7644650
776.4770, 0.8582150
776.9591, 0.7145690
777.4412, 0.3269350
777.9233, 0.1811830
778.4055, 4.0863000E-02
778.8876, 1.152496
779.3697, 2.710846
779.8518, 3.580231
780.3339, 3.713379
780.8160, 3.489838
781.2982, 2.382568
781.7803, 1.786011
782.2624, 2.908569
782.7445, 4.173187
783.2266, 3.804047
783.7087, 1.982208
784.1909, 0.5011600
784.6730, 2.4567001E-02
785.1551, 3.6619999E-03
785.6372, 0.1888430
786.1193, 0.5535890
786.6014, 1.319366
787.0836, 2.325500
787.5657, 2.689728
788.0478, 1.722321
788.5299, 7.5653002E-02
789.0120, 0.7666320
789.4941, 0.7543640
789.9763, 0.5413820
790.4584, 0.2090760
790.9405, 0.4204710
791.4226, 1.921082
791.9047, 3.548492
792.3868, 3.592194
792.8690, 1.534637
793.3511, 0.1235960
793.8332, 4.7791000E-02
794.3153, 0.3157960
794.7974, 1.181732
795.2795, 2.178558
795.7617, 2.785828
796.2438, 2.922394
796.7259, 2.965912
797.2080, 3.265564
797.6901, 3.637817
798.1722, 3.676361
798.6544, 3.413849
799.1365, 3.198669
799.6186, 3.150696
800.1007, 2.766541
800.5828, 1.357056
801.0649, 0.6234740
801.5471, 0.8860170
802.0292, 2.499207
802.5113, 4.309723
802.9934, 3.293182
803.4755, 1.985748
803.9576, 1.550232
804.4398, 1.677490
804.9219, 1.739685
805.4040, 1.570618
805.8861, 1.576050
806.3682, 2.378265
806.8503, 3.247772
807.3325, 3.091309
807.8146, 2.267212
808.2967, 1.835419
808.7788, 2.115814
809.2609, 2.622864
809.7430, 2.871460
810.2252, 2.895172
810.7073, 2.862701
811.1894, 2.725342
811.6715, 2.784241
812.1536, 3.435120
812.6357, 3.821777
813.1179, 2.792542
813.6000, 0.9720460
814.0821, 0.3471070
814.5642, 1.908173
815.0463, 2.830231
815.5284, 1.552246
816.0106, 0.2461240
816.4927, 0.8557740
816.9748, 2.519501
817.4569, 3.310638
817.9390, 2.629486
818.4211, 1.671295
818.9033, 1.630096
819.3854, 2.154175
819.8675, 2.477386
820.3496, 2.588470
820.8317, 2.339172
821.3138, 1.620575
821.7960, 0.9868470
822.2781, 0.9980160
822.7602, 1.625366
823.2423, 2.097015
823.7244, 2.365173
824.2065, 2.555695
824.6887, 2.667877
825.1708, 2.717712
825.6529, 2.573792
826.1350, 2.412292
826.6171, 2.644165
827.0992, 3.469147
827.5814, 4.091217
828.0635, 3.774963
828.5456, 3.351776
829.0277, 3.750580
829.5098, 4.659821
829.9919, 5.347107
830.4741, 5.595581
830.9562, 5.568481
831.4383, 5.007507
831.9204, 3.907196
832.4025, 2.734100
832.8846, 1.442810
833.3668, 1.191223
833.8489, 2.584564
834.3310, 3.886871
834.8131, 3.503174
835.2952, 2.061157
835.7773, 1.832947
836.2595, 4.127014
836.7416, 5.116058
837.2237, 3.630035
837.7058, 2.174408
838.1879, 2.291626
838.6700, 2.998169
839.1522, 2.498871
839.6343, 0.5357970
840.1164, 0.6162720
840.5985, 1.302368
841.0806, 3.857330
841.5627, 4.471191
842.0449, 3.848328
842.5270, 3.382477
843.0091, 3.303162
843.4912, 3.412231
843.9733, 3.605133
844.4554, 3.929077
844.9376, 4.708466
845.4197, 6.071838
845.9018, 6.318848
846.3839, 4.843872
846.8660, 3.426514
847.3481, 3.204407
847.8303, 3.610809
848.3124, 3.529480
848.7945, 2.652771
849.2766, 2.428986
849.7587, 4.024445
850.2408, 4.943237
850.7230, 3.508118
851.2051, 1.564484
851.6872, 1.052704
852.1693, 1.930023
852.6514, 2.810242
853.1335, 2.972412
853.6157, 3.023621
854.0978, 3.780975
854.5799, 4.732086
855.0620, 4.797119
855.5441, 4.032440
856.0262, 3.277924
856.5084, 2.939911
856.9905, 2.934723
857.4726, 3.300781
857.9547, 4.008392
858.4368, 3.738220
858.9189, 2.045502
859.4011, 0.9703980
859.8832, 1.455505
860.3653, 2.359161
860.8474, 2.598022
861.3295, 2.270264
861.8116, 2.285065
862.2938, 3.529144
862.7759, 3.823792
863.2580, 1.772797
863.7401, 0.1636350
864.2222, 0.3536380
864.7043, 0.6353450
865.1865, 1.726379
865.6686, 2.632568
866.1507, 3.309662
866.6328, 3.711487
867.1149, 3.881012
867.5970, 3.810760
868.0792, 3.556549
868.5613, 3.153534
869.0434, 2.658569
869.5255, 2.423126
870.0076, 2.792206
870.4897, 3.428711
870.9719, 3.348846
871.4540, 2.505646
871.9361, 2.070404
872.4182, 2.286560
872.9003, 2.401031
873.3824, 1.830109
873.8646, 1.159851
874.3467, 1.533356
874.8288, 3.267456
875.3109, 4.320313
875.7930, 3.777924
876.2751, 3.806793
876.7573, 5.935852
877.2394, 7.983612
877.7215, 7.585968
878.2036, 5.440277
878.6857, 4.210754
879.1678, 4.745392
879.6500, 6.470703
880.1321, 9.841858
880.6142, 13.63199
881.0963, 16.96310
881.5784, 19.45905
882.0605, 20.51733
882.5427, 19.95529
883.0248, 18.16821
883.5069, 15.23209
883.9890, 11.60004
884.4711, 8.579224
884.9532, 6.153076
885.4354, 4.102112
885.9175, 2.361084
886.3996, 1.165009
886.8817, 0.8303530
887.3638, 0.9812320
887.8459, 0.4436650
888.3281, 1.462921
888.8102, 1.928955
889.2923, 0.3422550
889.7744, 2.217621
890.2565, 2.390015
890.7386, 1.802460
891.2208, 1.329620
891.7029, 0.9856870
892.1850, 0.4526670
892.6671, 0.9071960
893.1492, 1.716888
893.6313, 1.245453
894.1135, 0.1956180
894.5956, 1.227051
895.0777, 2.611145
895.5598, 3.159698
896.0419, 2.569946
896.5240, 1.588776
897.0062, 0.6234130
897.4883, 0.1527100
897.9704, 0.2765810
898.4525, 0.1052250
898.9346, 0.1437680
899.4167, 1.225555
899.8989, 1.818848
900.3810, 0.7101440
900.8631, 1.325256
901.3452, 2.050140
901.8273, 1.343414
902.3094, 0.6989750
902.7916, 0.1066280
903.2737, 8.2672000E-02
903.7558, 1.259857
904.2379, 2.621765
904.7200, 2.431824
905.2021, 0.4164430
905.6843, 0.4679260
906.1664, 0.9871830
906.6485, 1.892822
907.1306, 0.9046940
907.6127, 9.4512999E-02
908.0948, 1.453186
908.5770, 4.037231
909.0591, 5.431732
909.5412, 4.922577
910.0233, 4.007660
910.5054, 2.935913
910.9875, 2.093933
911.4697, 1.937347
911.9518, 2.160156
912.4339, 2.153778
912.9160, 1.885773
913.3981, 1.981110
913.8802, 3.029449
914.3624, 4.276428
914.8445, 4.518402
915.3265, 4.113861
915.8087, 4.059326
916.2908, 4.435303
916.7729, 4.906067
917.2550, 5.311127
917.7371, 5.801483
918.2192, 6.758698
918.7014, 8.035431
919.1835, 7.667999
919.6656, 5.202942
920.1477, 3.427399
920.6298, 2.829315
921.1119, 3.295349
921.5941, 5.247833
922.0762, 7.931702
922.5583, 8.951752
923.0404, 7.267303
923.5225, 6.443695
924.0046, 7.077545
924.4868, 7.790649
924.9689, 8.481140
925.4510, 8.839569
925.9331, 8.192780
926.4152, 6.804932
926.8973, 6.294464
927.3795, 7.815735
927.8616, 9.053711
928.3437, 8.829132
928.8258, 8.054138
929.3079, 7.215820
929.7900, 6.550232
930.2722, 6.521851
930.7543, 7.180298
931.2364, 7.532257
931.7185, 6.283112
932.2006, 4.780914
932.6827, 5.235382
933.1649, 6.804901
933.6470, 7.245300
934.1291, 6.418762
934.6112, 5.893555
935.0933, 6.568604
935.5754, 7.930878
936.0576, 9.443329
936.5397, 11.00998
937.0218, 11.47214
937.5039, 10.76010
937.9860, 9.992249
938.4681, 9.322083
938.9503, 9.498474
939.4324, 11.46475
939.9145, 14.59805
940.3966, 16.36963
940.8787, 16.39716
941.3608, 16.03653
941.8430, 14.52042
942.3251, 13.83142
942.8072, 15.21481
943.2893, 17.50473
943.7714, 19.41238
944.2535, 20.94135
944.7357, 22.32501
945.2178, 23.12555
945.6999, 24.42679
946.1820, 26.37949
946.6641, 28.83243
947.1462, 31.51819
947.6284, 34.79608
948.1105, 39.33151
948.5926, 45.21329
949.0747, 52.19913
949.5568, 58.81436
950.0389, 68.00711
950.5211, 81.26343
951.0032, 98.79370
951.4853, 122.0922
951.9674, 149.9755
952.4495, 179.6875
952.9316, 210.0670
953.4138, 236.9217
953.8959, 256.2281
954.3780, 268.5455
954.8601, 271.9190
955.3422, 268.9776
955.8243, 268.4530
956.3065, 272.8180
956.7886, 282.5111
957.2707, 297.9692
957.7528, 318.5286
958.2349, 343.8110
958.7170, 373.6350
959.1992, 404.1600
959.6813, 435.1258
960.1634, 468.8199
960.6455, 505.3499
961.1276, 546.1635
961.6097, 591.4025
962.0919, 642.6921
962.5740, 706.7088
963.0561, 776.7944
963.5382, 877.6031
964.0203, 997.9554
964.5024, 1173.516
964.9846, 1432.829
965.4667, 1748.565
965.9488, 2125.189
966.4309, 2577.504
966.9130, 2824.921
967.3951, 2846.989
967.8773, 2690.011
968.3594, 2233.885
968.8415, 1729.065
969.3236, 1279.298
969.8057, 905.6382
970.2878, 628.8109
970.7700, 456.2516
971.2521, 333.0461
971.7342, 260.6229
972.2163, 210.4653
972.6984, 175.4888
973.1805, 150.1659
973.6627, 131.4244
974.1448, 117.2880
974.6269, 104.8997
975.1090, 93.22818
975.5911, 82.98056
976.0732, 75.35114
976.5554, 68.80722
977.0375, 61.52567
977.5196, 54.20740
978.0017, 48.22180
978.4838, 43.77368
978.9659, 40.34366
979.4481, 37.72427
979.9302, 35.48108
980.4123, 33.10944
980.8944, 30.64691
981.3765, 28.22327
981.8586, 25.80435
982.3408, 23.17749
982.8229, 20.32617
983.3050, 17.82339
983.7871, 16.17355
984.2692, 15.10147
984.7513, 14.09503
985.2335, 13.13840
985.7156, 11.88141
986.1977, 10.26465
986.6798, 9.074951
987.1619, 8.627869
987.6440, 8.562531
988.1262, 8.540955
988.6083, 8.549988
989.0904, 8.529358
989.5725, 8.490112
990.0546, 8.436279
990.5367, 8.584961
991.0189, 8.037872
991.5010, 5.830475
991.9831, 3.543488
992.4652, 3.427795
992.9473, 5.363678
993.4294, 6.079163
993.9116, 4.705658
994.3937, 3.676941
994.8758, 3.053925
995.3579, 2.938507
995.8400, 3.983429
996.3221, 5.233826
996.8043, 5.308350
997.2864, 4.153351
997.7685, 2.974121
998.2506, 1.426880
998.7327, 0.4922180
999.2148, 0.8303530
999.6970, 1.381226
1000.179, 1.505554
1000.661, 1.362854
1001.143, 1.260284
1001.625, 1.245331
1002.108, 1.290222
1002.590, 1.534576
1003.072, 1.644653
1003.554, 1.485687
1004.036, 1.108002
1004.518, 0.3045960
1005.000, 0.6123660
1005.482, 0.9553830
1005.964, 0.5366210
1006.447, 0.1084590
1006.929, 2.0450000E-03
1007.411, 0.1680300
1007.893, 0.8510440
1008.375, 1.599945
1008.857, 1.833466
1009.339, 1.571350
1009.821, 0.9834290
1010.304, 0.1396790
1010.786, 0.4086300
1011.268, 0.1880190
1011.750, 1.030579
1012.232, 0.7347410
1012.714, 9.8145001E-02
1013.196, 9.1674998E-02
1013.678, 0.7073360
1014.160, 1.183655
1014.643, 0.8023990
1015.125, 1.5411000E-02
1015.607, 1.359528
1016.089, 2.522217
1016.571, 1.215424
1017.053, 1.639740
1017.535, 2.600128
1018.017, 1.269165
1018.500, 0.3806760
1018.982, 1.261780
1019.464, 1.432770
1019.946, 0.6094360
1020.428, 0.8169250
1020.910, 0.9042970
1021.392, 0.1947020
1021.874, 0.9796140
1022.356, 1.150726
1022.839, 0.9555660
1023.321, 0.5188600
1023.803, 1.7883001E-02
1024.285, 0.4457090
1024.767, 0.7573850
1025.249, 0.7300110
1025.731, 0.3186040
1026.213, 0.4777220
1026.696, 1.562195
1027.178, 2.132904
1027.660, 1.095703
1028.142, 0.7232060
1028.624, 1.719452
1029.106, 1.876831
1029.588, 1.374786
1030.070, 0.1943050
1030.552, 0.3744200
1031.035, 1.876892
1031.517, 4.081085
1031.999, 4.451508
1032.481, 3.722534
1032.963, 3.484283
1033.445, 3.803314
1033.927, 4.008850
1034.409, 3.909637
1034.891, 4.218689
1035.374, 5.263062
1035.856, 6.448700
1036.338, 7.456665
1036.820, 8.251770
1037.302, 8.616882
1037.784, 8.284302
1038.266, 9.089386
1038.748, 11.95346
1039.231, 14.28296
1039.713, 15.49786
1040.195, 16.14621
1040.677, 16.87717
1041.159, 17.18167
1041.641, 15.66235
1042.123, 11.64551
1042.605, 8.989319
1043.088, 8.898956
1043.570, 8.456696
1044.052, 6.614532
1044.534, 4.884216
1045.016, 4.234467
1045.498, 4.341736
1045.980, 4.678650
1046.462, 5.330658
1046.944, 5.535645
1047.427, 4.682251
1047.909, 4.165649
1048.391, 4.729645
1048.873, 5.263947
1049.355, 4.845947
1049.837, 3.969238
1050.319, 3.581757
1050.801, 3.800262
1051.283, 4.054749
1051.766, 4.255890
1052.248, 4.484497
1052.730, 4.839020
1053.212, 5.149139
1053.694, 5.257141
1054.176, 5.261017
1054.658, 5.351288
1055.140, 5.551086
1055.623, 5.680603
1056.105, 5.322510
1056.587, 5.398865
1057.069, 6.832489
1057.551, 8.166962
1058.033, 8.277466
1058.515, 7.660217
1058.997, 7.096130
1059.479, 6.708954
1059.962, 6.482361
1060.444, 6.292999
1060.926, 6.424774
1061.408, 7.119843
1061.890, 8.018829
1062.372, 9.281189
1062.854, 10.30667
1063.336, 10.26517
1063.818, 9.176453
1064.301, 7.869843
1064.783, 6.002869
1065.265, 4.944458
1065.747, 5.921295
1066.229, 7.089722
1066.711, 7.121063
1067.193, 6.622986
1067.675, 6.534973
1068.158, 6.922394
1068.640, 7.150909
1069.122, 6.624481
1069.604, 6.597168
1070.086, 8.374847
1070.568, 10.20639
1071.050, 10.78900
1071.532, 10.57956
1072.015, 9.990204
1072.497, 9.372284
1072.979, 9.564911
1073.461, 11.02371
1073.943, 12.51215
1074.425, 13.77887
1074.907, 14.43967
1075.389, 13.74643
1075.871, 12.96347
1076.354, 13.48019
1076.836, 15.06253
1077.318, 16.69781
1077.800, 18.06644
1078.282, 19.48981
1078.764, 21.19037
1079.246, 23.11023
1079.728, 24.85110
1080.210, 26.93674
1080.693, 30.39941
1081.175, 34.63416
1081.657, 37.99112
1082.139, 40.03104
1082.621, 41.45081
1083.103, 42.25574
1083.585, 42.98550
1084.067, 43.10184
1084.549, 43.87033
1085.032, 46.45374
1085.514, 50.85172
1085.996, 57.07089
1086.478, 64.99155
1086.960, 72.20801
1087.442, 76.83224
1087.924, 81.61880
1088.406, 87.81174
1088.889, 94.74280
1089.371, 101.9135
1089.853, 109.3874
1090.335, 116.7573
1090.817, 124.2710
1091.299, 134.5190
1091.781, 147.7701
1092.263, 165.0525
1092.745, 186.0733
1093.228, 211.9597
1093.710, 243.1158
1094.192, 279.7726
1094.674, 323.6873
1095.156, 373.4564
1095.638, 422.4209
1096.120, 469.5066
1096.602, 513.2750
1097.084, 548.4269
1097.567, 585.2513
1098.049, 626.0028
1098.531, 673.9190
1099.013, 736.9144
1099.495, 809.6019
1099.977, 877.5615
1100.459, 941.0921
1100.941, 983.5074
1101.424, 989.2033
1101.906, 987.1627
1102.388, 978.0552
1102.870, 976.6720
1103.352, 989.2906
1103.834, 1020.723
1104.316, 1076.149
1104.798, 1155.440
1105.281, 1271.130
1105.763, 1411.511
1106.245, 1608.569
1106.727, 1895.950
1107.209, 2216.089
1107.691, 2616.690
1108.173, 2981.683
1108.655, 3159.282
1109.137, 3136.640
1109.620, 2931.951
1110.102, 2411.858
1110.584, 1920.003
1111.066, 1466.443
1111.548, 1089.915
1112.030, 818.8107
1112.512, 623.8274
1112.994, 481.4804
1113.476, 386.7611
1113.959, 312.2901
1114.441, 262.2212
1114.923, 220.7635
1115.405, 189.7805
1115.887, 164.2816
1116.369, 143.9101
1116.851, 127.5964
1117.333, 115.5333
1117.816, 106.5948
1118.298, 97.77213
1118.780, 88.46924
1119.262, 82.24341
1119.744, 80.28146
1120.226, 79.10938
1120.708, 78.07828
1121.190, 77.87695
1121.672, 79.08698
1122.155, 81.15857
1122.637, 83.21732
1123.119, 85.27145
1123.601, 88.09409
1124.083, 92.31250
1124.565, 95.22031
1125.047, 95.98932
1125.529, 96.92490
1126.011, 98.55310
1126.494, 101.8198
1126.976, 107.9978
1127.458, 116.3900
1127.940, 123.7555
1128.422, 129.4619
1128.904, 138.3835
1129.386, 151.0473
1129.868, 164.1957
1130.351, 176.7119
1130.833, 190.1003
1131.315, 205.1182
1131.797, 223.0352
1132.279, 246.5386
1132.761, 275.4230
1133.243, 308.1707
1133.725, 344.7600
1134.208, 386.4722
1134.690, 434.2489
1135.172, 470.2440
1135.654, 486.0678
1136.136, 478.4857
1136.618, 440.9979
1137.100, 380.3960
1137.582, 312.5932
1138.064, 240.5877
1138.547, 180.2698
1139.029, 132.9614
1139.511, 97.70163
1139.993, 73.78644
1140.475, 57.00562
1140.957, 44.55005
1141.439, 35.40781
1141.921, 28.38177
1142.403, 23.31158
1142.886, 20.71069
1143.368, 19.67355
1143.850, 17.10202
1144.332, 12.86191
1144.814, 9.639191
1145.296, 8.735840
1145.778, 8.413177
1146.260, 6.787598
1146.743, 4.928040
1147.225, 4.192780
1147.707, 4.082336
1148.189, 3.894257
1148.671, 3.605133
1149.153, 3.493164
1149.635, 3.585602
1150.117, 3.437500
1150.599, 2.690369
1151.082, 1.853333
1151.564, 1.198975
1152.046, 0.7022090
1152.528, 0.3928830
1153.010, 0.2250370
1153.492, 0.2377010
1153.974, 0.3514710
1154.456, 0.3195800
1154.938, 5.5511001E-02
1155.421, 0.5342410
1155.903, 2.040680
1156.385, 3.063232
1156.867, 2.814484
1157.349, 1.885468
1157.831, 0.3619080
1158.313, 1.308044
1158.795, 2.448883
1159.278, 2.986084
1159.760, 2.828888
1160.242, 1.440643
1160.724, 0.1641540
1161.206, 1.044037
1161.688, 1.808472
1162.170, 1.955505
1162.652, 1.568604
1163.135, 0.3871460
1163.617, 1.255707
1164.099, 1.976501
1164.581, 1.584106
1165.063, 0.8023680
1165.545, 1.030731
1166.027, 1.603851
1166.509, 0.2043150
1166.991, 1.969086
1167.474, 2.100739
1167.956, 1.479126
1168.438, 1.590271
1168.920, 2.314575
1169.402, 2.243225
1169.884, 1.277649
1170.366, 0.3703920
1170.848, 0.4450990
1171.330, 0.6789550
1171.813, 0.1051330
1172.295, 0.6201170
1172.777, 0.8633730
1173.259, 1.006042
1173.741, 2.306854
1174.223, 4.303589
1174.705, 4.354980
1175.187, 2.763428
1175.670, 1.452789
1176.152, 0.8448490
1176.634, 1.084381
1177.116, 2.220825
1177.598, 3.139954
1178.080, 2.404480
1178.562, 1.173370
1179.044, 1.422302
1179.526, 2.352173
1180.009, 2.531708
1180.491, 2.125366
1180.973, 1.783478
1181.455, 1.690765
1181.937, 1.943115
1182.419, 2.779358
1182.901, 3.088226
1183.383, 1.483276
1183.865, 0.3325200
1184.348, 1.199036
1184.830, 1.339905
1185.312, 0.8359380
1185.794, 5.5144999E-02
1186.276, 0.8696900
1186.758, 1.513977
1187.240, 2.220337
1187.722, 3.593628
1188.205, 4.238861
1188.687, 3.258148
1189.169, 2.076538
1189.651, 1.323578
1190.133, 0.8418270
1190.615, 0.2218020
1191.097, 0.3175350
1191.579, 0.2638550
1192.062, 2.598846
1192.544, 3.647125
1193.026, 2.567078
1193.508, 2.090820
1193.990, 3.141815
1194.472, 3.881104
1194.954, 3.176453
1195.436, 1.881744
1195.918, 1.104034
1196.401, 0.8053280
1196.883, 0.8303530
1197.365, 1.194366
1197.847, 1.389313
1198.329, 1.385437
1198.811, 1.387848
1199.293, 1.454376
1199.775, 1.158020
1200.257, 0.1444400
1200.740, 0.7962340
1201.222, 0.3894040
1201.704, 0.9014280
1202.186, 2.343872
1202.668, 3.553223
1203.150, 3.108887
1203.632, 1.366974
1204.114, 4.7729000E-02
1204.597, 0.6223750
1205.079, 0.6191710
1205.561, 7.9802997E-02
1206.043, 0.5478210
1206.525, 1.060944
1207.007, 1.276306
1207.489, 0.6850280
1207.971, 8.7921001E-02
1208.453, 0.2221070
1208.936, 0.2128300
1209.418, 0.9157710
1209.900, 1.824829
1210.382, 2.185455
1210.864, 1.263367
1211.346, 0.4836430
1211.828, 3.6437999E-02
1212.310, 8.5399998E-04
1212.792, 1.306641
1213.275, 2.796356
1213.757, 3.253326
1214.239, 2.842712
1214.721, 2.061768
1215.203, 0.7329100
1215.685, 0.1342770
1216.167, 0.3810120
1216.649, 0.7465820
1217.132, 1.143372
1217.614, 1.581329
1218.096, 2.148987
1218.578, 2.466522
1219.060, 1.887726
1219.542, 0.8126830
1220.024, 0.6189880
1220.506, 1.200226
1220.989, 1.228699
1221.471, 0.7108150
1221.953, 0.5035100
1222.435, 0.8478390
1222.917, 1.055573
1223.399, 1.222290
1223.881, 1.316101
1224.363, 1.335846
1224.845, 1.505737
1225.328, 2.249573
1225.810, 3.202881
1226.292, 4.225555
1226.774, 4.888428
1227.256, 4.146790
1227.738, 2.291809
1228.220, 1.519958
1228.702, 2.942230
1229.184, 3.911652
1229.667, 2.325836
1230.149, 1.282135
1230.631, 3.351807
1231.113, 5.302551
1231.595, 3.726227
1232.077, 0.8180850
1232.559, 0.9688420
1233.041, 4.155884
1233.524, 5.207977
1234.006, 2.945801
1234.488, 1.449188
1234.970, 0.6994630
1235.452, 0.7732850
1235.934, 2.191223
1236.416, 3.605255
1236.898, 4.172943
1237.380, 4.316467
1237.863, 4.505310
1238.345, 4.807159
1238.827, 5.808075
1239.309, 7.258728
1239.791, 7.152893
1240.273, 5.489227
1240.755, 4.438599
1241.237, 4.467712
1241.719, 4.650848
1242.202, 4.363342
1242.684, 3.975586
1243.166, 3.386017
1243.648, 3.275299
1244.130, 5.426910
1244.612, 7.921753
1245.094, 7.646637
1245.576, 5.611023
1246.059, 3.867279
1246.541, 3.160492
1247.023, 3.543182
1247.505, 5.582581
1247.987, 6.368713
1248.469, 4.088715
1248.951, 2.128967
1249.433, 1.511536
1249.916, 1.552460
1250.398, 2.290131
1250.880, 3.137512
1251.362, 3.478577
1251.844, 3.389038
1252.326, 3.369324
1252.808, 3.540619
1253.290, 3.087616
1253.772, 1.751862
1254.255, 1.497284
1254.737, 2.835876
1255.219, 4.013702
1255.701, 4.185913
1256.183, 4.119507
1256.665, 5.086548
1257.147, 6.194183
1257.629, 5.733704
1258.111, 4.523529
1258.594, 4.064240
1259.076, 4.065399
1259.558, 3.588257
1260.040, 2.686615
1260.522, 2.158813
1261.004, 2.286682
1261.486, 2.687897
1261.968, 3.685822
1262.451, 4.136414
1262.933, 2.569153
1263.415, 1.291656
1263.897, 2.409180
1264.379, 4.150116
1264.861, 4.505280
1265.343, 3.797394
1265.825, 3.066650
1266.307, 2.229065
1266.790, 2.272095
1267.272, 3.814056
1267.754, 4.339417
1268.236, 3.308380
1268.718, 2.291016
1269.200, 1.836700
1269.682, 1.730255
1270.164, 1.854828
1270.646, 1.953430
1271.129, 1.314423
1271.611, 0.3592220
1272.093, 0.6757200
1272.575, 1.857422
1273.057, 3.060730
1273.539, 3.961792
1274.021, 3.829681
1274.503, 2.639893
1274.986, 1.339874
1275.468, 0.2683720
1275.950, 0.1889950
1276.432, 1.180511
1276.914, 2.527252
1277.396, 2.618103
1277.878, 1.251129
1278.360, 0.5272830
1278.843, 2.1331999E-02
1279.325, 0.0000000E+00
##END=



