##NAMES=Tychite
##RRUFFID=R060700
##IDEAL CHEMISTRY=Na_6_Mg_2_(CO_3_)_4_(SO_4_)
##LOCALITY=Borax Lake, Lake County, California
##OWNER=RRUFF
##SOURCE=Michael Scott
##DESCRIPTION=Colorless octahedra
##STATUS=The identification of this mineral is confirmed by single-crystal X-ray diffraction and chemical analysis.
##URL=rruff.info/R060700
##MEASURED CHEMISTRY=Na_6.00_(Mg_1.99_Ca_0.01_)_Î£=2.00_(CO_3_)_4_(S_1.00_O_4_) ; C not measured but estimated by difference and stoichiometry
146.1160, 0.0000000E+00
146.5980, 126.5684
147.0800, 206.4277
147.5620, 218.7900
148.0440, 214.0684
148.5270, 219.4062
149.0090, 241.4580
149.4910, 288.6631
149.9730, 351.0312
150.4550, 403.6924
150.9370, 431.7197
151.4190, 430.9287
151.9010, 447.0439
152.3830, 552.3442
152.8660, 655.2578
153.3480, 717.3916
153.8300, 733.9858
154.3120, 702.4351
154.7940, 614.2769
155.2760, 454.8594
155.7580, 293.6572
156.2400, 182.0425
156.7230, 111.9395
157.2050, 58.17871
157.6870, 7.660645
158.1690, 36.24805
158.6510, 60.37939
159.1330, 56.01221
159.6150, 41.85303
160.0970, 36.83350
160.5790, 36.94580
161.0620, 24.57227
161.5440, 13.21826
162.0260, 73.32812
162.5080, 141.6924
162.9900, 224.5117
163.4720, 305.8652
163.9540, 378.6450
164.4360, 442.0186
164.9190, 495.4150
165.4010, 530.3579
165.8830, 549.5947
166.3650, 584.6704
166.8470, 654.6489
167.3290, 722.0034
167.8110, 763.9434
168.2930, 783.4312
168.7750, 796.9380
169.2580, 815.4941
169.7400, 839.0879
170.2220, 864.2534
170.7040, 892.5146
171.1860, 920.9766
171.6680, 951.7964
172.1500, 983.0610
172.6320, 1007.886
173.1150, 1025.728
173.5970, 1037.474
174.0790, 1020.628
174.5610, 932.0122
175.0430, 852.6919
175.5250, 829.1133
176.0070, 853.0518
176.4890, 881.4883
176.9710, 874.3477
177.4540, 828.1123
177.9360, 788.6348
178.4180, 768.5078
178.9000, 744.6846
179.3820, 704.7314
179.8640, 650.8164
180.3460, 594.6836
180.8280, 545.5205
181.3110, 503.2490
181.7930, 467.3359
182.2750, 437.7891
182.7570, 415.6074
183.2390, 402.8701
183.7210, 398.7432
184.2030, 400.0605
184.6850, 402.4258
185.1670, 404.4746
185.6500, 419.3262
186.1320, 478.4111
186.6140, 523.5830
187.0960, 514.0293
187.5780, 465.0527
188.0600, 431.3555
188.5420, 475.2617
189.0240, 609.6934
189.5070, 689.5645
189.9890, 645.6084
190.4710, 604.0059
190.9530, 608.7695
191.4350, 655.7363
191.9170, 716.6572
192.3990, 766.6270
192.8810, 803.5771
193.3630, 855.2607
193.8460, 939.0225
194.3280, 1023.496
194.8100, 1097.787
195.2920, 1163.866
195.7740, 1229.389
196.2560, 1299.639
196.7380, 1374.890
197.2200, 1457.259
197.7020, 1534.729
198.1850, 1632.171
198.6670, 1765.564
199.1490, 1927.449
199.6310, 2096.634
200.1130, 2256.900
200.5950, 2408.543
201.0770, 2570.770
201.5590, 2748.651
202.0420, 2935.002
202.5240, 3135.902
203.0060, 3344.269
203.4880, 3544.558
203.9700, 3729.976
204.4520, 3895.770
204.9340, 4064.371
205.4160, 4261.113
205.8980, 4432.302
206.3800, 4554.598
206.8630, 4642.412
207.3450, 4723.693
207.8270, 4821.128
208.3090, 4928.265
208.7910, 4987.683
209.2730, 4976.955
209.7550, 4936.254
210.2380, 4871.823
210.7200, 4784.722
211.2020, 4672.066
211.6840, 4529.872
212.1660, 4364.771
212.6480, 4208.659
213.1300, 4055.697
213.6120, 3922.476
214.0940, 3811.217
214.5770, 3721.548
215.0590, 3653.601
215.5410, 3608.728
216.0230, 3581.152
216.5050, 3553.827
216.9870, 3519.729
217.4690, 3503.435
217.9510, 3519.972
218.4340, 3549.719
218.9160, 3571.810
219.3980, 3577.320
219.8800, 3571.277
220.3620, 3570.177
220.8440, 3584.777
221.3260, 3584.572
221.8080, 3564.375
222.2900, 3530.179
222.7730, 3487.833
223.2550, 3439.464
223.7370, 3382.681
224.2190, 3310.391
224.7010, 3210.028
225.1830, 3120.288
225.6650, 3052.088
226.1470, 2990.767
226.6290, 2923.952
227.1120, 2848.303
227.5940, 2771.167
228.0760, 2700.935
228.5580, 2633.872
229.0400, 2585.971
229.5220, 2571.983
230.0040, 2567.192
230.4860, 2557.586
230.9690, 2540.165
231.4510, 2519.337
231.9330, 2498.812
232.4150, 2477.204
232.8970, 2462.095
233.3790, 2459.503
233.8610, 2459.688
234.3430, 2458.499
234.8250, 2455.443
235.3070, 2451.982
235.7900, 2440.037
236.2720, 2415.062
236.7540, 2431.455
237.2360, 2527.030
237.7180, 2635.219
238.2000, 2725.612
238.6820, 2800.868
239.1650, 2880.911
239.6470, 2981.330
240.1290, 3101.826
240.6110, 3227.898
241.0930, 3368.979
241.5750, 3504.896
242.0570, 3618.770
242.5390, 3720.529
243.0210, 3832.466
243.5030, 3971.778
243.9860, 4132.695
244.4680, 4294.379
244.9500, 4470.912
245.4320, 4621.951
245.9140, 4729.975
246.3960, 4804.011
246.8780, 4861.112
247.3610, 4919.404
247.8430, 4957.761
248.3250, 4922.098
248.8070, 4790.628
249.2890, 4643.271
249.7710, 4517.387
250.2530, 4395.375
250.7350, 4251.886
251.2170, 4072.806
251.6990, 3881.715
252.1820, 3709.572
252.6640, 3559.260
253.1460, 3411.776
253.6280, 3255.873
254.1100, 3102.046
254.5920, 2960.947
255.0740, 2835.777
255.5560, 2720.224
256.0390, 2613.744
256.5210, 2515.573
257.0030, 2411.609
257.4850, 2298.690
257.9670, 2175.907
258.4490, 2040.544
258.9310, 1890.452
259.4130, 1743.578
259.8960, 1612.363
260.3780, 1493.473
260.8600, 1374.385
261.3420, 1248.936
261.8240, 1126.984
262.3060, 1016.613
262.7880, 916.4990
263.2700, 824.9502
263.7520, 741.4463
264.2340, 666.7100
264.7170, 604.8906
265.1990, 558.9805
265.6810, 515.4082
266.1630, 456.7676
266.6450, 384.5215
267.1270, 319.7520
267.6090, 266.3262
268.0910, 222.6230
268.5740, 191.5312
269.0560, 173.0420
269.5380, 153.2705
270.0200, 119.1309
270.5020, 72.68945
270.9840, 39.32129
271.4660, 24.15918
271.9480, 17.84668
272.4310, 19.90625
272.9130, 27.53906
273.3950, 27.65039
273.8770, 8.673828
274.3590, 21.75684
274.8410, 27.86230
275.3230, 12.29492
275.8050, 47.75391
276.2870, 60.39746
276.7700, 57.13281
277.2520, 50.06738
277.7340, 44.01855
278.2160, 37.97559
278.6980, 28.51953
279.1800, 7.483398
279.6620, 8.366211
280.1440, 62.58984
280.6260, 153.4316
281.1090, 208.1680
281.5910, 213.5029
282.0730, 197.1572
282.5550, 196.3672
283.0370, 212.8672
283.5190, 240.3467
284.0010, 289.5283
284.4830, 340.2266
284.9660, 380.7588
285.4480, 411.5986
285.9300, 438.3604
286.4120, 462.4961
286.8940, 480.3604
287.3760, 506.7314
287.8580, 559.5762
288.3400, 608.0674
288.8230, 633.3594
289.3050, 640.6748
289.7870, 648.1318
290.2690, 669.3682
290.7510, 703.1699
291.2330, 735.7744
291.7150, 758.7529
292.1970, 792.4062
292.6790, 849.9736
293.1610, 916.5381
293.6440, 975.2305
294.1260, 1018.490
294.6080, 1050.282
295.0900, 1077.045
295.5720, 1095.349
296.0540, 1117.431
296.5360, 1140.191
297.0180, 1170.465
297.5010, 1219.856
297.9830, 1289.542
298.4650, 1357.080
298.9470, 1392.246
299.4290, 1392.304
299.9110, 1401.994
300.3930, 1435.346
300.8750, 1471.056
301.3580, 1503.293
301.8400, 1528.773
302.3220, 1534.692
302.8040, 1509.567
303.2860, 1456.865
303.7680, 1385.189
304.2500, 1285.018
304.7320, 1186.589
305.2140, 1116.385
305.6970, 1062.744
306.1790, 1001.467
306.6610, 914.5000
307.1430, 822.5029
307.6250, 752.6768
308.1070, 706.0771
308.5890, 663.7529
309.0710, 619.8037
309.5530, 571.4229
310.0360, 513.4541
310.5180, 436.3125
311.0000, 364.2744
311.4820, 311.6797
311.9640, 275.2334
312.4460, 248.8193
312.9280, 234.3516
313.4100, 220.6123
313.8920, 182.9014
314.3750, 112.1602
314.8570, 53.38281
315.3390, 18.38770
315.8210, 0.8994140
316.3030, 10.82031
316.7850, 12.99316
317.2670, 12.41309
317.7500, 14.10449
318.2320, 18.33496
318.7140, 23.63477
319.1960, 37.69629
319.6780, 45.87988
320.1600, 32.39941
320.6420, 4.442383
321.1240, 14.83301
321.6060, 8.141602
322.0890, 21.31641
322.5710, 43.63379
323.0530, 62.37402
323.5350, 69.89648
324.0170, 59.50879
324.4990, 39.08789
324.9810, 16.06445
325.4630, 6.299805
325.9450, 25.00586
326.4280, 30.55762
326.9100, 6.763672
327.3920, 5.433594
327.8740, 54.19727
328.3560, 106.3262
328.8380, 127.7832
329.3200, 116.5762
329.8020, 96.94922
330.2840, 96.42188
330.7670, 116.4482
331.2490, 118.8193
331.7310, 85.81934
332.2130, 55.51758
332.6950, 47.87207
333.1770, 56.80078
333.6590, 67.01367
334.1410, 73.05664
334.6240, 74.11328
335.1060, 68.02344
335.5880, 54.38184
336.0700, 35.52148
336.5520, 1.383789
337.0340, 32.92871
337.5160, 44.85840
337.9980, 22.15332
338.4800, 2.959961
338.9630, 1.822266
339.4450, 20.07812
339.9270, 35.74512
340.4090, 36.21387
340.8910, 28.97461
341.3730, 21.50586
341.8550, 12.08691
342.3370, 13.88965
342.8190, 47.33398
343.3020, 86.01758
343.7840, 91.97559
344.2660, 61.25391
344.7480, 28.57129
345.2300, 27.75879
345.7120, 60.54102
346.1940, 67.82812
346.6770, 30.80859
347.1590, 10.39551
347.6410, 41.34082
348.1230, 62.29492
348.6050, 75.12402
349.0870, 80.28418
349.5690, 80.64453
350.0510, 85.15039
350.5330, 101.7676
351.0160, 111.7646
351.4980, 104.5684
351.9800, 95.49609
352.4620, 101.2734
352.9440, 124.6318
353.4260, 151.2578
353.9080, 162.6318
354.3900, 155.7383
354.8720, 149.6318
355.3550, 144.7705
355.8370, 140.1455
356.3190, 135.6504
356.8010, 131.1406
357.2830, 127.0049
357.7650, 123.9414
358.2470, 118.9414
358.7290, 103.3213
359.2110, 68.86230
359.6940, 47.51953
360.1760, 61.97266
360.6580, 92.06738
361.1400, 120.9111
361.6220, 147.2988
362.1040, 163.0039
362.5860, 155.6709
363.0690, 128.8438
363.5510, 104.2861
364.0330, 86.81055
364.5150, 74.28125
364.9970, 62.37402
365.4790, 50.66309
365.9610, 49.50684
366.4430, 73.25195
366.9250, 102.5723
367.4080, 113.2666
367.8900, 104.6514
368.3720, 95.01660
368.8540, 97.61035
369.3360, 111.2871
369.8180, 123.6553
370.3000, 134.0029
370.7820, 143.8408
371.2640, 153.9336
371.7470, 163.6934
372.2290, 171.2803
372.7110, 175.9570
373.1930, 180.6914
373.6750, 191.3574
374.1570, 212.0703
374.6390, 230.5107
375.1210, 248.2061
375.6030, 262.5566
376.0860, 271.9209
376.5680, 276.4443
377.0500, 277.4121
377.5320, 276.5684
378.0140, 274.5420
378.4960, 268.3115
378.9780, 249.7344
379.4600, 237.3926
379.9430, 240.1699
380.4250, 249.6934
380.9070, 256.7363
381.3890, 259.7061
381.8710, 256.7559
382.3530, 240.4297
382.8350, 210.4502
383.3170, 190.0576
383.7990, 185.6953
384.2820, 191.5078
384.7640, 207.4971
385.2460, 233.4502
385.7280, 241.8799
386.2100, 205.8438
386.6920, 152.2949
387.1740, 119.8467
387.6560, 112.0771
388.1380, 114.9795
388.6210, 120.9961
389.1030, 129.5410
389.5850, 135.8682
390.0670, 136.7793
390.5490, 139.1191
391.0310, 149.7920
391.5130, 162.5957
391.9960, 164.0059
392.4780, 148.8623
392.9600, 130.0771
393.4420, 131.0869
393.9240, 165.1514
394.4060, 188.2119
394.8880, 194.3037
395.3700, 194.8311
395.8520, 200.4561
396.3350, 208.4453
396.8170, 205.1328
397.2990, 174.9268
397.7810, 126.4346
398.2630, 110.5859
398.7450, 98.48340
399.2270, 106.6299
399.7090, 110.4062
400.1910, 109.4609
400.6740, 88.38672
401.1560, 88.59668
401.6380, 78.95117
402.1200, 70.66113
402.6020, 72.11035
403.0840, 60.10059
403.5660, 61.70898
404.0480, 64.32227
404.5300, 54.91406
405.0130, 36.56348
405.4950, 23.22559
405.9770, 22.39062
406.4590, 24.35254
406.9410, 18.72363
407.4230, 6.798828
407.9050, 2.693359
408.3870, 5.497070
408.8700, 1.841797
409.3520, 8.166992
409.8340, 36.02246
410.3160, 53.10254
410.7980, 49.76660
411.2800, 37.34570
411.7620, 24.42285
412.2440, 13.65430
412.7270, 6.757813
413.2090, 6.414063
413.6910, 13.43262
414.1730, 16.35742
414.6550, 0.4228520
415.1370, 4.106445
415.6190, 19.96777
416.1010, 57.86621
416.5830, 86.94141
417.0650, 96.39746
417.5480, 95.61230
418.0300, 101.7930
418.5120, 116.2627
418.9940, 126.1182
419.4760, 128.4180
419.9580, 125.0693
420.4400, 114.1016
420.9220, 96.81543
421.4050, 87.69824
421.8870, 102.9082
422.3690, 125.8057
422.8510, 127.6738
423.3330, 107.4092
423.8150, 94.25684
424.2970, 112.4404
424.7790, 149.7744
425.2620, 158.0391
425.7440, 113.1426
426.2260, 76.06348
426.7080, 59.98828
427.1900, 61.58789
427.6720, 84.39551
428.1540, 126.5576
428.6360, 166.9502
429.1180, 180.6777
429.6010, 164.1650
430.0830, 142.6553
430.5650, 108.7588
431.0470, 77.75586
431.5290, 48.83984
432.0110, 27.23145
432.4930, 22.41113
432.9750, 40.21094
433.4570, 69.29883
433.9400, 75.76465
434.4220, 45.11426
434.9040, 35.07812
435.3860, 54.53418
435.8680, 66.83887
436.3500, 72.37012
436.8320, 50.84668
437.3140, 64.26367
437.7970, 63.68359
438.2790, 62.54199
438.7610, 80.90723
439.2430, 63.36621
439.7250, 81.44922
440.2070, 82.72168
440.6890, 109.7119
441.1710, 127.3428
441.6540, 127.9980
442.1360, 132.8789
442.6180, 147.8408
443.1000, 168.6172
443.5820, 180.8672
444.0640, 186.7822
444.5460, 188.1230
445.0280, 219.1553
445.5100, 242.9844
445.9920, 260.0137
446.4750, 250.3145
446.9570, 276.0107
447.4390, 287.3828
447.9210, 298.0361
448.4030, 328.8398
448.8850, 323.8594
449.3670, 354.0332
449.8490, 369.3174
450.3320, 391.1543
450.8140, 398.8047
451.2960, 410.8389
451.7780, 437.0645
452.2600, 439.6562
452.7420, 462.5684
453.2240, 487.1875
453.7060, 494.9062
454.1890, 507.0381
454.6710, 544.3857
455.1530, 603.9326
455.6350, 673.6738
456.1170, 750.8408
456.5990, 828.9297
457.0810, 894.0762
457.5630, 936.2822
458.0450, 985.5498
458.5270, 1040.378
459.0100, 1103.586
459.4920, 1184.946
459.9740, 1277.812
460.4560, 1362.882
460.9380, 1426.302
461.4200, 1470.167
461.9020, 1503.624
462.3840, 1534.059
462.8670, 1537.672
463.3490, 1493.465
463.8310, 1432.210
464.3130, 1382.380
464.7950, 1346.681
465.2770, 1296.220
465.7590, 1198.492
466.2410, 1072.013
466.7240, 965.6846
467.2060, 885.0771
467.6880, 810.6572
468.1700, 725.7266
468.6520, 638.5410
469.1340, 573.8682
469.6160, 543.9668
470.0980, 519.9150
470.5800, 493.3223
471.0630, 466.2588
471.5450, 443.0215
472.0270, 425.1152
472.5090, 401.7344
472.9910, 366.5576
473.4730, 318.4102
473.9550, 286.9902
474.4370, 295.2031
474.9190, 294.3203
475.4020, 261.2900
475.8840, 217.3115
476.3660, 191.8682
476.8480, 196.1152
477.3300, 211.1562
477.8120, 218.0801
478.2940, 216.5488
478.7760, 204.6084
479.2590, 176.2598
479.7410, 147.9395
480.2230, 135.1826
480.7050, 133.1953
481.1870, 128.8262
481.6690, 119.2070
482.1510, 106.8486
482.6330, 88.04883
483.1160, 68.11426
483.5980, 60.21484
484.0800, 69.26074
484.5620, 88.45117
485.0440, 109.3154
485.5260, 135.1006
486.0080, 149.9824
486.4900, 145.5645
486.9720, 140.1846
487.4540, 141.7842
487.9370, 148.1055
488.4190, 155.2705
488.9010, 161.9531
489.3830, 164.5410
489.8650, 152.9453
490.3470, 124.1934
490.8290, 106.0010
491.3110, 106.3564
491.7940, 114.5977
492.2760, 123.5557
492.7580, 132.5547
493.2400, 140.2666
493.7220, 150.4854
494.2040, 155.9023
494.6860, 144.2412
495.1680, 120.9473
495.6510, 106.3926
496.1330, 109.5098
496.6150, 121.3184
497.0970, 127.9854
497.5790, 132.4160
498.0610, 122.6299
498.5430, 81.73242
499.0250, 43.45898
499.5070, 26.40332
499.9900, 26.73730
500.4720, 34.33887
500.9540, 44.99121
501.4360, 54.27051
501.9180, 51.70020
502.4000, 34.96387
502.8820, 18.43555
503.3640, 1.796875
503.8460, 10.67188
504.3290, 14.26953
504.8110, 10.48730
505.2930, 8.069336
505.7750, 16.95117
506.2570, 23.55371
506.7390, 11.51074
507.2210, 15.72266
507.7030, 44.93359
508.1850, 72.19238
508.6680, 92.65625
509.1500, 96.18652
509.6320, 71.19043
510.1140, 58.95801
510.5960, 74.14453
511.0780, 87.12500
511.5600, 75.75977
512.0420, 50.33887
512.5250, 36.21875
513.0070, 47.68555
513.4890, 71.53516
513.9710, 82.37598
514.4530, 78.36035
514.9350, 74.98145
515.4170, 75.47656
515.8990, 76.55371
516.3810, 74.74316
516.8640, 70.93066
517.3460, 69.24805
517.8280, 74.15723
518.3100, 79.52246
518.7920, 80.50391
519.2740, 76.40527
519.7560, 66.02930
520.2390, 48.95801
520.7210, 30.60059
521.2030, 18.14844
521.6850, 8.985352
522.1670, 15.90820
522.6490, 57.79883
523.1310, 93.69336
523.6130, 111.1719
524.0950, 110.0811
524.5780, 86.82910
525.0600, 37.68750
525.5420, 13.25000
526.0240, 30.30469
526.5060, 14.20020
526.9880, 11.33691
527.4700, 55.37891
527.9520, 86.28223
528.4340, 58.10742
528.9170, 6.929688
529.3990, 35.70117
529.8810, 15.36914
530.3630, 69.95801
530.8450, 89.05371
531.3270, 84.22656
531.8090, 73.51367
532.2910, 62.08301
532.7730, 47.77344
533.2560, 26.58691
533.7380, 2.741211
534.2200, 20.02246
534.7020, 19.90723
535.1840, 13.44531
535.6660, 1.590820
536.1480, 19.03418
536.6300, 32.69043
537.1120, 40.91406
537.5950, 43.84277
538.0770, 37.07812
538.5590, 24.90527
539.0410, 23.25879
539.5230, 34.81250
540.0050, 45.27344
540.4870, 43.62402
540.9690, 34.43262
541.4520, 35.55078
541.9340, 60.58887
542.4160, 73.45410
542.8980, 58.13379
543.3800, 33.59668
543.8620, 13.75488
544.3440, 2.296875
544.8260, 2.658203
545.3080, 20.61914
545.7910, 48.87891
546.2730, 54.05859
546.7550, 25.61523
547.2370, 3.379883
547.7190, 2.255859
548.2010, 7.254883
548.6830, 4.811523
549.1660, 4.483398
549.6480, 6.074219
550.1300, 18.55957
550.6120, 45.54102
551.0940, 44.35645
551.5760, 20.16895
552.0580, 1.742188
552.5400, 10.92676
553.0220, 10.91602
553.5050, 7.164063
553.9870, 2.201172
554.4690, 9.980469
554.9510, 16.02832
555.4330, 20.90234
555.9150, 21.45312
556.3970, 21.82910
556.8790, 32.29883
557.3620, 58.93652
557.8440, 82.67871
558.3260, 71.29199
558.8080, 29.96680
559.2900, 9.465820
559.7720, 21.37402
560.2540, 40.58691
560.7360, 50.56152
561.2180, 51.54590
561.7010, 47.73730
562.1830, 31.23828
562.6650, 20.56445
563.1470, 24.43848
563.6290, 34.73145
564.1110, 43.25098
564.5930, 49.66504
565.0750, 57.95508
565.5570, 73.82129
566.0400, 93.26855
566.5220, 86.13867
567.0040, 34.19043
567.4860, 2.406250
567.9680, 10.05762
568.4500, 33.65039
568.9320, 35.20898
569.4140, 13.64062
569.8960, 1.791992
570.3790, 6.471680
570.8610, 23.99609
571.3430, 38.27441
571.8250, 48.17871
572.3070, 50.91699
572.7890, 44.69434
573.2710, 34.68066
573.7530, 30.38672
574.2350, 36.75977
574.7180, 33.54297
575.2000, 7.149414
575.6820, 13.67773
576.1640, 20.20898
576.6460, 13.55762
577.1280, 6.208008
577.6100, 40.74023
578.0930, 75.08594
578.5750, 94.31152
579.0570, 100.5625
579.5390, 98.96094
580.0210, 88.30859
580.5030, 83.75391
580.9850, 99.36816
581.4670, 129.3760
581.9490, 144.3799
582.4320, 127.2197
582.9140, 120.8516
583.3960, 138.2949
583.8780, 161.7412
584.3600, 182.8447
584.8420, 197.8047
585.3240, 199.9551
585.8060, 181.2559
586.2890, 154.4639
586.7710, 155.7129
587.2530, 188.9355
587.7350, 206.6660
588.2170, 181.6826
588.6990, 153.1992
589.1810, 167.8486
589.6630, 218.1240
590.1450, 252.4131
590.6280, 253.8193
591.1100, 246.5967
591.5920, 237.6338
592.0740, 229.5596
592.5560, 231.9590
593.0380, 244.9521
593.5200, 256.6094
594.0020, 248.5547
594.4840, 222.4072
594.9670, 225.7363
595.4490, 280.1006
595.9310, 319.8125
596.4130, 306.1025
596.8950, 278.2979
597.3770, 275.2715
597.8590, 301.2676
598.3410, 323.2344
598.8230, 322.3223
599.3060, 313.4316
599.7880, 311.0469
600.2700, 315.0381
600.7520, 320.5947
601.2340, 325.3369
601.7160, 334.0889
602.1980, 359.1748
602.6800, 413.3555
603.1620, 434.4521
603.6450, 385.0703
604.1270, 343.5215
604.6090, 337.2725
605.0910, 354.4150
605.5730, 379.7588
606.0550, 411.0059
606.5370, 437.9365
607.0190, 449.0508
607.5020, 453.1152
607.9840, 461.0723
608.4660, 472.7861
608.9480, 494.8564
609.4300, 536.2969
609.9120, 584.3555
610.3940, 596.5361
610.8760, 529.5801
611.3590, 506.1318
611.8410, 556.1299
612.3230, 612.2295
612.8050, 637.9336
613.2870, 641.9736
613.7690, 649.1475
614.2510, 669.7637
614.7330, 696.4639
615.2160, 719.7510
615.6980, 742.0117
616.1800, 772.7236
616.6620, 813.6719
617.1440, 857.7314
617.6260, 897.3535
618.1080, 935.5908
618.5900, 990.8799
619.0720, 1065.338
619.5550, 1154.021
620.0370, 1263.557
620.5190, 1381.923
621.0010, 1496.825
621.4830, 1611.601
621.9650, 1742.396
622.4470, 1900.508
622.9290, 2072.521
623.4110, 2234.151
623.8940, 2388.263
624.3760, 2559.219
624.8580, 2752.638
625.3400, 2966.948
625.8220, 3210.515
626.3040, 3479.874
626.7860, 3720.318
627.2680, 3925.065
627.7500, 4113.387
628.2330, 4295.440
628.7150, 4458.240
629.1970, 4620.279
629.6790, 4760.267
630.1610, 4802.164
630.6430, 4687.678
631.1250, 4450.513
631.6070, 4134.741
632.0890, 3743.475
632.5720, 3338.659
633.0540, 2928.479
633.5360, 2529.637
634.0180, 2152.547
634.5000, 1800.277
634.9820, 1504.065
635.4640, 1277.808
635.9460, 1087.496
636.4290, 933.3730
636.9110, 805.0762
637.3930, 692.0625
637.8750, 593.5576
638.3570, 517.2148
638.8390, 475.1934
639.3210, 453.9746
639.8030, 422.3975
640.2860, 380.2949
640.7680, 343.3945
641.2500, 319.3535
641.7320, 294.3428
642.2140, 249.1377
642.6960, 182.0137
643.1780, 135.6504
643.6600, 124.2500
644.1430, 115.6807
644.6250, 98.15332
645.1070, 80.21387
645.5890, 71.33398
646.0710, 72.79199
646.5530, 80.84473
647.0350, 98.51855
647.5170, 116.4375
647.9990, 109.4502
648.4820, 77.67480
648.9640, 44.00391
649.4460, 9.978516
649.9280, 10.71875
650.4100, 5.451172
650.8920, 62.24121
651.3740, 83.09766
651.8560, 31.21484
652.3380, 8.685547
652.8210, 11.14941
653.3030, 8.036133
653.7850, 43.37012
654.2670, 86.46094
654.7490, 110.1504
655.2310, 84.21680
655.7130, 34.17578
656.1950, 8.257813
656.6770, 5.707031
657.1600, 21.30078
657.6420, 60.02148
658.1240, 93.55664
658.6060, 86.71191
659.0880, 37.50000
659.5700, 12.47363
660.0520, 30.82910
660.5340, 46.08789
661.0160, 46.56152
661.4990, 41.62012
661.9810, 40.66992
662.4630, 43.82715
662.9450, 44.75684
663.4270, 40.83789
663.9090, 31.02051
664.3910, 7.098633
664.8730, 26.18262
665.3560, 43.06543
665.8380, 35.81543
666.3200, 17.09277
666.8020, 4.403320
667.2840, 27.66895
667.7660, 31.07715
668.2480, 11.67480
668.7300, 38.79297
669.2130, 35.40234
669.6950, 20.98438
670.1770, 7.999023
670.6590, 2.233398
671.1410, 12.16992
671.6230, 25.15137
672.1050, 35.25586
672.5870, 30.62598
673.0700, 18.34180
673.5520, 21.22559
674.0340, 43.44434
674.5160, 64.79395
674.9980, 67.92383
675.4800, 56.03906
675.9620, 46.67285
676.4440, 37.39844
676.9260, 35.61523
677.4090, 53.01465
677.8910, 68.37793
678.3730, 65.42773
678.8550, 50.22461
679.3370, 41.65625
679.8190, 47.05762
680.3010, 57.64062
680.7830, 71.29395
681.2650, 84.62598
681.7480, 94.91992
682.2300, 100.3442
682.7120, 92.64551
683.1940, 63.97314
683.6760, 26.26660
684.1580, 12.88330
684.6400, 30.07715
685.1220, 43.45410
685.6040, 47.49268
686.0870, 50.77197
686.5690, 60.88379
687.0510, 73.58057
687.5330, 78.67676
688.0150, 67.51367
688.4970, 67.10400
688.9790, 104.4785
689.4610, 143.2163
689.9430, 145.1562
690.4260, 118.6621
690.9080, 94.95605
691.3900, 89.06348
691.8720, 90.21484
692.3540, 78.47803
692.8360, 55.61035
693.3180, 53.34961
693.8000, 77.96973
694.2830, 104.4043
694.7650, 121.1875
695.2470, 130.6919
695.7290, 136.4473
696.2110, 135.9316
696.6930, 139.8247
697.1750, 151.7925
697.6570, 164.9536
698.1400, 177.6973
698.6220, 188.6489
699.1040, 195.6650
699.5860, 198.3213
700.0680, 199.5503
700.5500, 201.1997
701.0320, 203.5225
701.5140, 205.9365
701.9970, 208.8970
702.4790, 217.8618
702.9610, 235.8696
703.4430, 255.8164
703.9250, 267.8208
704.4070, 271.5708
704.8890, 283.1855
705.3710, 300.9731
705.8530, 326.2158
706.3360, 368.6797
706.8180, 412.4155
707.3000, 435.6162
707.7820, 441.5503
708.2640, 466.3203
708.7460, 537.6147
709.2280, 620.8877
709.7100, 690.3110
710.1920, 750.1934
710.6750, 805.5361
711.1570, 859.9185
711.6390, 921.3574
712.1210, 996.0762
712.6030, 1084.942
713.0850, 1184.596
713.5670, 1285.613
714.0490, 1450.864
714.5310, 1738.768
715.0140, 2020.104
715.4960, 2208.215
715.9780, 2313.917
716.4600, 2371.471
716.9420, 2353.512
717.4240, 2336.422
717.9060, 2361.868
718.3880, 2376.144
718.8700, 2339.319
719.3530, 2253.457
719.8350, 2133.113
720.3170, 1983.303
720.7990, 1812.564
721.2810, 1617.179
721.7630, 1410.414
722.2450, 1237.072
722.7270, 1097.514
723.2100, 966.5210
723.6920, 830.4771
724.1740, 702.0127
724.6560, 604.0088
725.1380, 544.5786
725.6200, 485.1963
726.1020, 413.7026
726.5840, 350.5547
727.0670, 301.8257
727.5490, 266.8813
728.0310, 248.0576
728.5130, 244.2861
728.9950, 237.5742
729.4770, 217.2148
729.9590, 192.7837
730.4410, 172.7329
730.9240, 154.8447
731.4060, 130.9043
731.8880, 100.4707
732.3700, 76.65771
732.8520, 72.23633
733.3340, 82.77197
733.8160, 91.13965
734.2980, 96.47266
734.7800, 106.9004
735.2630, 131.5757
735.7450, 146.9644
736.2270, 125.6787
736.7090, 76.94482
737.1910, 52.25146
737.6730, 69.93750
738.1550, 83.02441
738.6370, 84.85059
739.1190, 79.94580
739.6020, 65.35645
740.0840, 47.67285
740.5660, 42.20801
741.0480, 56.76074
741.5300, 70.45117
742.0120, 59.04736
742.4940, 34.35645
742.9760, 18.49805
743.4580, 12.61475
743.9410, 12.51416
744.4230, 16.67969
744.9050, 22.75684
745.3870, 27.39014
745.8690, 31.14893
746.3510, 32.14648
746.8330, 25.80176
747.3150, 27.18604
747.7970, 49.37207
748.2800, 75.20361
748.7620, 88.42285
749.2440, 89.06836
749.7260, 82.75928
750.2080, 64.44385
750.6900, 46.57568
751.1720, 27.71387
751.6540, 16.66992
752.1370, 27.80518
752.6190, 58.12256
753.1010, 91.34863
753.5830, 121.7754
754.0650, 138.4883
754.5470, 113.9316
755.0290, 59.37012
755.5110, 22.96387
755.9940, 11.50732
756.4760, 19.24023
756.9580, 47.33252
757.4400, 82.48193
757.9220, 89.37842
758.4040, 53.19287
758.8860, 32.32715
759.3680, 39.20557
759.8510, 45.69287
760.3330, 42.79688
760.8150, 32.89648
761.2970, 15.70068
761.7790, 9.750000
762.2610, 25.76611
762.7430, 20.58691
763.2250, 10.60449
763.7070, 6.484863
764.1900, 4.982422
764.6720, 3.078125
765.1540, 1.487305
765.6360, 16.72656
766.1180, 57.92529
766.6000, 103.4917
767.0820, 101.6040
767.5640, 58.24756
768.0460, 23.06348
768.5290, 4.665039
769.0110, 7.064453
769.4930, 38.90527
769.9750, 87.99170
770.4570, 110.6689
770.9390, 95.96338
771.4210, 78.64795
771.9030, 55.42041
772.3850, 34.56006
772.8680, 18.08496
773.3500, 6.842285
773.8320, 2.014648
774.3140, 2.868164
774.7960, 11.56006
775.2780, 41.56543
775.7600, 68.92188
776.2420, 74.55078
776.7240, 66.20459
777.2070, 58.48193
777.6890, 54.31250
778.1710, 44.33740
778.6530, 13.93311
779.1350, 20.75244
779.6170, 21.80078
780.0990, 6.136719
780.5810, 34.49072
781.0640, 58.25049
781.5460, 63.97754
782.0280, 35.68848
782.5100, 12.73926
782.9920, 25.53516
783.4740, 14.50195
783.9560, 45.18701
784.4380, 63.25342
784.9200, 72.82031
785.4030, 66.61816
785.8850, 54.13672
786.3670, 54.68896
786.8490, 74.59619
787.3310, 86.11523
787.8130, 70.12061
788.2950, 55.95215
788.7780, 65.07471
789.2600, 85.55127
789.7420, 101.2314
790.2240, 108.0825
790.7060, 108.0610
791.1880, 97.81738
791.6700, 87.04492
792.1520, 100.3560
792.6340, 125.8379
793.1170, 113.2686
793.5990, 56.19189
794.0810, 9.198242
794.5630, 13.14258
795.0450, 50.65088
795.5270, 75.63672
796.0090, 87.08350
796.4910, 92.63818
796.9730, 93.64746
797.4560, 85.36377
797.9380, 56.49268
798.4200, 22.30811
798.9020, 11.96582
799.3840, 28.45996
799.8660, 44.19922
800.3480, 60.11230
800.8300, 72.62256
801.3120, 83.83838
801.7950, 85.94336
802.2770, 63.69092
802.7590, 22.65527
803.2410, 2.338379
803.7230, 12.84717
804.2050, 39.64502
804.6870, 54.69189
805.1690, 64.27490
805.6520, 81.92969
806.1340, 105.7534
806.6160, 118.1406
807.0980, 108.4316
807.5800, 94.66064
808.0620, 112.7432
808.5440, 157.5010
809.0260, 172.5942
809.5080, 152.1475
809.9910, 144.2568
810.4730, 172.2026
810.9550, 210.5713
811.4370, 226.2603
811.9190, 218.6279
812.4010, 206.4746
812.8830, 186.5972
813.3650, 167.1743
813.8470, 150.1650
814.3300, 133.6392
814.8120, 110.8223
815.2940, 88.58008
815.7760, 87.13672
816.2580, 124.9453
816.7400, 150.8608
817.2220, 139.0640
817.7050, 115.2612
818.1870, 97.43555
818.6690, 84.46582
819.1510, 68.28662
819.6330, 46.09570
820.1150, 28.17676
820.5970, 32.04541
821.0790, 43.28711
821.5610, 32.16504
822.0440, 6.949219
822.5260, 1.297363
823.0080, 22.09521
823.4900, 40.40820
823.9720, 29.46436
824.4540, 3.650879
824.9360, 12.96387
825.4180, 61.92578
825.9000, 90.67188
826.3830, 88.61279
826.8650, 79.67090
827.3470, 76.45312
827.8290, 75.40723
828.3110, 68.49023
828.7930, 51.65869
829.2750, 43.83203
829.7570, 61.49414
830.2390, 67.41260
830.7220, 34.89062
831.2040, 1.015137
831.6860, 2.516113
832.1680, 27.32471
832.6500, 50.12354
833.1320, 49.32520
833.6140, 46.75293
834.0960, 52.29883
834.5780, 60.30029
835.0610, 65.17920
835.5430, 68.28955
836.0250, 73.56934
836.5070, 82.86230
836.9890, 87.14648
837.4710, 75.34814
837.9530, 59.55957
838.4350, 60.88770
838.9170, 74.62451
839.4000, 79.57422
839.8820, 69.66406
840.3640, 53.06348
840.8460, 37.61230
841.3280, 25.37500
841.8100, 8.707520
842.2920, 13.49023
842.7740, 20.90137
843.2570, 8.062988
843.7390, 10.68848
844.2210, 28.28662
844.7030, 44.00000
845.1850, 56.47119
845.6670, 67.38477
846.1490, 68.91748
846.6310, 52.40039
847.1140, 37.87695
847.5960, 32.22070
848.0780, 30.18213
848.5600, 24.79688
849.0420, 16.91846
849.5240, 17.47705
850.0060, 34.12109
850.4880, 51.95947
850.9710, 73.54834
851.4530, 88.19873
851.9350, 83.96826
852.4170, 65.73779
852.8990, 43.08740
853.3810, 18.15430
853.8630, 1.986328
854.3450, 12.21191
854.8270, 28.50391
855.3100, 22.45312
855.7920, 3.373047
856.2740, 2.957520
856.7560, 8.040527
857.2380, 17.14893
857.7200, 6.650879
858.2020, 11.79639
858.6840, 12.30078
859.1660, 2.065918
859.6490, 11.29150
860.1310, 12.85693
860.6130, 12.60645
861.0950, 13.03076
861.5770, 13.68604
862.0590, 10.39160
862.5410, 2.487793
863.0230, 3.0273000E-02
863.5050, 2.944336
863.9880, 12.52295
864.4700, 34.75684
864.9520, 55.09912
865.4340, 58.49512
865.9160, 47.27295
866.3980, 38.53369
866.8800, 28.29199
867.3620, 26.85986
867.8440, 48.83887
868.3270, 64.06348
868.8090, 50.85156
869.2910, 25.15869
869.7730, 11.77686
870.2550, 14.42969
870.7370, 16.23047
871.2190, 15.14307
871.7010, 8.455566
872.1840, 18.54102
872.6660, 42.72412
873.1480, 31.50293
873.6300, 7.928711
874.1120, 38.17969
874.5940, 40.36816
875.0760, 37.68750
875.5580, 50.65771
876.0410, 69.88818
876.5230, 85.93262
877.0050, 96.25049
877.4870, 92.10547
877.9690, 72.85742
878.4510, 60.05176
878.9330, 75.31934
879.4150, 109.5562
879.8980, 146.2544
880.3800, 183.9692
880.8620, 215.5669
881.3440, 239.4849
881.8260, 261.6016
882.3080, 287.4600
882.7900, 303.1685
883.2720, 275.2002
883.7540, 201.2573
884.2370, 144.7988
884.7190, 107.5342
885.2010, 82.21094
885.6830, 69.68115
886.1650, 61.50391
886.6470, 49.01318
887.1290, 33.35156
887.6110, 22.80566
888.0930, 20.80176
888.5760, 16.58008
889.0580, 6.174316
889.5400, 3.195801
890.0220, 6.666992
890.5040, 7.489746
890.9860, 11.51562
891.4680, 20.61328
891.9500, 17.75781
892.4320, 11.20361
892.9150, 36.03955
893.3970, 50.66943
893.8790, 55.21191
894.3610, 41.06055
894.8430, 17.85645
895.3250, 14.30322
895.8070, 47.68311
896.2890, 68.24707
896.7710, 37.84570
897.2540, 0.6494140
897.7360, 10.56055
898.2180, 4.340332
898.7000, 5.179199
899.1820, 13.91357
899.6640, 20.52832
900.1460, 21.79688
900.6280, 22.62354
901.1110, 32.31152
901.5930, 43.77148
902.0750, 42.83350
902.5570, 31.43555
903.0390, 20.87305
903.5210, 15.97510
904.0030, 14.27441
904.4850, 12.91895
904.9680, 12.84326
905.4500, 18.66357
905.9320, 28.38867
906.4140, 30.84570
906.8960, 24.32227
907.3780, 19.42871
907.8600, 23.96094
908.3420, 33.01172
908.8250, 35.26660
909.3070, 31.28125
909.7890, 35.08301
910.2710, 47.56494
910.7530, 63.27734
911.2350, 81.69824
911.7170, 96.34814
912.1990, 100.5688
912.6810, 95.39355
913.1640, 85.67676
913.6460, 66.84131
914.1280, 63.08350
914.6100, 89.84717
915.0920, 102.8486
915.5740, 70.81396
916.0560, 20.09229
916.5380, 5.558105
917.0200, 3.251953
917.5030, 7.807129
917.9850, 37.14551
918.4670, 60.02979
918.9490, 67.93604
919.4310, 72.39502
919.9130, 83.52051
920.3950, 96.51953
920.8770, 97.44482
921.3590, 78.13379
921.8420, 70.38770
922.3240, 96.64844
922.8060, 112.3369
923.2880, 82.71338
923.7700, 47.04883
924.2520, 54.73340
924.7340, 97.44727
925.2160, 116.0020
925.6980, 77.03125
926.1810, 47.52393
926.6630, 63.28857
927.1450, 86.17676
927.6270, 90.60596
928.1090, 81.82715
928.5910, 65.95166
929.0730, 46.46924
929.5550, 40.39941
930.0380, 64.50098
930.5200, 92.39355
931.0020, 109.3872
931.4840, 122.3174
931.9660, 135.2983
932.4480, 148.0278
932.9300, 159.7183
933.4120, 169.9233
933.8940, 170.3574
934.3770, 145.9595
934.8590, 114.8262
935.3410, 96.49658
935.8230, 89.57764
936.3050, 96.46045
936.7870, 112.7808
937.2690, 120.1997
937.7520, 108.1909
938.2340, 89.79932
938.7160, 80.75977
939.1980, 77.89209
939.6800, 68.79150
940.1620, 58.96338
940.6440, 75.78223
941.1260, 123.1870
941.6080, 169.9224
942.0910, 191.7358
942.5730, 196.5073
943.0550, 195.3149
943.5370, 190.2231
944.0190, 191.8203
944.5010, 200.3833
944.9830, 208.3862
945.4650, 212.6982
945.9470, 227.7847
946.4300, 272.6934
946.9120, 335.3325
947.3940, 373.4526
947.8760, 387.2188
948.3580, 390.4160
948.8400, 382.3843
949.3220, 389.7534
949.8040, 427.1934
950.2860, 485.6064
950.7690, 558.6445
951.2510, 641.2031
951.7330, 660.6968
952.2150, 604.0654
952.6970, 569.2495
953.1790, 576.4912
953.6610, 589.6377
954.1430, 582.3003
954.6250, 573.9233
955.1080, 602.4336
955.5900, 669.4590
956.0720, 752.0117
956.5540, 838.7583
957.0360, 968.6846
957.5180, 1144.494
958.0000, 1375.501
958.4820, 1646.464
958.9650, 1990.959
959.4470, 2497.313
959.9290, 3153.243
960.4110, 4009.994
960.8930, 5069.269
961.3750, 6326.061
961.8570, 7807.373
962.3390, 9450.584
962.8210, 11160.86
963.3040, 12983.23
963.7860, 15123.17
964.2680, 17443.90
964.7500, 20324.74
965.2320, 23876.54
965.7140, 27880.56
966.1960, 33631.83
966.6790, 38816.24
967.1610, 41396.44
967.6430, 41370.38
968.1250, 38443.23
968.6070, 30164.41
969.0890, 22776.71
969.5710, 16282.60
970.0530, 11101.59
970.5350, 7773.050
971.0180, 5680.411
971.5000, 4215.650
971.9820, 3333.313
972.4640, 2664.058
972.9460, 2252.119
973.4280, 1938.827
973.9100, 1749.842
974.3920, 1598.917
974.8750, 1446.122
975.3570, 1293.879
975.8390, 1144.293
976.3210, 997.3638
976.8030, 887.9019
977.2850, 846.7012
977.7670, 808.6406
978.2490, 754.9624
978.7310, 697.3721
979.2140, 638.4951
979.6960, 585.3916
980.1780, 553.6807
980.6600, 547.1382
981.1420, 536.1367
981.6240, 516.6509
982.1060, 486.3809
982.5880, 432.1270
983.0700, 378.2119
983.5530, 347.7397
984.0350, 332.3022
984.5170, 310.1641
984.9990, 275.6255
985.4810, 247.7417
985.9630, 235.3936
986.4450, 227.5068
986.9270, 221.4429
987.4090, 215.5352
987.8920, 213.2681
988.3740, 208.9043
988.8560, 183.7832
989.3380, 127.1675
989.8200, 91.21973
990.3020, 117.8813
990.7840, 144.7739
991.2660, 133.1504
991.7480, 108.0986
992.2310, 94.45947
992.7130, 91.93652
993.1950, 92.83447
993.6770, 98.18213
994.1590, 90.86035
994.6410, 41.24658
995.1230, 1.894531
995.6060, 18.80322
996.0880, 52.88428
996.5700, 58.61035
997.0520, 39.29932
997.5340, 24.04346
998.0160, 22.27734
998.4980, 22.65088
998.9800, 12.74902
999.4620, 11.35791
999.9450, 43.80518
1000.427, 82.19141
1000.909, 89.67871
1001.391, 70.94287
1001.873, 59.67480
1002.355, 70.32959
1002.837, 75.49316
1003.319, 53.06982
1003.801, 31.14062
1004.284, 32.27930
1004.766, 42.09766
1005.248, 42.42529
1005.730, 33.40918
1006.212, 24.20996
1006.694, 14.96045
1007.176, 16.16602
1007.658, 46.16602
1008.141, 73.65234
1008.623, 75.76221
1009.105, 64.40039
1009.587, 50.70654
1010.069, 38.73682
1010.551, 35.64990
1011.033, 47.79932
1011.515, 56.16406
1011.997, 54.22900
1012.480, 43.84326
1012.962, 16.02393
1013.444, 12.89307
1013.926, 21.88770
1014.408, 12.83008
1014.890, 2.222656
1015.372, 6.486816
1015.854, 11.47803
1016.336, 5.829590
1016.819, 3.095703
1017.301, 15.94580
1017.783, 33.14355
1018.265, 44.12158
1018.747, 46.77197
1019.229, 39.42822
1019.711, 19.07227
1020.193, 3.516602
1020.676, 37.85400
1021.158, 57.94824
1021.640, 37.03125
1022.122, 3.435059
1022.604, 14.38281
1023.086, 15.67383
1023.568, 9.770508
1024.050, 5.791504
1024.532, 14.48730
1025.015, 0.2797850
1025.497, 8.921875
1025.979, 12.39990
1026.461, 39.35742
1026.943, 48.70068
1027.425, 41.13428
1027.907, 25.56445
1028.389, 1.274902
1028.872, 21.21289
1029.354, 28.18994
1029.836, 30.61230
1030.318, 31.79785
1030.800, 29.97412
1031.282, 20.49805
1031.764, 6.534180
1032.246, 0.7670900
1032.729, 3.452148
1033.211, 3.015625
1033.693, 9.087402
1034.175, 19.62012
1034.657, 28.51465
1035.139, 30.45361
1035.621, 14.48877
1036.103, 11.28027
1036.585, 22.68213
1037.068, 13.48291
1037.550, 7.602539
1038.032, 5.785156
1038.514, 7.761719
1038.996, 16.14404
1039.478, 25.80469
1039.960, 33.37939
1040.442, 39.56885
1040.924, 46.90430
1041.407, 57.49609
1041.889, 58.68506
1042.371, 38.18555
1042.853, 30.65918
1043.335, 55.78760
1043.817, 75.92334
1044.299, 61.19385
1044.781, 29.26416
1045.264, 14.88135
1045.746, 19.81982
1046.228, 25.71826
1046.710, 36.72510
1047.192, 36.03076
1047.674, 10.71729
1048.156, 3.212891
1048.638, 19.23389
1049.120, 59.10449
1049.603, 88.33984
1050.085, 106.7759
1050.567, 94.68262
1051.049, 38.30371
1051.531, 16.79199
1052.013, 48.50293
1052.495, 85.60205
1052.977, 107.4663
1053.459, 112.2422
1053.942, 91.80420
1054.424, 52.99756
1054.906, 47.24268
1055.388, 77.43164
1055.870, 83.34521
1056.352, 55.97461
1056.834, 40.78320
1057.316, 57.63672
1057.799, 88.49316
1058.281, 116.4692
1058.763, 138.4536
1059.245, 141.1758
1059.727, 126.9780
1060.209, 117.7969
1060.691, 115.0322
1061.173, 112.4531
1061.656, 108.1108
1062.138, 112.4038
1062.620, 135.6475
1063.102, 168.4844
1063.584, 190.9761
1064.066, 207.9644
1064.548, 233.3291
1065.030, 268.4814
1065.512, 313.8428
1065.995, 369.9194
1066.477, 438.4126
1066.959, 520.8442
1067.441, 615.5405
1067.923, 713.0669
1068.405, 825.4580
1068.887, 992.9800
1069.369, 1186.859
1069.851, 1357.990
1070.334, 1485.164
1070.816, 1536.623
1071.298, 1495.882
1071.780, 1383.342
1072.262, 1185.140
1072.744, 956.2231
1073.226, 722.3955
1073.708, 515.9258
1074.190, 385.9395
1074.673, 321.8281
1075.155, 276.9150
1075.637, 236.2090
1076.119, 211.5303
1076.601, 221.3491
1077.083, 234.9106
1077.565, 228.6182
1078.047, 220.5576
1078.530, 229.6499
1079.012, 248.9111
1079.494, 261.7847
1079.976, 266.0986
1080.458, 277.6694
1080.940, 301.4155
1081.422, 332.3018
1081.904, 383.5454
1082.386, 424.2002
1082.869, 435.6997
1083.351, 427.1504
1083.833, 405.7681
1084.315, 373.4536
1084.797, 349.0923
1085.279, 331.2236
1085.761, 329.8008
1086.243, 355.0967
1086.725, 383.3887
1087.208, 400.6201
1087.690, 425.1958
1088.172, 478.2651
1088.654, 551.3945
1089.136, 612.1104
1089.618, 652.1274
1090.100, 712.4209
1090.582, 796.0498
1091.065, 892.8779
1091.547, 1000.907
1092.029, 1113.220
1092.511, 1218.223
1092.993, 1340.895
1093.475, 1521.637
1093.957, 1759.563
1094.439, 2049.220
1094.922, 2390.663
1095.404, 2750.402
1095.886, 3123.226
1096.368, 3541.979
1096.850, 4023.973
1097.332, 4571.778
1097.814, 5188.016
1098.296, 5872.733
1098.778, 6657.409
1099.260, 7503.758
1099.743, 8312.708
1100.225, 9043.482
1100.707, 9530.460
1101.189, 9739.854
1101.671, 9868.693
1102.153, 9998.082
1102.635, 10336.38
1103.117, 11100.93
1103.600, 12278.71
1104.082, 13885.32
1104.564, 15871.65
1105.046, 18074.50
1105.528, 20523.34
1106.010, 23435.45
1106.492, 26920.95
1106.974, 30753.91
1107.457, 35617.95
1107.939, 39787.74
1108.421, 42898.47
1108.903, 43911.98
1109.385, 41135.18
1109.867, 35512.50
1110.349, 29030.20
1110.831, 21981.18
1111.313, 16029.86
1111.796, 11674.91
1112.278, 8362.099
1112.760, 6268.209
1113.242, 4784.996
1113.724, 3716.338
1114.206, 2950.261
1114.688, 2420.334
1115.170, 2104.728
1115.652, 1805.058
1116.135, 1498.598
1116.617, 1261.880
1117.099, 1114.368
1117.581, 1004.320
1118.063, 925.7939
1118.545, 856.4570
1119.027, 774.5444
1119.509, 690.6235
1119.992, 632.4624
1120.474, 600.7021
1120.956, 581.1777
1121.438, 574.6787
1121.920, 559.8286
1122.402, 532.1831
1122.884, 505.9927
1123.366, 488.4443
1123.849, 485.6357
1124.331, 510.2144
1124.813, 550.9878
1125.295, 571.6235
1125.777, 585.3662
1126.259, 632.0366
1126.741, 711.7573
1127.223, 806.0005
1127.705, 909.7637
1128.188, 1033.074
1128.670, 1175.223
1129.152, 1359.417
1129.634, 1627.956
1130.116, 1932.330
1130.598, 2195.216
1131.080, 2472.864
1131.562, 2867.090
1132.044, 3366.441
1132.527, 3880.650
1133.009, 4384.335
1133.491, 4888.880
1133.973, 5431.304
1134.455, 5929.868
1134.937, 6481.072
1135.419, 6843.347
1135.901, 6852.825
1136.384, 6536.210
1136.866, 5893.533
1137.348, 4914.968
1137.830, 3993.875
1138.312, 3086.275
1138.794, 2333.373
1139.276, 1756.158
1139.758, 1310.662
1140.240, 996.3477
1140.723, 773.8154
1141.205, 613.8911
1141.687, 504.9990
1142.169, 416.8262
1142.651, 349.7017
1143.133, 280.7944
1143.615, 210.4980
1144.097, 158.7368
1144.579, 129.3130
1145.062, 115.6328
1145.544, 114.7793
1146.026, 113.8584
1146.508, 96.59424
1146.990, 70.03076
1147.472, 38.91406
1147.954, 12.98926
1148.436, 25.96191
1148.919, 60.45557
1149.401, 56.89355
1149.883, 7.518066
1150.365, 29.63574
1150.847, 19.08545
1151.329, 0.2211910
1151.811, 5.305176
1152.293, 4.136719
1152.776, 3.918457
1153.258, 2.299805
1153.740, 29.44922
1154.222, 68.38672
1154.704, 94.87500
1155.186, 105.9614
1155.668, 99.46777
1156.150, 64.38379
1156.632, 27.53027
1157.115, 15.88232
1157.597, 47.78516
1158.079, 59.20654
1158.561, 54.81152
1159.043, 35.45605
1159.525, 6.874512
1160.007, 2.231445
1160.489, 10.12402
1160.971, 24.22949
1161.454, 40.15137
1161.936, 42.63086
1162.418, 27.56738
1162.900, 19.68262
1163.382, 35.44580
1163.864, 55.78027
1164.346, 50.56055
1164.828, 33.43066
1165.311, 32.01611
1165.793, 43.87549
1166.275, 71.24707
1166.757, 105.6035
1167.239, 122.1299
1167.721, 116.3682
1168.203, 110.5190
1168.685, 118.9790
1169.167, 125.5278
1169.650, 117.2793
1170.132, 106.0918
1170.614, 90.02344
1171.096, 83.92627
1171.578, 111.0557
1172.060, 160.0894
1172.542, 199.6631
1173.024, 227.0444
1173.506, 238.3691
1173.989, 226.6875
1174.471, 209.9731
1174.953, 177.0205
1175.435, 166.4209
1175.917, 205.4302
1176.399, 253.4946
1176.881, 265.6621
1177.363, 253.4326
1177.846, 255.2124
1178.328, 270.4775
1178.810, 287.1665
1179.292, 305.7632
1179.774, 300.1807
1180.256, 270.9429
1180.738, 251.2290
1181.220, 258.0127
1181.703, 279.9917
1182.185, 312.3789
1182.667, 344.6475
1183.149, 362.2153
1183.631, 371.3140
1184.113, 376.5659
1184.595, 381.8833
1185.077, 395.5811
1185.559, 416.2134
1186.042, 429.9980
1186.524, 431.9800
1187.006, 427.9131
1187.488, 406.0361
1187.970, 396.6768
1188.452, 419.2480
1188.934, 450.1899
1189.416, 478.1274
1189.898, 499.2183
1190.381, 506.0474
1190.863, 499.5073
1191.345, 493.3984
1191.827, 486.1689
1192.309, 490.3521
1192.791, 508.7832
1193.273, 518.5684
1193.755, 513.3589
1194.238, 500.9277
1194.720, 487.6606
1195.202, 481.3374
1195.684, 501.7427
1196.166, 532.9053
1196.648, 536.8276
1197.130, 524.9194
1197.612, 520.6562
1198.094, 523.1567
1198.577, 520.6104
1199.059, 510.8633
1199.541, 502.9160
1200.023, 499.7856
1200.505, 502.3813
1200.987, 522.1768
1201.469, 534.0718
1201.951, 518.3882
1202.433, 493.6294
1202.916, 472.3735
1203.398, 457.6997
1203.880, 457.9160
1204.362, 474.0557
1204.844, 467.1763
1205.326, 428.5054
1205.808, 398.3311
1206.290, 379.1289
1206.773, 375.4971
1207.255, 390.8765
1207.737, 406.8613
1208.219, 407.7324
1208.701, 397.6714
1209.183, 372.7285
1209.665, 341.6582
1210.147, 335.6885
1210.630, 340.9482
1211.112, 315.6123
1211.594, 269.3223
1212.076, 249.9189
1212.558, 268.4292
1213.040, 289.4702
1213.522, 299.6968
1214.004, 300.7603
1214.486, 288.8994
1214.969, 272.9155
1215.451, 247.9609
1215.933, 225.5415
1216.415, 211.5562
1216.897, 211.2886
1217.379, 198.3374
1217.861, 205.3193
1218.343, 207.4668
1218.825, 205.0391
1219.308, 184.3262
1219.790, 187.2188
1220.272, 180.6558
1220.754, 173.7017
1221.236, 179.9131
1221.718, 161.8628
1222.200, 167.8633
1222.682, 164.2607
1223.165, 165.0425
1223.647, 156.3174
1224.129, 150.5288
1224.611, 154.2573
1225.093, 152.7134
1225.575, 142.8740
1226.057, 143.9082
1226.539, 129.8218
1227.021, 129.5205
1227.504, 128.6934
1227.986, 121.5942
1228.468, 113.6509
1228.950, 106.6387
1229.432, 99.90234
1229.914, 92.50244
1230.396, 85.51123
1230.878, 79.28027
1231.360, 75.16113
1231.843, 87.39600
1232.325, 117.7061
1232.807, 111.3706
1233.289, 68.16064
1233.771, 34.47363
1234.253, 21.14111
1234.735, 22.97070
1235.217, 37.63623
1235.700, 42.85693
1236.182, 1.715332
1236.664, 43.25439
1237.146, 6.790527
1237.628, 48.28369
1238.110, 57.04102
1238.592, 38.46191
1239.074, 21.14697
1239.557, 11.91211
1240.039, 20.68604
1240.521, 58.29297
1241.003, 74.67627
1241.485, 46.17236
1241.967, 42.56543
1242.449, 89.59326
1242.931, 115.6104
1243.413, 83.41895
1243.896, 43.54639
1244.378, 46.36133
1244.860, 72.21094
1245.342, 79.52637
1245.824, 73.12061
1246.306, 62.93164
1246.788, 55.29980
1247.270, 77.67676
1247.752, 118.5854
1248.235, 130.9414
1248.717, 103.3555
1249.199, 71.16211
1249.681, 50.47852
1250.163, 31.69727
1250.645, 3.329590
1251.127, 19.98633
1251.609, 14.47217
1252.092, 58.24854
1252.574, 79.86719
1253.056, 87.60498
1253.538, 94.53174
1254.020, 99.83545
1254.502, 88.90137
1254.984, 76.71387
1255.466, 64.06592
1255.948, 51.71436
1256.431, 46.15283
1256.913, 48.12158
1257.395, 50.43066
1257.877, 49.38037
1258.359, 41.68896
1258.841, 16.10352
1259.323, 5.612793
1259.805, 0.8144530
1260.287, 18.27344
1260.770, 37.65674
1261.252, 51.51660
1261.734, 43.10693
1262.216, 28.32031
1262.698, 25.23584
1263.180, 38.11670
1263.662, 47.15771
1264.144, 50.10547
1264.627, 56.32520
1265.109, 69.20508
1265.591, 69.33203
1266.073, 52.94189
1266.555, 37.34424
1267.037, 38.06982
1267.519, 42.64502
1268.001, 29.50342
1268.484, 10.82959
1268.966, 13.13818
1269.448, 23.56836
1269.930, 14.33936
1270.412, 0.4296880
1270.894, 17.72656
1271.376, 0.0000000E+00
##END=



