##NAMES=unknown
##RRUFFID=R130092
##LOCALITY=Palermo No. 1 mine, Groton, New Hampshire, USA
##OWNER=RRUFF
##SOURCE=Benjamin N. Schumer
##DESCRIPTION=This is the new Na-palermoite, ideally Na2SrAl4(PO4)4(OH)4
##STATUS=The identification of this mineral has been confirmed only by chemical analysis
##URL=rruff.info/R130092
##MEASURED CHEMISTRY=(Na_1.70_Li_0.30_)_2.00_(Sr_0.96_Ca_0.02_Ba_0.01_)(Al_3.83_Mg_0.04_Mn_0.03_Fe_0.03_)(PO_4_)_4.06_(OH)_4.00_
204.1054, 0.0000000E+00
204.5875, 1.014908
205.0696, 0.4785160
205.5518, 5.2627999E-02
206.0339, 0.6005710
206.5160, 1.608749
206.9981, 2.077484
207.4802, 1.864975
207.9623, 1.690628
208.4445, 1.747192
208.9266, 2.065521
209.4087, 2.242920
209.8908, 2.372665
210.3729, 2.389816
210.8550, 2.203049
211.3372, 1.768051
211.8193, 1.268326
212.3014, 0.6547550
212.7835, 7.3882997E-02
213.2656, 0.3417660
213.7477, 3.7380001E-03
214.2298, 0.5820010
214.7120, 0.9459840
215.1941, 0.9345250
215.6762, 1.140976
216.1583, 1.768280
216.6404, 2.830582
217.1225, 3.885605
217.6047, 5.105942
218.0868, 6.117615
218.5689, 6.320969
219.0510, 5.150253
219.5331, 4.533096
220.0152, 5.167343
220.4974, 7.238358
220.9795, 8.484543
221.4616, 8.519928
221.9437, 8.162384
222.4258, 8.517838
222.9079, 10.04846
223.3901, 11.28481
223.8722, 11.66553
224.3543, 11.02950
224.8364, 11.04182
225.3185, 11.99899
225.8006, 13.31544
226.2828, 14.29654
226.7649, 14.89986
227.2470, 15.21036
227.7291, 15.12749
228.2112, 14.54919
228.6933, 14.37158
229.1755, 14.78931
229.6576, 15.43164
230.1397, 15.77899
230.6218, 15.58980
231.1039, 15.57327
231.5860, 15.99396
232.0682, 16.97437
232.5503, 17.59163
233.0324, 17.65742
233.5145, 17.52910
233.9966, 17.66145
234.4787, 18.16206
234.9609, 18.74301
235.4430, 19.36249
235.9251, 20.04185
236.4072, 20.58884
236.8893, 20.81531
237.3714, 21.06050
237.8536, 21.87126
238.3357, 24.02071
238.8178, 25.36804
239.2999, 25.10471
239.7820, 22.92471
240.2641, 21.47786
240.7463, 21.05286
241.2284, 21.10703
241.7105, 21.00107
242.1926, 20.69286
242.6747, 20.28712
243.1568, 19.75237
243.6390, 19.04308
244.1211, 18.57236
244.6032, 18.44781
245.0853, 18.46072
245.5674, 18.34033
246.0495, 17.92468
246.5317, 17.74420
247.0138, 18.03151
247.4959, 18.88855
247.9780, 19.39281
248.4601, 19.46448
248.9422, 19.25951
249.4244, 18.91534
249.9065, 18.33510
250.3886, 17.79959
250.8707, 17.39050
251.3528, 17.12054
251.8349, 16.79893
252.3171, 16.48851
252.7992, 16.06274
253.2813, 15.35690
253.7634, 14.22202
254.2455, 13.13715
254.7276, 12.19662
255.2098, 11.39609
255.6919, 10.60205
256.1740, 9.746460
256.6561, 8.973801
257.1382, 8.446396
257.6204, 8.236725
258.1025, 8.094086
258.5846, 8.035873
259.0667, 8.047913
259.5488, 7.790237
260.0309, 7.195679
260.5131, 6.439545
260.9952, 5.621094
261.4773, 4.599976
261.9594, 3.893539
262.4415, 3.767868
262.9236, 4.139435
263.4058, 4.061737
263.8879, 3.298691
264.3700, 2.539352
264.8521, 2.346069
265.3342, 2.843857
265.8163, 3.511169
266.2985, 4.370911
266.7806, 5.344559
267.2627, 5.986465
267.7448, 6.212082
268.2269, 6.267639
268.7090, 6.314484
269.1912, 6.352585
269.6733, 6.384079
270.1554, 6.430145
270.6375, 6.461548
271.1196, 6.259003
271.6017, 5.658463
272.0839, 5.302460
272.5660, 5.822464
273.0481, 7.433273
273.5302, 8.506424
274.0123, 8.827255
274.4944, 8.564987
274.9766, 8.138748
275.4587, 7.492386
275.9408, 6.912109
276.4229, 6.619888
276.9050, 6.642212
277.3871, 6.608276
277.8693, 6.466263
278.3514, 6.287643
278.8335, 6.338120
279.3156, 6.705292
279.7977, 6.794159
280.2798, 6.038666
280.7620, 4.436523
281.2441, 3.503754
281.7262, 3.486420
282.2083, 3.844925
282.6904, 3.539444
283.1725, 2.516571
283.6547, 1.574417
284.1368, 1.139954
284.6189, 1.175995
285.1010, 1.263901
285.5831, 1.447205
286.0652, 1.532867
286.5474, 1.096603
287.0295, 0.1525730
287.5116, 0.6178890
287.9937, 0.8729550
288.4758, 0.6809540
288.9579, 0.3731690
289.4401, 9.2208996E-02
289.9222, 0.4885100
290.4043, 0.4185180
290.8864, 4.8751999E-02
291.3685, 0.3554080
291.8506, 0.1552580
292.3328, 0.3484040
292.8149, 0.5072020
293.2970, 0.2996830
293.7791, 2.5513001E-02
294.2612, 0.1544490
294.7433, 0.1840060
295.2255, 0.1961520
295.7076, 1.257813
296.1897, 2.675980
296.6718, 3.867462
297.1539, 4.828156
297.6360, 5.543289
298.1182, 5.722198
298.6003, 5.626709
299.0824, 5.953720
299.5645, 7.076736
300.0466, 8.510742
300.5287, 9.579529
301.0109, 10.31763
301.4930, 11.02734
301.9751, 11.80411
302.4572, 12.73224
302.9393, 13.94762
303.4214, 15.56538
303.9036, 17.29608
304.3857, 18.97833
304.8678, 20.56714
305.3499, 21.89641
305.8320, 22.40601
306.3141, 22.74944
306.7963, 23.78593
307.2784, 25.85010
307.7605, 28.08574
308.2426, 29.78944
308.7247, 31.11047
309.2068, 32.41357
309.6890, 33.57596
310.1711, 34.99156
310.6532, 37.12596
311.1353, 40.14459
311.6174, 43.21965
312.0995, 45.62839
312.5817, 47.76807
313.0638, 50.24939
313.5459, 53.58170
314.0280, 57.16428
314.5101, 60.72963
314.9922, 64.25764
315.4744, 67.58850
315.9565, 70.73077
316.4386, 73.59425
316.9207, 76.03798
317.4028, 78.34445
317.8849, 79.97978
318.3671, 80.64163
318.8492, 80.35342
319.3313, 79.57185
319.8134, 78.20090
320.2955, 76.53162
320.7776, 74.80820
321.2598, 73.46338
321.7419, 71.64532
322.2240, 69.02975
322.7061, 65.71591
323.1882, 62.24069
323.6703, 58.25531
324.1525, 54.42650
324.6346, 51.16330
325.1167, 48.74945
325.5988, 46.52963
326.0809, 44.48230
326.5630, 42.59402
327.0452, 40.81918
327.5273, 39.12486
328.0094, 37.59697
328.4915, 36.24768
328.9736, 35.03923
329.4557, 34.13307
329.9379, 33.71692
330.4200, 33.54164
330.9021, 33.22336
331.3842, 32.77997
331.8663, 32.15805
332.3484, 31.26665
332.8306, 30.04716
333.3127, 29.03030
333.7948, 28.27899
334.2769, 27.66853
334.7590, 27.07715
335.2411, 26.50333
335.7233, 25.96408
336.2054, 25.57513
336.6875, 25.29787
337.1696, 24.43404
337.6517, 22.73457
338.1338, 20.94156
338.6159, 19.71368
339.0981, 19.15260
339.5802, 18.64391
340.0623, 18.18163
340.5444, 17.67220
341.0265, 16.74896
341.5086, 15.30396
341.9908, 13.89049
342.4729, 12.85173
342.9550, 12.19130
343.4371, 11.61276
343.9192, 11.13216
344.4013, 10.65338
344.8835, 9.977188
345.3656, 9.095749
345.8477, 8.228348
346.3298, 7.439743
346.8119, 6.755280
347.2940, 6.394791
347.7762, 6.420120
348.2583, 6.430923
348.7404, 5.727829
349.2225, 4.517685
349.7046, 3.711639
350.1867, 4.007935
350.6689, 4.762589
351.1510, 4.763412
351.6331, 4.020630
352.1152, 3.169067
352.5973, 2.781448
353.0794, 2.656082
353.5616, 2.385925
354.0437, 1.689804
354.5258, 1.022507
355.0079, 0.9922640
355.4900, 1.457825
355.9721, 1.783279
356.4543, 1.407822
356.9364, 0.7759700
357.4185, 0.3917540
357.9006, 0.4842830
358.3827, 0.4589840
358.8648, 0.3183900
359.3470, 1.477936
359.8291, 2.278030
360.3112, 2.281570
360.7933, 1.914688
361.2754, 1.315796
361.7575, 0.4441070
362.2397, 0.2349240
362.7218, 0.4592590
363.2039, 0.4253080
363.6860, 0.3531650
364.1681, 0.2497560
364.6502, 0.1630250
365.1324, 7.7468999E-02
365.6145, 3.0210000E-03
366.0966, 3.4775000E-02
366.5787, 0.5189970
367.0608, 0.9351200
367.5429, 0.9537810
368.0251, 0.2170410
368.5072, 0.8785100
368.9893, 0.6028290
369.4714, 0.3141330
369.9535, 0.9007720
370.4356, 0.9200590
370.9178, 0.8615420
371.3999, 0.9261320
371.8820, 1.206329
372.3641, 1.375641
372.8462, 1.432266
373.3283, 1.376205
373.8105, 1.181320
374.2926, 0.7597050
374.7747, 0.3893740
375.2568, 0.1316990
375.7389, 1.5167000E-02
376.2210, 2.0615000E-02
376.7032, 0.1437530
377.1853, 0.3852080
377.6674, 0.6493380
378.1495, 0.9490200
378.6316, 1.145859
379.1137, 1.183350
379.5959, 1.121689
380.0780, 1.165085
380.5601, 1.325119
381.0422, 1.475311
381.5243, 1.558258
382.0064, 1.569824
382.4886, 1.406662
382.9707, 0.9818120
383.4528, 0.6120150
383.9349, 0.8504640
384.4170, 1.600616
384.8991, 2.316803
385.3813, 2.738724
385.8634, 2.961670
386.3455, 3.085831
386.8276, 3.103622
387.3097, 3.231628
387.7918, 3.734238
388.2740, 4.467865
388.7561, 5.169922
389.2382, 5.709274
389.7203, 6.227249
390.2024, 6.796509
390.6845, 7.421082
391.1667, 8.147766
391.6488, 9.205948
392.1309, 10.25584
392.6130, 10.94563
393.0951, 10.94189
393.5772, 11.14789
394.0594, 12.27365
394.5415, 13.84081
395.0236, 14.96007
395.5057, 14.57349
395.9878, 14.38400
396.4699, 15.28819
396.9521, 17.58919
397.4342, 19.40395
397.9163, 19.66319
398.3984, 19.68370
398.8805, 20.66660
399.3626, 24.37433
399.8448, 27.10727
400.3269, 28.03339
400.8090, 27.42906
401.2911, 27.35048
401.7732, 27.92924
402.2553, 28.87204
402.7375, 30.06633
403.2196, 31.63895
403.7017, 33.13972
404.1838, 34.48503
404.6659, 35.87653
405.1480, 37.66977
405.6302, 40.05602
406.1123, 42.00673
406.5944, 42.96317
407.0765, 42.99283
407.5586, 43.48935
408.0407, 44.53943
408.5229, 45.77066
409.0050, 46.86203
409.4871, 47.81345
409.9692, 48.61481
410.4513, 49.24535
410.9334, 49.75101
411.4156, 50.37363
411.8977, 51.07089
412.3798, 51.38043
412.8619, 50.64909
413.3440, 49.36971
413.8261, 48.46640
414.3083, 48.05133
414.7904, 47.96761
415.2725, 48.25365
415.7546, 48.75504
416.2367, 49.14233
416.7188, 49.02933
417.2010, 48.82208
417.6831, 48.98738
418.1652, 49.54698
418.6473, 50.00862
419.1294, 49.77701
419.6115, 49.53302
420.0937, 49.81595
420.5758, 51.15833
421.0579, 52.46165
421.5400, 53.31381
422.0221, 53.86942
422.5042, 54.53659
422.9864, 55.32201
423.4685, 56.30386
423.9506, 57.60519
424.4327, 59.40317
424.9148, 60.93999
425.3969, 61.70732
425.8791, 62.44763
426.3612, 63.95912
426.8433, 66.98332
427.3254, 69.73459
427.8075, 71.88638
428.2896, 73.50061
428.7718, 74.93535
429.2539, 76.27319
429.7360, 77.22249
430.2181, 77.70508
430.7002, 77.80194
431.1823, 76.73917
431.6645, 74.26454
432.1466, 71.01024
432.6287, 68.06033
433.1108, 65.44479
433.5929, 62.65067
434.0750, 59.45354
434.5572, 55.95700
435.0393, 52.41928
435.5214, 48.84906
436.0035, 45.32178
436.4856, 41.64734
436.9677, 38.12268
437.4499, 35.47501
437.9320, 34.12663
438.4141, 33.18034
438.8962, 31.72488
439.3783, 29.86938
439.8604, 27.94182
440.3426, 26.07089
440.8247, 24.23209
441.3068, 22.32922
441.7889, 20.35347
442.2710, 18.53502
442.7531, 17.02026
443.2353, 15.71252
443.7174, 14.51180
444.1995, 13.28421
444.6816, 12.27036
445.1637, 11.64420
445.6458, 11.32292
446.1280, 10.90031
446.6101, 10.22977
447.0922, 9.519836
447.5743, 8.840622
448.0564, 8.156433
448.5385, 7.620728
449.0207, 7.399460
449.5028, 7.225571
449.9849, 6.716171
450.4670, 5.633347
450.9491, 4.752823
451.4312, 4.301926
451.9134, 4.216995
452.3955, 4.034454
452.8776, 3.736893
453.3597, 3.423843
453.8418, 3.164673
454.3239, 2.961105
454.8061, 2.757645
455.2882, 2.547394
455.7703, 2.345871
456.2524, 2.172012
456.7345, 2.025345
457.2166, 1.919479
457.6988, 1.882980
458.1809, 1.875473
458.6630, 1.808640
459.1451, 1.685959
459.6272, 1.591934
460.1093, 1.815201
460.5915, 2.024200
461.0736, 1.710663
461.5557, 0.4944000
462.0378, 0.6687320
462.5199, 1.184311
463.0020, 1.204330
463.4842, 1.013397
463.9663, 0.4532930
464.4484, 6.6543996E-02
464.9305, 0.3411100
465.4126, 0.3540950
465.8947, 0.2800750
466.3769, 8.1467003E-02
466.8590, 0.1468350
467.3411, 0.3374020
467.8232, 0.7107700
468.3053, 0.7374110
468.7874, 0.1596830
469.2696, 0.7291560
469.7517, 1.191788
470.2338, 1.046234
470.7159, 0.7967070
471.1980, 0.6044310
471.6801, 0.4713130
472.1623, 0.3103490
472.6444, 9.2285000E-02
473.1265, 7.4142002E-02
473.6086, 7.8720003E-02
474.0907, 7.6766998E-02
474.5728, 0.3714900
475.0550, 0.9025120
475.5371, 1.409607
476.0192, 1.171768
476.5013, 0.3091130
476.9834, 0.2266850
477.4655, 0.4167180
477.9477, 1.603897
478.4298, 2.322876
478.9119, 2.523315
479.3940, 2.478912
479.8761, 2.248566
480.3582, 1.951889
480.8404, 1.760101
481.3225, 1.875015
481.8046, 1.901581
482.2867, 1.496094
482.7688, 0.8397520
483.2509, 0.3943790
483.7331, 0.4587250
484.2152, 0.6489870
484.6973, 0.8188170
485.1794, 0.9643400
485.6615, 1.071625
486.1436, 1.135361
486.6258, 1.163086
487.1079, 1.139526
487.5900, 0.8747560
488.0721, 0.9163970
488.5542, 1.478439
489.0363, 2.319382
489.5185, 2.710098
490.0006, 2.524261
490.4827, 2.251373
490.9648, 2.076157
491.4469, 1.995544
491.9290, 1.987259
492.4112, 2.055054
492.8933, 2.160217
493.3754, 2.307953
493.8575, 2.478134
494.3396, 2.563583
494.8217, 2.523361
495.3039, 2.431183
495.7860, 2.235687
496.2681, 2.050232
496.7502, 2.215408
497.2323, 3.351486
497.7144, 4.619141
498.1966, 5.162659
498.6787, 4.940247
499.1608, 4.747925
499.6429, 4.983734
500.1250, 5.412338
500.6071, 5.825455
501.0893, 6.119873
501.5714, 6.470276
502.0535, 6.925293
502.5356, 7.445175
503.0177, 8.023758
503.4998, 8.925797
503.9820, 9.640015
504.4641, 9.877792
504.9462, 9.590012
505.4283, 9.898743
505.9104, 11.07324
506.3925, 12.45782
506.8747, 13.58290
507.3568, 14.42696
507.8389, 15.17627
508.3210, 15.84784
508.8031, 16.41605
509.2852, 16.72050
509.7674, 16.76060
510.2495, 16.97853
510.7316, 17.55318
511.2137, 18.44386
511.6958, 19.75122
512.1780, 21.41507
512.6601, 22.82463
513.1422, 23.18242
513.6243, 23.13631
514.1064, 23.54553
514.5886, 24.65550
515.0707, 25.88554
515.5528, 26.87198
516.0349, 27.74921
516.5170, 28.73143
516.9991, 30.06471
517.4813, 31.33830
517.9634, 32.40987
518.4455, 33.29730
518.9276, 34.15875
519.4097, 34.99466
519.8918, 35.75081
520.3740, 36.48299
520.8561, 37.34880
521.3382, 37.79135
521.8203, 37.61159
522.3024, 37.27673
522.7845, 37.36282
523.2667, 37.96225
523.7488, 38.40355
524.2309, 38.61250
524.7130, 38.50546
525.1951, 37.72195
525.6772, 36.26283
526.1594, 34.87206
526.6415, 34.18738
527.1236, 33.85162
527.6057, 32.99866
528.0878, 31.59689
528.5699, 30.10655
529.0521, 28.95462
529.5342, 27.94846
530.0163, 26.81924
530.4984, 25.42534
530.9805, 24.04007
531.4626, 22.93335
531.9448, 21.96017
532.4269, 20.82455
532.9090, 19.18730
533.3911, 17.60023
533.8732, 16.20485
534.3553, 15.00908
534.8375, 13.93768
535.3196, 12.99799
535.8017, 12.25908
536.2838, 11.81866
536.7659, 11.90419
537.2480, 11.59404
537.7302, 10.77785
538.2123, 9.703156
538.6944, 8.690186
539.1765, 7.725220
539.6586, 6.951477
540.1407, 6.450760
540.6229, 6.134247
541.1050, 5.863617
541.5871, 5.639877
542.0692, 5.361984
542.5513, 4.934372
543.0334, 4.425659
543.5156, 3.923370
543.9977, 3.433945
544.4798, 2.996582
544.9619, 2.680267
545.4440, 2.414886
545.9261, 2.115585
546.4083, 1.609879
546.8904, 1.280563
547.3725, 1.448044
547.8546, 1.861969
548.3367, 1.996490
548.8188, 1.301041
549.3010, 0.8146210
549.7831, 0.9124600
550.2652, 1.580276
550.7473, 1.864410
551.2294, 1.651215
551.7115, 1.245667
552.1937, 0.7881930
552.6758, 0.2628170
553.1579, 0.1365660
553.6400, 0.4062960
554.1221, 0.5267640
554.6042, 0.3665310
555.0864, 1.7318999E-02
555.5685, 0.2273410
556.0506, 1.2050000E-03
556.5327, 0.2765350
557.0148, 0.1591340
557.4969, 1.080521
557.9791, 1.638046
558.4612, 0.9282680
558.9433, 6.8770997E-02
559.4254, 0.5185550
559.9075, 0.3594970
560.3896, 0.1893460
560.8718, 0.3107910
561.3539, 0.4801480
561.8360, 0.5198820
562.3181, 0.3935240
562.8002, 0.1362150
563.2823, 0.4060210
563.7645, 1.013977
564.2466, 1.361938
564.7287, 1.443085
565.2108, 1.257416
565.6929, 0.6748350
566.1750, 0.1565860
566.6572, 0.5667720
567.1393, 0.5198970
567.6214, 0.3050380
568.1035, 2.5451999E-02
568.5856, 0.3933410
569.0677, 0.4341740
569.5499, 0.1101680
570.0320, 0.1884610
570.5141, 1.4694000E-02
570.9962, 0.4591830
571.4783, 0.6830600
571.9604, 0.4181980
572.4426, 0.2380980
572.9247, 0.6854400
573.4068, 1.449036
573.8889, 1.983139
574.3710, 1.883438
574.8531, 1.752335
575.3353, 1.786530
575.8174, 1.983932
576.2995, 2.197189
576.7816, 2.386841
577.2637, 2.629776
577.7458, 2.935593
578.2280, 3.266388
578.7101, 3.931610
579.1922, 5.095245
579.6743, 6.231323
580.1564, 6.634232
580.6385, 6.355240
581.1207, 6.399918
581.6028, 6.987701
582.0849, 7.865784
582.5670, 8.753540
583.0491, 9.619720
583.5313, 10.41391
584.0133, 10.91592
584.4954, 11.46240
584.9775, 12.44324
585.4597, 13.78632
585.9418, 15.07730
586.4239, 16.13901
586.9060, 17.07068
587.3881, 17.99854
587.8702, 19.01443
588.3524, 19.67395
588.8345, 19.57172
589.3166, 19.32152
589.7987, 19.43419
590.2808, 20.21796
590.7629, 20.61569
591.2451, 20.37796
591.7272, 19.90051
592.2093, 19.90329
592.6914, 20.39671
593.1735, 21.26999
593.6556, 22.89929
594.1378, 24.60904
594.6199, 24.53894
595.1020, 22.85696
595.5841, 20.93102
596.0662, 19.62157
596.5483, 18.57292
597.0305, 17.25226
597.5126, 15.59941
597.9947, 14.25275
598.4768, 13.92238
598.9589, 13.87126
599.4410, 13.45500
599.9232, 12.30807
600.4053, 11.19176
600.8874, 10.12895
601.3695, 9.197769
601.8516, 8.550781
602.3337, 8.416870
602.8159, 8.115829
603.2980, 7.440155
603.7801, 6.535217
604.2622, 5.878830
604.7443, 5.475906
605.2264, 5.288193
605.7086, 5.382309
606.1907, 5.674423
606.6728, 5.852783
607.1549, 5.917633
607.6370, 6.047272
608.1191, 6.193253
608.6013, 6.556183
609.0834, 7.541489
609.5655, 9.433594
610.0476, 11.26221
610.5297, 12.50272
611.0118, 13.15923
611.4940, 13.44286
611.9761, 12.98801
612.4582, 12.68356
612.9403, 12.60023
613.4224, 12.72795
613.9045, 13.27589
614.3867, 14.58331
614.8688, 15.55727
615.3509, 15.67076
615.8330, 15.12590
616.3151, 15.42053
616.7972, 16.60472
617.2794, 18.02090
617.7615, 19.61530
618.2436, 21.14291
618.7257, 21.55589
619.2078, 20.72461
619.6899, 19.93501
620.1721, 20.56184
620.6542, 21.77350
621.1363, 22.50642
621.6184, 22.43320
622.1005, 22.12009
622.5826, 21.67053
623.0648, 21.18582
623.5469, 20.80212
624.0290, 20.83357
624.5111, 20.58952
624.9932, 19.90764
625.4753, 18.94214
625.9575, 18.17603
626.4396, 17.64883
626.9217, 17.13568
627.4038, 16.43814
627.8859, 15.66055
628.3680, 15.66054
628.8502, 16.46315
629.3323, 17.16425
629.8144, 16.84195
630.2965, 16.00095
630.7786, 15.65390
631.2607, 15.92539
631.7429, 16.28799
632.2250, 16.22197
632.7071, 16.08994
633.1892, 16.31657
633.6713, 17.27225
634.1534, 18.12714
634.6356, 18.72632
635.1177, 19.06929
635.5998, 19.14378
636.0819, 18.51784
636.5640, 18.35045
637.0461, 19.01213
637.5283, 20.21686
638.0104, 21.05513
638.4925, 21.52547
638.9746, 21.66711
639.4567, 21.35008
639.9388, 20.74960
640.4210, 20.55524
640.9031, 20.73962
641.3852, 20.77713
641.8673, 20.16409
642.3494, 19.25250
642.8315, 18.45325
643.3137, 17.81273
643.7958, 17.23184
644.2779, 16.65616
644.7600, 16.08653
645.2421, 15.52905
645.7242, 15.11293
646.2064, 14.49196
646.6885, 13.47243
647.1706, 12.35283
647.6527, 11.58530
648.1348, 11.29060
648.6169, 10.86639
649.0991, 10.19824
649.5812, 9.333252
650.0633, 8.271912
650.5454, 7.029175
651.0275, 5.941193
651.5096, 5.094849
651.9918, 4.526947
652.4739, 4.437683
652.9560, 4.737518
653.4381, 4.954865
653.9202, 4.727539
654.4023, 4.384216
654.8845, 4.156372
655.3666, 4.077118
655.8487, 3.961182
656.3308, 3.846954
656.8129, 3.616669
657.2950, 3.158997
657.7772, 2.250854
658.2593, 1.749847
658.7414, 1.778992
659.2235, 2.020630
659.7056, 2.162781
660.1877, 2.203552
660.6699, 2.052338
661.1520, 1.637177
661.6341, 1.174408
662.1162, 0.9704900
662.5983, 0.9650270
663.0804, 1.003632
663.5626, 1.131287
664.0447, 1.167877
664.5268, 0.8854370
665.0089, 0.3990780
665.4910, 4.3090999E-02
665.9731, 0.1758120
666.4553, 0.2043760
666.9374, 0.4194030
667.4195, 1.592529
667.9016, 1.433746
668.3837, 1.003845
668.8658, 3.002380
669.3480, 2.765930
669.8301, 0.3463130
670.3122, 0.1180730
670.7943, 1.630920
671.2764, 3.396637
671.7585, 2.681366
672.2407, 0.6271670
672.7228, 3.3507999E-02
673.2049, 1.505035
673.6870, 2.910248
674.1691, 2.489349
674.6512, 1.174408
675.1334, 3.9429002E-02
675.6155, 0.7346800
676.0976, 1.200989
676.5797, 1.250275
677.0618, 1.028503
677.5439, 0.7481080
678.0261, 0.4018250
678.5082, 1.1688000E-02
678.9903, 0.5885930
679.4724, 1.169891
679.9545, 1.231628
680.4366, 0.7771910
680.9188, 0.5009160
681.4009, 0.9448850
681.8830, 1.635010
682.3651, 1.541931
682.8472, 0.8233340
683.3293, 0.2465820
683.8115, 0.4209290
684.2936, 0.7786560
684.7757, 0.8547060
685.2578, 0.6217650
685.7399, 0.5853580
686.2220, 1.110748
686.7042, 1.664337
687.1863, 1.990448
687.6684, 2.067078
688.1505, 1.939423
688.6326, 1.466492
689.1147, 1.068146
689.5969, 1.251678
690.0790, 1.961090
690.5611, 2.307037
691.0432, 2.163055
691.5253, 1.822479
692.0074, 1.498322
692.4896, 1.239838
692.9717, 1.180511
693.4538, 1.512878
693.9359, 1.734558
694.4180, 1.353577
694.9001, 0.7250370
695.3823, 0.4016420
695.8644, 0.7608950
696.3465, 1.141235
696.8286, 1.523071
697.3107, 1.856140
697.7928, 1.974030
698.2750, 1.842529
698.7571, 1.654999
699.2392, 1.485504
699.7213, 1.303223
700.2034, 0.8958440
700.6855, 0.3108830
701.1677, 2.7771000E-02
701.6498, 0.3146360
702.1319, 0.9172970
702.6140, 1.419647
703.0961, 1.782684
703.5782, 1.817993
704.0604, 0.9312740
704.5425, 9.7626001E-02
705.0246, 4.3671001E-02
705.5067, 0.7178960
705.9888, 1.214417
706.4709, 1.248322
706.9531, 1.258575
707.4352, 1.581024
707.9173, 2.260254
708.3994, 2.651917
708.8815, 2.696136
709.3636, 2.702545
709.8458, 3.235229
710.3279, 3.965668
710.8100, 3.983917
711.2921, 2.996063
711.7742, 1.898193
712.2563, 1.219238
712.7385, 0.8824460
713.2206, 0.8046880
713.7027, 1.177643
714.1848, 1.518494
714.6669, 1.796936
715.1490, 1.970917
715.6312, 1.947906
716.1133, 1.617401
716.5954, 1.356750
717.0775, 1.174561
717.5596, 1.164612
718.0417, 1.687592
718.5239, 2.676117
719.0060, 3.436432
719.4881, 3.693176
719.9702, 3.583893
720.4523, 3.135101
720.9344, 2.444000
721.4166, 1.796600
721.8987, 1.121887
722.3808, 0.7164610
722.8629, 0.8300780
723.3450, 1.402008
723.8271, 1.948822
724.3093, 2.490448
724.7914, 2.903442
725.2735, 3.141144
725.7556, 3.286774
726.2377, 3.282104
726.7198, 3.010956
727.2020, 2.550049
727.6841, 1.742126
728.1662, 0.8208310
728.6483, 0.4490050
729.1304, 0.6124570
729.6125, 0.8276980
730.0947, 0.6907960
730.5768, 0.4920650
731.0589, 0.5796510
731.5410, 1.087677
732.0231, 1.335144
732.5052, 0.7847900
732.9874, 0.2639470
733.4695, 0.3281560
733.9516, 1.329773
734.4337, 1.625336
734.9158, 1.064758
735.3979, 0.3088070
735.8801, 0.1251530
736.3622, 0.3744810
736.8443, 0.3569030
737.3264, 0.1181340
737.8085, 0.4518130
738.2906, 0.2290040
738.7728, 1.281982
739.2549, 1.842224
739.7370, 1.397675
740.2191, 0.9330140
740.7012, 0.6291200
741.1833, 0.4974670
741.6655, 0.5696720
742.1476, 0.9938050
742.6297, 1.251709
743.1118, 1.212830
743.5939, 1.054443
744.0760, 1.085419
744.5582, 1.291290
745.0403, 1.647888
745.5224, 2.266174
746.0045, 2.808228
746.4866, 2.812988
746.9688, 2.426849
747.4509, 1.966705
747.9330, 1.348877
748.4151, 0.9100650
748.8972, 0.8223570
749.3793, 1.024506
749.8615, 1.316254
750.3436, 1.862854
750.8257, 2.153595
751.3078, 1.772430
751.7899, 1.167114
752.2720, 2.362396
752.7542, 5.347473
753.2363, 7.623444
753.7184, 7.721405
754.2005, 6.527740
754.6826, 4.967987
755.1647, 3.221680
755.6469, 2.084412
756.1290, 1.875824
756.6111, 2.445984
757.0932, 4.368713
757.5753, 7.448975
758.0574, 8.920044
758.5396, 7.926971
759.0217, 6.392792
759.5038, 4.827637
759.9859, 3.303802
760.4680, 2.466919
760.9501, 2.368408
761.4323, 2.389557
761.9144, 2.056732
762.3965, 1.581299
762.8786, 1.395813
763.3607, 1.503845
763.8428, 1.585724
764.3250, 1.250732
764.8071, 0.9785770
765.2892, 1.213837
765.7713, 2.103455
766.2534, 2.577637
766.7355, 2.320831
767.2177, 1.985962
767.6998, 1.960022
768.1819, 2.272949
768.6640, 2.377136
769.1461, 2.240448
769.6282, 2.130890
770.1104, 2.444550
770.5925, 2.893646
771.0746, 2.858765
771.5567, 2.267548
772.0388, 1.623749
772.5209, 1.004730
773.0031, 0.6147160
773.4852, 0.6899410
773.9673, 1.509979
774.4494, 1.953735
774.9315, 1.751556
775.4136, 1.442444
775.8958, 1.435913
776.3779, 1.755829
776.8600, 2.145050
777.3421, 2.645721
777.8242, 2.917572
778.3063, 2.390167
778.7885, 1.450043
779.2706, 0.8280640
779.7527, 0.6708980
780.2348, 0.6672670
780.7169, 0.8224490
781.1990, 0.9478450
781.6812, 0.8581850
782.1633, 0.3355100
782.6454, 3.7018001E-02
783.1275, 0.2687070
783.6096, 0.3352970
784.0917, 0.1476750
784.5739, 0.2985230
785.0560, 0.6305240
785.5381, 0.8184810
786.0202, 0.8265690
786.5023, 0.4217530
786.9844, 0.1336060
787.4666, 0.3817750
787.9487, 0.1776730
788.4308, 0.1879270
788.9129, 0.9109190
789.3950, 1.552490
789.8771, 1.619019
790.3593, 0.3153380
790.8414, 0.1290590
791.3235, 0.6652220
791.8056, 1.824554
792.2877, 2.220978
792.7698, 1.912445
793.2520, 1.783264
793.7341, 2.000305
794.2162, 2.244446
794.6983, 2.189850
795.1804, 1.920135
795.6625, 1.540131
796.1447, 1.014404
796.6268, 0.6218260
797.1089, 0.5382690
797.5910, 0.6041260
798.0731, 0.6490780
798.5552, 0.7372130
799.0374, 0.6383060
799.5195, 0.2717590
800.0016, 0.1419070
800.4837, 0.3594670
800.9658, 0.3833010
801.4479, 0.1888120
801.9301, 0.2819520
802.4122, 0.7508540
802.8943, 0.9346920
803.3764, 0.9490970
803.8585, 0.9470210
804.3406, 0.9641420
804.8228, 0.9672240
805.3049, 0.8419490
805.7870, 0.7625120
806.2691, 0.9681400
806.7512, 1.624146
807.2333, 1.867554
807.7155, 1.549164
808.1976, 0.9886170
808.6797, 0.4317020
809.1618, 3.4575999E-02
809.6439, 9.4788000E-02
810.1260, 0.4041440
810.6082, 0.9787290
811.0903, 1.385406
811.5724, 1.616821
812.0545, 1.652435
812.5366, 1.310577
813.0187, 1.084137
813.5009, 1.112579
813.9830, 1.162323
814.4651, 0.9323120
814.9472, 0.4020080
815.4293, 2.1057000E-02
815.9114, 0.3208620
816.3936, 0.3788450
816.8757, 0.1135250
817.3578, 0.8984070
817.8399, 1.549133
818.3220, 1.979767
818.8041, 2.252563
819.2863, 2.226624
819.7684, 2.142212
820.2505, 2.243378
820.7326, 2.643280
821.2147, 3.006073
821.6968, 3.355377
822.1790, 3.611877
822.6611, 3.724457
823.1432, 3.721100
823.6253, 3.575348
824.1074, 3.263123
824.5895, 3.108154
825.0717, 3.518585
825.5538, 4.053497
826.0359, 4.242859
826.5180, 4.007690
827.0001, 3.668060
827.4822, 3.031738
827.9644, 2.526123
828.4465, 2.467865
828.9286, 2.941772
829.4107, 3.221863
829.8928, 3.358673
830.3749, 3.366455
830.8571, 3.130646
831.3392, 2.807373
831.8213, 2.854767
832.3034, 3.329254
832.7855, 3.613403
833.2676, 3.093231
833.7498, 2.485168
834.2319, 2.377197
834.7140, 3.032410
835.1961, 3.474426
835.6782, 3.403870
836.1603, 3.388275
836.6425, 4.036224
837.1246, 5.293549
837.6067, 5.724823
838.0888, 5.321075
838.5709, 4.777374
839.0530, 4.491486
839.5352, 4.447693
840.0173, 4.634888
840.4994, 5.003754
840.9815, 5.539093
841.4636, 7.014923
841.9457, 7.948334
842.4279, 7.315277
842.9100, 5.164459
843.3921, 4.834595
843.8742, 6.648346
844.3563, 8.437775
844.8384, 8.896088
845.3206, 8.383545
845.8027, 7.420105
846.2848, 6.154541
846.7669, 5.476532
847.2490, 6.582062
847.7311, 7.778687
848.2133, 8.066193
848.6954, 7.491486
849.1775, 7.003571
849.6596, 6.655579
850.1417, 6.262115
850.6238, 5.662689
851.1060, 5.029297
851.5881, 5.063324
852.0702, 5.689911
852.5523, 6.265381
853.0344, 6.449554
853.5165, 6.448120
853.9987, 6.344757
854.4808, 6.200500
854.9629, 6.176270
855.4450, 6.371582
855.9271, 6.616272
856.4092, 6.869080
856.8914, 7.136902
857.3735, 7.500580
857.8556, 7.969513
858.3377, 8.310028
858.8198, 8.531647
859.3019, 8.515778
859.7841, 7.829742
860.2662, 6.778687
860.7483, 6.029419
861.2304, 5.968140
861.7125, 6.016174
862.1946, 6.163086
862.6768, 6.211365
863.1589, 5.844147
863.6410, 4.782288
864.1231, 4.146057
864.6052, 4.135803
865.0873, 4.334290
865.5695, 4.159607
866.0516, 3.737610
866.5337, 3.482635
867.0158, 3.484344
867.4979, 3.556366
867.9800, 3.624786
868.4622, 3.679504
868.9443, 3.759766
869.4264, 4.066254
869.9085, 3.845459
870.3906, 2.777008
870.8727, 1.685974
871.3549, 1.315948
871.8370, 1.604553
872.3191, 1.782440
872.8012, 1.820801
873.2833, 1.873535
873.7654, 2.203888
874.2476, 2.524902
874.7297, 2.543060
875.2118, 2.200470
875.6939, 1.775085
876.1760, 1.071777
876.6581, 0.5856020
877.1403, 0.6430970
877.6224, 1.172577
878.1045, 1.069946
878.5866, 0.3000180
879.0687, 0.3146060
879.5508, 5.7434000E-02
880.0330, 0.5273130
880.5151, 0.7505490
880.9972, 0.6374820
881.4793, 0.2863460
881.9614, 0.7813420
882.4435, 1.508911
882.9257, 1.212524
883.4078, 0.3117680
883.8899, 3.4479999E-03
884.3720, 0.4057920
884.8541, 0.8142700
885.3362, 1.122131
885.8184, 1.179504
886.3005, 0.5080570
886.7826, 0.6253970
887.2647, 1.550232
887.7468, 2.199371
888.2289, 2.314453
888.7111, 1.228699
889.1932, 0.2491150
889.6753, 0.9014890
890.1574, 0.2953490
890.6395, 6.0821999E-02
891.1216, 5.7587001E-02
891.6038, 0.2419130
892.0859, 1.086426
892.5680, 2.159363
893.0501, 2.365295
893.5322, 1.423218
894.0143, 0.4003600
894.4965, 1.1600000E-03
894.9786, 0.1217350
895.4607, 0.2917480
895.9428, 0.6283570
896.4249, 0.5870670
896.9070, 8.9538999E-02
897.3892, 0.6371460
897.8713, 0.3743290
898.3534, 0.5202330
898.8355, 0.9843750
899.3176, 1.025574
899.7997, 0.8691710
900.2819, 0.3368530
900.7640, 5.8745999E-02
901.2461, 0.3091430
901.7282, 1.333221
902.2103, 1.766876
902.6924, 1.049225
903.1746, 0.4789120
903.6567, 0.4933470
904.1388, 0.8934940
904.6209, 1.107605
905.1030, 1.133179
905.5851, 0.9341740
906.0673, 0.1811220
906.5494, 0.3681030
907.0315, 0.3565980
907.5136, 1.682220
907.9957, 2.435669
908.4778, 1.638275
908.9600, 1.170959
909.4421, 1.303802
909.9242, 1.713165
910.4063, 1.997253
910.8884, 2.159515
911.3705, 2.267029
911.8527, 2.307953
912.3348, 2.447845
912.8169, 3.007660
913.2990, 3.671692
913.7811, 4.052612
914.2632, 4.006866
914.7454, 4.031128
915.2275, 4.279724
915.7096, 4.525391
916.1917, 4.560822
916.6738, 4.395844
917.1559, 4.683319
917.6381, 5.421082
918.1202, 6.310089
918.6023, 7.288422
919.0844, 8.203796
919.5665, 8.865204
920.0486, 9.292145
920.5308, 9.675751
921.0129, 9.997192
921.4950, 10.35236
921.9771, 10.69589
922.4592, 11.11655
922.9413, 11.93872
923.4235, 13.14462
923.9056, 14.41409
924.3877, 15.66684
924.8698, 16.88651
925.3519, 18.06586
925.8340, 19.21188
926.3162, 20.37378
926.7983, 21.99063
927.2804, 22.92590
927.7625, 22.58267
928.2446, 22.05792
928.7267, 22.60928
929.2089, 24.24893
929.6910, 25.32211
930.1731, 25.64624
930.6552, 26.11765
931.1373, 27.91608
931.6194, 30.09274
932.1016, 31.56174
932.5837, 32.14496
933.0658, 32.74951
933.5479, 33.81125
934.0300, 34.61774
934.5121, 34.82730
934.9943, 34.52066
935.4764, 34.18530
935.9585, 33.80353
936.4406, 33.32950
936.9227, 32.60739
937.4048, 31.91623
937.8870, 31.58112
938.3691, 31.44376
938.8512, 31.18552
939.3333, 31.05249
939.8154, 30.19812
940.2975, 28.16406
940.7797, 25.87735
941.2618, 24.98697
941.7439, 25.33060
942.2260, 25.08450
942.7081, 23.93454
943.1902, 22.26392
943.6724, 19.87802
944.1545, 17.57175
944.6366, 16.18262
945.1187, 15.99286
945.6008, 15.91083
946.0829, 15.96841
946.5651, 15.87320
947.0472, 15.33170
947.5293, 14.40045
948.0114, 13.80734
948.4935, 13.49905
948.9756, 13.07092
949.4578, 12.01544
949.9399, 10.91748
950.4220, 10.33533
950.9041, 10.18665
951.3862, 9.963684
951.8683, 9.593109
952.3505, 9.187164
952.8326, 8.751984
953.3147, 8.308350
953.7968, 7.811737
954.2789, 7.324554
954.7610, 7.123657
955.2432, 7.327606
955.7253, 7.617859
956.2074, 7.738953
956.6895, 7.790741
957.1716, 7.897308
957.6537, 8.053833
958.1359, 8.302704
958.6180, 8.683411
959.1001, 9.023499
959.5822, 9.062225
960.0643, 8.958710
960.5464, 9.195770
961.0286, 9.768127
961.5107, 10.55118
961.9928, 11.74899
962.4749, 12.87756
962.9570, 13.51984
963.4391, 13.87839
963.9213, 14.85513
964.4034, 16.74692
964.8855, 17.92444
965.3676, 17.78592
965.8497, 17.13516
966.3318, 17.07220
966.8140, 17.50790
967.2961, 18.31442
967.7782, 19.65656
968.2603, 20.84375
968.7424, 21.65079
969.2245, 22.17218
969.7067, 22.42279
970.1888, 22.30533
970.6709, 22.57352
971.1530, 23.23831
971.6351, 24.12570
972.1172, 25.26935
972.5994, 26.43286
973.0815, 27.29831
973.5636, 27.88638
974.0457, 28.42664
974.5278, 28.95157
975.0099, 29.47601
975.4921, 29.96310
975.9742, 30.48602
976.4563, 31.42874
976.9384, 32.74695
977.4205, 33.37173
977.9026, 32.86804
978.3848, 32.11133
978.8669, 31.93619
979.3490, 31.99731
979.8311, 31.81107
980.3132, 30.93552
980.7953, 30.88037
981.2775, 32.19714
981.7596, 33.56631
982.2417, 33.83539
982.7238, 33.22141
983.2059, 33.11728
983.6880, 33.52103
984.1702, 34.18463
984.6523, 35.15292
985.1344, 36.13980
985.6165, 36.93231
986.0986, 37.59210
986.5807, 38.23218
987.0629, 38.81662
987.5450, 39.49966
988.0271, 40.20676
988.5092, 41.10303
988.9913, 42.83893
989.4734, 44.88174
989.9556, 45.88196
990.4377, 45.15643
990.9198, 45.07837
991.4019, 47.52490
991.8840, 50.19830
992.3661, 51.43735
992.8483, 51.16348
993.3304, 51.62430
993.8125, 52.84891
994.2946, 54.47040
994.7767, 56.60229
995.2589, 58.70474
995.7410, 60.15689
996.2231, 61.04861
996.7052, 61.70892
997.1873, 61.74344
997.6694, 62.23785
998.1516, 63.30548
998.6337, 64.83340
999.1158, 66.87930
999.5979, 69.31348
1000.080, 71.01581
1000.562, 71.79602
1001.044, 72.35297
1001.526, 72.98038
1002.008, 73.81845
1002.491, 74.98309
1002.973, 76.51898
1003.455, 78.37601
1003.937, 80.75507
1004.419, 82.83813
1004.901, 84.27533
1005.383, 85.17993
1005.865, 85.71786
1006.348, 85.95004
1006.830, 86.07056
1007.312, 86.19785
1007.794, 86.16779
1008.276, 86.23358
1008.758, 85.90250
1009.240, 84.49216
1009.722, 81.88535
1010.204, 79.45657
1010.687, 77.30280
1011.169, 74.93045
1011.651, 71.70197
1012.133, 68.12900
1012.615, 64.61124
1013.097, 61.21365
1013.579, 58.13757
1014.061, 55.70346
1014.544, 53.10574
1015.026, 50.09308
1015.508, 46.82321
1015.990, 43.29636
1016.472, 39.73578
1016.954, 37.19894
1017.436, 36.45016
1017.918, 35.60089
1018.400, 33.13751
1018.883, 30.19955
1019.365, 27.90799
1019.847, 26.40503
1020.329, 25.02716
1020.811, 23.80856
1021.293, 22.54327
1021.775, 21.00549
1022.257, 19.37460
1022.740, 17.85663
1023.222, 16.46744
1023.704, 15.24683
1024.186, 14.20618
1024.668, 13.34796
1025.150, 12.66751
1025.632, 12.14795
1026.114, 11.91476
1026.596, 11.89340
1027.079, 11.39648
1027.561, 10.29336
1028.043, 8.875336
1028.525, 6.979919
1029.007, 5.160034
1029.489, 3.913513
1029.971, 3.312439
1030.453, 3.045959
1030.936, 3.268738
1031.418, 3.318115
1031.900, 2.885162
1032.382, 2.139893
1032.864, 1.222931
1033.346, 0.2796330
1033.828, 0.3252560
1034.310, 0.3606570
1034.792, 0.1960750
1035.275, 0.1820370
1035.757, 0.6354680
1036.239, 1.194794
1036.721, 1.857208
1037.203, 1.718750
1037.685, 0.7589420
1038.167, 0.3834230
1038.649, 1.666992
1039.131, 2.569519
1039.614, 2.433502
1040.096, 1.469940
1040.578, 0.8552550
1041.060, 0.7356870
1041.542, 0.7858580
1042.024, 1.078461
1042.506, 1.215942
1042.988, 0.1165470
1043.471, 1.472809
1043.953, 1.799957
1044.435, 0.3056340
1044.917, 0.8475950
1045.399, 0.4625850
1045.881, 0.1355590
1046.363, 0.2406620
1046.845, 9.6190996E-02
1047.328, 0.1193540
1047.810, 0.1671140
1048.292, 0.3673400
1048.774, 0.1978150
1049.256, 9.2770001E-03
1049.738, 0.2702940
1050.220, 0.6914370
1050.702, 0.7129210
1051.184, 8.9263998E-02
1051.667, 0.3615110
1052.149, 2.0233000E-02
1052.631, 0.5461430
1053.113, 0.9640500
1053.595, 1.188690
1054.077, 0.7210690
1054.559, 0.2717590
1055.041, 0.6158140
1055.523, 0.9622800
1056.006, 2.285156
1056.488, 2.708984
1056.970, 2.590637
1057.452, 2.557251
1057.934, 2.620972
1058.416, 2.962006
1058.898, 3.695587
1059.380, 4.201904
1059.863, 3.620636
1060.345, 2.853851
1060.827, 2.679565
1061.309, 3.150055
1061.791, 3.640686
1062.273, 4.106323
1062.755, 4.814514
1063.237, 6.017548
1063.719, 7.322113
1064.202, 7.989624
1064.684, 8.342560
1065.166, 9.022827
1065.648, 10.60751
1066.130, 11.79218
1066.612, 12.17181
1067.094, 12.54758
1067.576, 13.62698
1068.058, 15.30048
1068.541, 16.97424
1069.023, 18.61780
1069.505, 20.02972
1069.987, 20.89151
1070.469, 21.68600
1070.951, 22.47540
1071.433, 23.41473
1071.915, 24.96201
1072.398, 27.25998
1072.880, 28.51416
1073.362, 28.27313
1073.844, 28.28979
1074.326, 30.87851
1074.808, 34.29620
1075.290, 36.77359
1075.772, 38.12009
1076.255, 39.05399
1076.737, 39.39505
1077.219, 39.97238
1077.701, 41.21323
1078.183, 42.59448
1078.665, 42.91983
1079.147, 42.59409
1079.629, 42.72012
1080.111, 44.10437
1080.594, 44.39169
1081.076, 41.55798
1081.558, 38.51651
1082.040, 37.22040
1082.522, 37.37436
1083.004, 35.76431
1083.486, 32.55096
1083.968, 29.40390
1084.450, 27.17938
1084.932, 25.36639
1085.415, 23.67477
1085.897, 22.20059
1086.379, 21.10571
1086.861, 20.62701
1087.343, 19.55258
1087.825, 17.77338
1088.307, 15.79953
1088.789, 13.64682
1089.272, 11.85162
1089.754, 11.48297
1090.236, 12.21378
1090.718, 12.05255
1091.200, 9.922577
1091.682, 8.205139
1092.164, 7.393524
1092.646, 7.009491
1093.129, 6.258789
1093.611, 5.354034
1094.093, 4.887939
1094.575, 4.978790
1095.057, 5.008026
1095.539, 4.579712
1096.021, 4.149780
1096.503, 3.953217
1096.985, 3.847534
1097.468, 3.169128
1097.950, 2.054230
1098.432, 1.281921
1098.914, 1.100525
1099.396, 1.241425
1099.878, 2.039337
1100.360, 2.699432
1100.842, 2.323547
1101.324, 0.7002260
1101.807, 0.1882630
1102.289, 0.2881770
1102.771, 0.3142400
1103.253, 0.7431030
1103.735, 1.110352
1104.217, 0.8160710
1104.699, 9.4512999E-02
1105.181, 0.6556700
1105.664, 1.792267
1106.146, 2.043640
1106.628, 1.132233
1107.110, 1.0986000E-02
1107.592, 0.6375730
1108.074, 0.8548580
1108.556, 0.8795780
1109.038, 0.7355350
1109.521, 0.4332580
1110.003, 0.1281430
1110.485, 0.8052670
1110.967, 1.716736
1111.449, 2.537842
1111.931, 2.668671
1112.413, 2.273224
1112.895, 2.104706
1113.377, 2.337616
1113.859, 2.633545
1114.342, 2.894745
1114.824, 3.069061
1115.306, 3.084808
1115.788, 3.001892
1116.270, 2.890717
1116.752, 2.762573
1117.234, 3.282074
1117.716, 4.829041
1118.199, 6.194885
1118.681, 5.887177
1119.163, 5.174805
1119.645, 5.358124
1120.127, 6.544098
1120.609, 7.271027
1121.091, 7.427856
1121.573, 7.824890
1122.056, 8.942688
1122.538, 10.23782
1123.020, 10.97958
1123.502, 11.46213
1123.984, 12.16006
1124.466, 13.29648
1124.948, 14.41946
1125.430, 15.47083
1125.912, 16.59601
1126.395, 17.96469
1126.877, 19.50055
1127.359, 20.99823
1127.841, 22.45566
1128.323, 23.83368
1128.805, 24.68167
1129.287, 26.10553
1129.769, 28.35956
1130.251, 31.00568
1130.734, 33.82986
1131.216, 36.70590
1131.698, 39.24921
1132.180, 41.41580
1132.662, 43.25253
1133.144, 44.64984
1133.626, 45.99796
1134.108, 47.37531
1134.591, 48.83923
1135.073, 50.61914
1135.555, 52.64017
1136.037, 54.08997
1136.519, 54.86914
1137.001, 55.87653
1137.483, 57.82864
1137.965, 60.16208
1138.448, 62.72980
1138.930, 65.40640
1139.412, 67.78967
1139.894, 69.91278
1140.376, 71.94144
1140.858, 74.00174
1141.340, 75.53052
1141.822, 76.27966
1142.304, 76.07080
1142.786, 74.54660
1143.269, 71.70123
1143.751, 68.63489
1144.233, 65.38834
1144.715, 61.66360
1145.197, 57.26776
1145.679, 52.74963
1146.161, 48.80042
1146.643, 45.25952
1147.126, 41.92825
1147.608, 38.88809
1148.090, 35.56717
1148.572, 31.73715
1149.054, 28.34497
1149.536, 26.07547
1150.018, 24.28116
1150.500, 21.44226
1150.983, 18.27869
1151.465, 16.27167
1151.947, 16.73297
1152.429, 16.47443
1152.911, 15.12003
1153.393, 13.38544
1153.875, 11.49503
1154.357, 9.698334
1154.839, 8.809082
1155.322, 8.610229
1155.804, 8.440277
1156.286, 8.404022
1156.768, 7.775055
1157.250, 6.125458
1157.732, 4.408386
1158.214, 3.502686
1158.696, 3.282410
1159.178, 3.275299
1159.661, 3.419495
1160.143, 3.696106
1160.625, 4.531128
1161.107, 4.863708
1161.589, 4.128967
1162.071, 3.065552
1162.553, 2.511078
1163.035, 2.425598
1163.518, 2.814117
1164.000, 3.623657
1164.482, 3.957123
1164.964, 2.725861
1165.446, 1.421600
1165.928, 0.7992860
1166.410, 0.6136470
1166.892, 0.4517210
1167.375, 0.3304440
1167.857, 0.3611450
1168.339, 0.5554200
1168.821, 0.5848080
1169.303, 0.3049010
1169.785, 0.9285580
1170.267, 0.1623230
1170.749, 1.418091
1171.231, 2.194275
1171.714, 2.170624
1172.196, 2.070831
1172.678, 2.027222
1173.160, 1.998566
1173.642, 1.777161
1174.124, 1.696106
1174.606, 2.181396
1175.088, 3.104919
1175.570, 3.769714
1176.053, 4.198181
1176.535, 4.014435
1177.017, 2.893951
1177.499, 1.875122
1177.981, 2.236115
1178.463, 3.104187
1178.945, 3.717377
1179.427, 4.021698
1179.910, 4.015289
1180.392, 3.695099
1180.874, 3.022980
1181.356, 1.833649
1181.838, 0.6321110
1182.320, 0.2991640
1182.802, 0.7901000
1183.284, 0.4420470
1183.766, 0.9440310
1184.249, 1.626038
1184.731, 1.516083
1185.213, 1.254395
1185.695, 1.015472
1186.177, 0.9646610
1186.659, 1.690826
1187.141, 2.563843
1187.623, 2.589355
1188.105, 1.415466
1188.588, 0.2007450
1189.070, 1.175446
1189.552, 1.809631
1190.034, 0.7426450
1190.516, 0.8811340
1190.998, 1.863373
1191.480, 2.303711
1191.962, 2.304321
1192.445, 1.446808
1192.927, 1.398315
1193.409, 2.344452
1193.891, 3.219543
1194.373, 3.281281
1194.855, 2.851501
1195.337, 1.925659
1195.819, 0.9071960
1196.302, 0.7720950
1196.784, 2.331970
1197.266, 3.124451
1197.748, 2.969543
1198.230, 2.626740
1198.712, 2.722198
1199.194, 2.972198
1199.676, 3.143555
1200.158, 3.147797
1200.641, 2.674072
1201.123, 1.066467
1201.605, 0.5939640
1202.087, 1.612823
1202.569, 2.834717
1203.051, 3.017883
1203.533, 2.750793
1204.015, 2.702606
1204.497, 2.886322
1204.980, 3.300079
1205.462, 4.249146
1205.944, 4.590363
1206.426, 4.092743
1206.908, 3.517273
1207.390, 3.552307
1207.872, 3.993683
1208.354, 4.904541
1208.837, 6.049103
1209.319, 6.312622
1209.801, 5.057526
1210.283, 4.415649
1210.765, 4.757751
1211.247, 5.270996
1211.729, 4.939423
1212.211, 4.392395
1212.693, 4.670959
1213.176, 5.586639
1213.658, 5.613251
1214.140, 4.155945
1214.622, 3.357697
1215.104, 3.631104
1215.586, 4.209137
1216.068, 4.536865
1216.550, 4.523895
1217.032, 3.449860
1217.515, 1.686005
1217.997, 2.170746
1218.479, 5.922974
1218.961, 8.825409
1219.443, 10.24240
1219.925, 10.55957
1220.407, 10.04883
1220.889, 8.929535
1221.372, 6.876678
1221.854, 4.170624
1222.336, 3.131683
1222.818, 4.309601
1223.300, 5.134888
1223.782, 5.076416
1224.264, 4.702271
1224.746, 4.616333
1225.229, 4.557190
1225.711, 4.206024
1226.193, 3.578064
1226.675, 3.094391
1227.157, 2.736725
1227.639, 2.388092
1228.121, 2.065521
1228.603, 2.054993
1229.085, 3.075958
1229.568, 4.196136
1230.050, 4.382263
1230.532, 3.689392
1231.014, 3.328705
1231.496, 3.322174
1231.978, 3.527344
1232.460, 4.040039
1232.942, 4.095337
1233.424, 2.182465
1233.907, 0.1200870
1234.389, 0.3742070
1234.871, 0.5332640
1235.353, 1.578949
1235.835, 2.782654
1236.317, 3.671448
1236.799, 4.162872
1237.281, 4.222839
1237.764, 3.374268
1238.246, 2.474731
1238.728, 2.392578
1239.210, 2.869263
1239.692, 2.749481
1240.174, 2.038696
1240.656, 1.216614
1241.138, 0.3266300
1241.620, 0.2887570
1242.103, 2.249298
1242.585, 4.803528
1243.067, 7.597900
1243.549, 10.04773
1244.031, 9.382599
1244.513, 6.054016
1244.995, 3.688110
1245.477, 3.201416
1245.959, 3.144165
1246.442, 2.974152
1246.924, 3.073883
1247.406, 3.210724
1247.888, 3.471069
1248.370, 4.489410
1248.852, 5.960693
1249.334, 6.528198
1249.816, 5.787933
1250.299, 4.933624
1250.781, 4.339752
1251.263, 4.002777
1251.745, 4.086945
1252.227, 4.241882
1252.709, 3.489197
1253.191, 2.171844
1253.673, 1.347839
1254.156, 1.289368
1254.638, 1.247803
1255.120, 0.7710880
1255.602, 0.6207280
1256.084, 1.153046
1256.566, 2.002960
1257.048, 2.464294
1257.530, 2.679718
1258.012, 2.923004
1258.495, 3.241058
1258.977, 3.580658
1259.459, 3.974518
1259.941, 4.276154
1260.423, 4.418884
1260.905, 4.472076
1261.387, 4.615784
1261.869, 4.678680
1262.351, 4.271698
1262.834, 3.298706
1263.316, 2.957336
1263.798, 3.563507
1264.280, 3.808472
1264.762, 3.207428
1265.244, 2.424835
1265.726, 2.155609
1266.208, 2.226990
1266.691, 2.414581
1267.173, 2.724548
1267.655, 3.554352
1268.137, 5.047150
1268.619, 5.735046
1269.101, 5.319794
1269.583, 4.628845
1270.065, 4.389343
1270.547, 4.289642
1271.030, 4.059082
1271.512, 3.718658
1271.994, 3.246887
1272.476, 2.695862
1272.958, 2.937714
1273.440, 4.272797
1273.922, 5.394531
1274.404, 5.586945
1274.886, 4.995117
1275.369, 3.435303
1275.851, 1.378723
1276.333, 0.1605220
1276.815, 1.088501
1277.297, 0.6329350
1277.779, 1.449219
1278.261, 3.210938
1278.743, 3.537994
1279.226, 3.341949
1279.708, 2.744629
1280.190, 2.174927
1280.672, 2.745575
1281.154, 3.964539
1281.636, 4.429688
1282.118, 3.951233
1282.600, 3.929077
1283.083, 5.387512
1283.565, 6.233002
1284.047, 5.867401
1284.529, 5.013306
1285.011, 4.707794
1285.493, 4.598083
1285.975, 4.088776
1286.457, 3.164063
1286.939, 2.425201
1287.422, 1.946259
1287.904, 1.624695
1288.386, 1.461090
1288.868, 1.387817
1289.350, 1.184235
1289.832, 0.6845090
1290.314, 1.139130
1290.796, 2.299530
1291.278, 2.510468
1291.761, 1.655365
1292.243, 0.8320310
1292.725, 0.1596680
1293.207, 6.5613002E-02
1293.689, 0.7984620
1294.171, 1.770386
1294.653, 2.236450
1295.135, 2.311462
1295.618, 2.110962
1296.100, 1.635376
1296.582, 0.9894710
1297.064, 0.2529300
1297.546, 7.6355003E-02
1298.028, 0.4694820
1298.510, 0.9639890
1298.992, 0.6778870
1299.474, 0.2216190
1299.957, 0.4678340
1300.439, 0.8960570
1300.921, 0.9077760
1301.403, 0.1895140
1301.885, 7.9833999E-02
1302.367, 0.0000000E+00
##END=



