##NAMES=unknown
##RRUFFID=R140074
##LOCALITY=Galil√©ia, Minas Gerais, Brazil
##OWNER=RRUFF
##SOURCE=Bob Jenkins
##DESCRIPTION=Reddish brown elongated crystals (to be named as Lefontite). Associated with ushkovite (R060954), atencioite, rockbridgeite, and albite.
##STATUS=The identification of this mineral has been confirmed by single-crystal X-ray diffraction.
##URL=rruff.info/R140074
112.7731, 0.0000000E+00
113.2552, 0.4611210
113.7373, 0.7439580
114.2194, 0.8597410
114.7015, 0.2596440
115.1836, 0.2468260
115.6658, 1.279602
116.1479, 3.011597
116.6300, 4.486267
117.1121, 5.356079
117.5942, 5.764038
118.0763, 5.332153
118.5584, 3.520935
119.0406, 2.206421
119.5227, 2.013245
120.0048, 2.913269
120.4869, 4.106262
120.9690, 5.821533
121.4511, 7.868408
121.9333, 9.593628
122.4154, 10.95056
122.8975, 11.85004
123.3796, 11.91400
123.8617, 10.85150
124.3438, 9.974792
124.8260, 10.66675
125.3081, 11.82208
125.7902, 12.31573
126.2723, 11.15869
126.7544, 9.319763
127.2365, 9.206421
127.7187, 11.92017
128.2008, 14.13904
128.6829, 15.12665
129.1650, 16.06421
129.6471, 16.01367
130.1292, 15.39362
130.6114, 14.88251
131.0935, 15.58276
131.5756, 18.10815
132.0577, 19.57605
132.5398, 18.94415
133.0219, 17.42047
133.5041, 15.46960
133.9862, 14.72357
134.4683, 15.87384
134.9504, 16.19476
135.4325, 16.61609
135.9146, 16.89459
136.3968, 16.76819
136.8789, 15.66919
137.3610, 14.13159
137.8431, 12.51123
138.3252, 10.75012
138.8073, 9.913208
139.2895, 11.02734
139.7716, 12.60242
140.2537, 12.79059
140.7358, 11.05627
141.2179, 8.635986
141.7000, 6.974304
142.1821, 5.989502
142.6643, 5.376221
143.1464, 5.462585
143.6285, 5.927490
144.1106, 5.452209
144.5927, 2.937744
145.0748, 0.3397830
145.5570, 0.5045170
146.0391, 0.4173580
146.5212, 1.674744
147.0033, 2.111084
147.4854, 1.663513
147.9675, 0.9830320
148.4497, 0.2265010
148.9318, 1.393616
149.4139, 2.271057
149.8960, 2.786072
150.3781, 2.922180
150.8602, 2.520020
151.3424, 1.092773
151.8245, 0.2208860
152.3066, 0.4487920
152.7887, 0.9520870
153.2708, 0.9471440
153.7529, 0.1604610
154.2351, 0.9125370
154.7172, 1.001343
155.1993, 1.673279
155.6814, 3.197083
156.1635, 2.662292
156.6456, 1.108826
157.1278, 0.3089600
157.6099, 1.031006
158.0920, 1.136719
158.5741, 0.9252930
159.0562, 0.2063600
159.5383, 0.9498900
160.0205, 0.8898930
160.5026, 0.1987300
160.9847, 0.7730100
161.4668, 1.902222
161.9489, 3.117493
162.4310, 4.120300
162.9131, 5.175415
163.3953, 5.807861
163.8774, 5.390625
164.3595, 4.049561
164.8416, 3.018860
165.3237, 3.077026
165.8058, 4.035339
166.2880, 5.343933
166.7701, 7.251160
167.2522, 9.254883
167.7343, 10.82068
168.2164, 11.92725
168.6985, 12.68744
169.1807, 12.86847
169.6628, 12.80823
170.1449, 12.90839
170.6270, 13.75702
171.1091, 14.84015
171.5912, 15.95673
172.0734, 17.06030
172.5555, 18.29803
173.0376, 19.87433
173.5197, 21.57574
174.0018, 23.04120
174.4839, 23.93823
174.9661, 24.44470
175.4482, 25.67535
175.9303, 28.59357
176.4124, 31.18872
176.8945, 32.62012
177.3766, 33.36914
177.8588, 34.33533
178.3409, 36.24603
178.8230, 39.11804
179.3051, 41.35730
179.7872, 42.14111
180.2693, 43.09222
180.7515, 44.78033
181.2336, 47.06366
181.7157, 49.47064
182.1978, 51.60181
182.6799, 53.42865
183.1620, 55.26593
183.6441, 57.22040
184.1263, 59.07159
184.6084, 60.63947
185.0905, 61.96661
185.5726, 63.29108
186.0547, 64.84210
186.5368, 66.66199
187.0190, 68.23590
187.5011, 69.39642
187.9832, 70.44037
188.4653, 71.39545
188.9474, 72.29669
189.4296, 73.60443
189.9117, 75.96307
190.3938, 79.34027
190.8759, 82.42596
191.3580, 85.35199
191.8401, 87.79633
192.3223, 89.27576
192.8044, 89.64282
193.2865, 89.55994
193.7686, 89.40631
194.2507, 89.23682
194.7328, 89.33380
195.2150, 89.70758
195.6971, 90.41089
196.1792, 91.68695
196.6613, 93.87152
197.1434, 95.96283
197.6255, 97.21875
198.1077, 97.80945
198.5898, 98.09772
199.0719, 98.07874
199.5540, 97.86108
200.0361, 97.95471
200.5182, 98.73273
201.0004, 99.32056
201.4825, 99.14240
201.9646, 98.41229
202.4467, 97.65900
202.9288, 97.13196
203.4109, 96.87793
203.8930, 97.09692
204.3752, 98.11768
204.8573, 99.27405
205.3394, 100.5837
205.8215, 101.8329
206.3036, 102.5638
206.7857, 102.3165
207.2679, 101.0531
207.7500, 99.98364
208.2321, 99.60718
208.7142, 99.05090
209.1963, 97.78333
209.6784, 96.05414
210.1606, 94.56927
210.6427, 94.04480
211.1248, 94.64270
211.6069, 95.15674
212.0890, 95.68341
212.5711, 96.00488
213.0533, 95.70123
213.5354, 94.97827
214.0175, 94.44751
214.4996, 94.68109
214.9817, 95.85181
215.4638, 96.35236
215.9460, 95.82489
216.4281, 95.09149
216.9102, 94.55096
217.3923, 94.17273
217.8744, 93.66516
218.3565, 92.67346
218.8387, 91.05463
219.3208, 90.26538
219.8029, 90.85266
220.2850, 91.70740
220.7671, 92.33368
221.2492, 92.64050
221.7314, 92.51367
222.2135, 91.74408
222.6956, 90.28156
223.1777, 89.17004
223.6598, 88.60345
224.1419, 88.24225
224.6240, 87.96826
225.1062, 87.74817
225.5883, 87.35730
226.0704, 86.68890
226.5525, 85.67188
227.0346, 84.08875
227.5167, 81.22174
227.9989, 78.22479
228.4810, 76.30121
228.9631, 75.53424
229.4452, 74.97992
229.9273, 73.99915
230.4094, 72.71716
230.8916, 71.47327
231.3737, 70.17639
231.8558, 69.02808
232.3379, 68.55725
232.8200, 68.94214
233.3021, 68.73798
233.7843, 66.22552
234.2664, 62.64233
234.7485, 59.88153
235.2306, 58.72583
235.7127, 58.33417
236.1948, 57.67902
236.6770, 56.77972
237.1591, 55.49030
237.6412, 53.29895
238.1233, 50.79968
238.6054, 48.67389
239.0875, 47.29333
239.5697, 46.13782
240.0518, 44.26044
240.5339, 41.32294
241.0160, 38.72089
241.4981, 37.09497
241.9802, 36.00378
242.4624, 35.13501
242.9445, 34.43140
243.4266, 33.77173
243.9087, 33.00403
244.3908, 32.22485
244.8729, 31.04578
245.3550, 28.73553
245.8372, 26.32983
246.3193, 24.82391
246.8014, 24.58075
247.2835, 24.95569
247.7656, 24.86987
248.2477, 24.26422
248.7299, 23.28943
249.2120, 21.78607
249.6941, 20.09650
250.1762, 18.40527
250.6583, 16.77777
251.1404, 15.31604
251.6226, 14.20111
252.1047, 13.60071
252.5868, 13.01019
253.0689, 12.13910
253.5510, 11.41431
254.0331, 11.42554
254.5153, 12.21320
254.9974, 12.95898
255.4795, 12.26569
255.9616, 9.155579
256.4437, 6.712158
256.9258, 4.744751
257.4080, 3.490540
257.8901, 3.441895
258.3722, 4.520691
258.8543, 5.873169
259.3364, 6.331665
259.8185, 5.520325
260.3007, 4.705750
260.7828, 3.519775
261.2649, 2.587830
261.7470, 2.591248
262.2291, 3.424683
262.7112, 4.204163
263.1934, 3.829956
263.6755, 1.786194
264.1576, 0.4591060
264.6397, 8.3010001E-03
265.1218, 1.8066000E-02
265.6039, 0.2368160
266.0861, 0.7091060
266.5682, 1.348450
267.0503, 2.153564
267.5324, 3.212158
268.0145, 3.809814
268.4966, 3.850037
268.9788, 3.627319
269.4609, 3.122498
269.9430, 2.448242
270.4251, 1.859985
270.9072, 1.549011
271.3893, 1.525452
271.8715, 1.804199
272.3536, 2.588135
272.8357, 3.404541
273.3178, 3.953247
273.7999, 4.349365
274.2820, 4.945618
274.7642, 5.999390
275.2463, 7.471497
275.7284, 8.898560
276.2105, 10.80652
276.6926, 12.15466
277.1747, 12.08936
277.6568, 11.16003
278.1389, 10.64172
278.6211, 11.30505
279.1032, 12.85046
279.5853, 13.98938
280.0674, 14.56830
280.5495, 15.03027
281.0316, 15.25263
281.5138, 15.46637
281.9959, 16.15021
282.4780, 17.55798
282.9601, 19.36505
283.4422, 20.70990
283.9243, 21.39758
284.4065, 22.12671
284.8886, 23.09308
285.3707, 24.14862
285.8528, 25.07397
286.3349, 25.78729
286.8170, 26.36200
287.2992, 26.80951
287.7813, 26.91229
288.2634, 27.78748
288.7455, 30.47498
289.2276, 33.62964
289.7097, 35.42944
290.1919, 35.43469
290.6740, 34.95367
291.1561, 35.66095
291.6382, 37.76202
292.1203, 39.32916
292.6024, 39.74579
293.0846, 39.79156
293.5667, 40.23755
294.0488, 41.17419
294.5309, 42.19037
295.0130, 42.87360
295.4951, 43.23633
295.9773, 43.89716
296.4594, 45.06403
296.9415, 46.30432
297.4236, 47.32227
297.9057, 48.09808
298.3878, 48.73865
298.8700, 49.44830
299.3521, 50.10773
299.8342, 50.12659
300.3163, 48.46368
300.7984, 47.01697
301.2805, 47.13647
301.7627, 48.53094
302.2448, 49.87451
302.7269, 50.57977
303.2090, 50.68622
303.6911, 50.36194
304.1732, 49.25830
304.6554, 48.23499
305.1375, 47.73181
305.6196, 47.64270
306.1017, 47.71674
306.5838, 47.94489
307.0659, 48.20142
307.5481, 48.22540
308.0302, 48.03400
308.5123, 47.48022
308.9944, 46.18817
309.4765, 44.62701
309.9586, 43.75183
310.4408, 43.93799
310.9229, 44.26447
311.4050, 43.30389
311.8871, 41.00165
312.3692, 39.16071
312.8513, 38.51801
313.3335, 38.34070
313.8156, 37.65216
314.2977, 36.29626
314.7798, 35.00903
315.2619, 34.63556
315.7440, 35.08099
316.2262, 34.93939
316.7083, 33.74860
317.1904, 32.16772
317.6725, 30.66846
318.1546, 29.26691
318.6367, 27.90894
319.1188, 26.51050
319.6010, 25.15045
320.0831, 24.06451
320.5652, 23.35925
321.0473, 22.80170
321.5294, 22.46161
322.0115, 22.21472
322.4937, 21.54425
322.9758, 20.11053
323.4579, 18.24573
323.9400, 16.87494
324.4221, 16.23651
324.9042, 15.47412
325.3864, 14.13959
325.8685, 12.49506
326.3506, 10.96350
326.8327, 9.642456
327.3148, 8.600159
327.7969, 8.091675
328.2791, 8.255005
328.7612, 8.076233
329.2433, 7.018799
329.7254, 5.689209
330.2075, 4.884155
330.6896, 4.741638
331.1718, 4.648926
331.6539, 3.938782
332.1360, 2.552429
332.6181, 1.407227
333.1002, 0.5336910
333.5823, 8.1848003E-02
334.0645, 0.4680180
334.5466, 0.6131590
335.0287, 0.4558720
335.5108, 0.1049800
335.9929, 1.017456
336.4750, 1.837646
336.9572, 3.030518
337.4393, 3.668579
337.9214, 2.906494
338.4035, 1.271057
338.8856, 8.5631996E-02
339.3677, 2.6062001E-02
339.8499, 0.6338500
340.3320, 0.6539310
340.8141, 0.2778320
341.2962, 1.042297
341.7783, 1.395020
342.2604, 1.479675
342.7426, 1.460022
343.2247, 1.380188
343.7068, 1.209473
344.1889, 0.8539430
344.6710, 0.1162720
345.1531, 0.1631470
345.6353, 0.5798340
346.1174, 1.388855
346.5995, 1.379517
347.0816, 0.5668950
347.5637, 0.2678220
348.0458, 0.4121700
348.5280, 0.1794430
349.0101, 0.5913090
349.4922, 0.7005000
349.9743, 0.7848510
350.4564, 0.9699100
350.9385, 1.216003
351.4207, 1.401978
351.9028, 1.438477
352.3849, 1.389587
352.8670, 1.546875
353.3491, 2.400391
353.8312, 2.849396
354.3134, 2.545593
354.7955, 1.851166
355.2776, 1.060425
355.7597, 0.2955930
356.2418, 0.2355650
356.7239, 0.1323240
357.2061, 1.164825
357.6882, 1.958191
358.1703, 2.020142
358.6524, 1.807220
359.1345, 1.533600
359.6166, 1.274811
360.0987, 1.106781
360.5808, 1.142242
361.0630, 1.436584
361.5451, 1.403839
362.0272, 0.6836850
362.5093, 3.3996999E-02
362.9914, 0.3797000
363.4735, 0.5294490
363.9557, 0.3326420
364.4378, 0.3054200
364.9199, 1.193695
365.4020, 1.499756
365.8841, 0.6771240
366.3662, 1.2848000E-02
366.8484, 0.3099670
367.3305, 0.4713130
367.8126, 0.7068180
368.2947, 1.096985
368.7768, 1.662201
369.2589, 2.485107
369.7411, 3.724152
370.2232, 4.786102
370.7053, 5.877197
371.1874, 6.615967
371.6695, 6.644531
372.1516, 6.064850
372.6338, 5.322388
373.1159, 4.723907
373.5980, 4.276672
374.0801, 4.242249
374.5622, 4.878479
375.0443, 5.642883
375.5265, 6.499451
376.0086, 7.325531
376.4907, 7.924591
376.9728, 8.174286
377.4549, 8.212524
377.9370, 8.311279
378.4192, 8.428589
378.9013, 8.733795
379.3834, 9.470306
379.8655, 10.29288
380.3476, 10.92013
380.8297, 11.29858
381.3119, 11.61777
381.7940, 11.95859
382.2761, 12.32843
382.7582, 13.14572
383.2403, 14.87830
383.7224, 16.58310
384.2046, 17.41382
384.6867, 17.63016
385.1688, 18.19601
385.6509, 20.14938
386.1330, 22.72141
386.6151, 23.96573
387.0973, 23.49738
387.5794, 23.04999
388.0615, 23.67816
388.5436, 24.93649
389.0257, 26.21106
389.5078, 27.25812
389.9900, 28.51974
390.4721, 30.71347
390.9542, 33.67038
391.4363, 35.94836
391.9184, 36.85519
392.4005, 37.12631
392.8827, 37.79053
393.3648, 38.88361
393.8469, 39.99481
394.3290, 40.93130
394.8111, 41.80545
395.2932, 42.82874
395.7754, 44.05307
396.2575, 45.20160
396.7396, 45.90268
397.2217, 46.24945
397.7038, 47.12607
398.1859, 48.99329
398.6681, 50.99097
399.1501, 52.45358
399.6323, 53.56189
400.1144, 54.96204
400.5965, 57.01788
401.0786, 59.50497
401.5607, 61.77853
402.0428, 64.05164
402.5250, 65.85056
403.0071, 66.36157
403.4892, 66.57611
403.9713, 67.87390
404.4534, 70.56342
404.9355, 73.70758
405.4177, 76.18738
405.8998, 77.83948
406.3819, 79.14682
406.8640, 79.81647
407.3461, 80.49344
407.8282, 81.34775
408.3104, 82.45950
408.7925, 83.96359
409.2746, 85.98630
409.7567, 88.44159
410.2388, 90.94019
410.7209, 94.05075
411.2031, 96.33435
411.6852, 97.05750
412.1673, 97.34583
412.6494, 98.25272
413.1315, 100.0459
413.6136, 102.2800
414.0958, 104.4093
414.5779, 106.4385
415.0600, 108.1075
415.5421, 109.2527
416.0242, 110.2840
416.5063, 111.4019
416.9885, 112.5443
417.4706, 113.4443
417.9527, 113.7767
418.4348, 113.8722
418.9169, 115.1423
419.3990, 118.5706
419.8812, 121.0628
420.3633, 120.8640
420.8454, 119.7492
421.3275, 119.3684
421.8096, 120.1196
422.2917, 121.0298
422.7739, 121.0057
423.2560, 120.1373
423.7381, 119.7180
424.2202, 120.3113
424.7023, 120.7943
425.1844, 120.0794
425.6666, 118.4993
426.1487, 117.2637
426.6308, 117.2202
427.1129, 117.6507
427.5950, 117.4888
428.0771, 116.7020
428.5593, 115.7443
429.0414, 114.8095
429.5235, 113.8738
430.0056, 112.8873
430.4877, 111.8057
430.9698, 110.7794
431.4520, 110.1768
431.9341, 109.6500
432.4162, 108.3356
432.8983, 105.9498
433.3804, 103.3379
433.8625, 101.5540
434.3447, 100.7562
434.8268, 99.48602
435.3089, 97.22037
435.7910, 94.86932
436.2731, 93.23907
436.7552, 92.10294
437.2374, 90.50070
437.7195, 87.74155
438.2016, 84.28882
438.6837, 81.93701
439.1658, 82.14172
439.6479, 81.58432
440.1301, 79.11398
440.6122, 76.32086
441.0943, 74.95752
441.5764, 75.24725
442.0585, 75.85471
442.5406, 75.23309
443.0227, 73.15268
443.5049, 71.34912
443.9870, 69.57959
444.4691, 68.36938
444.9512, 68.56006
445.4333, 69.30496
445.9154, 69.10138
446.3976, 67.08832
446.8797, 64.21432
447.3618, 62.65128
447.8439, 62.84473
448.3260, 63.02634
448.8081, 62.78510
449.2903, 62.49081
449.7724, 62.40607
450.2545, 62.52591
450.7366, 62.61853
451.2187, 62.57913
451.7008, 62.37854
452.1830, 61.78238
452.6651, 60.52484
453.1472, 59.53369
453.6293, 59.79044
454.1114, 60.55563
454.5935, 60.73560
455.0757, 59.88541
455.5578, 58.82690
456.0399, 58.05237
456.5220, 57.59961
457.0041, 57.75006
457.4862, 58.81836
457.9684, 60.01773
458.4505, 60.19974
458.9326, 59.38794
459.4147, 58.67493
459.8968, 58.42261
460.3789, 58.23157
460.8611, 57.77795
461.3432, 57.05978
461.8253, 56.16837
462.3074, 55.10367
462.7895, 53.95786
463.2716, 53.08652
463.7538, 53.01160
464.2359, 52.54175
464.7180, 51.18039
465.2001, 49.48392
465.6822, 48.05841
466.1643, 47.03503
466.6465, 46.18112
467.1286, 45.24277
467.6107, 44.18716
468.0928, 42.99951
468.5749, 41.11115
469.0570, 39.69373
469.5392, 39.45111
470.0213, 39.78992
470.5034, 39.85562
470.9855, 39.21906
471.4676, 38.10263
471.9497, 36.92694
472.4319, 35.74585
472.9140, 34.34174
473.3961, 32.50122
473.8782, 30.56549
474.3603, 28.61914
474.8424, 26.72369
475.3246, 25.00891
475.8067, 23.62671
476.2888, 22.46774
476.7709, 21.20688
477.2530, 19.79471
477.7351, 18.64819
478.2173, 18.08179
478.6994, 17.89471
479.1815, 17.82175
479.6636, 17.98065
480.1457, 17.67914
480.6278, 16.06812
481.1100, 13.96008
481.5920, 12.89331
482.0742, 13.14053
482.5563, 13.74194
483.0384, 13.97778
483.5205, 13.83810
484.0026, 13.31451
484.4847, 12.20657
484.9669, 10.94769
485.4490, 9.489044
485.9311, 8.048584
486.4132, 7.072845
486.8953, 6.705139
487.3774, 6.567352
487.8596, 6.086487
488.3417, 4.981659
488.8238, 4.303406
489.3059, 4.558289
489.7880, 4.687927
490.2701, 4.009430
490.7523, 2.796265
491.2344, 1.733887
491.7165, 1.242584
492.1986, 1.164185
492.6807, 1.089966
493.1628, 1.043640
493.6450, 0.9423220
494.1271, 0.3626100
494.6092, 2.4231000E-02
495.0913, 0.7009280
495.5734, 2.294312
496.0555, 3.659851
496.5377, 3.818329
497.0198, 3.159668
497.5019, 2.795502
497.9840, 2.842133
498.4661, 2.712494
498.9482, 1.838623
499.4304, 0.6687010
499.9125, 9.2345998E-02
500.3946, 0.3564760
500.8767, 0.7100220
501.3588, 0.7552800
501.8409, 0.6451720
502.3231, 0.5881350
502.8052, 0.6256710
503.2873, 0.8981630
503.7694, 1.583984
504.2515, 2.705231
504.7336, 3.721222
505.2158, 4.670471
505.6979, 5.486755
506.1800, 6.275848
506.6621, 6.878723
507.1442, 6.987427
507.6263, 6.506714
508.1085, 5.729828
508.5906, 5.058746
509.0727, 4.406769
509.5548, 4.168213
510.0369, 4.839722
510.5190, 5.426971
511.0012, 5.459961
511.4833, 5.141632
511.9654, 4.868866
512.4475, 4.814514
512.9296, 4.980560
513.4117, 5.493530
513.8939, 6.444550
514.3760, 7.044586
514.8581, 7.004272
515.3402, 6.658661
515.8223, 6.303802
516.3044, 5.927094
516.7866, 5.414703
517.2687, 4.580688
517.7508, 3.661926
518.2329, 2.889923
518.7150, 2.280212
519.1971, 2.026733
519.6793, 2.397919
520.1614, 2.970215
520.6435, 2.658539
521.1256, 1.065338
521.6077, 7.2144002E-02
522.0898, 7.1350001E-02
522.5720, 0.2298890
523.0541, 5.1879998E-02
523.5362, 0.5839540
524.0183, 1.202820
524.5004, 1.496033
524.9825, 1.438141
525.4647, 0.8392030
525.9468, 1.441345
526.4289, 2.583405
526.9110, 1.558807
527.3931, 8.4014997E-02
527.8752, 1.135956
528.3574, 1.442688
528.8395, 1.535553
529.3216, 1.871063
529.8037, 2.395264
530.2858, 2.799561
530.7679, 3.086487
531.2501, 3.241486
531.7322, 3.188873
532.2143, 3.031708
532.6964, 2.886139
533.1785, 2.782074
533.6606, 2.596985
534.1428, 2.038757
534.6249, 1.383606
535.1070, 1.359253
535.5891, 2.107666
536.0712, 2.796051
536.5533, 2.658478
537.0355, 1.911682
537.5176, 1.890656
537.9997, 3.728973
538.4818, 4.845886
538.9639, 3.930023
539.4460, 2.163239
539.9282, 0.9773860
540.4103, 0.6779480
540.8924, 0.7437130
541.3745, 0.6410220
541.8566, 0.3613590
542.3387, 0.2140500
542.8209, 0.3690800
543.3029, 0.4563900
543.7850, 0.6692200
544.2672, 0.6474300
544.7493, 0.1133420
545.2314, 1.717224
545.7135, 3.607544
546.1956, 5.349945
546.6777, 6.915710
547.1599, 7.808289
547.6420, 7.733002
548.1241, 7.557312
548.6062, 7.602875
549.0883, 7.953278
549.5704, 8.839264
550.0526, 10.44321
550.5347, 12.27664
551.0168, 14.24344
551.4989, 16.18719
551.9810, 17.69553
552.4631, 18.66342
552.9453, 19.59439
553.4274, 20.95297
553.9095, 22.74466
554.3916, 24.27600
554.8737, 25.39395
555.3558, 26.47412
555.8380, 27.55737
556.3201, 28.69272
556.8022, 29.87177
557.2843, 31.11966
557.7664, 32.55765
558.2485, 34.43393
558.7307, 36.75620
559.2128, 38.89349
559.6949, 40.76620
560.1770, 42.53479
560.6591, 44.27097
561.1412, 45.94553
561.6234, 47.49771
562.1055, 48.89542
562.5876, 50.32437
563.0697, 51.85001
563.5518, 53.53168
564.0339, 55.71146
564.5161, 58.57025
564.9982, 61.21091
565.4803, 62.75464
565.9624, 63.55069
566.4445, 65.18729
566.9266, 68.44458
567.4088, 71.42361
567.8909, 73.14722
568.3730, 74.38977
568.8551, 76.28531
569.3372, 78.93735
569.8193, 81.44272
570.3015, 82.84653
570.7836, 83.24316
571.2657, 84.39600
571.7478, 87.14709
572.2299, 89.54126
572.7120, 91.05698
573.1942, 92.24243
573.6763, 93.69968
574.1584, 95.47852
574.6405, 97.03415
575.1226, 97.65051
575.6047, 97.61813
576.0869, 98.22226
576.5690, 99.60645
577.0511, 101.0226
577.5332, 102.1576
578.0153, 103.0801
578.4974, 103.8921
578.9796, 104.5616
579.4617, 105.2473
579.9438, 106.2877
580.4259, 107.2853
580.9080, 107.5244
581.3901, 107.0844
581.8723, 106.8969
582.3544, 107.6075
582.8365, 108.9658
583.3186, 110.0798
583.8007, 110.7371
584.2828, 111.4978
584.7650, 112.5396
585.2471, 113.5214
585.7292, 114.1240
586.2113, 114.4815
586.6934, 114.9618
587.1755, 115.8238
587.6577, 116.8291
588.1398, 117.3340
588.6219, 117.2107
589.1040, 117.5361
589.5861, 118.7005
590.0682, 120.3038
590.5504, 122.1142
591.0325, 124.0629
591.5146, 125.6888
591.9967, 126.5372
592.4788, 127.3065
592.9609, 128.4490
593.4431, 129.9081
593.9252, 131.7783
594.4073, 134.1835
594.8894, 136.5569
595.3715, 137.9477
595.8536, 137.9139
596.3358, 138.3715
596.8179, 140.1107
597.3000, 141.6791
597.7821, 142.2000
598.2642, 142.2533
598.7463, 142.7324
599.2285, 143.9570
599.7106, 145.5756
600.1927, 147.3631
600.6748, 149.2802
601.1569, 150.5012
601.6390, 150.9004
602.1212, 150.7766
602.6033, 150.0577
603.0854, 148.9836
603.5675, 147.9641
604.0496, 147.0816
604.5317, 146.1340
605.0139, 145.1436
605.4960, 143.9628
605.9781, 142.3697
606.4602, 140.3535
606.9423, 138.0266
607.4244, 135.4551
607.9066, 132.6826
608.3887, 129.8534
608.8708, 126.6240
609.3529, 123.8747
609.8350, 122.1411
610.3171, 120.4778
610.7993, 118.2476
611.2814, 115.4657
611.7635, 112.4700
612.2456, 109.4689
612.7277, 106.3856
613.2098, 102.9336
613.6920, 99.03815
614.1741, 95.40482
614.6562, 92.28186
615.1383, 89.34613
615.6204, 86.15213
616.1025, 82.77219
616.5847, 79.75980
617.0668, 77.64536
617.5489, 75.51993
618.0310, 72.37741
618.5131, 68.88187
618.9952, 66.58224
619.4774, 65.89828
619.9595, 65.57104
620.4416, 64.06818
620.9237, 61.27457
621.4058, 58.96051
621.8879, 57.34781
622.3701, 55.97662
622.8522, 54.71005
623.3343, 53.66727
623.8164, 53.24072
624.2985, 53.41241
624.7806, 53.21252
625.2628, 51.37405
625.7448, 48.63556
626.2269, 47.17706
626.7090, 47.15442
627.1912, 46.98236
627.6733, 45.78424
628.1554, 44.16043
628.6375, 43.31174
629.1196, 43.40079
629.6017, 43.31696
630.0839, 42.60675
630.5660, 41.92734
631.0481, 41.63074
631.5302, 41.74664
632.0123, 42.39124
632.4944, 43.61151
632.9766, 44.88086
633.4587, 45.21667
633.9408, 44.38037
634.4229, 43.83301
634.9050, 43.74298
635.3871, 43.76859
635.8693, 43.77426
636.3514, 43.80957
636.8335, 43.96295
637.3156, 44.26562
637.7977, 44.43524
638.2798, 44.29865
638.7620, 43.94189
639.2441, 43.35641
639.7262, 42.58459
640.2083, 42.12390
640.6904, 42.25800
641.1725, 42.81656
641.6547, 43.45438
642.1368, 44.55701
642.6189, 45.31992
643.1010, 45.41644
643.5831, 45.40619
644.0652, 45.68143
644.5474, 46.19089
645.0295, 46.64343
645.5116, 46.83450
645.9937, 46.85306
646.4758, 46.99625
646.9579, 47.30356
647.4401, 47.26376
647.9222, 46.64841
648.4043, 45.85016
648.8864, 45.13449
649.3685, 44.52750
649.8506, 44.12775
650.3328, 44.19324
650.8149, 44.16214
651.2970, 43.69232
651.7791, 42.92651
652.2612, 42.08554
652.7433, 41.27170
653.2255, 40.75391
653.7076, 40.76389
654.1897, 41.09500
654.6718, 40.96857
655.1539, 40.20026
655.6360, 39.36887
656.1182, 38.25842
656.6003, 37.31775
657.0824, 36.94049
657.5645, 36.97757
658.0466, 36.95566
658.5287, 36.78308
659.0109, 36.34415
659.4930, 35.35815
659.9751, 34.02225
660.4572, 32.94440
660.9393, 32.27127
661.4214, 31.48993
661.9036, 30.03168
662.3857, 28.01071
662.8678, 26.66400
663.3499, 26.97195
663.8320, 26.67679
664.3141, 24.93179
664.7963, 23.04041
665.2784, 22.06577
665.7605, 21.92426
666.2426, 21.90482
666.7247, 21.63806
667.2068, 21.14093
667.6890, 20.35199
668.1711, 19.29181
668.6532, 18.36142
669.1353, 17.63776
669.6174, 17.03699
670.0995, 16.51459
670.5817, 16.06326
671.0638, 15.59781
671.5459, 15.18805
672.0280, 14.68729
672.5101, 14.06586
672.9922, 13.33429
673.4744, 12.33618
673.9565, 11.16605
674.4386, 10.29977
674.9207, 10.17065
675.4028, 10.50064
675.8849, 10.27167
676.3671, 9.303650
676.8492, 8.502197
677.3313, 8.063812
677.8134, 7.782715
678.2955, 7.622589
678.7776, 7.504303
679.2598, 7.108124
679.7419, 6.155914
680.2240, 5.177643
680.7061, 4.466736
681.1882, 3.944580
681.6703, 3.462769
682.1525, 3.008636
682.6346, 2.708008
683.1167, 2.716644
683.5988, 2.899414
684.0809, 2.488098
684.5630, 0.9412540
685.0452, 5.4629999E-03
685.5273, 0.4447020
686.0094, 1.109161
686.4915, 1.424957
686.9736, 1.400604
687.4557, 1.179626
687.9379, 0.7673340
688.4200, 0.2821960
688.9021, 0.2716980
689.3842, 0.7998050
689.8663, 1.054230
690.3484, 1.000610
690.8306, 0.8149110
691.3127, 0.6188660
691.7948, 0.4210820
692.2769, 0.2668760
692.7590, 7.2940001E-03
693.2411, 4.2236000E-02
693.7233, 0.8075260
694.2054, 1.459442
694.6875, 1.284821
695.1696, 0.5849300
695.6517, 0.1902160
696.1339, 0.4884640
696.6160, 1.103760
697.0981, 1.899994
697.5802, 2.683228
698.0623, 2.570374
698.5444, 1.352875
699.0266, 0.3447570
699.5087, 0.5407410
699.9908, 1.607361
700.4729, 2.282944
700.9550, 2.279587
701.4371, 2.298859
701.9193, 2.630936
702.4014, 2.725845
702.8835, 1.937515
703.3656, 0.6983030
703.8477, 3.7080001E-03
704.3298, 0.3254090
704.8120, 0.9263150
705.2941, 0.8068700
705.7762, 0.1356510
706.2583, 0.2522740
706.7404, 0.2758940
707.2225, 3.4378000E-02
707.7046, 0.6020360
708.1867, 1.329117
708.6688, 1.287521
709.1509, 3.0792000E-02
709.6331, 0.7592160
710.1152, 0.3942260
710.5973, 0.2240600
711.0794, 0.7524720
711.5615, 1.131287
712.0436, 1.337067
712.5258, 1.366516
713.0079, 1.228424
713.4900, 0.8526310
713.9721, 0.2923280
714.4542, 0.1381070
714.9363, 0.4193120
715.4185, 0.6053310
715.9006, 0.6906740
716.3827, 0.7472380
716.8648, 0.9187770
717.3469, 1.246124
717.8290, 1.398468
718.3112, 0.9702150
718.7933, 0.7738040
719.2754, 1.637817
719.7575, 2.814026
720.2396, 3.120743
720.7217, 2.311752
721.2039, 1.213272
721.6860, 0.5213320
722.1681, 0.2165680
722.6502, 0.2941590
723.1323, 0.7921140
723.6144, 1.414261
724.0966, 2.275955
724.5787, 2.905914
725.0608, 2.576401
725.5429, 1.308853
726.0250, 0.4460600
726.5071, 8.4885001E-02
726.9893, 9.7778000E-02
727.4714, 0.7205810
727.9535, 1.527100
728.4356, 2.087479
728.9177, 2.327744
729.3998, 2.332199
729.8820, 2.087189
730.3641, 1.789810
730.8462, 2.048874
731.3283, 2.899567
731.8104, 3.151901
732.2925, 2.377365
732.7747, 1.403839
733.2568, 0.7987060
733.7389, 0.5725100
734.2210, 0.6664890
734.7031, 1.423370
735.1852, 1.964523
735.6674, 1.841949
736.1495, 1.650238
736.6316, 1.990158
737.1137, 2.697098
737.5958, 3.193924
738.0779, 3.188156
738.5601, 2.914001
739.0422, 2.614136
739.5243, 2.316528
740.0064, 2.364227
740.4885, 2.888016
740.9706, 3.296997
741.4528, 3.254471
741.9349, 2.893112
742.4170, 2.440369
742.8991, 1.755966
743.3812, 1.466125
743.8633, 1.774353
744.3455, 2.328003
744.8276, 3.233093
745.3097, 4.151627
745.7918, 4.518539
746.2739, 4.214386
746.7560, 3.780731
747.2382, 3.796570
747.7203, 4.084122
748.2024, 4.052490
748.6845, 3.697357
749.1666, 3.416763
749.6487, 3.361694
750.1309, 3.379761
750.6130, 3.291824
751.0951, 3.087387
751.5772, 2.889053
752.0593, 2.511063
752.5414, 2.390961
753.0236, 2.924988
753.5057, 3.543289
753.9878, 3.736908
754.4699, 3.481598
754.9520, 2.968307
755.4341, 2.168259
755.9163, 1.489502
756.3984, 1.635376
756.8805, 2.407547
757.3626, 3.029633
757.8447, 3.349747
758.3268, 3.347397
758.8090, 2.965607
759.2911, 2.352478
759.7732, 2.003113
760.2553, 2.319382
760.7374, 2.269531
761.2195, 1.367645
761.7017, 0.6541140
762.1838, 0.6902310
762.6659, 1.161362
763.1480, 1.644089
763.6301, 2.046539
764.1122, 2.337906
764.5944, 2.453903
765.0765, 2.452774
765.5586, 2.325882
766.0407, 2.119446
766.5228, 2.175079
767.0049, 2.689041
767.4871, 3.404907
767.9692, 4.121262
768.4513, 4.833145
768.9334, 4.844666
769.4155, 3.564926
769.8976, 2.576218
770.3798, 2.493774
770.8619, 2.628448
771.3440, 2.384415
771.8261, 1.858627
772.3082, 1.642761
772.7903, 2.192825
773.2725, 2.743439
773.7546, 2.565628
774.2367, 2.131653
774.7188, 2.289429
775.2009, 3.048813
775.6830, 3.731400
776.1652, 3.893158
776.6473, 3.673615
777.1294, 3.351761
777.6115, 2.866608
778.0936, 2.678253
778.5757, 2.913971
779.0579, 3.263062
779.5400, 3.665268
780.0221, 4.006622
780.5042, 4.057709
780.9863, 3.742889
781.4684, 3.585815
781.9506, 3.901413
782.4327, 4.203690
782.9148, 4.085159
783.3969, 3.754990
783.8790, 3.577652
784.3611, 3.662903
784.8433, 3.849655
785.3254, 4.006409
785.8075, 4.161865
786.2896, 4.466446
786.7717, 4.923828
787.2538, 5.066605
787.7360, 4.676392
788.2181, 4.217575
788.7002, 4.073090
789.1823, 4.244446
789.6644, 4.724945
790.1465, 6.104462
790.6286, 6.904678
791.1107, 6.619614
791.5928, 6.093185
792.0750, 5.796570
792.5571, 5.739395
793.0392, 5.782593
793.5213, 5.883133
794.0034, 5.954422
794.4855, 5.921066
794.9677, 5.829559
795.4498, 5.720245
795.9319, 5.608414
796.4140, 5.618973
796.8961, 5.811630
797.3782, 6.030396
797.8604, 6.045120
798.3425, 5.846405
798.8246, 5.859879
799.3067, 6.281799
799.7888, 6.540955
800.2709, 6.354767
800.7531, 6.049850
801.2352, 5.867966
801.7173, 5.814102
802.1994, 5.772095
802.6815, 5.597412
803.1636, 5.592072
803.6458, 6.060303
804.1279, 6.674149
804.6100, 7.084778
805.0921, 7.268250
805.5742, 7.291916
806.0563, 7.176529
806.5385, 7.036499
807.0206, 7.109177
807.5027, 7.375687
807.9848, 7.498306
808.4669, 7.455093
808.9490, 7.294708
809.4312, 6.993973
809.9133, 6.636810
810.3954, 6.382050
810.8775, 6.281998
811.3596, 6.070038
811.8417, 5.468399
812.3239, 5.088409
812.8060, 5.189087
813.2881, 5.506897
813.7702, 5.869446
814.2523, 6.238800
814.7344, 6.547394
815.2166, 6.698624
815.6987, 6.852249
816.1808, 7.312378
816.6629, 7.879395
817.1450, 8.056152
817.6271, 7.809448
818.1093, 7.485306
818.5914, 7.291595
819.0735, 7.130798
819.5556, 6.766953
820.0377, 6.119339
820.5198, 5.771454
821.0020, 5.807236
821.4841, 6.023438
821.9662, 6.625626
822.4483, 7.118393
822.9304, 6.877960
823.4125, 5.953293
823.8947, 5.250366
824.3768, 4.950317
824.8589, 4.908478
825.3410, 5.206390
825.8231, 5.608292
826.3052, 5.889816
826.7874, 6.037796
827.2695, 6.130844
827.7516, 6.215393
828.2337, 6.271957
828.7158, 6.186859
829.1979, 5.994781
829.6801, 5.977478
830.1622, 6.185547
830.6443, 6.349091
831.1264, 6.277710
831.6085, 6.149872
832.0906, 6.311386
832.5728, 6.844177
833.0549, 7.220840
833.5370, 7.217896
834.0191, 7.225632
834.5012, 7.589874
834.9833, 7.868988
835.4655, 7.516693
835.9476, 6.687729
836.4297, 6.206665
836.9118, 6.477127
837.3939, 6.950211
837.8760, 7.477356
838.3582, 7.884506
838.8403, 7.927658
839.3224, 7.704712
839.8045, 7.518753
840.2866, 7.477310
840.7687, 7.428329
841.2509, 7.092728
841.7330, 6.591263
842.2151, 6.734299
842.6972, 7.599808
843.1793, 8.000565
843.6614, 7.347473
844.1436, 6.573441
844.6257, 6.820953
845.1078, 8.042160
845.5899, 8.761780
846.0720, 8.736267
846.5541, 8.555313
847.0363, 8.015427
847.5184, 7.516708
848.0005, 7.419556
848.4826, 7.601578
848.9647, 7.653854
849.4468, 7.391113
849.9290, 7.280380
850.4111, 7.843979
850.8932, 8.474457
851.3753, 8.537048
851.8574, 8.160431
852.3395, 7.693420
852.8217, 7.251526
853.3038, 6.827682
853.7859, 6.380539
854.2680, 5.983505
854.7501, 5.940964
855.2322, 6.253387
855.7144, 6.412140
856.1965, 6.284897
856.6786, 6.119858
857.1607, 6.091537
857.6428, 6.173492
858.1249, 6.300629
858.6071, 6.641312
859.0892, 6.651764
859.5713, 6.082367
860.0534, 5.482498
860.5355, 4.879898
861.0176, 4.441910
861.4998, 4.467743
861.9819, 4.954742
862.4640, 5.304672
862.9461, 5.145355
863.4282, 4.914505
863.9103, 4.984024
864.3925, 5.129868
864.8746, 5.013000
865.3567, 4.633011
865.8388, 4.178162
866.3209, 3.737869
866.8030, 3.429581
867.2852, 3.569321
867.7673, 4.032394
868.2494, 4.086823
868.7315, 3.676880
869.2136, 3.351379
869.6957, 3.339874
870.1779, 3.504410
870.6600, 3.694839
871.1421, 3.914749
871.6242, 3.916626
872.1063, 3.483566
872.5884, 3.213089
873.0705, 3.455994
873.5526, 3.650070
874.0347, 3.238556
874.5168, 2.547043
874.9990, 2.485535
875.4811, 3.569016
875.9632, 4.133621
876.4453, 3.026520
876.9274, 1.744583
877.4095, 1.517853
877.8917, 1.853592
878.3738, 1.717270
878.8559, 0.9398190
879.3380, 0.3308260
879.8201, 0.6759190
880.3022, 1.370346
880.7844, 1.362625
881.2665, 0.8361510
881.7486, 0.4326780
882.2307, 0.2628170
882.7128, 0.3061070
883.1949, 0.5822300
883.6771, 0.9294590
884.1592, 0.9953610
884.6413, 0.7442470
885.1234, 0.4551090
885.6055, 6.1218001E-02
886.0876, 0.1979980
886.5698, 0.1189580
887.0519, 1.3730000E-03
887.5340, 0.2136840
888.0161, 0.7365110
888.4982, 1.128693
888.9803, 1.300781
889.4625, 1.455109
889.9446, 1.848099
890.4267, 2.021362
890.9088, 1.423325
891.3909, 0.4332120
891.8730, 0.1938630
892.3552, 0.2538600
892.8373, 0.1032410
893.3194, 5.0200999E-02
893.8015, 0.2878720
894.2836, 0.8181760
894.7657, 1.460052
895.2479, 1.784119
895.7300, 1.745422
896.2121, 1.731918
896.6942, 2.066254
897.1763, 2.492905
897.6584, 2.433136
898.1406, 1.943726
898.6227, 1.571487
899.1048, 1.370514
899.5869, 1.269211
900.0690, 1.224976
900.5511, 1.260025
901.0333, 1.440369
901.5154, 1.783585
901.9975, 1.998169
902.4796, 2.010895
902.9617, 2.000320
903.4438, 2.133301
903.9260, 2.130066
904.4081, 1.635803
904.8902, 0.8795320
905.3723, 0.5001530
905.8544, 0.7599790
906.3365, 0.8261570
906.8187, 0.3455660
907.3008, 0.2172240
907.7829, 0.7740940
908.2650, 1.141861
908.7471, 0.9224700
909.2292, 0.1789400
909.7114, 0.3314510
910.1935, 5.0735001E-02
910.6756, 0.4682920
911.1577, 0.6675110
911.6398, 0.7028960
912.1219, 0.8806000
912.6041, 1.198685
913.0862, 1.424652
913.5683, 1.445358
914.0504, 1.529007
914.5325, 2.114365
915.0146, 3.092545
915.4968, 3.832779
915.9789, 4.330536
916.4610, 4.868469
916.9431, 5.559311
917.4252, 6.105759
917.9073, 6.195328
918.3895, 6.017242
918.8716, 6.307098
919.3537, 7.372955
919.8358, 8.155304
920.3179, 8.533051
920.8000, 8.780212
921.2822, 8.957458
921.7643, 9.087662
922.2464, 9.081223
922.7285, 8.957672
923.2106, 9.218826
923.6927, 10.26607
924.1749, 11.25009
924.6570, 11.79646
925.1391, 12.32230
925.6212, 13.24214
926.1033, 14.37064
926.5854, 15.29601
927.0676, 15.90070
927.5497, 16.33731
928.0318, 16.52286
928.5139, 16.74936
928.9960, 17.26701
929.4781, 18.07045
929.9603, 19.29260
930.4424, 20.83751
930.9245, 22.13730
931.4066, 22.79114
931.8887, 23.19208
932.3708, 24.03264
932.8530, 25.16667
933.3351, 25.82289
933.8172, 25.99484
934.2993, 26.63295
934.7814, 28.13249
935.2635, 29.61060
935.7457, 29.98999
936.2278, 29.54967
936.7099, 30.09779
937.1920, 31.94624
937.6741, 33.43364
938.1563, 34.28801
938.6384, 34.94160
939.1205, 35.56923
939.6026, 36.19568
940.0847, 36.90063
940.5668, 37.72951
941.0490, 38.44878
941.5311, 38.95824
942.0132, 39.49573
942.4953, 39.92009
942.9774, 40.53711
943.4595, 41.81302
943.9417, 43.42979
944.4238, 44.49637
944.9059, 44.64616
945.3880, 44.98245
945.8701, 45.97000
946.3522, 47.17694
946.8344, 48.56041
947.3165, 49.85480
947.7986, 50.64885
948.2807, 50.97363
948.7628, 51.24457
949.2449, 51.55139
949.7271, 52.21358
950.2092, 53.79402
950.6913, 55.74197
951.1734, 57.18909
951.6555, 58.22379
952.1376, 59.41321
952.6198, 60.93086
953.1019, 62.41769
953.5840, 63.52446
954.0661, 64.38844
954.5482, 65.26025
955.0303, 66.15883
955.5124, 67.32812
955.9945, 68.83252
956.4766, 70.29976
956.9587, 71.49860
957.4409, 72.73022
957.9230, 74.49063
958.4051, 76.78049
958.8872, 79.10477
959.3693, 81.55017
959.8514, 83.57436
960.3336, 84.78543
960.8157, 86.23236
961.2978, 88.82617
961.7799, 92.12714
962.2620, 94.89442
962.7441, 96.93692
963.2263, 99.05206
963.7084, 101.0878
964.1905, 103.3360
964.6726, 105.8879
965.1547, 108.6805
965.6368, 111.6981
966.1190, 114.9284
966.6011, 118.3384
967.0832, 122.2027
967.5653, 125.6955
968.0474, 128.3943
968.5295, 130.9662
969.0117, 133.6548
969.4938, 136.5157
969.9759, 139.6838
970.4580, 143.1010
970.9401, 146.2792
971.4222, 148.8312
971.9044, 151.3531
972.3865, 154.1357
972.8686, 157.1468
973.3507, 160.6678
973.8328, 164.2971
974.3149, 167.0770
974.7971, 168.7847
975.2792, 170.3609
975.7613, 172.6002
976.2434, 175.0371
976.7255, 177.1316
977.2076, 178.9161
977.6898, 180.4201
978.1719, 181.6988
978.6540, 182.8759
979.1361, 184.0194
979.6182, 185.2142
980.1003, 186.6279
980.5825, 188.1630
981.0646, 189.6705
981.5467, 191.0462
982.0288, 191.2955
982.5109, 190.2242
982.9930, 188.8272
983.4752, 187.7316
983.9573, 186.8005
984.4394, 185.8354
984.9215, 184.8410
985.4036, 183.4441
985.8857, 181.6040
986.3679, 179.5296
986.8500, 177.1388
987.3321, 174.9588
987.8142, 173.4967
988.2963, 172.4992
988.7784, 171.1564
989.2606, 169.3477
989.7427, 167.6567
990.2248, 166.3022
990.7069, 164.6158
991.1890, 162.1120
991.6711, 159.4848
992.1533, 157.4188
992.6354, 155.8219
993.1175, 154.1686
993.5996, 152.4354
994.0817, 150.6992
994.5638, 149.0552
995.0460, 147.2862
995.5281, 145.4295
996.0102, 143.3318
996.4923, 140.6606
996.9744, 137.5171
997.4565, 134.7159
997.9387, 132.5296
998.4208, 130.5095
998.9029, 128.6644
999.3850, 126.8364
999.8671, 124.9284
1000.349, 122.9852
1000.831, 121.1778
1001.313, 119.4774
1001.796, 117.4999
1002.278, 114.8935
1002.760, 112.2825
1003.242, 109.8548
1003.724, 107.7170
1004.206, 106.2112
1004.688, 104.9794
1005.170, 103.3285
1005.653, 101.0941
1006.135, 98.63280
1006.617, 95.89285
1007.099, 93.39731
1007.581, 91.81970
1008.063, 90.65002
1008.545, 89.35971
1009.027, 87.79251
1009.509, 85.63838
1009.992, 82.87965
1010.474, 80.29974
1010.956, 78.61707
1011.438, 77.37950
1011.920, 76.23749
1012.402, 75.05597
1012.884, 73.28943
1013.366, 71.02994
1013.849, 68.98679
1014.331, 67.44579
1014.813, 66.07861
1015.295, 64.54617
1015.777, 62.95723
1016.259, 61.55376
1016.741, 60.27948
1017.223, 58.93530
1017.705, 57.54799
1018.188, 56.49934
1018.670, 55.97382
1019.152, 55.44731
1019.634, 54.20737
1020.116, 52.41789
1020.598, 50.71098
1021.080, 49.08655
1021.562, 47.52309
1022.044, 46.01398
1022.527, 44.59514
1023.009, 43.27252
1023.491, 42.06258
1023.973, 41.03732
1024.455, 40.18442
1024.937, 39.11180
1025.419, 37.73364
1025.901, 36.80724
1026.384, 36.61850
1026.866, 36.19089
1027.348, 34.79028
1027.830, 33.01703
1028.312, 32.01865
1028.794, 31.82611
1029.276, 31.52933
1029.758, 31.22769
1030.240, 30.41888
1030.723, 28.80775
1031.205, 27.13574
1031.687, 25.86494
1032.169, 24.87025
1032.651, 23.90913
1033.133, 22.98959
1033.615, 22.00687
1034.097, 20.71193
1034.579, 19.92601
1035.062, 20.16362
1035.544, 20.38966
1036.026, 19.87280
1036.508, 18.91228
1036.990, 18.14211
1037.472, 17.61827
1037.954, 16.96715
1038.436, 16.17197
1038.919, 15.27905
1039.401, 14.14859
1039.883, 13.09245
1040.365, 12.33768
1040.847, 11.79146
1041.329, 11.20210
1041.811, 10.46101
1042.293, 10.24681
1042.776, 11.43457
1043.258, 11.93976
1043.740, 10.91806
1044.222, 9.564713
1044.704, 8.611938
1045.186, 7.888779
1045.668, 6.922272
1046.150, 5.558014
1046.632, 4.885315
1047.115, 5.618698
1047.597, 6.226913
1048.079, 6.473923
1048.561, 6.340332
1049.043, 5.562454
1049.525, 4.494461
1050.007, 3.847031
1050.489, 3.764282
1050.971, 3.341919
1051.454, 1.766525
1051.936, 0.7069400
1052.418, 1.187485
1052.900, 1.842606
1053.382, 1.542160
1053.864, 0.7518160
1054.346, 0.4797060
1054.828, 0.8821110
1055.311, 1.075058
1055.793, 0.6186980
1056.275, 0.1974330
1056.757, 0.1010280
1057.239, 0.1374660
1057.721, 0.5388950
1058.203, 1.404846
1058.685, 1.457230
1059.167, 0.5651090
1059.650, 0.1146850
1060.132, 7.6476999E-02
1060.614, 6.3004002E-02
1061.096, 0.2760470
1061.578, 0.2988130
1062.060, 0.2424470
1062.542, 1.035736
1063.024, 1.536774
1063.506, 1.679504
1063.989, 1.857941
1064.471, 2.352921
1064.953, 2.719345
1065.435, 2.752823
1065.917, 2.612183
1066.399, 2.257202
1066.881, 1.892181
1067.363, 1.967041
1067.846, 2.437408
1068.328, 2.433197
1068.810, 1.211288
1069.292, 0.1896060
1069.774, 0.1325680
1070.256, 0.3776090
1070.738, 0.6197200
1071.220, 0.7319490
1071.703, 0.4436950
1072.185, 0.1505280
1072.667, 0.3589320
1073.149, 0.2592470
1073.631, 0.8637540
1074.113, 0.9472810
1074.595, 1.000916
1075.077, 1.589050
1075.559, 2.235962
1076.042, 2.188354
1076.524, 1.525391
1077.006, 1.031647
1077.488, 1.019562
1077.970, 1.053543
1078.452, 0.9643250
1078.934, 0.8188320
1079.416, 0.6863100
1079.898, 0.4948120
1080.380, 2.9114000E-02
1080.863, 0.5791020
1081.345, 0.8135380
1081.827, 0.4163360
1082.309, 0.1568300
1082.791, 0.5950160
1083.273, 1.022308
1083.755, 0.8416140
1084.237, 0.5502780
1084.720, 0.7576600
1085.202, 1.329895
1085.684, 1.719711
1086.166, 1.752243
1086.648, 2.035507
1087.130, 3.294556
1087.612, 4.274323
1088.094, 4.152115
1088.577, 3.614899
1089.059, 3.186295
1089.541, 2.913116
1090.023, 2.770966
1090.505, 2.747635
1090.987, 2.744965
1091.469, 2.614273
1091.951, 2.651886
1092.433, 3.054733
1092.916, 3.605148
1093.398, 4.492752
1093.880, 5.249130
1094.362, 4.859512
1094.844, 3.281570
1095.326, 2.230759
1095.808, 2.302338
1096.290, 2.953629
1096.772, 4.931625
1097.255, 6.466858
1097.737, 5.806427
1098.219, 4.312698
1098.701, 3.975220
1099.183, 4.829407
1099.665, 5.519409
1100.147, 5.711258
1100.629, 5.797409
1101.112, 5.769882
1101.594, 5.776764
1102.076, 6.056290
1102.558, 6.250412
1103.040, 5.885422
1103.522, 5.095627
1104.004, 4.459488
1104.486, 4.000916
1104.969, 3.915543
1105.451, 4.350311
1105.933, 5.028549
1106.415, 6.236496
1106.897, 7.286240
1107.379, 7.484756
1107.861, 7.145508
1108.343, 7.086670
1108.825, 7.452469
1109.307, 7.545715
1109.790, 7.222458
1110.272, 6.771805
1110.754, 5.939835
1111.236, 5.283951
1111.718, 5.346527
1112.200, 5.724472
1112.682, 5.734207
1113.164, 5.351624
1113.647, 5.036926
1114.129, 4.568115
1114.611, 4.539749
1115.093, 5.310242
1115.575, 6.102036
1116.057, 6.653381
1116.539, 7.013306
1117.021, 7.220551
1117.504, 7.271683
1117.986, 7.199463
1118.468, 7.098465
1118.950, 6.626251
1119.432, 5.485428
1119.914, 4.626221
1120.396, 4.245163
1120.878, 4.159332
1121.360, 4.304230
1121.843, 4.608032
1122.325, 4.853546
1122.807, 5.085754
1123.289, 4.986557
1123.771, 4.408310
1124.253, 4.129974
1124.735, 4.431320
1125.217, 4.587036
1125.699, 4.048904
1126.182, 3.327667
1126.664, 3.330765
1127.146, 4.000107
1127.628, 4.613312
1128.110, 5.192841
1128.592, 5.588730
1129.074, 5.759750
1129.556, 5.414749
1130.039, 4.337479
1130.521, 3.240875
1131.003, 2.965103
1131.485, 3.256653
1131.967, 3.293762
1132.449, 3.099945
1132.931, 2.903458
1133.413, 2.698410
1133.896, 2.494949
1134.378, 2.314713
1134.860, 2.077881
1135.342, 1.676102
1135.824, 1.329620
1136.306, 1.610153
1136.788, 2.273926
1137.270, 2.250198
1137.752, 1.700134
1138.234, 1.489532
1138.717, 1.736023
1139.199, 2.005234
1139.681, 2.072418
1140.163, 2.049591
1140.645, 2.161880
1141.127, 2.209702
1141.609, 1.617920
1142.091, 0.7679600
1142.574, 0.6045990
1143.056, 1.019455
1143.538, 1.285049
1144.020, 1.199295
1144.502, 1.199753
1144.984, 1.686172
1145.466, 2.181580
1145.948, 2.219193
1146.431, 1.952011
1146.913, 1.393982
1147.395, 0.7541200
1147.877, 0.4039460
1148.359, 0.3544010
1148.841, 0.3349150
1149.323, 0.2312770
1149.805, 0.1376950
1150.287, 0.1197810
1150.770, 0.1259460
1151.252, 1.9180000E-02
1151.734, 5.0841998E-02
1152.216, 0.6020360
1152.698, 1.527618
1153.180, 1.689880
1153.662, 0.8788300
1154.144, 0.1250920
1154.626, 0.4581760
1155.109, 0.6238400
1155.591, 2.8991999E-02
1156.073, 0.7792510
1156.555, 1.382309
1157.037, 1.692200
1157.519, 1.410080
1158.001, 0.6430820
1158.483, 0.1157840
1158.966, 8.6075000E-02
1159.448, 8.9096002E-02
1159.930, 0.1260070
1160.412, 0.5071260
1160.894, 1.283417
1161.376, 1.930222
1161.858, 2.023575
1162.340, 1.744308
1162.822, 1.439072
1163.305, 1.083252
1163.787, 0.9348300
1164.269, 1.111282
1164.751, 1.147232
1165.233, 0.8971560
1165.715, 0.7726590
1166.197, 1.039597
1166.679, 1.313721
1167.161, 1.074036
1167.644, 0.5213780
1168.126, 0.5664220
1168.608, 1.240494
1169.090, 1.657013
1169.572, 1.776657
1170.054, 1.737411
1170.536, 1.571533
1171.018, 1.456360
1171.500, 1.509537
1171.983, 1.696701
1172.465, 2.099197
1172.947, 2.552612
1173.429, 2.388428
1173.911, 1.790131
1174.393, 1.445618
1174.875, 1.403519
1175.357, 1.449371
1175.840, 1.478867
1176.322, 1.247971
1176.804, 0.3358000
1177.286, 0.4393460
1177.768, 0.2266390
1178.250, 1.455750
1178.732, 2.049225
1179.214, 2.169495
1179.697, 2.328537
1180.179, 2.555344
1180.661, 2.461884
1181.143, 1.818741
1181.625, 1.347473
1182.107, 1.801666
1182.589, 2.208923
1183.071, 1.771500
1183.553, 1.125443
1184.036, 0.9507600
1184.518, 1.018555
1185.000, 0.6892550
1185.482, 7.7239998E-02
1185.964, 0.3706670
1186.446, 0.4324190
1186.928, 1.032974
1187.410, 1.026642
1187.892, 1.017563
1188.375, 1.432831
1188.857, 1.798569
1189.339, 1.499435
1189.821, 0.8607940
1190.303, 0.8538060
1190.785, 1.604111
1191.267, 2.265350
1191.749, 2.946579
1192.232, 3.186829
1192.714, 2.784439
1193.196, 2.306915
1193.678, 2.023926
1194.160, 1.829987
1194.642, 1.582626
1195.124, 1.316132
1195.606, 1.148697
1196.089, 1.083054
1196.571, 1.367462
1197.053, 1.990906
1197.535, 2.534943
1198.017, 2.881760
1198.499, 2.947937
1198.981, 2.668076
1199.463, 2.302902
1199.945, 2.214264
1200.427, 2.265533
1200.910, 2.038345
1201.392, 1.788208
1201.874, 2.317734
1202.356, 3.335693
1202.838, 3.712494
1203.320, 3.222000
1203.802, 2.764359
1204.284, 2.954727
1204.767, 3.047928
1205.249, 2.165604
1205.731, 1.282928
1206.213, 1.367401
1206.695, 1.826706
1207.177, 1.930176
1207.659, 1.736343
1208.141, 1.626816
1208.624, 1.683685
1209.106, 1.703278
1209.588, 1.601456
1210.070, 1.560089
1210.552, 1.762054
1211.034, 1.814499
1211.516, 1.178024
1211.998, 0.5684660
1212.480, 0.9029850
1212.963, 1.846008
1213.445, 1.997147
1213.927, 1.026810
1214.409, 0.9328460
1214.891, 2.026764
1215.373, 2.692596
1215.855, 2.583954
1216.337, 2.123749
1216.819, 1.495544
1217.302, 0.8902590
1217.784, 0.5153050
1218.266, 0.4074550
1218.748, 0.8124850
1219.230, 1.568283
1219.712, 1.778046
1220.194, 1.513184
1220.676, 1.460953
1221.159, 1.721710
1221.641, 1.768188
1222.123, 1.315689
1222.605, 0.8717350
1223.087, 0.9948430
1223.569, 1.360367
1224.051, 1.564743
1224.533, 1.808258
1225.016, 2.520706
1225.498, 3.385117
1225.980, 3.840714
1226.462, 3.791931
1226.944, 3.325394
1227.426, 2.252808
1227.908, 1.468781
1228.390, 1.139771
1228.872, 1.145309
1229.354, 1.629974
1229.837, 2.197754
1230.319, 2.728256
1230.801, 3.091232
1231.283, 2.896042
1231.765, 2.329620
1232.247, 2.141785
1232.729, 2.421005
1233.211, 2.605927
1233.694, 2.665787
1234.176, 2.606857
1234.658, 2.297775
1235.140, 2.196320
1235.622, 2.600708
1236.104, 3.209641
1236.586, 3.136917
1237.068, 2.545349
1237.551, 1.843384
1238.033, 1.176468
1238.515, 1.280426
1238.997, 2.012131
1239.479, 2.502838
1239.961, 2.551041
1240.443, 2.653336
1240.925, 3.183563
1241.407, 3.738632
1241.890, 3.990540
1242.372, 3.879227
1242.854, 3.023117
1243.336, 2.077988
1243.818, 1.972519
1244.300, 2.429199
1244.782, 2.699310
1245.264, 2.681305
1245.746, 2.706207
1246.229, 3.150955
1246.711, 3.307816
1247.193, 2.776535
1247.675, 2.341797
1248.157, 2.255325
1248.639, 2.335327
1249.121, 2.590347
1249.603, 3.001648
1250.085, 3.675629
1250.568, 4.593399
1251.050, 4.454636
1251.532, 3.093567
1252.014, 2.242004
1252.496, 2.095062
1252.978, 2.192169
1253.460, 2.431442
1253.942, 2.354614
1254.425, 1.680420
1254.907, 0.9506230
1255.389, 0.8646550
1255.871, 1.258926
1256.353, 2.069000
1256.835, 2.949829
1257.317, 3.238403
1257.799, 3.193176
1258.281, 3.581207
1258.764, 4.402451
1259.246, 4.836838
1259.728, 4.445511
1260.210, 3.896332
1260.692, 3.415771
1261.174, 3.035568
1261.656, 2.638885
1262.138, 2.456421
1262.620, 2.789520
1263.103, 3.361847
1263.585, 3.902496
1264.067, 4.320343
1264.549, 3.999786
1265.031, 2.565353
1265.513, 1.903900
1265.995, 2.228912
1266.477, 2.478943
1266.960, 2.452087
1267.442, 2.173004
1267.924, 1.599396
1268.406, 1.132233
1268.888, 1.298141
1269.370, 1.827209
1269.852, 2.134949
1270.334, 2.158539
1270.817, 1.693161
1271.299, 1.022110
1271.781, 0.9927060
1272.263, 1.541473
1272.745, 1.793732
1273.227, 1.414719
1273.709, 0.9835820
1274.191, 0.8811800
1274.673, 0.7591710
1275.156, 0.1914220
1275.638, 0.1655880
1276.120, 0.3133850
1276.602, 1.089890
1277.084, 1.690979
1277.566, 2.039993
1278.048, 1.869156
1278.530, 1.083740
1279.012, 0.4729000
1279.495, 9.9349998E-02
1279.977, 2.4017001E-02
1280.459, 0.7596590
1280.941, 1.636673
1281.423, 2.205627
1281.905, 2.424057
1282.387, 2.014069
1282.869, 1.419006
1283.352, 0.8684540
1283.834, 0.3016200
1284.316, 1.8234000E-02
1284.798, 0.0000000E+00
##END=



