##NAMES=unknown
##RRUFFID=R140390
##LOCALITY=Seco claim, Taquaral, Brazil
##OWNER=RRUFF
##SOURCE=Gunnar Farber
##DESCRIPTION=Aggregates of brown prismatic crystals. To be called Lefontite
##STATUS=The identification of this mineral is confirmed by single-crystal X-ray diffraction and chemical analysis.
##URL=rruff.info/R140390
##MEASURED CHEMISTRY=(Mn_1.07_Fe^2+^_0.72_Ca_0.04_Mg_0.03_)_Î£=1.86_Be_0.97_Al_1.95_(PO_4_)_2_(OH)_6.47_ ; Be^2+^ needs to be analyzed by Icp-ms
108.5858, 0.0000000E+00
109.0679, 0.6458440
109.5500, 2.634766
110.0321, 5.209747
110.5142, 8.109283
110.9963, 11.63260
111.4785, 14.79688
111.9606, 17.40445
112.4427, 19.43622
112.9248, 21.13037
113.4069, 22.34842
113.8890, 23.35611
114.3712, 24.35001
114.8533, 25.89511
115.3354, 26.89526
115.8175, 26.86954
116.2996, 25.73792
116.7817, 24.44098
117.2639, 23.30710
117.7460, 22.31918
118.2281, 21.29480
118.7102, 20.14398
119.1923, 18.80948
119.6744, 17.11526
120.1566, 14.89682
120.6387, 12.89471
121.1208, 11.56543
121.6029, 10.83786
122.0850, 10.51093
122.5671, 10.78595
123.0493, 11.30081
123.5314, 11.57083
124.0135, 11.36340
124.4956, 10.89465
124.9777, 10.16156
125.4598, 9.417175
125.9420, 9.258362
126.4241, 10.42404
126.9062, 11.97571
127.3883, 13.00366
127.8704, 13.38980
128.3525, 13.67722
128.8347, 13.79675
129.3168, 13.92950
129.7989, 14.12170
130.2810, 13.03107
130.7631, 11.47519
131.2452, 10.30347
131.7274, 9.882599
132.2095, 9.925110
132.6916, 9.674500
133.1737, 9.117096
133.6558, 8.361115
134.1379, 7.380951
134.6201, 6.185730
135.1022, 5.193298
135.5843, 4.629517
136.0664, 4.416809
136.5485, 3.915710
137.0306, 3.015564
137.5128, 2.086121
137.9949, 1.609894
138.4770, 1.676331
138.9591, 1.743378
139.4412, 1.634827
139.9233, 1.337708
140.4055, 0.9889220
140.8876, 0.5668030
141.3697, 9.6709996E-02
141.8518, 0.3644410
142.3339, 0.7758180
142.8160, 1.282990
143.2982, 2.025513
143.7803, 3.224487
144.2624, 3.919037
144.7445, 3.981171
145.2266, 3.571747
145.7087, 3.031952
146.1909, 2.150421
146.6730, 1.389008
147.1551, 0.9412230
147.6372, 1.080048
148.1193, 1.060699
148.6014, 0.7143860
149.0836, 0.1804200
149.5657, 4.5258000E-02
150.0478, 0.7425540
150.5299, 1.274597
151.0120, 0.9950260
151.4941, 1.263550
151.9763, 2.943939
152.4584, 3.679169
152.9405, 3.665375
153.4226, 3.929718
153.9047, 4.756927
154.3868, 5.740326
154.8690, 6.657074
155.3511, 7.520081
155.8332, 8.265289
156.3153, 8.797546
156.7974, 9.154755
157.2795, 9.615479
157.7617, 10.11328
158.2438, 10.80908
158.7259, 11.81921
159.2080, 13.55103
159.6901, 15.25186
160.1722, 16.68994
160.6544, 17.87454
161.1365, 19.01007
161.6186, 20.14212
162.1007, 21.26129
162.5828, 22.38504
163.0649, 23.59497
163.5471, 24.72617
164.0292, 25.69467
164.5113, 26.49362
164.9934, 27.18909
165.4755, 27.54843
165.9576, 27.88599
166.4398, 28.67206
166.9219, 30.32620
167.4040, 32.16006
167.8861, 33.70053
168.3682, 34.91806
168.8503, 36.06467
169.3325, 37.16913
169.8146, 38.33072
170.2967, 39.69345
170.7788, 41.71301
171.2609, 43.76529
171.7430, 45.15723
172.2252, 45.79160
172.7073, 46.36072
173.1894, 47.38046
173.6715, 48.75989
174.1536, 50.25412
174.6357, 51.99387
175.1179, 53.70468
175.6000, 54.93372
176.0821, 55.54221
176.5642, 56.18060
177.0463, 57.53723
177.5284, 59.46402
178.0106, 61.48242
178.4927, 63.59872
178.9748, 65.59387
179.4569, 66.89713
179.9390, 67.31287
180.4211, 67.64145
180.9033, 68.89685
181.3854, 70.94870
181.8675, 73.12656
182.3496, 75.05295
182.8317, 76.82242
183.3138, 78.81909
183.7960, 81.14056
184.2781, 83.46695
184.7602, 85.18756
185.2423, 86.38599
185.7244, 87.62952
186.2065, 89.37057
186.6887, 91.46567
187.1708, 93.40479
187.6529, 95.10834
188.1350, 96.66821
188.6171, 98.12668
189.0992, 99.49884
189.5814, 100.9657
190.0635, 102.7019
190.5456, 104.6859
191.0277, 106.6463
191.5098, 108.6361
191.9919, 110.4836
192.4741, 111.6811
192.9562, 112.1999
193.4383, 112.6470
193.9204, 113.4121
194.4025, 114.4783
194.8846, 115.6373
195.3668, 116.9431
195.8489, 118.2480
196.3310, 119.1690
196.8131, 119.6789
197.2952, 120.0008
197.7773, 120.2104
198.2595, 120.3035
198.7416, 120.5894
199.2237, 121.1949
199.7058, 121.8922
200.1879, 122.0235
200.6700, 121.4966
201.1522, 120.8422
201.6343, 120.4507
202.1164, 120.3963
202.5985, 120.1042
203.0806, 119.5425
203.5627, 118.7831
204.0449, 117.9341
204.5270, 116.9170
205.0091, 115.9276
205.4912, 115.1002
205.9733, 114.4656
206.4554, 113.7520
206.9376, 112.9374
207.4197, 112.0510
207.9018, 111.1854
208.3839, 110.3755
208.8660, 109.6111
209.3481, 108.9323
209.8303, 108.2066
210.3124, 107.6113
210.7945, 107.2031
211.2766, 106.9426
211.7587, 106.6547
212.2408, 106.3788
212.7230, 105.9887
213.2051, 105.3255
213.6872, 104.2362
214.1693, 103.3863
214.6514, 102.8892
215.1335, 102.6734
215.6157, 102.5113
216.0978, 102.5187
216.5799, 102.3323
217.0620, 101.6286
217.5441, 100.1419
218.0262, 98.88699
218.5084, 97.99091
218.9905, 97.38885
219.4726, 96.85995
219.9547, 96.55042
220.4368, 96.06281
220.9189, 95.02313
221.4011, 92.96146
221.8832, 91.62271
222.3653, 91.35709
222.8474, 91.93256
223.3295, 92.41730
223.8116, 93.23956
224.2938, 93.30219
224.7759, 91.63477
225.2580, 87.00208
225.7401, 83.71790
226.2222, 82.51392
226.7043, 82.87823
227.1865, 82.59750
227.6686, 81.35263
228.1507, 79.93991
228.6328, 78.88788
229.1149, 78.57339
229.5970, 77.71045
230.0792, 76.01263
230.5613, 73.71356
231.0434, 71.80200
231.5255, 70.51788
232.0076, 69.32040
232.4897, 67.98505
232.9719, 66.63818
233.4540, 64.85156
233.9361, 62.27167
234.4182, 59.26022
234.9003, 57.10925
235.3824, 56.37012
235.8646, 55.70215
236.3467, 54.39020
236.8288, 51.97476
237.3109, 49.94217
237.7930, 48.51657
238.2751, 47.45139
238.7573, 46.06946
239.2394, 44.33722
239.7215, 42.31110
240.2036, 39.90381
240.6857, 36.67563
241.1678, 34.06345
241.6500, 32.24936
242.1321, 31.00412
242.6142, 29.76218
243.0963, 28.67917
243.5784, 27.37457
244.0605, 25.69357
244.5427, 23.53796
245.0248, 21.19171
245.5069, 18.35062
245.9890, 15.43817
246.4711, 13.48456
246.9532, 12.94543
247.4354, 12.59732
247.9175, 12.04800
248.3996, 11.35342
248.8817, 10.25763
249.3638, 8.548859
249.8459, 6.569611
250.3281, 4.958679
250.8102, 3.862183
251.2923, 2.884277
251.7744, 1.836609
252.2565, 0.6264340
252.7386, 0.1853330
253.2208, 0.4651180
253.7029, 0.4435120
254.1850, 0.4705510
254.6671, 0.5313110
255.1492, 0.6880490
255.6313, 1.020752
256.1135, 1.597412
256.5956, 1.909546
257.0777, 1.855804
257.5598, 1.645630
258.0419, 1.580536
258.5240, 1.781525
259.0062, 1.856110
259.4883, 1.600983
259.9704, 0.9709170
260.4525, 0.8005370
260.9346, 1.312286
261.4167, 2.005676
261.8989, 2.333008
262.3810, 2.266357
262.8631, 1.855621
263.3452, 0.9455870
263.8273, 0.4727480
264.3094, 1.338196
264.7916, 1.562317
265.2737, 1.418365
265.7558, 1.020294
266.2379, 0.1253050
266.7200, 0.1542050
267.2021, 0.6175840
267.6843, 2.290680
268.1664, 3.331787
268.6485, 3.507416
269.1306, 3.525513
269.6127, 4.067993
270.0948, 5.319061
270.5770, 6.194794
271.0591, 6.348480
271.5412, 5.985748
272.0233, 6.181061
272.5054, 7.087738
272.9875, 8.115112
273.4697, 8.755127
273.9518, 8.902405
274.4339, 9.427643
274.9160, 10.59476
275.3981, 12.10852
275.8802, 13.05453
276.3624, 13.32983
276.8445, 13.40564
277.3266, 13.52939
277.8087, 13.70074
278.2908, 13.96487
278.7729, 14.33426
279.2551, 14.79465
279.7372, 15.31793
280.2193, 15.91248
280.7014, 16.53830
281.1835, 17.27304
281.6656, 18.11099
282.1478, 18.53592
282.6299, 18.39893
283.1120, 18.10159
283.5941, 18.39691
284.0762, 19.31708
284.5583, 20.20370
285.0405, 20.66034
285.5226, 20.75589
286.0047, 21.13251
286.4868, 21.81308
286.9689, 22.70807
287.4510, 23.85754
287.9332, 25.23456
288.4153, 26.31564
288.8974, 26.74161
289.3795, 26.68979
289.8616, 26.76981
290.3438, 26.97562
290.8259, 27.34772
291.3080, 28.02661
291.7901, 28.95419
292.2722, 29.81699
292.7543, 30.50275
293.2365, 31.05508
293.7186, 31.56412
294.2007, 32.02676
294.6828, 32.43909
295.1649, 32.72153
295.6470, 32.93631
296.1292, 33.30414
296.6113, 33.91852
297.0934, 34.67050
297.5755, 35.38879
298.0576, 36.08255
298.5397, 36.82321
299.0219, 37.94864
299.5040, 39.15347
299.9861, 39.65616
300.4682, 39.06204
300.9503, 38.24146
301.4324, 38.26678
301.9146, 38.99265
302.3967, 39.79865
302.8788, 40.55682
303.3609, 41.09860
303.8430, 40.97427
304.3251, 39.90799
304.8073, 39.00174
305.2894, 39.51346
305.7715, 41.00327
306.2536, 42.42261
306.7357, 43.34439
307.2178, 43.79758
307.7000, 43.52734
308.1821, 42.41650
308.6642, 41.60013
309.1463, 42.27634
309.6284, 43.75183
310.1105, 44.98206
310.5927, 45.37064
311.0748, 45.33832
311.5569, 45.07104
312.0390, 44.61667
312.5211, 44.21896
313.0032, 44.02167
313.4854, 43.91776
313.9675, 43.78696
314.4496, 43.77124
314.9317, 43.62112
315.4138, 43.14929
315.8959, 42.39990
316.3781, 41.63919
316.8602, 40.96759
317.3423, 40.39175
317.8244, 39.93210
318.3065, 39.67099
318.7886, 39.34918
319.2708, 38.76505
319.7529, 38.04382
320.2350, 37.52847
320.7171, 37.77835
321.1992, 37.97211
321.6813, 37.60706
322.1635, 36.21310
322.6456, 35.08112
323.1277, 34.56390
323.6098, 34.43790
324.0919, 34.32910
324.5740, 34.46463
325.0562, 34.34808
325.5383, 33.76401
326.0204, 32.59207
326.5025, 31.41483
326.9846, 29.96771
327.4667, 28.66562
327.9489, 27.93497
328.4310, 28.63400
328.9131, 28.95447
329.3952, 28.51724
329.8773, 27.30591
330.3594, 26.17865
330.8416, 25.11386
331.3237, 24.16815
331.8058, 23.40494
332.2879, 23.00797
332.7700, 22.46600
333.2521, 21.67007
333.7343, 20.67609
334.2164, 19.68567
334.6985, 18.40955
335.1806, 17.59604
335.6627, 17.92093
336.1448, 20.21130
336.6270, 20.96054
337.1091, 19.52402
337.5912, 16.91895
338.0733, 15.20505
338.5554, 14.59933
339.0375, 14.24850
339.5197, 13.86469
340.0018, 13.45532
340.4839, 12.95975
340.9660, 12.34750
341.4481, 11.74243
341.9302, 11.40283
342.4124, 11.35699
342.8945, 11.09824
343.3766, 10.39264
343.8587, 9.354248
344.3408, 8.439301
344.8229, 7.649780
345.3051, 7.006104
345.7872, 6.565186
346.2693, 6.307251
346.7514, 6.098419
347.2335, 5.942474
347.7156, 5.792084
348.1978, 5.565704
348.6799, 5.268311
349.1620, 4.925293
349.6441, 4.518646
350.1262, 4.086273
350.6083, 3.705109
351.0905, 3.374084
351.5726, 3.123108
352.0547, 3.115082
352.5368, 3.238220
353.0189, 3.154877
353.5010, 2.399750
353.9832, 1.480499
354.4653, 1.102234
354.9474, 1.307068
355.4295, 1.530090
355.9116, 1.280884
356.3937, 0.7701720
356.8759, 0.3205570
357.3580, 3.6773998E-02
357.8401, 0.1442570
358.3222, 0.2618710
358.8043, 0.3153380
359.2864, 0.2869570
359.7686, 5.7098001E-02
360.2507, 0.2012330
360.7328, 0.3364870
361.2149, 0.2715450
361.6970, 0.1496280
362.1791, 4.3549001E-02
362.6613, 8.1696004E-02
363.1434, 0.3035890
363.6255, 0.9448550
364.1076, 1.457764
364.5897, 1.528442
365.0718, 0.9664920
365.5540, 0.4988100
366.0361, 0.1835630
366.5182, 5.1543999E-02
367.0003, 0.1382750
367.4824, 0.9619140
367.9645, 1.470001
368.4467, 1.224884
368.9288, 0.1709900
369.4109, 0.3999940
369.8930, 8.5418999E-02
370.3751, 0.3897400
370.8572, 0.5394590
371.3394, 0.1851200
371.8215, 0.2054440
372.3036, 0.5784910
372.7857, 0.9657290
373.2678, 1.503845
373.7499, 2.297058
374.2321, 3.054321
374.7142, 3.620453
375.1963, 3.947937
375.6784, 4.234528
376.1605, 4.350952
376.6426, 4.586456
377.1248, 5.536407
377.6069, 7.372803
378.0890, 8.929413
378.5711, 9.765991
379.0532, 9.972900
379.5353, 10.07755
380.0175, 10.03503
380.4996, 10.12378
380.9817, 10.65036
381.4638, 11.57452
381.9459, 12.60449
382.4280, 13.71268
382.9102, 14.83896
383.3923, 15.89081
383.8744, 16.86459
384.3565, 17.66333
384.8386, 18.00980
385.3207, 18.16592
385.8029, 18.70663
386.2850, 19.73889
386.7671, 20.90155
387.2492, 21.92651
387.7313, 22.80780
388.2134, 23.51205
388.6956, 23.83212
389.1777, 24.09113
389.6598, 24.56735
390.1419, 25.26419
390.6240, 26.11008
391.1061, 27.24063
391.5883, 28.43701
392.0704, 29.45694
392.5525, 30.04276
393.0346, 30.71396
393.5167, 31.68558
393.9988, 32.93484
394.4810, 34.39911
394.9631, 36.17502
395.4452, 38.06964
395.9273, 40.04309
396.4094, 42.19308
396.8915, 44.08875
397.3737, 45.30960
397.8558, 46.34058
398.3379, 47.77975
398.8200, 50.14114
399.3021, 52.41937
399.7842, 54.37097
400.2664, 55.99271
400.7485, 57.74026
401.2306, 59.66345
401.7127, 61.63174
402.1948, 63.52533
402.6769, 65.15048
403.1591, 67.14539
403.6412, 69.75125
404.1233, 72.64688
404.6054, 75.05905
405.0875, 76.80972
405.5696, 78.55807
406.0518, 80.48386
406.5339, 82.58228
407.0160, 85.20065
407.4981, 88.47849
407.9802, 91.84763
408.4623, 94.57202
408.9445, 96.67865
409.4266, 98.84775
409.9087, 101.1968
410.3908, 103.7163
410.8729, 106.4530
411.3550, 109.4206
411.8372, 112.2924
412.3193, 114.8488
412.8014, 117.2133
413.2835, 119.6712
413.7656, 122.3200
414.2477, 124.9968
414.7299, 127.3258
415.2120, 129.4625
415.6941, 131.8123
416.1762, 134.9395
416.6583, 138.1960
417.1404, 141.1246
417.6226, 143.7280
418.1047, 145.7946
418.5868, 146.6851
419.0689, 147.2151
419.5510, 148.2518
420.0331, 150.5461
420.5153, 152.6265
420.9974, 153.6805
421.4795, 153.9947
421.9616, 154.3718
422.4437, 155.5871
422.9258, 156.5372
423.4080, 156.7040
423.8901, 155.8644
424.3722, 154.8658
424.8543, 153.5916
425.3364, 152.2592
425.8185, 151.1881
426.3007, 150.9796
426.7828, 150.2895
427.2649, 148.6508
427.7470, 146.2188
428.2291, 144.2568
428.7112, 142.9428
429.1934, 141.8897
429.6755, 141.0067
430.1576, 140.4650
430.6397, 138.9987
431.1218, 136.2382
431.6039, 133.0942
432.0861, 131.2890
432.5682, 130.9548
433.0503, 129.7903
433.5324, 126.4729
434.0145, 121.8075
434.4966, 118.8484
434.9788, 117.6564
435.4609, 116.6462
435.9430, 114.3901
436.4251, 111.2347
436.9072, 108.1494
437.3893, 105.2776
437.8715, 102.5562
438.3536, 99.95685
438.8357, 97.45456
439.3178, 94.98010
439.7999, 92.62799
440.2820, 90.18723
440.7642, 87.39133
441.2463, 84.19620
441.7284, 81.12509
442.2105, 78.45715
442.6926, 76.01443
443.1747, 73.62894
443.6569, 71.28506
444.1390, 68.93805
444.6211, 66.66531
445.1032, 64.38934
445.5853, 61.95831
446.0674, 58.94101
446.5496, 56.10699
447.0317, 53.87506
447.5138, 52.60361
447.9959, 50.76694
448.4780, 47.98138
448.9601, 44.90668
449.4423, 42.12366
449.9244, 39.69568
450.4065, 37.51175
450.8886, 35.61588
451.3707, 33.95737
451.8528, 32.22775
452.3350, 30.35706
452.8171, 28.58701
453.2992, 27.06229
453.7813, 25.77621
454.2634, 24.35901
454.7455, 22.73657
455.2277, 21.13217
455.7098, 19.78052
456.1919, 18.68024
456.6740, 17.78671
457.1561, 17.21637
457.6382, 16.75104
458.1204, 16.01801
458.6025, 15.03992
459.0846, 14.00787
459.5667, 12.94156
460.0488, 11.93826
460.5309, 11.21173
461.0131, 10.89276
461.4952, 10.39615
461.9773, 9.042725
462.4594, 7.318756
462.9415, 5.919220
463.4236, 5.356934
463.9058, 4.953888
464.3879, 4.455566
464.8700, 3.862030
465.3521, 3.224731
465.8342, 2.219055
466.3163, 1.410767
466.7985, 1.121246
467.2806, 1.567657
467.7627, 2.201294
468.2448, 3.488647
468.7269, 4.743561
469.2090, 4.998749
469.6912, 3.947021
470.1733, 2.395416
470.6554, 0.1602170
471.1375, 2.574646
471.6196, 3.836365
472.1017, 3.230377
472.5839, 2.264496
473.0660, 1.904449
473.5481, 2.157532
474.0302, 2.599487
474.5123, 3.264648
474.9944, 3.918579
475.4766, 4.045776
475.9587, 3.755707
476.4408, 3.792725
476.9229, 4.803101
477.4050, 6.101227
477.8871, 6.532867
478.3693, 6.149963
478.8514, 5.449158
479.3335, 4.583923
479.8156, 3.673615
480.2977, 2.911072
480.7798, 2.406006
481.2620, 1.805267
481.7441, 0.6689450
482.2262, 0.6337280
482.7083, 1.558899
483.1904, 1.433746
483.6725, 1.370392
484.1547, 1.773773
484.6368, 2.624573
485.1189, 3.589050
485.6010, 4.478821
486.0831, 5.594299
486.5652, 7.109497
487.0474, 9.386658
487.5295, 11.26706
488.0116, 12.46603
488.4937, 13.45810
488.9758, 15.00424
489.4579, 17.38458
489.9401, 19.45682
490.4222, 20.89429
490.9043, 21.82504
491.3864, 22.89804
491.8685, 24.12790
492.3506, 25.44153
492.8328, 26.74136
493.3149, 28.06613
493.7970, 29.74643
494.2791, 31.90121
494.7612, 33.96835
495.2433, 35.11032
495.7255, 35.67606
496.2076, 36.58063
496.6897, 38.38651
497.1718, 40.45529
497.6539, 42.28241
498.1360, 43.85840
498.6182, 45.18365
499.1003, 45.92569
499.5824, 46.63348
500.0645, 47.66916
500.5466, 49.14075
501.0287, 50.72009
501.5109, 52.51013
501.9930, 54.27374
502.4751, 55.74728
502.9572, 56.80795
503.4393, 57.66672
503.9214, 58.22177
504.4036, 58.57224
504.8857, 59.09906
505.3678, 59.89124
505.8499, 60.72711
506.3320, 61.57022
506.8141, 62.43994
507.2963, 63.00024
507.7784, 63.16873
508.2605, 63.27930
508.7426, 63.95529
509.2247, 65.10831
509.7068, 65.27124
510.1890, 63.92282
510.6711, 61.93469
511.1532, 60.54248
511.6353, 59.73993
512.1174, 59.51740
512.5995, 60.58771
513.0817, 61.84094
513.5638, 61.85696
514.0459, 60.64182
514.5280, 59.06818
515.0101, 57.21710
515.4922, 55.50946
515.9744, 54.43472
516.4565, 54.53082
516.9386, 54.39041
517.4207, 53.34076
517.9028, 51.81094
518.3849, 50.50183
518.8671, 49.90750
519.3492, 49.13052
519.8313, 47.88687
520.3134, 46.21930
520.7955, 44.64160
521.2776, 43.01828
521.7598, 41.69962
522.2419, 41.08041
522.7240, 41.44333
523.2061, 40.82684
523.6882, 38.91788
524.1703, 36.57077
524.6525, 34.99329
525.1346, 34.16281
525.6167, 33.21524
526.0988, 31.90137
526.5809, 30.39969
527.0630, 28.99991
527.5452, 27.67453
528.0273, 26.34805
528.5094, 24.73822
528.9915, 23.09863
529.4736, 21.94919
529.9557, 21.44547
530.4379, 21.02429
530.9200, 20.42166
531.4021, 19.59048
531.8842, 18.48947
532.3663, 16.81427
532.8484, 15.25461
533.3306, 14.26331
533.8127, 13.53809
534.2948, 12.37888
534.7769, 10.18933
535.2590, 8.034485
535.7411, 6.173370
536.2233, 4.657501
536.7054, 3.448730
537.1875, 2.570251
537.6696, 2.010986
538.1517, 1.902527
538.6339, 2.294159
539.1160, 2.185577
539.5981, 1.404633
540.0802, 0.5804440
540.5623, 0.7221680
541.0444, 1.581207
541.5266, 1.950836
542.0087, 1.237976
542.4908, 9.9091001E-02
542.9729, 0.6593020
543.4550, 1.048950
543.9371, 1.136597
544.4193, 0.6644900
544.9014, 0.1054990
545.3835, 3.6316000E-02
545.8656, 0.3140870
546.3477, 0.4091490
546.8298, 0.2593080
547.3120, 1.200806
547.7941, 1.998260
548.2762, 2.217804
548.7583, 2.803772
549.2404, 4.169312
549.7225, 5.835663
550.2047, 6.950073
550.6868, 7.136658
551.1689, 7.512634
551.6510, 8.448853
552.1331, 9.825623
552.6152, 10.73199
553.0974, 11.05875
553.5795, 11.48434
554.0616, 12.58530
554.5437, 14.23035
555.0258, 15.55365
555.5079, 16.46716
555.9901, 17.44531
556.4722, 19.09073
556.9543, 21.17508
557.4364, 23.24792
557.9185, 25.29410
558.4006, 27.10284
558.8828, 28.36288
559.3649, 29.26001
559.8470, 30.26001
560.3291, 31.55664
560.8112, 32.96863
561.2933, 34.42334
561.7755, 35.90961
562.2576, 37.46896
562.7397, 39.38287
563.2218, 41.11060
563.7039, 42.34903
564.1860, 42.81717
564.6682, 43.57730
565.1503, 44.83374
565.6324, 46.15045
566.1145, 46.92355
566.5966, 47.11752
567.0787, 47.22415
567.5609, 47.32535
568.0430, 47.44995
568.5251, 47.55432
569.0072, 47.68002
569.4893, 48.12070
569.9714, 49.30585
570.4536, 50.78296
570.9357, 51.96228
571.4178, 52.82690
571.8999, 53.44196
572.3820, 53.62167
572.8641, 53.68478
573.3463, 53.88895
573.8284, 54.25751
574.3105, 54.82098
574.7926, 55.85471
575.2747, 56.98599
575.7568, 57.73621
576.2390, 57.67551
576.7211, 57.74933
577.2032, 58.00653
577.6853, 58.47827
578.1674, 59.39877
578.6495, 61.06403
579.1317, 62.29065
579.6138, 62.27832
580.0959, 61.27551
580.5780, 61.49194
581.0601, 63.01855
581.5422, 64.79623
582.0244, 65.90851
582.5065, 66.59851
582.9886, 67.35339
583.4707, 68.18741
583.9528, 69.43030
584.4349, 71.76584
584.9171, 74.60501
585.3992, 77.06503
585.8813, 78.19421
586.3634, 79.58435
586.8455, 81.96945
587.3276, 85.11996
587.8098, 88.34589
588.2919, 91.39343
588.7740, 94.62415
589.2561, 98.21375
589.7382, 102.1693
590.2203, 105.8786
590.7025, 109.0572
591.1846, 112.4307
591.6667, 116.5793
592.1488, 121.5920
592.6309, 126.2588
593.1130, 130.4651
593.5952, 134.7021
594.0773, 139.7325
594.5594, 145.3647
595.0415, 150.7074
595.5236, 155.4755
596.0057, 160.0986
596.4879, 164.9893
596.9700, 170.0751
597.4521, 175.1383
597.9342, 180.6298
598.4163, 185.5961
598.8984, 189.3856
599.3806, 192.0892
599.8627, 194.5016
600.3448, 196.9335
600.8269, 198.9767
601.3090, 200.3860
601.7911, 200.9538
602.2733, 201.8031
602.7554, 203.3388
603.2375, 204.5778
603.7196, 204.6150
604.2017, 203.4061
604.6838, 201.3137
605.1660, 198.1865
605.6481, 194.5903
606.1302, 191.8497
606.6123, 189.6153
607.0944, 186.2053
607.5765, 180.1419
608.0587, 173.4112
608.5408, 168.3632
609.0229, 164.6203
609.5050, 160.6294
609.9871, 155.6031
610.4692, 150.1195
610.9514, 144.4852
611.4335, 138.6661
611.9156, 132.7578
612.3977, 126.4705
612.8798, 120.3255
613.3619, 114.7378
613.8441, 109.8872
614.3262, 104.9878
614.8083, 99.97729
615.2904, 94.96713
615.7725, 90.08530
616.2546, 85.31412
616.7368, 81.12976
617.2189, 77.73276
617.7010, 74.67535
618.1831, 71.14304
618.6652, 67.25598
619.1473, 63.45932
619.6295, 59.79678
620.1116, 56.49744
620.5937, 53.85657
621.0758, 51.85867
621.5579, 50.19958
622.0400, 48.88641
622.5222, 47.72379
623.0043, 46.65536
623.4864, 45.69998
623.9685, 44.59985
624.4506, 43.03839
624.9327, 41.51749
625.4149, 40.39893
625.8970, 39.84009
626.3791, 39.45462
626.8612, 39.28473
627.3433, 39.15067
627.8254, 38.62930
628.3076, 37.73682
628.7897, 37.43140
629.2718, 38.17722
629.7539, 39.31339
630.2360, 39.71112
630.7181, 39.56213
631.2003, 39.52197
631.6824, 40.02768
632.1645, 40.67581
632.6466, 41.17624
633.1287, 41.57480
633.6108, 42.08252
634.0930, 42.97269
634.5751, 43.82065
635.0572, 44.27386
635.5393, 44.13403
636.0214, 44.37729
636.5035, 45.30191
636.9857, 46.45093
637.4678, 47.47256
637.9499, 48.33273
638.4320, 48.80988
638.9141, 48.79385
639.3962, 48.79028
639.8784, 49.65628
640.3605, 51.12805
640.8426, 52.20505
641.3247, 52.47861
641.8068, 52.55936
642.2889, 53.03055
642.7711, 53.81799
643.2532, 54.71564
643.7353, 55.92337
644.2174, 56.90762
644.6995, 57.39862
645.1816, 57.44675
645.6638, 57.36591
646.1459, 56.89624
646.6280, 56.60605
647.1101, 56.74652
647.5922, 57.35510
648.0743, 57.86307
648.5565, 58.34988
649.0386, 58.48883
649.5207, 57.80542
650.0028, 56.43265
650.4849, 55.61636
650.9670, 55.52509
651.4492, 55.52502
651.9313, 54.89005
652.4134, 53.87497
652.8955, 53.03201
653.3776, 52.62912
653.8597, 52.08069
654.3419, 50.90433
654.8240, 49.37894
655.3061, 47.94391
655.7882, 46.77322
656.2703, 45.64136
656.7524, 44.60837
657.2346, 43.59296
657.7167, 42.27969
658.1988, 40.46014
658.6809, 38.82535
659.1630, 37.66638
659.6451, 36.89005
660.1273, 35.97061
660.6094, 34.88019
661.0915, 33.71469
661.5736, 32.55472
662.0557, 31.33014
662.5378, 29.75851
663.0200, 27.82855
663.5021, 26.16898
663.9842, 25.63864
664.4663, 25.34436
664.9484, 24.40836
665.4305, 22.42126
665.9127, 20.53033
666.3948, 18.93887
666.8769, 17.62518
667.3590, 16.57318
667.8411, 16.05069
668.3232, 15.25308
668.8054, 14.04510
669.2875, 12.64645
669.7696, 11.46274
670.2517, 10.49780
670.7338, 9.488434
671.2159, 8.308533
671.6981, 7.132355
672.1802, 6.354462
672.6623, 5.882019
673.1444, 5.327850
673.6265, 4.315033
674.1086, 3.310394
674.5908, 2.739288
675.0729, 2.546814
675.5550, 2.242401
676.0371, 1.403412
676.5192, 0.6770940
677.0013, 0.4894710
677.4835, 0.9501950
677.9656, 0.6641540
678.4477, 0.7330630
678.9298, 2.234467
679.4119, 3.150635
679.8940, 3.497894
680.3762, 3.619751
680.8583, 3.538208
681.3404, 3.265930
681.8225, 2.570557
682.3046, 1.741028
682.7867, 1.442444
683.2689, 1.926697
683.7510, 2.552216
684.2331, 2.962280
684.7152, 3.182220
685.1973, 3.215546
685.6794, 2.803955
686.1616, 2.525909
686.6437, 2.625000
687.1258, 2.885529
687.6079, 2.912262
688.0900, 2.637421
688.5721, 2.263702
689.0543, 1.753632
689.5364, 1.228638
690.0185, 1.111938
690.5006, 1.391968
690.9827, 1.713562
691.4648, 2.133942
691.9470, 2.375641
692.4291, 1.712570
692.9112, 0.3539430
693.3933, 0.5412290
693.8754, 0.2059480
694.3575, 1.203064
694.8397, 1.484818
695.3218, 0.9140630
695.8039, 0.5036930
696.2860, 0.6508640
696.7681, 0.7385860
697.2502, 0.3844600
697.7324, 0.5947110
698.2145, 1.095078
698.6966, 1.030258
699.1787, 0.7348330
699.6608, 0.3770140
700.1429, 3.6407001E-02
700.6251, 0.1510160
701.1072, 0.8461150
701.5893, 1.597977
702.0714, 1.833344
702.5535, 1.804047
703.0356, 1.885010
703.5178, 2.275604
703.9999, 2.633560
704.4820, 2.735138
704.9641, 2.749710
705.4462, 2.943100
705.9283, 3.480316
706.4105, 3.958069
706.8926, 4.353470
707.3747, 4.644989
707.8568, 4.720322
708.3389, 4.553940
708.8210, 4.499893
709.3032, 4.700378
709.7853, 5.067581
710.2674, 5.567017
710.7495, 6.120651
711.2316, 6.403015
711.7137, 5.858154
712.1959, 5.288849
712.6780, 5.406921
713.1601, 6.114273
713.6422, 6.617859
714.1243, 6.371323
714.6064, 6.186264
715.0886, 6.416763
715.5707, 7.073715
716.0528, 7.689728
716.5349, 8.287247
717.0170, 8.796051
717.4991, 9.149841
717.9813, 9.361679
718.4634, 9.512939
718.9455, 9.607803
719.4276, 9.705963
719.9097, 9.844086
720.3918, 10.01527
720.8740, 10.23059
721.3561, 10.49249
721.8382, 10.76199
722.3203, 11.02919
722.8024, 11.29784
723.2845, 11.55594
723.7667, 11.73059
724.2488, 11.99551
724.7309, 12.42575
725.2130, 12.85521
725.6951, 13.00894
726.1772, 12.85265
726.6594, 13.10071
727.1415, 13.99353
727.6236, 14.94792
728.1057, 15.05684
728.5878, 14.58919
729.0699, 14.21158
729.5521, 14.05573
730.0342, 14.19104
730.5163, 14.79649
730.9984, 15.69370
731.4805, 16.58058
731.9626, 17.70152
732.4448, 18.44023
732.9269, 18.51135
733.4090, 18.14810
733.8911, 18.02356
734.3732, 18.15053
734.8553, 18.58243
735.3375, 19.49269
735.8196, 20.58951
736.3017, 20.97070
736.7838, 20.70952
737.2659, 20.47516
737.7480, 20.60323
738.2302, 20.97063
738.7123, 21.65353
739.1944, 22.58168
739.6765, 23.29131
740.1586, 23.37820
740.6407, 23.33188
741.1229, 23.30530
741.6050, 23.30490
742.0871, 23.47223
742.5692, 23.86018
743.0513, 24.29355
743.5334, 24.73932
744.0156, 25.18777
744.4977, 25.59160
744.9798, 25.94313
745.4619, 26.12016
745.9440, 25.82832
746.4261, 25.42963
746.9083, 25.40514
747.3904, 25.80229
747.8725, 26.24843
748.3546, 26.69075
748.8367, 27.00427
749.3188, 26.99995
749.8010, 26.46275
750.2831, 26.54938
750.7652, 27.66643
751.2473, 28.84146
751.7294, 29.15915
752.2115, 28.61797
752.6937, 28.25580
753.1758, 28.18880
753.6579, 28.25206
754.1400, 28.40346
754.6221, 28.50455
755.1042, 28.30171
755.5864, 27.71516
756.0685, 27.11050
756.5506, 26.61870
757.0327, 26.21767
757.5148, 25.91431
757.9969, 25.88539
758.4791, 25.65773
758.9612, 25.17101
759.4433, 24.62100
759.9254, 24.23175
760.4075, 23.98611
760.8896, 23.77475
761.3718, 23.59671
761.8539, 23.43130
762.3360, 23.33815
762.8181, 23.22089
763.3002, 22.85477
763.7823, 21.98779
764.2645, 21.18201
764.7466, 20.87248
765.2287, 20.78398
765.7108, 20.47621
766.1929, 19.70255
766.6750, 18.96339
767.1572, 18.32491
767.6393, 17.74220
768.1214, 17.10153
768.6035, 16.39516
769.0856, 15.67819
769.5677, 14.91087
770.0499, 14.20863
770.5320, 13.88947
771.0141, 13.80586
771.4962, 13.55417
771.9783, 12.74472
772.4604, 11.93079
772.9426, 11.55153
773.4247, 11.38780
773.9068, 10.90985
774.3889, 9.617783
774.8710, 8.655716
775.3531, 8.390808
775.8353, 8.507248
776.3174, 7.969604
776.7995, 6.743271
777.2816, 5.799438
777.7637, 5.582977
778.2458, 5.761780
778.7280, 6.002213
779.2101, 6.194199
779.6922, 5.996826
780.1743, 4.693878
780.6564, 3.496536
781.1385, 3.064575
781.6207, 3.265747
782.1028, 3.516708
782.5849, 3.920197
783.0670, 4.115707
783.5491, 3.927307
784.0313, 3.474075
784.5134, 3.258530
784.9955, 3.280045
785.4776, 3.242218
785.9597, 2.937332
786.4418, 2.528137
786.9240, 2.217239
787.4061, 2.018326
787.8882, 1.993927
788.3703, 2.604767
788.8524, 2.996216
789.3345, 2.473694
789.8167, 1.206192
790.2988, 0.6716000
790.7809, 1.360352
791.2630, 1.910385
791.7451, 1.814728
792.2272, 1.226791
792.7094, 0.7326200
793.1915, 0.3400880
793.6736, 7.5851001E-02
794.1557, 0.1168520
794.6378, 0.1195070
795.1199, 0.5300140
795.6021, 1.607819
796.0842, 2.118958
796.5663, 0.8354490
797.0484, 0.3488620
797.5305, 0.3733220
798.0126, 0.5991060
798.4948, 1.026794
798.9769, 0.6367490
799.4590, 0.3824010
799.9411, 0.7638550
800.4232, 1.570297
800.9053, 1.971268
801.3875, 1.996750
801.8696, 1.939606
802.3517, 1.895035
802.8338, 1.907928
803.3159, 2.063065
803.7980, 2.332565
804.2802, 2.558365
804.7623, 2.710526
805.2444, 2.780807
805.7265, 2.714706
806.2086, 2.541092
806.6907, 2.535172
807.1729, 2.704407
807.6550, 3.011185
808.1371, 3.596939
808.6192, 4.242386
809.1013, 4.240189
809.5834, 3.696747
810.0656, 3.207382
810.5477, 3.113632
811.0298, 3.217026
811.5119, 3.445374
811.9940, 3.773254
812.4761, 4.057388
812.9583, 4.390930
813.4404, 4.513672
813.9225, 4.213455
814.4046, 3.623611
814.8867, 3.616425
815.3688, 4.224686
815.8510, 4.753601
816.3331, 4.658783
816.8152, 4.373322
817.2973, 4.650635
817.7794, 5.390350
818.2615, 6.200180
818.7437, 7.320740
819.2258, 8.031250
819.7079, 7.727417
820.1900, 6.578659
820.6721, 5.936935
821.1542, 5.967941
821.6364, 6.116760
822.1185, 6.244614
822.6006, 6.340042
823.0827, 6.343033
823.5648, 6.261230
824.0469, 6.140427
824.5291, 5.779755
825.0112, 5.586014
825.4933, 6.157166
825.9754, 7.230759
826.4575, 7.992813
826.9396, 8.043289
827.4218, 7.936096
827.9039, 7.702911
828.3860, 7.452881
828.8681, 7.615585
829.3502, 8.265594
829.8323, 8.787460
830.3145, 8.951004
830.7966, 8.912415
831.2787, 8.979233
831.7608, 9.096069
832.2429, 9.088699
832.7250, 8.654785
833.2072, 8.291687
833.6893, 8.378052
834.1714, 8.735840
834.6535, 8.874374
835.1356, 8.564011
835.6177, 8.425751
836.0999, 8.657150
836.5820, 9.013031
837.0641, 8.842712
837.5462, 8.236526
838.0283, 8.088745
838.5104, 8.869141
838.9926, 9.787430
839.4747, 10.01790
839.9568, 9.880371
840.4389, 9.924026
840.9210, 10.58479
841.4031, 10.99840
841.8853, 10.76328
842.3674, 10.28198
842.8495, 10.13843
843.3316, 10.43811
843.8137, 10.73021
844.2958, 10.91505
844.7780, 10.93581
845.2601, 10.84528
845.7422, 10.74350
846.2243, 10.75938
846.7064, 10.93132
847.1885, 11.01649
847.6707, 10.79633
848.1528, 10.44783
848.6349, 10.20393
849.1170, 10.09908
849.5991, 10.16899
850.0812, 10.48103
850.5634, 10.83913
851.0455, 11.04483
851.5276, 11.11316
852.0097, 11.07585
852.4918, 10.91447
852.9739, 10.77745
853.4561, 10.84767
853.9382, 10.95406
854.4203, 10.90205
854.9024, 10.63843
855.3845, 10.45503
855.8666, 10.47728
856.3488, 10.52454
856.8309, 10.44247
857.3130, 10.16858
857.7951, 10.03365
858.2772, 10.08987
858.7593, 10.12254
859.2415, 9.859024
859.7236, 9.479263
860.2057, 9.319931
860.6878, 9.363846
861.1699, 9.376144
861.6520, 9.238556
862.1342, 9.034302
862.6163, 8.768600
863.0984, 8.435379
863.5805, 8.286362
864.0626, 8.361359
864.5447, 8.514816
865.0269, 8.777969
865.5090, 9.049774
865.9911, 8.817184
866.4732, 8.165024
866.9553, 7.667831
867.4374, 7.941986
867.9196, 8.270111
868.4017, 8.094742
868.8838, 7.477005
869.3659, 6.971603
869.8480, 6.570267
870.3301, 6.378983
870.8123, 6.488174
871.2944, 6.798126
871.7765, 6.935242
872.2586, 6.916214
872.7407, 7.043747
873.2228, 7.604050
873.7050, 8.195282
874.1871, 8.485107
874.6692, 8.475632
875.1513, 8.185013
875.6334, 7.392792
876.1155, 6.601181
876.5977, 5.897171
877.0798, 5.246658
877.5619, 4.527618
878.0440, 3.710373
878.5261, 3.239777
879.0082, 3.283966
879.4904, 3.504654
879.9725, 3.488831
880.4546, 3.329010
880.9367, 3.200058
881.4188, 3.222198
881.9009, 3.114532
882.3831, 2.510483
882.8652, 1.895279
883.3473, 1.820129
883.8294, 2.536835
884.3115, 2.807388
884.7936, 2.533798
885.2758, 2.017883
885.7579, 1.380219
886.2400, 0.7720950
886.7221, 0.6161800
887.2042, 0.9880520
887.6863, 1.364090
888.1685, 1.502243
888.6506, 1.494019
889.1327, 1.358673
889.6148, 1.071182
890.0969, 0.9127500
890.5790, 0.9244080
891.0612, 0.9486080
891.5433, 0.8895570
892.0254, 0.7668000
892.5075, 0.5875700
892.9896, 0.3737180
893.4717, 0.3170010
893.9539, 0.8700560
894.4360, 1.328949
894.9181, 1.015808
895.4002, 8.9019999E-02
895.8823, 0.2964940
896.3644, 0.3715520
896.8466, 0.7156830
897.3287, 0.2341920
897.8108, 0.6972350
898.2929, 1.065887
898.7750, 0.9373930
899.2571, 0.7525790
899.7393, 0.6010130
900.2214, 0.5807650
900.7035, 1.046936
901.1856, 1.636230
901.6677, 1.739319
902.1498, 0.3854520
902.6320, 0.2439270
903.1141, 0.2849730
903.5962, 1.220505
904.0783, 1.563705
904.5604, 1.350418
905.0425, 0.9903720
905.5247, 0.5003970
906.0068, 0.1479340
906.4889, 0.2719570
906.9710, 0.6248020
907.4531, 0.9413450
907.9352, 1.169189
908.4174, 1.378708
908.8995, 1.647003
909.3816, 1.819855
909.8637, 1.810867
910.3458, 1.615891
910.8279, 1.196854
911.3101, 0.5450740
911.7922, 7.7102996E-02
912.2743, 0.2702030
912.7564, 0.6926730
913.2385, 0.9644620
913.7206, 1.050980
914.2028, 0.8704990
914.6849, 0.1014400
915.1670, 0.6124730
915.6491, 1.169724
916.1312, 1.515305
916.6133, 1.229523
917.0955, 0.2975310
917.5776, 0.1730040
918.0597, 0.4606170
918.5418, 1.402023
919.0239, 1.686859
919.5060, 1.542664
919.9882, 1.400772
920.4703, 1.231079
920.9524, 1.313705
921.4345, 1.802628
921.9166, 2.458984
922.3987, 2.997391
922.8809, 3.412582
923.3630, 3.799545
923.8451, 4.170273
924.3272, 4.506546
924.8093, 4.677185
925.2914, 4.857193
925.7736, 5.327820
926.2557, 6.205215
926.7378, 6.885696
927.2199, 6.993225
927.7020, 7.041168
928.1841, 7.266403
928.6663, 7.670563
929.1484, 8.209274
929.6305, 8.893784
930.1126, 9.613983
930.5947, 10.43704
931.0768, 11.19099
931.5590, 11.45293
932.0411, 11.39207
932.5232, 11.66792
933.0053, 12.82660
933.4874, 13.98029
933.9695, 14.94188
934.4517, 15.73074
934.9338, 16.41127
935.4159, 16.97179
935.8980, 17.47719
936.3801, 17.88921
936.8622, 18.37291
937.3444, 19.12599
937.8265, 20.04735
938.3086, 20.99185
938.7907, 21.77090
939.2728, 22.87971
939.7549, 24.85281
940.2371, 26.68491
940.7192, 27.31947
941.2013, 26.69554
941.6834, 27.46944
942.1655, 29.78099
942.6476, 32.02095
943.1298, 32.49936
943.6119, 32.37286
944.0940, 32.87898
944.5761, 34.10692
945.0582, 35.44371
945.5403, 36.90996
946.0225, 38.23732
946.5046, 39.23709
946.9867, 40.04584
947.4688, 41.35519
947.9509, 43.11478
948.4330, 44.81316
948.9152, 46.09637
949.3973, 47.40517
949.8794, 49.26865
950.3615, 51.43318
950.8436, 53.46147
951.3257, 55.15312
951.8079, 56.81412
952.2900, 58.41736
952.7721, 60.01633
953.2542, 61.59431
953.7363, 63.20061
954.2184, 65.17319
954.7006, 67.52603
955.1827, 70.24075
955.6648, 73.70123
956.1469, 77.28954
956.6290, 80.33136
957.1111, 82.68346
957.5933, 85.42831
958.0754, 88.66843
958.5575, 92.12689
959.0396, 95.65430
959.5217, 99.29831
960.0038, 103.2268
960.4860, 107.4196
960.9681, 111.9695
961.4502, 117.1524
961.9323, 122.4515
962.4144, 127.4154
962.8965, 132.2991
963.3787, 137.5631
963.8608, 143.4982
964.3429, 149.0538
964.8250, 153.9493
965.3071, 158.8823
965.7892, 165.1121
966.2714, 172.0178
966.7535, 178.1180
967.2356, 183.0361
967.7177, 187.6868
968.1998, 192.5580
968.6819, 197.3023
969.1641, 201.5661
969.6462, 205.3607
970.1283, 209.2304
970.6104, 213.3144
971.0925, 216.9234
971.5746, 219.5436
972.0568, 221.5670
972.5389, 223.8734
973.0210, 226.2491
973.5031, 227.9466
973.9852, 228.2330
974.4673, 228.3059
974.9495, 228.7505
975.4316, 229.0506
975.9137, 228.3058
976.3958, 226.4643
976.8779, 224.2066
977.3600, 221.5796
977.8422, 218.9014
978.3243, 216.3832
978.8064, 214.0686
979.2885, 212.1290
979.7706, 210.7256
980.2527, 208.8230
980.7349, 206.0254
981.2170, 203.0467
981.6991, 200.3485
982.1812, 197.8360
982.6633, 194.7350
983.1454, 191.1011
983.6276, 187.7102
984.1097, 185.4157
984.5918, 183.1578
985.0739, 179.9360
985.5560, 176.1420
986.0381, 172.9158
986.5203, 170.7893
987.0024, 168.1931
987.4845, 164.7892
987.9666, 161.1703
988.4487, 158.3139
988.9308, 155.9362
989.4130, 153.1108
989.8951, 149.6453
990.3772, 146.1208
990.8593, 143.0167
991.3414, 139.8692
991.8235, 136.1185
992.3057, 131.6672
992.7878, 128.5190
993.2699, 126.8847
993.7520, 125.0682
994.2341, 121.8850
994.7162, 118.1408
995.1984, 115.2437
995.6805, 112.9524
996.1626, 110.6878
996.6447, 108.2407
997.1268, 105.7423
997.6089, 103.0782
998.0911, 100.4633
998.5732, 98.36099
999.0553, 96.75531
999.5374, 94.63525
1000.020, 91.86549
1000.502, 88.96924
1000.984, 86.28494
1001.466, 83.85167
1001.948, 81.75768
1002.430, 80.05371
1002.912, 78.40477
1003.394, 76.85014
1003.876, 75.23828
1004.359, 73.52991
1004.841, 71.70618
1005.323, 69.71017
1005.805, 67.56854
1006.287, 65.45544
1006.769, 63.50745
1007.251, 61.48907
1007.733, 59.09993
1008.216, 56.66940
1008.698, 54.72572
1009.180, 53.44565
1009.662, 51.96216
1010.144, 50.25323
1010.626, 48.24071
1011.108, 45.28908
1011.590, 42.30203
1012.072, 41.07722
1012.555, 41.58969
1013.037, 41.40231
1013.519, 38.68146
1014.001, 36.28465
1014.483, 35.31757
1014.965, 35.26154
1015.447, 34.29779
1015.929, 32.51099
1016.411, 30.81374
1016.894, 29.52744
1017.376, 28.38184
1017.858, 27.21098
1018.340, 26.02142
1018.822, 24.82526
1019.304, 23.55667
1019.786, 22.47839
1020.268, 21.68636
1020.751, 20.83766
1021.233, 19.59000
1021.715, 18.09766
1022.197, 16.68793
1022.679, 15.39818
1023.161, 14.42473
1023.643, 14.00299
1024.125, 13.77252
1024.607, 13.85657
1025.090, 13.92993
1025.572, 13.18585
1026.054, 11.54927
1026.536, 10.09489
1027.018, 8.995682
1027.500, 8.186310
1027.982, 7.825867
1028.464, 7.589920
1028.947, 7.057922
1029.429, 6.080856
1029.911, 5.298187
1030.393, 4.868881
1030.875, 4.442520
1031.357, 3.801880
1031.839, 3.018295
1032.321, 2.351563
1032.803, 1.841888
1033.286, 1.511429
1033.768, 1.586044
1034.250, 1.606201
1034.732, 1.420837
1035.214, 1.028076
1035.696, 0.3327640
1036.178, 0.8784640
1036.660, 1.216278
1037.143, 0.4530940
1037.625, 0.3547060
1038.107, 0.1300660
1038.589, 0.5623020
1039.071, 1.113052
1039.553, 1.479767
1040.035, 1.659363
1040.517, 1.541214
1041.000, 1.387375
1041.482, 1.250076
1041.964, 1.137589
1042.446, 1.139755
1042.928, 1.198730
1043.410, 1.036682
1043.892, 0.4455110
1044.374, 1.1200000E-02
1044.856, 0.2124790
1045.339, 0.5867000
1045.821, 0.6397090
1046.303, 0.3338320
1046.785, 0.1533050
1047.267, 0.8700710
1047.749, 1.342270
1048.231, 0.8929900
1048.713, 0.2633670
1049.195, 0.5836490
1049.677, 1.525970
1050.160, 2.131027
1050.642, 1.713989
1051.124, 1.521805
1051.606, 1.769913
1052.088, 2.164474
1052.570, 2.255661
1053.052, 2.146744
1053.534, 2.328674
1054.017, 2.871994
1054.499, 3.222412
1054.981, 2.659149
1055.463, 2.137009
1055.945, 2.330826
1056.427, 3.117172
1056.909, 3.868973
1057.391, 4.602402
1057.874, 5.171310
1058.356, 5.603470
1058.838, 5.691742
1059.320, 4.698761
1059.802, 3.397964
1060.284, 2.914322
1060.766, 3.963821
1061.248, 4.746780
1061.730, 5.157471
1062.213, 5.372086
1062.695, 5.425613
1063.177, 5.388428
1063.659, 5.566422
1064.141, 5.905365
1064.623, 6.154984
1065.105, 5.968277
1065.587, 5.915237
1066.070, 6.471909
1066.552, 7.156219
1067.034, 7.064392
1067.516, 6.148239
1067.998, 6.120529
1068.480, 7.266083
1068.962, 8.431427
1069.444, 8.588409
1069.927, 8.270111
1070.409, 7.935196
1070.891, 7.627045
1071.373, 7.126648
1071.855, 6.304642
1072.337, 5.655075
1072.819, 5.359406
1073.301, 5.264496
1073.783, 5.112747
1074.266, 4.937668
1074.748, 4.817505
1075.230, 4.819977
1075.712, 4.749374
1076.194, 4.645432
1076.676, 4.340973
1077.158, 3.577896
1077.640, 2.449310
1078.122, 1.913025
1078.604, 1.928589
1079.087, 2.155960
1079.569, 2.737793
1080.051, 3.116989
1080.533, 2.789032
1081.015, 2.087814
1081.497, 1.653168
1081.979, 1.594193
1082.461, 1.265427
1082.944, 0.5619960
1083.426, 1.0269000E-02
1083.908, 0.2355190
1084.390, 0.7684480
1084.872, 0.9279170
1085.354, 0.7090300
1085.836, 0.6109160
1086.318, 0.8797610
1086.801, 0.9407810
1087.283, 0.6393430
1087.765, 9.3704000E-02
1088.247, 0.7875370
1088.729, 1.706543
1089.211, 1.706894
1089.693, 0.3609620
1090.175, 0.6716310
1090.657, 0.3380890
1091.140, 0.1692500
1091.622, 0.1368410
1092.104, 0.3196560
1092.586, 9.8953001E-02
1093.068, 0.7160190
1093.550, 1.120163
1094.032, 0.3839420
1094.514, 0.3981480
1094.997, 0.3709870
1095.479, 3.9322000E-02
1095.961, 0.2643740
1096.443, 0.2931670
1096.925, 0.1166530
1097.407, 0.2965850
1097.889, 0.7407680
1098.371, 1.107254
1098.854, 1.385376
1099.336, 1.477097
1099.818, 1.450516
1100.300, 1.581223
1100.782, 2.283569
1101.264, 2.464432
1101.746, 1.780441
1102.228, 0.9814150
1102.710, 1.293167
1103.193, 2.229370
1103.675, 2.481323
1104.157, 1.907059
1104.639, 1.597092
1105.121, 2.350449
1105.603, 3.092026
1106.085, 3.474823
1106.567, 3.517731
1107.049, 3.095123
1107.531, 2.296356
1108.014, 1.925140
1108.496, 2.250381
1108.978, 2.812180
1109.460, 3.427505
1109.942, 4.013000
1110.424, 4.576584
1110.906, 5.143387
1111.388, 4.898636
1111.871, 3.762497
1112.353, 2.972504
1112.835, 3.336563
1113.317, 4.110046
1113.799, 4.705307
1114.281, 5.084534
1114.763, 5.152283
1115.245, 4.580246
1115.728, 4.453323
1116.210, 4.934555
1116.692, 5.338699
1117.174, 4.882507
1117.656, 4.072266
1118.138, 3.869476
1118.620, 4.166138
1119.102, 4.422211
1119.584, 4.251663
1120.067, 4.351105
1120.549, 4.981750
1121.031, 5.650879
1121.513, 5.628204
1121.995, 5.096176
1122.477, 4.616135
1122.959, 4.237946
1123.441, 3.962799
1123.924, 3.686447
1124.406, 3.653198
1124.888, 4.154312
1125.370, 4.900833
1125.852, 4.997726
1126.334, 4.487656
1126.816, 4.157486
1127.298, 4.261826
1127.781, 4.374786
1128.263, 4.242004
1128.745, 3.962906
1129.227, 3.474075
1129.709, 2.787827
1130.191, 2.620163
1130.673, 3.025253
1131.155, 3.330048
1131.637, 3.219971
1132.120, 3.014374
1132.602, 2.987228
1133.084, 3.071457
1133.566, 3.222931
1134.048, 3.524551
1134.530, 3.475616
1135.012, 2.929886
1135.494, 2.648407
1135.976, 3.600143
1136.458, 4.794113
1136.941, 4.469101
1137.423, 3.150192
1137.905, 2.094620
1138.387, 1.814606
1138.869, 1.556198
1139.351, 1.236694
1139.833, 1.056580
1140.315, 1.400620
1140.798, 1.981964
1141.280, 2.102463
1141.762, 1.794281
1142.244, 1.450409
1142.726, 1.062698
1143.208, 0.9083250
1143.690, 1.112793
1144.172, 1.429138
1144.655, 1.506622
1145.137, 1.425018
1145.619, 1.307907
1146.101, 1.144394
1146.583, 1.058868
1147.065, 1.506180
1147.547, 1.819519
1148.029, 1.566116
1148.511, 0.9701690
1148.994, 0.7242280
1149.476, 0.7651980
1149.958, 0.6345670
1150.440, 0.1521610
1150.922, 0.1586760
1151.404, 0.1781010
1151.886, 0.7946780
1152.368, 1.534088
1152.851, 2.308090
1153.333, 2.228790
1153.815, 1.293808
1154.297, 0.7882080
1154.779, 1.383102
1155.261, 2.133087
1155.743, 2.182159
1156.225, 1.934830
1156.708, 1.842361
1157.190, 1.909500
1157.672, 1.977081
1158.154, 2.073822
1158.636, 2.109406
1159.118, 1.972122
1159.600, 1.801300
1160.082, 1.834793
1160.564, 1.956207
1161.047, 1.935425
1161.529, 1.604492
1162.011, 1.470734
1162.493, 1.575760
1162.975, 1.706833
1163.457, 1.640793
1163.939, 1.540039
1164.421, 1.790909
1164.903, 2.191986
1165.385, 2.126144
1165.868, 0.8777010
1166.350, 0.3681340
1166.832, 0.9395140
1167.314, 1.734482
1167.796, 1.746002
1168.278, 1.388290
1168.760, 1.503113
1169.242, 2.046448
1169.725, 2.392822
1170.207, 2.173004
1170.689, 2.014038
1171.171, 2.055161
1171.653, 2.108032
1172.135, 1.803925
1172.617, 1.352112
1173.099, 1.241791
1173.582, 1.512985
1174.064, 1.702408
1174.546, 1.461792
1175.028, 1.416183
1175.510, 1.880157
1175.992, 2.431549
1176.474, 2.068436
1176.956, 1.102371
1177.438, 0.4324650
1177.921, 0.2311860
1178.403, 0.3318180
1178.885, 1.086227
1179.367, 1.602768
1179.849, 1.460709
1180.331, 0.8893890
1180.813, 0.6234440
1181.295, 0.5573880
1181.778, 0.2018590
1182.260, 0.7718810
1182.742, 1.324707
1183.224, 0.8114320
1183.706, 0.1317290
1184.188, 1.411545
1184.670, 2.802322
1185.152, 2.732605
1185.635, 1.474442
1186.117, 0.4220890
1186.599, 5.0048999E-02
1187.081, 0.1161500
1187.563, 1.105499
1188.045, 1.956696
1188.527, 1.701202
1189.009, 0.4713900
1189.491, 8.9294001E-02
1189.974, 0.4563450
1190.456, 0.8398440
1190.938, 0.9123990
1191.420, 0.8655700
1191.902, 0.8261570
1192.384, 0.6725920
1192.866, 0.1396180
1193.348, 0.7954560
1193.830, 0.8113400
1194.313, 1.3885000E-02
1194.795, 0.7471620
1195.277, 0.7933810
1195.759, 0.6423030
1196.241, 0.5116880
1196.723, 0.3578340
1197.205, 8.2015999E-02
1197.687, 0.3235470
1198.169, 0.4499210
1198.652, 0.2823640
1199.134, 0.1023860
1199.616, 6.8161003E-02
1200.098, 0.1103820
1200.580, 0.3575440
1201.062, 0.5691220
1201.544, 0.2302550
1202.026, 0.6869350
1202.509, 0.9183040
1202.991, 0.3483730
1203.473, 3.4485001E-02
1203.955, 0.9344790
1204.437, 1.871628
1204.919, 1.769928
1205.401, 0.9923550
1205.883, 0.2395480
1206.365, 0.5071260
1206.848, 0.6904450
1207.330, 0.2078250
1207.812, 0.3043520
1208.294, 0.2377470
1208.776, 0.1180730
1209.258, 0.3982090
1209.740, 0.9288330
1210.222, 1.362427
1210.705, 1.701538
1211.187, 1.741684
1211.669, 1.413696
1212.151, 1.113358
1212.633, 1.397453
1213.115, 1.622078
1213.597, 1.053131
1214.079, 3.3576999E-02
1214.562, 6.4323001E-02
1215.044, 0.7347870
1215.526, 1.287971
1216.008, 1.286018
1216.490, 1.266121
1216.972, 1.821518
1217.454, 2.363342
1217.936, 2.368050
1218.418, 1.959389
1218.901, 1.754623
1219.383, 1.740738
1219.865, 1.742119
1220.347, 1.705482
1220.829, 1.680183
1221.311, 1.606300
1221.793, 1.655983
1222.275, 2.075211
1222.757, 2.754059
1223.240, 2.815117
1223.722, 2.304077
1224.204, 1.724014
1224.686, 1.148109
1225.168, 0.8624420
1225.650, 1.279480
1226.132, 1.877785
1226.614, 2.261398
1227.096, 2.449608
1227.579, 2.584793
1228.061, 2.677589
1228.543, 2.832306
1229.025, 3.148048
1229.507, 3.392746
1229.989, 3.212502
1230.471, 3.113106
1230.953, 3.579315
1231.436, 4.506676
1231.918, 4.831680
1232.400, 4.630272
1232.882, 4.418823
1233.364, 4.371033
1233.846, 4.429382
1234.328, 4.743912
1234.810, 4.982361
1235.292, 4.791939
1235.775, 4.277000
1236.257, 4.333366
1236.739, 4.868736
1237.221, 5.317307
1237.703, 5.401634
1238.185, 5.411865
1238.667, 5.393890
1239.149, 5.404129
1239.632, 5.491493
1240.114, 5.601067
1240.596, 5.712532
1241.078, 5.852463
1241.560, 5.904564
1242.042, 5.465843
1242.524, 5.377411
1243.006, 6.131226
1243.489, 6.905861
1243.971, 6.958527
1244.453, 6.480995
1244.935, 6.296326
1245.417, 6.315826
1245.899, 6.493805
1246.381, 7.298347
1246.863, 7.802818
1247.345, 7.776566
1247.828, 7.487083
1248.310, 7.272736
1248.792, 7.264191
1249.274, 7.434113
1249.756, 7.702332
1250.238, 7.795410
1250.720, 7.575539
1251.202, 7.542908
1251.684, 7.755196
1252.167, 8.012138
1252.649, 7.853790
1253.131, 7.496819
1253.613, 7.672363
1254.095, 8.072762
1254.577, 8.210983
1255.059, 8.309906
1255.541, 8.090294
1256.023, 7.461700
1256.506, 6.915070
1256.988, 6.838005
1257.470, 6.985229
1257.952, 7.120102
1258.434, 7.109825
1258.916, 7.220833
1259.398, 7.492409
1259.880, 7.428223
1260.363, 6.861412
1260.845, 6.424782
1261.327, 7.040733
1261.809, 7.804146
1262.291, 7.655228
1262.773, 6.986740
1263.255, 6.741173
1263.737, 7.103073
1264.219, 6.995438
1264.702, 6.296928
1265.184, 5.851593
1265.666, 6.895317
1266.148, 7.918541
1266.630, 7.458519
1267.112, 6.254608
1267.594, 5.772751
1268.076, 6.073296
1268.559, 6.135887
1269.041, 5.862396
1269.523, 5.556152
1270.005, 5.382530
1270.487, 5.296532
1270.969, 5.291451
1271.451, 5.384918
1271.933, 5.762238
1272.416, 6.323288
1272.898, 6.026482
1273.380, 4.863823
1273.862, 3.856384
1274.344, 3.617599
1274.826, 3.751205
1275.308, 4.306145
1275.790, 4.867340
1276.272, 4.827301
1276.755, 4.354935
1277.237, 4.151199
1277.719, 4.199051
1278.201, 4.169487
1278.683, 3.867828
1279.165, 3.529518
1279.647, 3.086143
1280.129, 2.821571
1280.611, 3.283333
1281.094, 4.036919
1281.576, 4.050751
1282.058, 3.453033
1282.540, 2.946564
1283.022, 2.715523
1283.504, 2.606583
1283.986, 2.626091
1284.468, 2.671562
1284.950, 2.583694
1285.433, 2.484016
1285.915, 2.686966
1286.397, 3.032333
1286.879, 2.800072
1287.361, 1.635986
1287.843, 1.260040
1288.325, 1.895126
1288.807, 2.569786
1289.290, 2.280205
1289.772, 1.768242
1290.254, 1.641312
1290.736, 1.815376
1291.218, 2.056297
1291.700, 2.414658
1292.182, 2.386520
1292.664, 1.939140
1293.146, 1.412415
1293.629, 0.9463810
1294.111, 0.5754470
1294.593, 0.3620610
1295.075, 0.2155300
1295.557, 5.1529001E-02
1296.039, 0.1163940
1296.521, 6.9289997E-02
1297.003, 0.5695110
1297.486, 0.9015880
1297.968, 0.5884020
1298.450, 0.3931580
1298.932, 0.5920490
1299.414, 0.7767180
1299.896, 0.6202770
1300.378, 0.1946110
1300.860, 6.2940000E-03
1301.343, 4.2340001E-03
1301.825, 0.0000000E+00
##END=



