##NAMES=Uralborite
##RRUFFID=R061140
##IDEAL CHEMISTRY=CaB_2_O_2_(OH)_4_
##LOCALITY=Fuka mine, Bicchu-cho, Okayama Prefecture, Japan
##OWNER=RRUFF
##SOURCE=Michael Scott
##DESCRIPTION=Colorless massive
##STATUS=The identification of this mineral has been confirmed by single-crystal X-ray diffraction.
##URL=rruff.info/R061140
128.5417, 0.0000000E+00
129.0238, 23.97455
129.5060, 62.43494
129.9881, 105.9023
130.4702, 163.6443
130.9523, 215.4426
131.4344, 245.9019
131.9165, 252.1033
132.3987, 243.9216
132.8808, 229.4623
133.3629, 216.8093
133.8450, 197.5855
134.3271, 178.3936
134.8092, 158.6118
135.2914, 126.0109
135.7735, 79.10107
136.2556, 34.77625
136.7377, 8.345947
137.2198, 2.556458
137.7019, 8.340393
138.1841, 12.28217
138.6662, 11.39716
139.1483, 1.260071
139.6304, 19.17523
140.1125, 46.09058
140.5946, 79.25146
141.0768, 116.6970
141.5589, 154.6936
142.0410, 188.0831
142.5231, 221.9176
143.0052, 270.1977
143.4873, 342.1893
143.9695, 407.9271
144.4516, 448.2178
144.9337, 467.0475
145.4158, 471.4316
145.8979, 456.1265
146.3800, 428.1316
146.8622, 408.9921
147.3443, 401.2933
147.8264, 400.1292
148.3085, 404.9543
148.7906, 413.4100
149.2727, 419.3605
149.7549, 417.0632
150.2370, 408.4908
150.7191, 406.3760
151.2012, 408.3867
151.6833, 411.1140
152.1654, 413.9352
152.6476, 417.6616
153.1297, 423.1240
153.6118, 433.8994
154.0939, 449.3529
154.5760, 458.4593
155.0581, 459.8776
155.5403, 455.3635
156.0224, 445.4291
156.5045, 430.4619
156.9866, 411.2458
157.4687, 387.7911
157.9508, 359.9327
158.4330, 330.8776
158.9151, 295.0743
159.3972, 263.5090
159.8793, 240.4736
160.3614, 224.9792
160.8435, 213.8431
161.3257, 204.5105
161.8078, 196.9523
162.2899, 192.0829
162.7720, 188.5928
163.2541, 189.3318
163.7362, 196.0574
164.2184, 208.2061
164.7005, 224.4297
165.1826, 245.5134
165.6647, 273.0321
166.1468, 289.2213
166.6289, 294.7513
167.1111, 288.3997
167.5932, 264.1475
168.0753, 226.0938
168.5574, 184.7546
169.0395, 148.7825
169.5216, 118.8881
170.0038, 90.40320
170.4859, 61.42578
170.9680, 35.46881
171.4501, 12.20282
171.9322, 7.242554
172.4143, 20.40668
172.8965, 24.55005
173.3786, 18.67145
173.8607, 11.65332
174.3428, 1.397766
174.8249, 11.04486
175.3070, 10.69330
175.7892, 2.699768
176.2713, 5.011963
176.7534, 5.407227
177.2355, 2.415833
177.7176, 9.869080
178.1997, 16.87018
178.6819, 23.72772
179.1640, 29.75153
179.6461, 35.56793
180.1282, 43.08850
180.6103, 54.36890
181.0924, 70.04633
181.5745, 81.32550
182.0567, 81.88110
182.5388, 84.91833
183.0209, 96.62445
183.5030, 116.0446
183.9851, 138.6328
184.4672, 160.6216
184.9494, 181.8383
185.4315, 206.9860
185.9136, 242.3947
186.3957, 274.2433
186.8778, 299.1787
187.3599, 316.5062
187.8421, 325.3393
188.3242, 323.5615
188.8063, 311.2530
189.2884, 307.1985
189.7705, 315.1646
190.2526, 325.6157
190.7348, 333.1233
191.2169, 339.5262
191.6990, 350.6823
192.1811, 370.7494
192.6632, 399.4054
193.1453, 431.1515
193.6275, 464.8815
194.1096, 502.1217
194.5917, 551.3015
195.0738, 605.1227
195.5559, 645.9902
196.0380, 662.4533
196.5202, 657.2454
197.0023, 650.8380
197.4844, 645.5236
197.9665, 636.0646
198.4486, 617.0685
198.9307, 592.2763
199.4129, 569.8704
199.8950, 553.7676
200.3771, 543.9331
200.8592, 540.8740
201.3413, 550.4919
201.8234, 558.5822
202.3056, 564.9833
202.7877, 566.7795
203.2698, 556.8817
203.7519, 530.5795
204.2340, 492.5616
204.7161, 459.5533
205.1983, 442.5042
205.6804, 415.5899
206.1625, 365.3206
206.6446, 301.9292
207.1267, 242.4194
207.6088, 193.4089
208.0910, 153.7060
208.5731, 121.4333
209.0552, 98.06653
209.5373, 78.06281
210.0194, 56.94153
210.5015, 39.46637
210.9837, 35.05157
211.4658, 48.05115
211.9479, 69.59143
212.4300, 82.00409
212.9121, 80.24805
213.3942, 81.56134
213.8764, 90.30579
214.3585, 102.8984
214.8406, 115.5650
215.3227, 127.4490
215.8048, 137.6008
216.2869, 143.9554
216.7691, 144.3035
217.2512, 147.5316
217.7333, 157.5650
218.2154, 169.4068
218.6975, 175.9587
219.1796, 175.7641
219.6618, 176.6702
220.1439, 189.8695
220.6260, 221.2784
221.1081, 242.2313
221.5902, 244.2460
222.0723, 240.0556
222.5545, 242.6491
223.0366, 253.1384
223.5187, 260.5212
224.0008, 252.1725
224.4829, 224.0735
224.9650, 203.7713
225.4472, 194.3059
225.9293, 190.1163
226.4114, 189.3373
226.8935, 190.9824
227.3756, 191.4484
227.8577, 187.0769
228.3399, 177.5388
228.8220, 174.3283
229.3041, 186.3234
229.7862, 196.4691
230.2683, 192.3965
230.7504, 177.2516
231.2325, 164.4479
231.7147, 163.8829
232.1968, 174.1260
232.6789, 175.4945
233.1610, 159.8109
233.6431, 146.5239
234.1252, 142.3383
234.6074, 145.6512
235.0895, 153.1184
235.5716, 163.7613
236.0537, 175.9764
236.5358, 182.5057
237.0179, 177.8867
237.5001, 175.9609
237.9822, 184.4919
238.4643, 196.5181
238.9464, 200.2214
239.4285, 190.3215
239.9106, 172.7905
240.3928, 162.8383
240.8749, 163.4907
241.3570, 167.7504
241.8391, 180.8813
242.3212, 195.0488
242.8033, 200.5631
243.2855, 194.4937
243.7676, 182.4202
244.2497, 173.1068
244.7318, 164.3612
245.2139, 163.8104
245.6960, 177.2491
246.1782, 194.9810
246.6603, 210.3657
247.1424, 221.7788
247.6245, 230.1613
248.1066, 237.0275
248.5887, 243.8589
249.0709, 242.6414
249.5530, 229.2800
250.0351, 212.5344
250.5172, 195.8243
250.9993, 180.1934
251.4814, 166.7302
251.9636, 156.5695
252.4457, 150.0096
252.9278, 143.7257
253.4099, 143.3040
253.8920, 137.7024
254.3741, 117.9300
254.8563, 89.51624
255.3384, 65.06995
255.8205, 53.54907
256.3026, 53.41595
256.7847, 49.60724
257.2668, 35.22040
257.7490, 24.60718
258.2311, 20.15051
258.7132, 20.87750
259.1953, 26.04816
259.6774, 35.51086
260.1595, 47.37646
260.6417, 56.37164
261.1238, 64.06812
261.6059, 65.76947
262.0880, 53.86121
262.5701, 39.98840
263.0522, 36.21161
263.5344, 45.97870
264.0165, 61.81311
264.4986, 70.77252
264.9807, 69.18451
265.4628, 69.26703
265.9449, 64.47235
266.4271, 66.48590
266.9092, 87.41205
267.3913, 126.1777
267.8734, 167.5638
268.3555, 192.9558
268.8376, 198.2885
269.3198, 211.1539
269.8019, 236.1265
270.2840, 265.3538
270.7661, 301.4613
271.2482, 340.3858
271.7303, 372.4230
272.2125, 389.8391
272.6946, 393.5201
273.1767, 392.4249
273.6588, 387.2515
274.1409, 375.4707
274.6230, 353.7716
275.1052, 326.2372
275.5873, 299.0974
276.0694, 275.7485
276.5515, 254.5229
277.0336, 230.8711
277.5157, 203.2172
277.9979, 177.4907
278.4800, 156.6339
278.9621, 138.2691
279.4442, 120.2831
279.9263, 102.1959
280.4084, 84.22247
280.8906, 65.83612
281.3727, 46.76733
281.8548, 30.74860
282.3369, 18.68469
282.8190, 10.53204
283.3011, 7.501648
283.7833, 9.844238
284.2654, 11.58252
284.7475, 7.010315
285.2296, 2.327454
285.7117, 8.079224
286.1938, 6.787964
286.6760, 5.256165
287.1581, 11.40247
287.6402, 23.52789
288.1223, 32.30444
288.6044, 31.71277
289.0865, 26.19281
289.5687, 22.25354
290.0508, 20.05731
290.5329, 21.06860
291.0150, 30.27545
291.4971, 43.88080
291.9792, 49.49445
292.4614, 40.97186
292.9435, 27.38666
293.4256, 13.79352
293.9077, 0.6232910
294.3898, 8.150574
294.8719, 8.543213
295.3541, 4.515564
295.8362, 7.376282
296.3183, 19.06702
296.8004, 33.48932
297.2825, 49.59485
297.7646, 66.63318
298.2468, 83.06476
298.7289, 98.23871
299.2110, 113.3547
299.6931, 131.0311
300.1752, 153.0931
300.6573, 172.1947
301.1395, 185.6434
301.6216, 197.0552
302.1037, 208.3293
302.5858, 220.3066
303.0679, 236.2252
303.5500, 260.6583
304.0322, 296.1265
304.5143, 321.3115
304.9964, 329.1306
305.4785, 334.9828
305.9606, 346.2081
306.4427, 361.6493
306.9248, 376.2517
307.4070, 386.2974
307.8891, 393.0649
308.3712, 404.6838
308.8533, 422.4927
309.3354, 444.0488
309.8175, 469.9860
310.2997, 499.1964
310.7818, 532.1770
311.2639, 568.8278
311.7460, 605.4064
312.2281, 634.3805
312.7102, 650.4676
313.1924, 670.1700
313.6745, 700.8876
314.1566, 729.9570
314.6387, 748.1138
315.1208, 755.2380
315.6029, 758.4273
316.0851, 764.6027
316.5672, 773.9615
317.0493, 781.9105
317.5314, 789.9965
318.0135, 794.5421
318.4956, 794.5089
318.9778, 790.0439
319.4599, 780.9294
319.9420, 765.2401
320.4241, 746.3860
320.9062, 734.6865
321.3883, 733.9022
321.8705, 729.4662
322.3526, 711.2967
322.8347, 688.4666
323.3168, 669.1870
323.7989, 655.2196
324.2810, 646.4222
324.7632, 645.5588
325.2453, 652.0518
325.7274, 653.6452
326.2095, 643.6221
326.6916, 631.9884
327.1737, 633.2432
327.6559, 647.2155
328.1380, 651.8502
328.6201, 634.1466
329.1022, 601.8185
329.5843, 566.7209
330.0664, 529.8900
330.5486, 492.5504
331.0307, 455.3845
331.5128, 418.4225
331.9949, 382.4850
332.4770, 349.5321
332.9591, 315.8429
333.4413, 275.1155
333.9234, 230.4817
334.4055, 194.6128
334.8876, 175.5226
335.3697, 167.1297
335.8518, 149.5245
336.3340, 111.8934
336.8161, 82.60754
337.2982, 71.00848
337.7803, 68.15106
338.2624, 65.05316
338.7445, 59.08643
339.2267, 50.30267
339.7088, 37.75226
340.1909, 17.44000
340.6730, 7.764709
341.1551, 17.10657
341.6372, 28.39233
342.1194, 31.80157
342.6015, 28.90637
343.0836, 25.98877
343.5657, 27.67719
344.0478, 34.14661
344.5299, 43.60291
345.0121, 61.45428
345.4942, 72.42761
345.9763, 66.61725
346.4584, 57.37775
346.9405, 60.46399
347.4226, 81.29401
347.9048, 108.7115
348.3869, 125.6025
348.8690, 129.2654
349.3511, 132.7138
349.8332, 136.5959
350.3153, 143.6992
350.7975, 157.5126
351.2796, 176.9161
351.7617, 195.5000
352.2438, 206.2448
352.7259, 211.7824
353.2080, 223.0528
353.6902, 242.3140
354.1723, 262.6956
354.6544, 279.7256
355.1365, 294.5837
355.6186, 309.1356
356.1007, 323.8924
356.5829, 338.2059
357.0650, 352.9951
357.5471, 367.3973
358.0292, 376.3687
358.5113, 377.4634
358.9934, 372.8633
359.4756, 363.9210
359.9577, 347.7156
360.4398, 339.8783
360.9219, 350.4816
361.4040, 368.5056
361.8861, 382.2537
362.3683, 389.8434
362.8504, 392.9355
363.3325, 391.6895
363.8146, 385.5800
364.2967, 387.6407
364.7788, 406.1450
365.2610, 422.8163
365.7431, 428.1975
366.2252, 426.9146
366.7073, 428.0008
367.1894, 435.8969
367.6715, 448.0728
368.1537, 458.3788
368.6358, 469.7426
369.1179, 473.6573
369.6000, 468.4899
370.0821, 457.7524
370.5642, 443.3428
371.0464, 425.8073
371.5285, 405.2894
372.0106, 381.6387
372.4927, 354.8237
372.9748, 326.9497
373.4569, 299.4487
373.9391, 268.7805
374.4212, 230.1432
374.9033, 188.6800
375.3854, 152.4836
375.8675, 126.3091
376.3496, 104.1721
376.8318, 74.74420
377.3139, 37.16669
377.7960, 9.276672
378.2781, 0.5922850
378.7602, 0.2155760
379.2423, 1.819336
379.7245, 5.759460
380.2066, 7.058411
380.6887, 0.5822140
381.1708, 10.94830
381.6529, 12.23749
382.1350, 2.510742
382.6172, 8.518188
383.0993, 11.39099
383.5814, 7.625122
384.0635, 14.38910
384.5456, 45.99280
385.0277, 73.17889
385.5099, 79.30670
385.9920, 71.46759
386.4741, 64.22473
386.9562, 63.57324
387.4383, 66.28699
387.9204, 66.02429
388.4026, 60.10321
388.8847, 56.10040
389.3668, 54.92224
389.8489, 54.76965
390.3310, 56.68237
390.8131, 59.06866
391.2953, 56.38824
391.7774, 41.95514
392.2595, 18.06976
392.7416, 9.265686
393.2237, 29.27368
393.7058, 44.38873
394.1880, 42.23981
394.6701, 32.94647
395.1522, 28.23425
395.6343, 32.00836
396.1164, 37.59387
396.5985, 37.88354
397.0807, 32.87866
397.5628, 22.29590
398.0449, 0.3046260
398.5270, 19.96051
399.0091, 22.38202
399.4912, 10.95447
399.9734, 1.426575
400.4555, 1.014832
400.9376, 4.799316
401.4197, 9.214905
401.9018, 13.79572
402.3839, 12.15375
402.8660, 0.7643430
403.3481, 21.07349
403.8303, 37.21851
404.3124, 47.53992
404.7945, 57.87390
405.2766, 71.23615
405.7587, 84.68085
406.2408, 93.94653
406.7230, 98.49384
407.2051, 102.3212
407.6872, 109.6157
408.1693, 120.7311
408.6514, 132.0136
409.1335, 141.6596
409.6157, 153.3987
410.0978, 168.1475
410.5799, 185.8481
411.0620, 206.1102
411.5441, 228.9637
412.0262, 255.1003
412.5084, 285.7545
412.9905, 321.6761
413.4726, 358.8722
413.9547, 399.7164
414.4368, 438.2399
414.9189, 468.8579
415.4011, 493.6541
415.8832, 521.5054
416.3653, 559.5009
416.8474, 603.3179
417.3295, 640.7397
417.8116, 669.3046
418.2938, 706.9385
418.7759, 768.8940
419.2580, 844.6299
419.7401, 912.0757
420.2222, 969.6816
420.7043, 1021.322
421.1865, 1062.444
421.6686, 1100.917
422.1507, 1148.966
422.6328, 1209.209
423.1149, 1274.933
423.5970, 1340.708
424.0792, 1407.289
424.5613, 1464.802
425.0434, 1518.229
425.5255, 1558.968
426.0076, 1578.833
426.4897, 1584.613
426.9719, 1588.909
427.4540, 1597.337
427.9361, 1603.309
428.4182, 1593.459
428.9003, 1564.201
429.3824, 1528.206
429.8646, 1481.801
430.3467, 1432.604
430.8288, 1382.042
431.3109, 1331.818
431.7930, 1285.859
432.2751, 1248.369
432.7573, 1215.855
433.2394, 1178.040
433.7215, 1132.899
434.2036, 1093.262
434.6857, 1064.462
435.1678, 1044.531
435.6500, 1029.803
436.1321, 1020.333
436.6142, 1015.812
437.0963, 1020.004
437.5784, 1027.698
438.0605, 1027.039
438.5427, 1016.543
439.0248, 1013.768
439.5069, 1037.041
439.9890, 1084.642
440.4711, 1113.733
440.9532, 1117.574
441.4354, 1114.200
441.9175, 1104.590
442.3996, 1092.289
442.8817, 1082.584
443.3638, 1076.798
443.8459, 1070.272
444.3281, 1056.326
444.8102, 1033.590
445.2923, 1010.043
445.7744, 993.6240
446.2565, 967.7724
446.7386, 920.0805
447.2208, 859.8627
447.7029, 804.5005
448.1850, 762.9996
448.6671, 727.5171
449.1492, 686.7129
449.6313, 640.3893
450.1135, 593.9216
450.5956, 547.3325
451.0777, 502.9267
451.5598, 460.9581
452.0419, 421.5519
452.5240, 392.0359
453.0062, 379.8373
453.4883, 374.7310
453.9704, 368.7988
454.4525, 361.3350
454.9346, 350.8175
455.4167, 335.1750
455.8989, 318.3516
456.3810, 310.8387
456.8631, 323.9824
457.3452, 332.3417
457.8273, 334.0907
458.3094, 331.4182
458.7916, 324.4166
459.2737, 314.2618
459.7558, 304.2593
460.2379, 297.7159
460.7200, 293.9224
461.2021, 286.8291
461.6843, 275.5021
462.1664, 262.5862
462.6485, 248.0652
463.1306, 232.8624
463.6127, 219.3904
464.0948, 208.0505
464.5770, 192.0714
465.0591, 162.4610
465.5412, 124.7047
466.0233, 92.69684
466.5054, 67.75665
466.9875, 48.89221
467.4697, 37.54205
467.9518, 32.08246
468.4339, 23.94965
468.9160, 11.58618
469.3981, 1.413025
469.8802, 16.42084
470.3624, 30.36035
470.8445, 37.72949
471.3266, 37.76355
471.8087, 36.11029
472.2908, 39.53070
472.7729, 48.90149
473.2551, 52.79547
473.7372, 49.36566
474.2193, 41.98407
474.7014, 26.15759
475.1835, 8.769531
475.6656, 1.209961
476.1478, 0.6305540
476.6299, 4.608643
477.1120, 10.91040
477.5941, 17.70801
478.0762, 11.59814
478.5583, 16.58893
479.0405, 43.85193
479.5226, 49.92120
480.0047, 41.50714
480.4868, 33.96283
480.9689, 27.55396
481.4510, 25.72083
481.9332, 32.87134
482.4153, 46.07507
482.8974, 59.31720
483.3795, 70.70343
483.8616, 80.48370
484.3438, 88.34210
484.8259, 93.00183
485.3080, 102.2974
485.7901, 122.6147
486.2722, 139.9880
486.7543, 146.7873
487.2365, 147.6500
487.7186, 150.1139
488.2007, 157.3459
488.6828, 167.7255
489.1649, 179.6183
489.6470, 193.4264
490.1292, 204.6628
490.6113, 210.9608
491.0934, 217.0662
491.5755, 227.0659
492.0576, 239.3272
492.5397, 249.4580
493.0219, 255.7273
493.5040, 259.8032
493.9861, 263.2139
494.4682, 265.6753
494.9503, 265.3912
495.4324, 261.3021
495.9146, 257.1805
496.3967, 258.8619
496.8788, 268.9402
497.3609, 271.6808
497.8430, 256.6786
498.3251, 245.5731
498.8073, 251.9885
499.2894, 268.1998
499.7715, 280.5582
500.2536, 283.2515
500.7357, 280.0497
501.2178, 276.6450
501.6999, 273.0624
502.1820, 269.0618
502.6642, 264.2532
503.1463, 259.4659
503.6284, 253.9709
504.1105, 248.9161
504.5926, 247.1324
505.0747, 251.0031
505.5569, 256.2581
506.0390, 259.8694
506.5211, 261.6522
507.0032, 259.7252
507.4853, 252.8079
507.9674, 246.4248
508.4496, 247.0553
508.9317, 255.6425
509.4138, 264.8700
509.8959, 274.7932
510.3780, 285.2731
510.8601, 297.6796
511.3423, 310.1948
511.8244, 319.1338
512.3065, 323.4495
512.7886, 327.6439
513.2708, 338.5903
513.7529, 357.1978
514.2350, 373.9879
514.7171, 385.0984
515.1992, 399.8722
515.6813, 425.1891
516.1635, 456.3554
516.6456, 484.8713
517.1277, 507.2224
517.6098, 530.4014
518.0919, 563.0892
518.5740, 600.4115
519.0562, 629.1021
519.5383, 646.1249
520.0204, 663.0812
520.5025, 691.8199
520.9846, 731.7932
521.4667, 761.8560
521.9489, 780.1113
522.4310, 792.2874
522.9131, 796.7402
523.3952, 797.3190
523.8773, 798.5585
524.3594, 801.1179
524.8416, 801.7333
525.3237, 797.8658
525.8058, 789.3288
526.2879, 774.3398
526.7700, 753.1740
527.2521, 723.5968
527.7343, 676.1624
528.2164, 623.3691
528.6985, 580.8427
529.1806, 552.5434
529.6627, 523.4256
530.1448, 482.9487
530.6270, 437.9675
531.1091, 399.0402
531.5912, 367.5486
532.0733, 338.9390
532.5554, 310.0450
533.0375, 283.0704
533.5197, 265.8934
534.0018, 270.9399
534.4839, 265.4713
534.9660, 240.8801
535.4481, 211.5611
535.9302, 185.9310
536.4124, 166.5311
536.8945, 152.4645
537.3766, 144.6642
537.8587, 140.9897
538.3408, 137.9817
538.8229, 136.0604
539.3051, 131.4238
539.7872, 120.7067
540.2693, 109.6191
540.7514, 106.7234
541.2335, 111.4086
541.7156, 111.4004
542.1978, 99.87109
542.6799, 86.85773
543.1620, 80.96814
543.6441, 78.81146
544.1262, 70.63092
544.6083, 52.65131
545.0905, 33.41071
545.5726, 26.98175
546.0547, 37.19781
546.5368, 42.21289
547.0189, 38.12689
547.5010, 32.99249
547.9832, 25.82739
548.4653, 20.47449
548.9474, 23.82361
549.4295, 39.15979
549.9116, 55.45563
550.3937, 60.47382
550.8759, 58.55463
551.3579, 62.83783
551.8400, 75.09949
552.3221, 91.94678
552.8043, 112.0127
553.2864, 134.4311
553.7685, 154.6463
554.2506, 169.0851
554.7327, 186.3376
555.2148, 209.3518
555.6970, 234.4999
556.1791, 261.1357
556.6612, 287.3054
557.1433, 307.3618
557.6254, 316.0262
558.1075, 316.9125
558.5897, 321.4317
559.0718, 329.4330
559.5539, 341.8152
560.0360, 361.8455
560.5181, 383.7399
561.0002, 400.2294
561.4824, 412.2670
561.9645, 430.2537
562.4466, 467.4465
562.9287, 503.2587
563.4108, 518.1642
563.8929, 518.2508
564.3751, 519.7567
564.8572, 528.4691
565.3393, 540.3676
565.8214, 551.2817
566.3035, 563.6383
566.7856, 560.5833
567.2678, 534.1185
567.7499, 500.2573
568.2320, 455.4266
568.7141, 409.0447
569.1962, 374.0442
569.6783, 354.2132
570.1605, 336.4969
570.6426, 307.3254
571.1247, 272.2445
571.6068, 247.8854
572.0889, 235.9059
572.5710, 222.7324
573.0532, 198.6429
573.5353, 169.1272
574.0174, 150.0482
574.4995, 147.2843
574.9816, 143.5027
575.4637, 131.5696
575.9459, 123.2432
576.4280, 131.0011
576.9101, 149.5492
577.3922, 162.5289
577.8743, 159.6065
578.3564, 151.6696
578.8386, 160.2247
579.3207, 186.3020
579.8028, 214.1643
580.2849, 246.7357
580.7670, 272.1382
581.2491, 277.0586
581.7313, 266.7689
582.2134, 255.6382
582.6955, 246.4865
583.1776, 235.4862
583.6597, 222.4519
584.1418, 205.8273
584.6240, 181.4467
585.1061, 149.7903
585.5882, 118.4633
586.0703, 94.56451
586.5524, 76.65680
587.0345, 55.62842
587.5167, 28.64008
587.9988, 4.716553
588.4809, 16.70721
588.9630, 32.45929
589.4451, 37.36334
589.9272, 32.94983
590.4094, 29.81140
590.8915, 35.49817
591.3736, 42.47754
591.8557, 42.72797
592.3378, 37.73242
592.8199, 32.03528
593.3021, 27.02130
593.7842, 22.98511
594.2663, 20.84375
594.7484, 21.24158
595.2305, 17.26239
595.7126, 7.463257
596.1948, 5.291138
596.6769, 23.37286
597.1590, 42.45184
597.6411, 57.70435
598.1232, 68.43414
598.6053, 78.41193
599.0875, 86.49219
599.5696, 97.13635
600.0517, 124.7759
600.5338, 168.9586
601.0159, 202.8952
601.4980, 211.9242
601.9802, 210.5654
602.4623, 223.1167
602.9444, 254.5880
603.4265, 284.5467
603.9086, 310.3694
604.3907, 337.3484
604.8729, 370.4125
605.3550, 405.4607
605.8371, 433.3812
606.3192, 451.5837
606.8013, 473.3593
607.2834, 515.0200
607.7656, 573.8620
608.2477, 633.0162
608.7298, 690.5294
609.2119, 756.1106
609.6940, 836.7560
610.1761, 927.1707
610.6583, 1015.431
611.1404, 1099.666
611.6225, 1188.820
612.1046, 1284.180
612.5867, 1384.747
613.0688, 1491.126
613.5510, 1602.350
614.0331, 1717.323
614.5152, 1835.802
614.9973, 1956.363
615.4794, 2077.706
615.9615, 2200.492
616.4437, 2322.813
616.9258, 2441.905
617.4079, 2568.143
617.8900, 2712.548
618.3721, 2867.354
618.8542, 3015.794
619.3364, 3154.408
619.8185, 3293.559
620.3006, 3433.788
620.7827, 3577.909
621.2648, 3729.883
621.7469, 3886.953
622.2291, 4039.323
622.7112, 4181.275
623.1933, 4321.222
623.6754, 4480.688
624.1575, 4664.356
624.6396, 4830.725
625.1218, 4988.374
625.6039, 5110.112
626.0860, 5174.852
626.5681, 5194.872
627.0502, 5187.927
627.5323, 5157.375
628.0145, 5096.718
628.4966, 5006.031
628.9787, 4881.731
629.4608, 4709.090
629.9429, 4496.289
630.4250, 4272.605
630.9072, 4053.755
631.3893, 3835.605
631.8714, 3610.554
632.3535, 3377.798
632.8356, 3142.097
633.3177, 2890.624
633.7999, 2652.490
634.2820, 2445.416
634.7641, 2262.962
635.2462, 2092.166
635.7283, 1931.216
636.2104, 1781.954
636.6926, 1647.395
637.1747, 1525.046
637.6568, 1410.748
638.1389, 1304.359
638.6210, 1209.576
639.1031, 1127.905
639.5853, 1055.588
640.0674, 982.1705
640.5495, 905.5892
641.0316, 840.6618
641.5137, 796.0551
641.9958, 752.6891
642.4780, 697.0581
642.9601, 636.2785
643.4422, 581.4997
643.9243, 532.5709
644.4064, 497.0319
644.8885, 490.3115
645.3707, 491.5020
645.8528, 473.0258
646.3349, 436.9193
646.8170, 404.5702
647.2991, 388.5793
647.7813, 382.2554
648.2634, 370.3132
648.7455, 349.9953
649.2276, 335.3943
649.7097, 333.4337
650.1918, 329.2413
650.6740, 312.1981
651.1561, 288.9771
651.6382, 270.3505
652.1203, 258.7099
652.6024, 247.0775
653.0845, 227.7679
653.5667, 211.0215
654.0488, 210.2643
654.5309, 221.5770
655.0130, 230.5020
655.4951, 229.9280
655.9772, 225.4471
656.4594, 228.2413
656.9415, 240.4327
657.4236, 242.2020
657.9057, 228.3583
658.3878, 213.1356
658.8699, 203.0910
659.3521, 195.8105
659.8342, 187.2190
660.3163, 175.9006
660.7984, 169.2401
661.2805, 170.8937
661.7626, 177.0275
662.2448, 187.0162
662.7269, 198.5259
663.2090, 206.8939
663.6911, 210.3180
664.1732, 210.7572
664.6553, 210.9237
665.1375, 210.7833
665.6196, 207.4421
666.1017, 199.5630
666.5838, 192.4772
667.0659, 189.8434
667.5480, 188.1347
668.0302, 181.1282
668.5123, 167.9076
668.9944, 158.8683
669.4765, 161.2308
669.9586, 163.1045
670.4407, 155.8743
670.9229, 144.0400
671.4050, 134.7048
671.8871, 130.0090
672.3692, 128.1342
672.8513, 129.6456
673.3334, 132.1476
673.8156, 122.1103
674.2977, 96.98706
674.7798, 79.24310
675.2619, 78.33142
675.7440, 84.42279
676.2261, 86.65399
676.7083, 84.81433
677.1904, 82.75555
677.6725, 81.73010
678.1546, 79.07922
678.6367, 72.99524
679.1188, 65.41901
679.6010, 58.25970
680.0831, 51.83978
680.5652, 45.44849
681.0473, 37.49915
681.5294, 30.61591
682.0115, 31.40491
682.4937, 38.97699
682.9758, 44.32996
683.4579, 45.88947
683.9400, 42.43689
684.4221, 30.75171
684.9042, 12.56207
685.3864, 3.136902
685.8685, 12.38037
686.3506, 16.82837
686.8327, 9.993286
687.3148, 2.107971
687.7969, 2.368530
688.2791, 7.640381
688.7612, 7.066406
689.2433, 6.564941
689.7254, 20.06366
690.2075, 17.23792
690.6896, 4.806335
691.1718, 0.9557500
691.6539, 1.666992
692.1360, 5.245239
692.6181, 4.954651
693.1002, 3.131409
693.5823, 6.390747
694.0645, 18.95172
694.5466, 25.92688
695.0287, 22.53650
695.5108, 18.84857
695.9929, 20.28174
696.4750, 23.33557
696.9572, 21.62360
697.4393, 12.93542
697.9214, 7.255554
698.4035, 13.78473
698.8856, 22.65521
699.3677, 23.39392
699.8499, 17.34460
700.3320, 9.092407
700.8141, 0.5196530
701.2962, 6.009033
701.7783, 6.670471
702.2604, 1.755310
702.7426, 0.2477420
703.2247, 1.396179
703.7068, 3.564209
704.1889, 3.160522
704.6710, 4.758057
705.1531, 15.27350
705.6353, 34.36499
706.1174, 51.01672
706.5995, 65.63971
707.0816, 75.45593
707.5637, 74.51306
708.0458, 70.80743
708.5280, 74.28687
709.0101, 85.44849
709.4922, 97.48700
709.9743, 105.5391
710.4564, 111.6795
710.9385, 121.5327
711.4207, 134.1702
711.9028, 138.3242
712.3849, 129.9144
712.8670, 123.7039
713.3491, 131.8905
713.8312, 151.2184
714.3134, 167.0264
714.7955, 179.1046
715.2776, 187.7447
715.7597, 191.5670
716.2418, 193.4959
716.7239, 193.3010
717.2061, 192.8400
717.6882, 195.9160
718.1703, 204.3131
718.6524, 212.0606
719.1345, 212.9674
719.6166, 211.6129
720.0988, 214.2169
720.5809, 221.0128
721.0630, 231.2430
721.5451, 244.7106
722.0272, 259.2667
722.5093, 271.3708
722.9915, 280.7670
723.4736, 294.7013
723.9557, 318.2777
724.4378, 334.7581
724.9199, 332.4205
725.4020, 325.2330
725.8842, 329.9446
726.3663, 345.9988
726.8484, 357.5354
727.3305, 361.5439
727.8126, 360.6674
728.2947, 348.6217
728.7769, 336.7894
729.2590, 342.5967
729.7411, 364.0924
730.2232, 380.8018
730.7053, 377.2233
731.1874, 366.0236
731.6696, 369.8640
732.1517, 386.6985
732.6338, 400.8473
733.1159, 409.3480
733.5980, 420.5427
734.0801, 440.4636
734.5623, 466.9034
735.0444, 493.1609
735.5265, 516.9863
736.0086, 545.1258
736.4907, 575.9349
736.9728, 612.7617
737.4550, 659.8658
737.9371, 712.5748
738.4192, 763.3724
738.9013, 810.6989
739.3834, 860.7951
739.8655, 914.1738
740.3477, 973.9767
740.8298, 1048.266
741.3119, 1130.939
741.7940, 1207.991
742.2761, 1275.048
742.7582, 1334.265
743.2404, 1387.365
743.7225, 1434.638
744.2046, 1478.486
744.6867, 1519.183
745.1688, 1553.580
745.6509, 1583.274
746.1331, 1602.318
746.6152, 1608.736
747.0973, 1600.182
747.5794, 1565.426
748.0615, 1499.181
748.5436, 1418.686
749.0257, 1317.395
749.5078, 1208.547
749.9899, 1097.433
750.4720, 987.2778
750.9542, 881.9335
751.4363, 781.8848
751.9184, 686.9617
752.4005, 592.0706
752.8826, 505.4034
753.3647, 445.0140
753.8469, 406.3113
754.3290, 365.9601
754.8111, 315.0252
755.2932, 263.1448
755.7753, 221.5474
756.2574, 189.4639
756.7396, 164.9543
757.2217, 152.4090
757.7038, 136.9401
758.1859, 111.1014
758.6680, 84.83142
759.1501, 67.22662
759.6323, 57.37708
760.1144, 52.21332
760.5965, 55.12567
761.0786, 57.78412
761.5607, 60.15063
762.0428, 59.63916
762.5250, 50.09314
763.0071, 36.10651
763.4892, 30.29785
763.9713, 39.19476
764.4534, 50.84454
764.9355, 49.54315
765.4177, 42.97034
765.8998, 51.39990
766.3819, 73.54187
766.8640, 88.63141
767.3461, 87.18842
767.8282, 80.56592
768.3104, 85.38782
768.7925, 102.0557
769.2746, 111.9864
769.7567, 108.9931
770.2388, 112.9598
770.7209, 135.4464
771.2031, 162.0401
771.6852, 178.4809
772.1673, 185.9900
772.6494, 193.6329
773.1315, 197.2427
773.6136, 208.9539
774.0958, 238.7013
774.5779, 271.0164
775.0600, 291.9175
775.5421, 305.2594
776.0242, 322.8450
776.5063, 349.6602
776.9885, 381.4913
777.4706, 419.7635
777.9527, 458.1498
778.4348, 477.2417
778.9169, 480.0989
779.3990, 494.9684
779.8812, 533.7076
780.3633, 580.6098
780.8454, 616.2449
781.3275, 641.1987
781.8096, 666.2590
782.2917, 691.2176
782.7739, 717.5163
783.2560, 749.1572
783.7381, 778.5749
784.2202, 794.2216
784.7023, 799.2484
785.1844, 813.6409
785.6666, 849.7134
786.1487, 878.9338
786.6308, 894.8842
787.1129, 903.5933
787.5950, 908.8576
788.0771, 910.2432
788.5593, 906.3068
789.0414, 896.6945
789.5235, 881.7015
790.0056, 855.4843
790.4877, 826.6043
790.9698, 811.7099
791.4520, 805.7742
791.9341, 790.4485
792.4162, 760.2487
792.8983, 721.3279
793.3804, 677.9525
793.8625, 632.7902
794.3447, 597.8915
794.8268, 574.1577
795.3089, 551.1194
795.7910, 527.1229
796.2731, 502.8940
796.7552, 478.0775
797.2374, 453.6986
797.7195, 433.2183
798.2016, 422.1409
798.6837, 404.1057
799.1658, 369.8863
799.6479, 339.0096
800.1301, 321.3636
800.6122, 311.3439
801.0943, 302.0366
801.5764, 292.1712
802.0585, 283.0106
802.5406, 275.2094
803.0228, 268.2767
803.5049, 263.0315
803.9870, 257.9332
804.4691, 250.5718
804.9512, 240.6679
805.4333, 228.2272
805.9155, 212.0182
806.3976, 198.1035
806.8797, 204.4241
807.3618, 225.1939
807.8439, 217.9550
808.3260, 177.2562
808.8082, 142.8491
809.2903, 135.5843
809.7724, 143.0213
810.2545, 145.2929
810.7366, 142.2813
811.2188, 134.4164
811.7009, 116.0563
812.1830, 103.0823
812.6651, 106.2437
813.1472, 110.8862
813.6293, 102.0779
814.1115, 82.75696
814.5936, 70.09192
815.0757, 73.92603
815.5578, 73.72803
816.0399, 58.08133
816.5220, 41.41788
817.0042, 34.67502
817.4863, 36.05817
817.9684, 40.83527
818.4505, 47.52130
818.9326, 52.29160
819.4147, 51.72202
819.8969, 47.64838
820.3790, 41.58542
820.8611, 34.30457
821.3432, 26.88260
821.8253, 19.92712
822.3074, 17.03790
822.7896, 22.69946
823.2717, 32.22089
823.7538, 29.85431
824.2359, 15.17999
824.7180, 4.515778
825.2001, 0.3256230
825.6823, 1.707428
826.1644, 4.495087
826.6465, 6.239960
827.1286, 2.318420
827.6107, 10.60602
828.0928, 16.55661
828.5750, 9.185028
829.0571, 3.309784
829.5392, 5.818939
830.0213, 9.171143
830.5034, 4.398346
830.9855, 7.090179
831.4677, 13.24957
831.9498, 5.816986
832.4319, 0.2147830
832.9140, 3.064270
833.3961, 9.521606
833.8782, 16.62073
834.3604, 23.37595
834.8425, 29.78757
835.3246, 35.90240
835.8067, 37.92596
836.2888, 30.83359
836.7709, 18.70334
837.2531, 5.420868
837.7352, 7.453613
838.2173, 15.82379
838.6994, 18.66553
839.1815, 17.44046
839.6636, 12.98148
840.1458, 6.306732
840.6279, 1.200134
841.1100, 9.544922
841.5921, 9.888031
842.0742, 0.1966550
842.5563, 10.49649
843.0385, 15.61496
843.5206, 17.04108
844.0027, 17.28970
844.4848, 16.20392
844.9669, 14.99426
845.4490, 14.79361
845.9312, 12.65335
846.4133, 4.340363
846.8954, 3.297943
847.3775, 4.394318
847.8596, 6.6986002E-02
848.3417, 5.215393
848.8239, 12.07349
849.3060, 16.76868
849.7881, 18.68158
850.2702, 17.81110
850.7523, 11.22476
851.2344, 2.946289
851.7166, 1.6876001E-02
852.1987, 3.915619
852.6808, 9.091309
853.1629, 12.16217
853.6450, 14.57114
854.1271, 17.79785
854.6093, 21.36221
855.0914, 25.27219
855.5735, 28.79797
856.0556, 28.33899
856.5377, 20.99438
857.0198, 12.55600
857.5020, 13.33734
857.9841, 20.79202
858.4662, 24.16382
858.9483, 23.00238
859.4304, 20.42447
859.9125, 17.22198
860.3947, 17.06482
860.8768, 25.65799
861.3589, 41.15747
861.8410, 46.29849
862.3231, 37.21210
862.8052, 34.58356
863.2874, 45.26068
863.7695, 55.27786
864.2516, 53.48227
864.7337, 45.42874
865.2158, 44.85715
865.6979, 52.84656
866.1801, 65.34518
866.6622, 91.28540
867.1443, 110.4550
867.6264, 112.8583
868.1085, 109.0312
868.5906, 107.7063
869.0728, 109.4615
869.5549, 113.4038
870.0370, 121.4710
870.5191, 128.3207
871.0012, 130.0636
871.4833, 131.6039
871.9655, 136.4471
872.4476, 144.3085
872.9297, 155.1619
873.4118, 168.7698
873.8939, 179.9849
874.3760, 182.6381
874.8582, 183.2471
875.3403, 190.4465
875.8224, 200.2180
876.3045, 204.5516
876.7866, 202.8104
877.2687, 199.7599
877.7509, 198.1130
878.2330, 197.4800
878.7151, 198.6464
879.1972, 200.2861
879.6793, 195.8046
880.1614, 185.8466
880.6436, 181.3578
881.1257, 186.3076
881.6078, 191.1648
882.0899, 184.6521
882.5720, 170.6323
883.0541, 169.2569
883.5363, 183.0064
884.0184, 188.6430
884.5005, 181.0585
884.9826, 173.6790
885.4647, 175.7780
885.9468, 179.6753
886.4290, 169.7243
886.9111, 141.1671
887.3932, 130.9731
887.8753, 153.7621
888.3574, 169.9111
888.8395, 162.1419
889.3217, 152.2905
889.8038, 160.9523
890.2859, 181.9008
890.7680, 193.3825
891.2501, 186.4553
891.7322, 186.5530
892.2144, 206.9893
892.6965, 224.1017
893.1786, 225.2921
893.6607, 218.1946
894.1428, 209.5593
894.6249, 201.5881
895.1071, 201.1050
895.5892, 218.0499
896.0713, 231.8009
896.5534, 226.4175
897.0355, 216.9086
897.5176, 218.7778
897.9998, 228.8355
898.4819, 235.2760
898.9640, 234.1977
899.4461, 236.5985
899.9282, 254.5397
900.4103, 277.8066
900.8925, 293.8627
901.3746, 305.8307
901.8567, 319.8527
902.3388, 337.1465
902.8209, 356.2116
903.3030, 376.0375
903.7852, 399.1400
904.2673, 428.2299
904.7494, 462.8741
905.2315, 503.7540
905.7136, 550.8620
906.1957, 603.3741
906.6779, 660.7047
907.1600, 715.7307
907.6421, 759.7500
908.1242, 801.8785
908.6063, 873.9711
909.0884, 975.9331
909.5706, 1055.610
910.0527, 1105.423
910.5348, 1162.584
911.0169, 1244.080
911.4990, 1339.107
911.9811, 1434.208
912.4633, 1528.953
912.9454, 1627.280
913.4275, 1735.612
913.9096, 1827.814
914.3917, 1906.037
914.8738, 1956.710
915.3560, 1973.435
915.8381, 1956.130
916.3202, 1902.744
916.8023, 1808.054
917.2844, 1701.522
917.7665, 1577.279
918.2487, 1449.253
918.7308, 1310.185
919.2129, 1177.301
919.6950, 1063.927
920.1771, 966.9625
920.6592, 877.1751
921.1414, 791.8505
921.6235, 718.5782
922.1056, 664.1771
922.5877, 615.7450
923.0698, 567.5393
923.5519, 522.7570
924.0341, 485.1579
924.5162, 454.7735
924.9983, 428.3573
925.4804, 407.1766
925.9625, 386.3651
926.4446, 362.1959
926.9268, 339.5462
927.4089, 323.0138
927.8910, 310.1350
928.3731, 296.1306
928.8552, 280.1815
929.3373, 265.5035
929.8195, 255.5448
930.3016, 245.2852
930.7837, 230.3103
931.2658, 213.3316
931.7479, 195.6651
932.2300, 179.2717
932.7122, 169.6969
933.1943, 168.6262
933.6764, 165.4529
934.1585, 145.3973
934.6406, 123.0217
935.1227, 122.0670
935.6049, 131.0001
936.0870, 124.4510
936.5691, 102.1115
937.0512, 81.58398
937.5333, 71.94714
938.0154, 68.46796
938.4976, 68.63324
938.9797, 69.43311
939.4618, 62.47845
939.9439, 49.80499
940.4260, 39.81464
940.9081, 34.25720
941.3903, 29.71454
941.8724, 23.64764
942.3545, 18.11816
942.8366, 18.23151
943.3187, 22.35913
943.8008, 21.46283
944.2830, 15.60474
944.7651, 10.13831
945.2472, 6.661316
945.7293, 5.818481
946.2114, 8.974304
946.6935, 13.34247
947.1756, 9.472107
947.6577, 2.539124
948.1398, 9.562744
948.6219, 10.49603
949.1041, 8.853882
949.5862, 5.358215
950.0683, 3.311890
950.5504, 7.447693
951.0325, 15.63342
951.5146, 15.47510
951.9968, 5.652283
952.4789, 5.143982
952.9610, 17.60321
953.4431, 25.21423
953.9252, 24.38116
954.4073, 17.91144
954.8895, 8.340088
955.3716, 3.942200
955.8537, 7.298889
956.3358, 1.479553
956.8179, 9.773743
957.3000, 17.71436
957.7822, 21.04279
958.2643, 15.67596
958.7464, 5.913391
959.2285, 1.760498
959.7106, 7.785767
960.1927, 6.032227
960.6749, 9.637756
961.1570, 20.78888
961.6391, 23.39807
962.1212, 22.06934
962.6033, 16.41431
963.0854, 10.40320
963.5676, 13.82739
964.0497, 30.36609
964.5318, 38.93390
965.0139, 33.62097
965.4960, 28.91486
965.9781, 27.25635
966.4603, 27.32684
966.9424, 29.25653
967.4245, 32.07562
967.9066, 32.25751
968.3887, 26.03418
968.8708, 29.91058
969.3530, 58.70166
969.8351, 79.13440
970.3172, 75.77765
970.7993, 66.68097
971.2814, 66.91736
971.7635, 73.43170
972.2457, 74.75824
972.7278, 66.29932
973.2099, 63.61975
973.6920, 70.75214
974.1741, 81.62177
974.6563, 98.03308
975.1384, 113.9656
975.6205, 124.3810
976.1026, 129.5006
976.5847, 131.2081
977.0668, 128.1633
977.5490, 126.2584
978.0311, 123.0623
978.5132, 125.7203
978.9953, 143.3005
979.4774, 164.0980
979.9595, 173.9095
980.4417, 175.2089
980.9238, 183.6748
981.4059, 208.3059
981.8880, 226.2052
982.3701, 225.1381
982.8522, 221.7050
983.3344, 221.3874
983.8165, 226.0770
984.2986, 238.4945
984.7807, 258.0508
985.2628, 279.6171
985.7449, 304.9362
986.2271, 324.5610
986.7092, 333.5112
987.1913, 337.3868
987.6734, 333.9120
988.1555, 330.8998
988.6376, 339.9241
989.1198, 359.5054
989.6019, 375.4912
990.0840, 381.1661
990.5661, 386.6190
991.0482, 403.9871
991.5303, 413.8538
992.0125, 389.9754
992.4946, 358.6949
992.9767, 358.9496
993.4588, 390.1544
993.9409, 419.7087
994.4230, 441.0831
994.9052, 447.3775
995.3873, 422.6329
995.8694, 395.0577
996.3515, 384.5910
996.8336, 384.0297
997.3157, 382.9343
997.7979, 379.5447
998.2800, 376.1026
998.7621, 374.5693
999.2442, 370.5643
999.7263, 356.3247
1000.208, 345.0013
1000.691, 352.6418
1001.173, 365.9082
1001.655, 361.2235
1002.137, 340.1588
1002.619, 329.9595
1003.101, 345.9886
1003.583, 364.7833
1004.065, 378.8253
1004.547, 387.9599
1005.030, 388.2833
1005.512, 385.0043
1005.994, 384.5869
1006.476, 387.7767
1006.958, 391.7856
1007.440, 396.0744
1007.922, 400.3625
1008.404, 408.2137
1008.887, 411.7964
1009.369, 398.4265
1009.851, 382.5663
1010.333, 388.1551
1010.815, 411.5864
1011.297, 421.0221
1011.779, 398.8490
1012.261, 379.2983
1012.743, 379.6187
1013.226, 384.4828
1013.708, 387.4136
1014.190, 386.7234
1014.672, 378.1309
1015.154, 363.8692
1015.636, 354.9619
1016.118, 358.5383
1016.600, 357.0981
1017.083, 340.2595
1017.565, 320.4214
1018.047, 302.0468
1018.529, 287.1171
1019.011, 281.3055
1019.493, 280.7669
1019.975, 268.8561
1020.457, 234.5185
1020.939, 209.6822
1021.422, 214.0121
1021.904, 219.4641
1022.386, 210.5065
1022.868, 196.1145
1023.350, 186.9186
1023.832, 181.4229
1024.314, 170.8567
1024.796, 151.2358
1025.279, 134.5439
1025.761, 122.8304
1026.243, 116.1656
1026.725, 119.9487
1027.207, 124.3659
1027.689, 120.1597
1028.171, 109.0649
1028.653, 97.05597
1029.135, 83.79599
1029.618, 74.64197
1030.100, 71.71707
1030.582, 71.43311
1031.064, 72.26331
1031.546, 75.58752
1032.028, 88.38403
1032.510, 103.2152
1032.992, 100.7456
1033.474, 74.85181
1033.957, 55.39444
1034.439, 49.06995
1034.921, 43.78540
1035.403, 34.85995
1035.885, 28.12704
1036.367, 29.06354
1036.849, 34.37207
1037.331, 39.00903
1037.814, 44.01053
1038.296, 40.22427
1038.778, 16.15405
1039.260, 1.184540
1039.742, 5.065063
1040.224, 11.40631
1040.706, 12.49683
1041.188, 9.931915
1041.671, 4.227142
1042.153, 5.009003
1042.635, 3.632141
1043.117, 16.31494
1043.599, 29.89890
1044.081, 33.06964
1044.563, 32.73798
1045.045, 32.39410
1045.527, 29.47220
1046.010, 18.31967
1046.492, 0.6554260
1046.974, 2.046692
1047.456, 16.32629
1047.938, 29.99417
1048.420, 38.55853
1048.902, 38.20157
1049.384, 25.06339
1049.866, 7.181976
1050.349, 8.872467
1050.831, 21.14160
1051.313, 19.16937
1051.795, 0.1631160
1052.277, 12.32925
1052.759, 16.05826
1053.241, 14.66257
1053.723, 8.219818
1054.205, 1.695801
1054.688, 0.6666870
1055.170, 7.0648000E-02
1055.652, 1.002319
1056.134, 2.524689
1056.616, 3.072998
1057.098, 2.654114
1057.580, 1.545013
1058.062, 10.51898
1058.545, 18.43317
1059.027, 21.76727
1059.509, 19.23999
1059.991, 4.296143
1060.473, 16.93689
1060.955, 18.49957
1061.437, 4.333862
1061.919, 1.678101
1062.401, 3.559814
1062.884, 8.440948
1063.366, 7.376892
1063.848, 6.510193
1064.330, 13.43890
1064.812, 23.78363
1065.294, 30.19400
1065.776, 33.57333
1066.258, 34.29736
1066.740, 33.68839
1067.223, 36.99905
1067.705, 44.75644
1068.187, 50.66647
1068.669, 47.48853
1069.151, 43.54269
1069.633, 53.20050
1070.115, 66.23212
1070.597, 65.09314
1071.080, 54.24963
1071.562, 45.18182
1072.044, 41.33844
1072.526, 44.44666
1073.008, 58.11661
1073.490, 71.64215
1073.972, 77.55313
1074.454, 78.89740
1074.937, 75.05148
1075.419, 70.55701
1075.901, 72.02649
1076.383, 78.93369
1076.865, 86.46466
1077.347, 93.60751
1077.829, 98.70724
1078.311, 100.1959
1078.793, 100.4938
1079.276, 100.7100
1079.758, 100.9259
1080.240, 100.4610
1080.722, 99.09805
1081.204, 95.81860
1081.686, 89.72681
1082.168, 88.26712
1082.650, 94.07809
1083.132, 102.8616
1083.615, 120.6420
1084.097, 133.5789
1084.579, 128.8983
1085.061, 116.6134
1085.543, 110.7845
1086.025, 111.4669
1086.507, 119.1997
1086.989, 144.8427
1087.472, 154.3980
1087.954, 135.0496
1088.436, 121.0760
1088.918, 129.0184
1089.400, 141.5099
1089.882, 140.5181
1090.364, 130.0380
1090.846, 126.1710
1091.328, 131.0385
1091.811, 129.1890
1092.293, 118.6888
1092.775, 112.8452
1093.257, 115.9498
1093.739, 118.8323
1094.221, 114.7687
1094.703, 107.7378
1095.185, 104.8576
1095.667, 105.6284
1096.150, 107.2405
1096.632, 109.5406
1097.114, 111.2480
1097.596, 112.1945
1098.078, 112.0304
1098.560, 110.6016
1099.042, 106.4277
1099.524, 95.61160
1100.007, 84.26712
1100.489, 86.50372
1100.971, 97.42615
1101.453, 108.1633
1101.935, 116.0938
1102.417, 115.3324
1102.899, 105.6623
1103.381, 96.14923
1103.864, 92.68384
1104.346, 89.88336
1104.828, 82.85931
1105.310, 74.52017
1105.792, 63.82162
1106.274, 55.35156
1106.756, 58.95361
1107.238, 70.91760
1107.720, 75.95847
1108.203, 67.99524
1108.685, 57.93228
1109.167, 48.85709
1109.649, 43.87738
1110.131, 44.08463
1110.613, 46.68198
1111.095, 51.90466
1111.577, 56.97571
1112.059, 57.02319
1112.542, 51.61075
1113.024, 45.62033
1113.506, 39.86517
1113.988, 32.87259
1114.470, 18.45499
1114.952, 11.80844
1115.434, 26.45609
1115.916, 40.44250
1116.399, 29.41074
1116.881, 2.113129
1117.363, 9.117615
1117.845, 0.3505860
1118.327, 4.646362
1118.809, 1.950226
1119.291, 0.3030700
1119.773, 1.813416
1120.255, 1.607544
1120.738, 4.555969
1121.220, 11.09698
1121.702, 9.172028
1122.184, 0.1719060
1122.666, 12.67291
1123.148, 27.01022
1123.630, 24.21262
1124.112, 5.689728
1124.594, 4.888275
1125.077, 0.3218080
1125.559, 9.195282
1126.041, 11.82303
1126.523, 13.73923
1127.005, 27.49200
1127.487, 41.64972
1127.969, 34.48135
1128.451, 15.69409
1128.934, 5.089508
1129.416, 4.542786
1129.898, 5.417084
1130.380, 4.143982
1130.862, 6.117279
1131.344, 21.48871
1131.826, 32.38025
1132.308, 22.62885
1132.791, 8.783386
1133.273, 4.146790
1133.755, 6.901001
1134.237, 12.91519
1134.719, 21.42865
1135.201, 28.09467
1135.683, 36.88049
1136.165, 36.30954
1136.647, 13.32309
1137.130, 2.673065
1137.612, 0.2378850
1138.094, 10.52844
1138.576, 23.58325
1139.058, 36.45605
1139.540, 41.27850
1140.022, 36.42453
1140.504, 43.45770
1140.986, 66.21106
1141.469, 73.05890
1141.951, 56.95584
1142.433, 39.10568
1142.915, 29.52527
1143.397, 28.64490
1143.879, 38.95178
1144.361, 54.78674
1144.843, 61.13632
1145.326, 60.53125
1145.808, 60.42923
1146.290, 61.91724
1146.772, 68.07257
1147.254, 78.29904
1147.736, 84.83334
1148.218, 82.95776
1148.700, 78.61285
1149.182, 75.03488
1149.665, 73.92157
1150.147, 79.37537
1150.629, 86.47263
1151.111, 87.59644
1151.593, 85.56366
1152.075, 90.13474
1152.557, 102.6113
1153.039, 107.1776
1153.521, 89.41092
1154.004, 77.55627
1154.486, 80.41281
1154.968, 88.27139
1155.450, 99.25168
1155.932, 110.0201
1156.414, 118.0317
1156.896, 123.2828
1157.378, 124.5023
1157.861, 120.8197
1158.343, 119.3574
1158.825, 119.2835
1159.307, 126.3109
1159.789, 143.6456
1160.271, 155.8262
1160.753, 154.6508
1161.235, 148.0126
1161.718, 143.8363
1162.200, 143.6278
1162.682, 155.2682
1163.164, 174.1576
1163.646, 179.4731
1164.128, 174.2621
1164.610, 176.0782
1165.092, 187.4660
1165.574, 198.6624
1166.057, 204.7361
1166.539, 207.0689
1167.021, 201.8644
1167.503, 199.1300
1167.985, 211.6695
1168.467, 228.7267
1168.949, 236.9817
1169.431, 240.7191
1169.913, 250.5950
1170.396, 267.3469
1170.878, 281.8087
1171.360, 290.7004
1171.842, 299.1701
1172.324, 308.4948
1172.806, 316.8346
1173.288, 323.1321
1173.770, 329.1107
1174.253, 336.1302
1174.735, 343.7924
1175.217, 350.8268
1175.699, 358.6669
1176.181, 361.6746
1176.663, 359.3833
1177.145, 353.6090
1177.627, 344.3929
1178.109, 337.9656
1178.592, 336.1685
1179.074, 338.6693
1179.556, 347.4835
1180.038, 352.5937
1180.520, 329.8268
1181.002, 295.6850
1181.484, 286.9614
1181.966, 291.1504
1182.448, 281.1759
1182.931, 258.7626
1183.413, 240.8752
1183.895, 232.5916
1184.377, 228.3185
1184.859, 228.2165
1185.341, 227.1767
1185.823, 221.1717
1186.305, 214.7800
1186.788, 214.1453
1187.270, 212.7088
1187.752, 202.2073
1188.234, 184.4573
1188.716, 167.9772
1189.198, 153.1980
1189.680, 137.8864
1190.162, 117.3165
1190.645, 113.0021
1191.127, 133.4774
1191.609, 146.3974
1192.091, 137.1702
1192.573, 121.8268
1193.055, 115.5038
1193.537, 114.0156
1194.019, 107.6637
1194.501, 98.32681
1194.984, 94.55753
1195.466, 93.71552
1195.948, 84.64590
1196.430, 68.62250
1196.912, 57.43665
1197.394, 55.35910
1197.876, 57.69513
1198.358, 64.25952
1198.840, 68.96414
1199.323, 66.51743
1199.805, 61.74518
1200.287, 58.90314
1200.769, 55.43442
1201.251, 45.47910
1201.733, 32.29849
1202.215, 26.75418
1202.697, 30.79495
1203.180, 38.39096
1203.662, 54.40707
1204.144, 62.15027
1204.626, 57.14462
1205.108, 51.31601
1205.590, 49.34027
1206.072, 49.38632
1206.554, 50.88531
1207.036, 49.81631
1207.519, 31.34082
1208.001, 2.946991
1208.483, 1.369049
1208.965, 19.18640
1209.447, 30.63901
1209.929, 32.67258
1210.411, 31.60538
1210.893, 29.56406
1211.375, 23.37671
1211.858, 7.148376
1212.340, 4.838257
1212.822, 2.955597
1213.304, 12.13046
1213.786, 5.259399
1214.268, 3.696930
1214.750, 4.105560
1215.232, 21.46741
1215.715, 26.96075
1216.197, 18.20166
1216.679, 15.07690
1217.161, 21.26492
1217.643, 22.77130
1218.125, 17.20795
1218.607, 12.18222
1219.089, 10.06024
1219.572, 9.470764
1220.054, 9.258514
1220.536, 10.61652
1221.018, 17.39178
1221.500, 26.18375
1221.982, 27.26947
1222.464, 22.54660
1222.946, 12.38989
1223.428, 1.738525
1223.911, 6.894135
1224.393, 27.69199
1224.875, 37.95706
1225.357, 22.74005
1225.839, 6.822693
1226.321, 4.956909
1226.803, 5.861755
1227.285, 6.282898
1227.767, 8.669678
1228.250, 20.30933
1228.732, 31.93710
1229.214, 27.71490
1229.696, 11.48343
1230.178, 10.05643
1230.660, 28.59210
1231.142, 27.31564
1231.624, 2.810120
1232.107, 3.730469
1232.589, 15.44257
1233.071, 30.00748
1233.553, 25.10815
1234.035, 16.01355
1234.517, 18.08105
1234.999, 24.11703
1235.481, 23.51138
1235.964, 14.63840
1236.446, 13.16794
1236.928, 12.03308
1237.410, 6.188599
1237.892, 1.1322000E-02
1238.374, 2.369507
1238.856, 0.0000000E+00
##END=



