##NAMES=Uvarovite
##RRUFFID=R061041
##IDEAL CHEMISTRY=Ca_3_Cr_2_(SiO_4_)_3_
##LOCALITY=Outokumpu, Finland
##OWNER=RRUFF
##SOURCE=Royal Ontario Museum
##DESCRIPTION=Emerald-green euhedral crystal
##STATUS=The identification of this mineral has been confirmed by X-ray diffraction and chemical analysis
##URL=rruff.info/R061041
##MEASURED CHEMISTRY=(Ca_2.93_Mg_0.05_Mn_0.01_[box]_0.01_)_Σ=3.00_(Cr_1.23_Al_0.72_Fe^3+^_0.03_Ti_0.02_)_Σ=2_(Si_1.00_O_4_)_3_
187.0960, 0.0000000E+00
187.5781, 33.04834
188.0602, 60.18896
188.5423, 68.08301
189.0245, 83.11572
189.5066, 54.86865
189.9887, 22.88086
190.4708, 1.685059
190.9529, 5.559082
191.4350, 18.28857
191.9172, 50.45752
192.3993, 66.13037
192.8814, 62.62451
193.3635, 54.59424
193.8456, 42.88965
194.3277, 30.62305
194.8099, 18.73535
195.2920, 6.535645
195.7741, 0.3349610
196.2562, 9.208496
196.7383, 40.08740
197.2204, 63.85449
197.7026, 63.54639
198.1847, 56.99316
198.6668, 58.92676
199.1489, 73.99463
199.6310, 89.13965
200.1131, 85.13623
200.5953, 52.25879
201.0774, 32.40820
201.5595, 52.12354
202.0416, 80.74365
202.5237, 97.26318
203.0058, 96.96729
203.4880, 89.87451
203.9701, 87.93555
204.4522, 92.39941
204.9343, 92.81885
205.4164, 77.79102
205.8985, 63.18359
206.3807, 62.87402
206.8628, 79.51758
207.3449, 96.97998
207.8270, 94.90088
208.3091, 70.64844
208.7912, 54.07227
209.2734, 58.66406
209.7555, 67.98633
210.2376, 73.46191
210.7197, 73.87207
211.2018, 67.12207
211.6839, 42.46387
212.1661, 1.520508
212.6482, 20.35840
213.1303, 15.81836
213.6124, 62.07227
214.0945, 91.34082
214.5766, 101.6191
215.0588, 100.2891
215.5409, 83.23438
216.0230, 51.49512
216.5051, 45.14551
216.9872, 86.83398
217.4693, 140.0645
217.9515, 185.8838
218.4336, 222.6074
218.9157, 247.4424
219.3978, 251.0430
219.8799, 236.5117
220.3620, 233.6758
220.8442, 251.5244
221.3263, 275.3438
221.8084, 298.3174
222.2905, 319.3086
222.7726, 333.3613
223.2547, 330.9678
223.7369, 316.8477
224.2190, 317.5645
224.7011, 345.8281
225.1832, 372.3750
225.6653, 376.5830
226.1474, 363.3164
226.6296, 347.9648
227.1117, 331.3643
227.5938, 318.4756
228.0759, 328.6719
228.5580, 374.6465
229.0401, 419.2754
229.5223, 433.9268
230.0044, 429.0928
230.4865, 427.2871
230.9686, 439.1855
231.4507, 460.2705
231.9328, 482.1729
232.4150, 505.0762
232.8971, 528.1982
233.3792, 548.2998
233.8613, 568.5479
234.3434, 595.4590
234.8255, 633.1562
235.3077, 677.1436
235.7898, 720.8184
236.2719, 763.4668
236.7540, 811.3730
237.2361, 877.1465
237.7182, 955.4189
238.2004, 1034.721
238.6825, 1112.203
239.1646, 1184.977
239.6467, 1239.115
240.1288, 1275.573
240.6109, 1309.367
241.0931, 1363.284
241.5752, 1406.920
242.0573, 1398.376
242.5394, 1319.352
243.0215, 1213.571
243.5036, 1113.391
243.9858, 1018.997
244.4679, 917.9180
244.9500, 797.4951
245.4321, 675.5840
245.9142, 583.8096
246.3963, 527.0508
246.8785, 487.0605
247.3606, 462.5439
247.8427, 448.5166
248.3248, 427.0137
248.8069, 388.0586
249.2890, 347.7432
249.7712, 332.7871
250.2533, 347.2354
250.7354, 360.6113
251.2175, 357.8467
251.6996, 347.2305
252.1817, 343.9570
252.6639, 352.1660
253.1460, 366.7451
253.6281, 383.7617
254.1102, 404.7764
254.5923, 416.9531
255.0744, 412.8135
255.5566, 401.0449
256.0387, 389.5830
256.5208, 379.7988
257.0029, 375.1875
257.4850, 380.8574
257.9671, 398.9150
258.4492, 413.7295
258.9314, 416.6455
259.4135, 421.9473
259.8956, 446.3516
260.3777, 488.4238
260.8598, 526.4639
261.3419, 541.8896
261.8241, 533.3652
262.3062, 531.5703
262.7883, 539.6426
263.2704, 550.5811
263.7525, 559.6748
264.2346, 568.4951
264.7168, 582.2383
265.1989, 603.9736
265.6810, 633.7217
266.1631, 671.0107
266.6452, 725.2930
267.1273, 775.8262
267.6095, 815.9131
268.0916, 848.9502
268.5737, 882.0205
269.0558, 918.9023
269.5379, 955.8281
270.0201, 979.8174
270.5022, 985.0889
270.9843, 982.5928
271.4664, 981.1436
271.9485, 967.6689
272.4306, 923.2910
272.9128, 842.8574
273.3949, 744.0088
273.8770, 659.2842
274.3591, 599.9189
274.8412, 534.2666
275.3233, 440.4131
275.8055, 355.9043
276.2876, 312.5557
276.7697, 311.7129
277.2518, 326.6582
277.7339, 325.9844
278.2160, 304.5674
278.6982, 288.2285
279.1803, 283.8398
279.6624, 278.2207
280.1445, 264.6914
280.6266, 244.5537
281.1087, 223.6055
281.5909, 206.7471
282.0730, 193.7500
282.5551, 179.2344
283.0372, 159.6709
283.5193, 143.0303
284.0014, 138.8604
284.4836, 138.4736
284.9657, 126.2695
285.4478, 91.20801
285.9299, 41.31836
286.4120, 0.2080080
286.8941, 31.50488
287.3763, 57.93750
287.8584, 84.69043
288.3405, 106.5156
288.8226, 115.5508
289.3047, 107.0889
289.7868, 92.15430
290.2690, 87.52637
290.7511, 95.19824
291.2332, 94.39258
291.7153, 69.48730
292.1974, 39.64648
292.6795, 21.35449
293.1617, 16.48340
293.6438, 20.46484
294.1259, 36.62695
294.6080, 61.39844
295.0901, 74.39648
295.5722, 67.83105
296.0544, 54.14648
296.5365, 46.29688
297.0186, 43.91016
297.5007, 39.67188
297.9828, 29.96973
298.4649, 16.96777
298.9471, 4.208984
299.4292, 7.961914
299.9113, 20.54785
300.3934, 33.83398
300.8755, 48.20508
301.3576, 65.71973
301.8398, 95.64062
302.3219, 121.9629
302.8040, 125.2744
303.2861, 109.4189
303.7682, 101.7725
304.2503, 120.8789
304.7325, 161.4961
305.2146, 194.5371
305.6967, 218.9980
306.1788, 238.4463
306.6609, 248.2490
307.1430, 254.8340
307.6252, 274.2129
308.1073, 314.5225
308.5894, 360.3652
309.0715, 377.0596
309.5536, 334.7275
310.0357, 307.0869
310.5179, 302.5898
311.0000, 309.8252
311.4821, 321.4834
311.9642, 334.8955
312.4463, 346.7295
312.9284, 351.9873
313.4106, 347.3896
313.8927, 348.8643
314.3748, 354.7109
314.8569, 367.3525
315.3390, 389.5967
315.8211, 420.1045
316.3033, 456.8564
316.7854, 502.8232
317.2675, 554.7432
317.7496, 570.9990
318.2317, 502.5762
318.7138, 458.1797
319.1960, 474.3389
319.6781, 526.0605
320.1602, 581.1875
320.6423, 625.9600
321.1244, 663.2568
321.6065, 698.2695
322.0887, 730.4658
322.5708, 761.0088
323.0529, 776.2461
323.5350, 798.2803
324.0171, 850.3379
324.4992, 936.7539
324.9814, 1026.023
325.4635, 1087.720
325.9456, 1124.322
326.4277, 1160.210
326.9098, 1198.134
327.3919, 1237.466
327.8741, 1278.053
328.3562, 1319.720
328.8383, 1361.433
329.3204, 1398.913
329.8025, 1437.551
330.2846, 1491.705
330.7668, 1564.776
331.2489, 1629.495
331.7310, 1657.603
332.2131, 1660.677
332.6952, 1684.798
333.1773, 1749.799
333.6595, 1821.743
334.1416, 1885.401
334.6237, 1939.365
335.1058, 1971.815
335.5879, 1969.854
336.0700, 1955.907
336.5522, 1993.900
337.0343, 2124.592
337.5164, 2227.004
337.9985, 2257.178
338.4806, 2259.197
338.9627, 2278.298
339.4449, 2326.275
339.9270, 2397.703
340.4091, 2490.653
340.8912, 2621.372
341.3733, 2711.196
341.8554, 2731.183
342.3376, 2742.900
342.8197, 2780.174
343.3018, 2837.220
343.7839, 2886.933
344.2660, 2905.040
344.7481, 2897.917
345.2303, 2927.130
345.7124, 3031.201
346.1945, 3121.951
346.6766, 3188.550
347.1587, 3233.605
347.6408, 3252.375
348.1230, 3240.970
348.6051, 3226.119
349.0872, 3261.912
349.5693, 3367.309
350.0514, 3442.613
350.5335, 3438.740
351.0157, 3420.369
351.4978, 3430.227
351.9799, 3468.296
352.4620, 3503.667
352.9441, 3506.218
353.4262, 3489.647
353.9084, 3502.349
354.3905, 3554.656
354.8726, 3616.834
355.3547, 3660.322
355.8368, 3696.871
356.3189, 3754.415
356.8011, 3853.673
357.2832, 3965.254
357.7653, 4059.540
358.2474, 4139.965
358.7295, 4229.086
359.2116, 4334.346
359.6938, 4458.914
360.1759, 4611.489
360.6580, 4776.338
361.1401, 4989.736
361.6222, 5280.053
362.1043, 5616.040
362.5865, 5957.566
363.0686, 6296.609
363.5507, 6647.522
364.0328, 7025.940
364.5149, 7435.790
364.9970, 7863.396
365.4792, 8344.988
365.9613, 8810.799
366.4434, 9212.891
366.9255, 9569.164
367.4076, 9931.941
367.8897, 10344.16
368.3719, 10779.61
368.8540, 11116.34
369.3361, 11351.56
369.8182, 11475.38
370.3003, 11533.87
370.7824, 11469.68
371.2646, 11212.01
371.7467, 10742.99
372.2288, 10139.83
372.7109, 9472.156
373.1930, 8737.543
373.6751, 7998.021
374.1573, 7229.881
374.6394, 6499.057
375.1215, 5842.102
375.6036, 5255.609
376.0857, 4716.608
376.5678, 4212.281
377.0500, 3750.823
377.5321, 3358.041
378.0142, 3037.388
378.4963, 2743.797
378.9784, 2450.755
379.4605, 2169.452
379.9427, 1925.283
380.4248, 1727.202
380.9069, 1551.867
381.3890, 1385.329
381.8711, 1232.815
382.3532, 1105.551
382.8354, 1007.232
383.3175, 929.0596
383.7996, 861.2227
384.2817, 812.0215
384.7638, 746.7168
385.2459, 641.2383
385.7281, 540.1455
386.2102, 473.6777
386.6923, 438.1768
387.1744, 413.2021
387.6565, 384.1113
388.1386, 352.4678
388.6208, 329.7090
389.1029, 324.1162
389.5850, 316.6689
390.0671, 298.9648
390.5492, 280.5879
391.0313, 273.6309
391.5135, 281.0625
391.9956, 292.9473
392.4777, 295.1377
392.9598, 285.9365
393.4419, 283.9092
393.9240, 289.6816
394.4062, 307.8271
394.8883, 345.5449
395.3704, 394.2383
395.8525, 433.0371
396.3346, 447.8164
396.8167, 452.9971
397.2989, 470.8320
397.7810, 500.1211
398.2631, 519.0469
398.7452, 511.7959
399.2273, 491.6895
399.7094, 492.3018
400.1916, 533.0371
400.6737, 558.6670
401.1558, 526.9385
401.6379, 473.9414
402.1200, 463.3379
402.6021, 507.5967
403.0843, 554.8467
403.5664, 545.5342
404.0485, 468.8818
404.5306, 400.1611
405.0127, 327.6162
405.4948, 273.4570
405.9770, 263.9414
406.4591, 279.0352
406.9412, 278.2207
407.4233, 238.5107
407.9054, 176.4688
408.3875, 134.3066
408.8697, 108.0762
409.3518, 108.4346
409.8339, 163.2539
410.3160, 222.9180
410.7981, 246.5020
411.2802, 233.2041
411.7624, 222.9121
412.2445, 256.7334
412.7266, 322.1621
413.2087, 358.5381
413.6908, 353.6631
414.1729, 343.0410
414.6551, 348.0547
415.1372, 364.7617
415.6193, 384.6152
416.1014, 408.8281
416.5835, 430.1416
417.0656, 441.9072
417.5478, 445.2607
418.0299, 441.6582
418.5120, 429.5586
418.9941, 421.6738
419.4762, 439.7793
419.9583, 503.0820
420.4405, 533.8945
420.9226, 502.6865
421.4047, 460.1484
421.8868, 440.2354
422.3689, 441.6455
422.8510, 447.4053
423.3332, 445.7646
423.8153, 438.5713
424.2974, 435.6660
424.7795, 443.3008
425.2616, 445.6221
425.7437, 432.3213
426.2259, 418.0596
426.7080, 419.7939
427.1901, 439.6982
427.6722, 458.6172
428.1543, 454.9355
428.6364, 430.4805
429.1186, 409.2324
429.6007, 392.6504
430.0828, 379.2334
430.5649, 373.7451
431.0470, 370.3613
431.5291, 354.4346
432.0113, 301.2744
432.4934, 258.3984
432.9755, 289.9609
433.4576, 372.6377
433.9397, 406.2100
434.4218, 345.4160
434.9040, 248.0977
435.3861, 210.7090
435.8682, 259.8789
436.3503, 284.2725
436.8324, 251.2412
437.3145, 212.8740
437.7967, 210.8896
438.2788, 239.3408
438.7609, 265.2549
439.2430, 265.7441
439.7251, 246.7100
440.2072, 238.1113
440.6894, 252.9648
441.1715, 256.7529
441.6536, 233.8711
442.1357, 206.0332
442.6178, 196.0361
443.0999, 205.7344
443.5821, 210.8711
444.0642, 180.2217
444.5463, 121.7529
445.0284, 90.48633
445.5105, 99.60156
445.9926, 109.7275
446.4748, 92.75293
446.9569, 59.67090
447.4390, 29.84863
447.9211, 5.018555
448.4032, 13.75293
448.8853, 23.86133
449.3675, 27.37402
449.8496, 27.62207
450.3317, 24.90625
450.8138, 24.70605
451.2959, 36.54199
451.7780, 67.37012
452.2602, 78.46582
452.7423, 45.72559
453.2244, 17.82227
453.7065, 28.72461
454.1886, 62.23730
454.6707, 81.46484
455.1529, 66.03809
455.6350, 30.26855
456.1171, 6.302734
456.5992, 4.929688
457.0813, 6.327148
457.5634, 9.201172
458.0455, 29.38477
458.5276, 54.66211
459.0098, 81.00586
459.4919, 91.30176
459.9740, 64.88281
460.4561, 18.74902
460.9382, 16.52539
461.4203, 41.06543
461.9025, 51.49121
462.3846, 40.32324
462.8667, 17.61133
463.3488, 8.493164
463.8309, 21.64551
464.3130, 27.07129
464.7952, 7.582031
465.2773, 18.93848
465.7594, 34.17480
466.2415, 35.16309
466.7236, 24.84277
467.2057, 2.913086
467.6879, 29.20117
468.1700, 41.60645
468.6521, 10.00684
469.1342, 12.88672
469.6163, 15.58398
470.0984, 7.487305
470.5806, 4.467773
471.0627, 17.56738
471.5448, 25.96680
472.0269, 15.53516
472.5090, 10.52637
472.9911, 8.833984
473.4733, 40.42480
473.9554, 83.45703
474.4375, 76.41309
474.9196, 37.89355
475.4017, 0.6552730
475.8839, 44.99219
476.3660, 67.43262
476.8481, 22.68652
477.3302, 58.30762
477.8123, 101.2646
478.2944, 83.98340
478.7766, 45.05859
479.2587, 32.10352
479.7408, 51.14160
480.2229, 66.26270
480.7050, 67.72656
481.1871, 76.33398
481.6693, 105.3740
482.1514, 145.9375
482.6335, 183.3027
483.1156, 210.7725
483.5977, 232.4541
484.0798, 251.8594
484.5620, 266.8477
485.0441, 295.5381
485.5262, 349.4219
486.0083, 406.7979
486.4904, 447.6992
486.9725, 478.2617
487.4547, 520.5381
487.9368, 595.0752
488.4189, 674.1875
488.9010, 726.9521
489.3831, 758.1104
489.8652, 789.1699
490.3474, 828.3867
490.8295, 870.7539
491.3116, 910.9424
491.7937, 951.0664
492.2758, 981.2549
492.7579, 989.9512
493.2401, 999.6006
493.7222, 1026.757
494.2043, 1065.337
494.6864, 1098.480
495.1685, 1115.926
495.6506, 1127.396
496.1328, 1155.906
496.6149, 1206.381
497.0970, 1258.441
497.5791, 1314.063
498.0612, 1364.616
498.5433, 1404.790
499.0255, 1435.260
499.5076, 1459.393
499.9897, 1465.879
500.4718, 1475.012
500.9539, 1519.768
501.4360, 1594.298
501.9182, 1657.783
502.4003, 1691.252
502.8824, 1708.437
503.3645, 1733.154
503.8466, 1765.448
504.3287, 1806.307
504.8109, 1859.928
505.2930, 1918.557
505.7751, 1985.169
506.2572, 2051.930
506.7393, 2104.995
507.2214, 2135.363
507.7036, 2149.188
508.1857, 2157.334
508.6678, 2154.383
509.1499, 2164.684
509.6320, 2207.531
510.1141, 2250.906
510.5963, 2274.398
511.0784, 2279.709
511.5605, 2280.107
512.0426, 2279.250
512.5247, 2277.624
513.0068, 2277.353
513.4890, 2279.183
513.9711, 2279.654
514.4532, 2276.355
514.9353, 2270.971
515.4174, 2267.261
515.8995, 2269.895
516.3817, 2260.007
516.8638, 2221.796
517.3459, 2186.525
517.8280, 2173.823
518.3101, 2181.289
518.7922, 2198.270
519.2744, 2218.791
519.7565, 2239.972
520.2386, 2249.702
520.7207, 2240.595
521.2028, 2266.977
521.6849, 2363.914
522.1671, 2470.456
522.6492, 2526.553
523.1313, 2546.760
523.6134, 2601.135
524.0955, 2743.086
524.5776, 2902.911
525.0598, 3016.526
525.5419, 3100.092
526.0240, 3206.826
526.5061, 3357.508
526.9882, 3519.188
527.4703, 3644.855
527.9525, 3727.465
528.4346, 3808.079
528.9167, 3887.178
529.3988, 3963.766
529.8809, 4056.968
530.3630, 4140.366
530.8452, 4178.864
531.3273, 4159.279
531.8094, 4090.041
532.2915, 3990.594
532.7736, 3858.820
533.2557, 3644.188
533.7379, 3305.765
534.2200, 2953.789
534.7021, 2682.277
535.1842, 2468.816
535.6663, 2241.720
536.1484, 1964.501
536.6306, 1705.286
537.1127, 1498.873
537.5948, 1330.043
538.0769, 1180.080
538.5590, 1043.522
539.0411, 922.3027
539.5233, 818.6396
540.0054, 733.1338
540.4875, 653.4639
540.9696, 587.5312
541.4517, 517.6152
541.9338, 426.6562
542.4160, 337.7549
542.8981, 277.2002
543.3802, 250.7334
543.8623, 232.7236
544.3444, 204.2012
544.8265, 169.8242
545.3087, 141.9180
545.7908, 121.6299
546.2729, 96.43945
546.7550, 53.18848
547.2371, 3.545898
547.7192, 13.12695
548.2014, 33.00000
548.6835, 56.47266
549.1656, 26.94824
549.6477, 12.89355
550.1298, 32.57812
550.6119, 30.87695
551.0941, 17.81543
551.5762, 2.397461
552.0583, 23.81934
552.5404, 27.87891
553.0225, 10.69531
553.5046, 6.022461
553.9868, 23.36719
554.4689, 32.19043
554.9510, 23.13086
555.4331, 2.004883
555.9152, 29.02051
556.3973, 57.09766
556.8795, 82.39941
557.3616, 101.3613
557.8437, 115.0215
558.3258, 126.2764
558.8079, 136.2529
559.2900, 143.4092
559.7722, 145.1582
560.2543, 139.8184
560.7364, 136.9014
561.2185, 135.8438
561.7006, 137.7061
562.1827, 147.8408
562.6649, 159.0557
563.1470, 161.3311
563.6291, 151.5420
564.1112, 134.9893
564.5933, 109.8037
565.0754, 81.75000
565.5576, 75.21582
566.0397, 95.58301
566.5218, 107.7422
567.0039, 84.07422
567.4860, 34.36719
567.9681, 1.990234
568.4503, 3.629883
568.9324, 7.734375
569.4145, 20.82715
569.8966, 28.05273
570.3787, 14.91797
570.8608, 17.03418
571.3430, 58.28711
571.8251, 106.2666
572.3072, 151.7090
572.7893, 162.8750
573.2714, 132.2197
573.7535, 114.0215
574.2357, 127.7354
574.7178, 151.8555
575.1999, 166.3047
575.6820, 171.8340
576.1641, 174.9541
576.6462, 170.8145
577.1284, 170.4971
577.6105, 179.3604
578.0926, 197.7119
578.5747, 231.2949
579.0568, 280.9609
579.5389, 327.1465
580.0211, 341.1631
580.5032, 318.9238
580.9853, 318.1934
581.4674, 363.5674
581.9495, 394.9248
582.4316, 368.0332
582.9138, 330.1172
583.3959, 345.6904
583.8780, 431.1533
584.3601, 509.7588
584.8422, 520.9717
585.3243, 500.2842
585.8065, 504.2061
586.2886, 534.8535
586.7707, 570.2139
587.2528, 599.8232
587.7349, 621.4863
588.2170, 627.1660
588.6992, 590.0439
589.1813, 587.6729
589.6634, 652.2119
590.1455, 717.2627
590.6276, 749.7607
591.1097, 754.9023
591.5919, 746.7314
592.0740, 726.7607
592.5561, 711.2822
593.0382, 731.9844
593.5203, 778.4033
594.0024, 793.2295
594.4846, 762.2529
594.9667, 719.2002
595.4488, 686.4609
595.9309, 664.7949
596.4130, 662.0742
596.8951, 698.3359
597.3773, 724.8809
597.8594, 717.7334
598.3415, 707.1699
598.8236, 729.7021
599.3057, 781.1035
599.7878, 821.0723
600.2700, 816.7490
600.7521, 783.9053
601.2342, 758.1611
601.7163, 738.7861
602.1984, 739.4873
602.6805, 776.3115
603.1627, 817.6797
603.6448, 825.6113
604.1269, 801.6807
604.6090, 776.0273
605.0911, 739.3701
605.5732, 714.8037
606.0554, 724.4707
606.5375, 750.8701
607.0196, 764.4990
607.5017, 757.8633
607.9838, 749.8281
608.4659, 764.7949
608.9481, 800.1309
609.4302, 825.3643
609.9123, 840.1455
610.3944, 849.0371
610.8765, 848.5732
611.3586, 839.8711
611.8408, 826.8896
612.3229, 811.3955
612.8050, 796.2988
613.2871, 776.5479
613.7692, 763.0098
614.2513, 767.3301
614.7335, 785.8193
615.2156, 808.7461
615.6977, 831.3457
616.1798, 849.2607
616.6619, 852.2627
617.1440, 837.7637
617.6262, 837.5557
618.1083, 860.1689
618.5904, 882.4648
619.0725, 897.8105
619.5546, 905.2852
620.0367, 902.8320
620.5189, 889.8750
621.0010, 869.5605
621.4831, 835.6221
621.9652, 798.6270
622.4473, 768.7119
622.9294, 747.2109
623.4116, 736.2461
623.8937, 737.4258
624.3758, 742.2031
624.8579, 732.1729
625.3400, 701.6348
625.8221, 679.5820
626.3043, 680.0371
626.7864, 672.5986
627.2685, 633.0312
627.7506, 579.7305
628.2327, 543.5771
628.7148, 532.0547
629.1970, 534.5107
629.6791, 557.3018
630.1612, 584.5225
630.6433, 595.4922
631.1254, 588.4463
631.6075, 566.1377
632.0897, 528.5127
632.5718, 482.3789
633.0539, 444.2754
633.5360, 412.8691
634.0181, 393.0547
634.5002, 382.9160
634.9824, 387.2568
635.4645, 428.3691
635.9466, 481.9248
636.4287, 494.4453
636.9108, 436.4570
637.3929, 375.9756
637.8751, 366.9287
638.3572, 380.0459
638.8393, 362.0361
639.3214, 312.0225
639.8035, 275.2627
640.2856, 284.4580
640.7678, 321.6270
641.2499, 331.1338
641.7320, 301.9922
642.2141, 273.7871
642.6962, 248.4277
643.1783, 225.9150
643.6605, 205.6904
644.1426, 188.3994
644.6247, 174.7227
645.1068, 162.3564
645.5889, 159.8486
646.0710, 192.2764
646.5532, 230.6865
647.0353, 219.0518
647.5174, 157.2480
647.9995, 96.95898
648.4816, 73.99707
648.9637, 79.71680
649.4459, 86.59277
649.9280, 92.54883
650.4101, 105.6592
650.8922, 144.8145
651.3743, 171.7676
651.8564, 153.7979
652.3386, 108.9775
652.8207, 80.84473
653.3028, 81.36328
653.7849, 97.51953
654.2670, 136.4756
654.7491, 178.6729
655.2313, 192.7773
655.7134, 178.3711
656.1955, 158.9902
656.6776, 150.0293
657.1597, 148.7930
657.6418, 147.8359
658.1240, 148.0664
658.6061, 145.4785
659.0882, 140.6953
659.5703, 131.5742
660.0524, 112.6445
660.5345, 88.82422
661.0167, 73.28516
661.4988, 74.52148
661.9809, 72.39648
662.4630, 55.32422
662.9451, 31.30664
663.4272, 6.046875
663.9094, 17.58203
664.3915, 32.48047
664.8736, 33.64844
665.3557, 27.11719
665.8378, 25.54297
666.3199, 28.72266
666.8021, 40.83594
667.2842, 75.51758
667.7663, 97.08789
668.2484, 73.33398
668.7305, 21.58789
669.2126, 24.35352
669.6948, 68.16406
670.1769, 92.07422
670.6590, 78.97852
671.1411, 52.34961
671.6232, 24.12109
672.1053, 2.748047
672.5875, 5.025391
673.0696, 40.04102
673.5517, 82.69531
674.0338, 91.85938
674.5159, 70.63281
674.9980, 69.73633
675.4802, 97.12305
675.9623, 124.9199
676.4444, 143.3398
676.9265, 151.1953
677.4086, 138.7754
677.8907, 87.87695
678.3729, 58.61133
678.8550, 83.25586
679.3371, 110.9902
679.8192, 105.0156
680.3013, 79.22266
680.7834, 63.78711
681.2656, 70.14648
681.7477, 87.58789
682.2298, 111.4473
682.7119, 135.7090
683.1940, 137.3711
683.6761, 113.9414
684.1583, 94.52734
684.6404, 92.66992
685.1225, 103.3242
685.6046, 120.2852
686.0867, 154.2051
686.5688, 173.0762
687.0510, 164.0566
687.5331, 148.7617
688.0152, 119.9648
688.4973, 93.32812
688.9794, 98.09766
689.4615, 141.5293
689.9437, 183.9668
690.4258, 192.3555
690.9079, 184.9551
691.3900, 187.8223
691.8721, 200.7422
692.3542, 222.2012
692.8364, 252.1270
693.3185, 277.4629
693.8006, 277.5820
694.2827, 250.4121
694.7648, 232.8789
695.2469, 227.2090
695.7291, 227.4043
696.2112, 236.5977
696.6933, 247.3262
697.1754, 253.7285
697.6575, 255.5020
698.1396, 254.6074
698.6218, 257.2246
699.1039, 252.2852
699.5860, 221.8652
700.0681, 183.0254
700.5502, 162.9902
701.0323, 165.8125
701.5145, 181.2559
701.9966, 206.0840
702.4787, 233.0918
702.9608, 227.8203
703.4429, 182.6855
703.9250, 149.4434
704.4072, 136.5527
704.8893, 141.9980
705.3714, 172.4863
705.8535, 217.0996
706.3356, 241.4395
706.8177, 228.5938
707.2999, 217.2930
707.7820, 216.9043
708.2641, 221.5898
708.7462, 231.5879
709.2283, 241.9551
709.7104, 238.3965
710.1926, 210.4648
710.6747, 181.9590
711.1568, 189.6699
711.6389, 225.1699
712.1210, 254.2852
712.6031, 274.0469
713.0853, 269.8340
713.5674, 227.0586
714.0495, 163.6875
714.5316, 123.4512
715.0137, 114.8867
715.4958, 108.4648
715.9780, 101.6348
716.4601, 99.64453
716.9422, 99.21680
717.4243, 107.0879
717.9064, 141.6523
718.3885, 208.4355
718.8707, 254.2930
719.3528, 233.7188
719.8349, 187.6250
720.3170, 151.9902
720.7991, 130.5488
721.2813, 132.2031
721.7634, 158.5723
722.2455, 187.2070
722.7276, 191.4043
723.2097, 173.6211
723.6918, 157.4062
724.1740, 143.3770
724.6561, 126.7715
725.1382, 100.8691
725.6203, 75.97852
726.1024, 67.74805
726.5845, 76.19922
727.0667, 84.48242
727.5488, 99.59375
728.0309, 99.81250
728.5130, 64.74414
728.9951, 20.28906
729.4772, 13.70508
729.9594, 32.63086
730.4415, 30.03320
730.9236, 6.029297
731.4057, 45.61914
731.8878, 36.58984
732.3699, 7.287109
732.8521, 24.56641
733.3342, 5.826172
733.8163, 13.87891
734.2984, 8.994141
734.7805, 5.773438
735.2626, 14.72070
735.7448, 104.9961
736.2269, 146.9629
736.7090, 96.98438
737.1911, 48.71289
737.6732, 45.14258
738.1553, 61.90625
738.6375, 60.72266
739.1196, 33.37891
739.6017, 15.30273
740.0838, 28.04102
740.5659, 50.76367
741.0480, 75.43359
741.5302, 93.54883
742.0123, 89.39062
742.4944, 59.07422
742.9765, 12.31641
743.4586, 50.74023
743.9407, 119.1895
744.4229, 148.1465
744.9050, 136.5781
745.3871, 100.3555
745.8692, 33.77148
746.3513, 30.97852
746.8334, 62.35742
747.3156, 62.55469
747.7977, 57.61133
748.2798, 46.61133
748.7619, 31.26367
749.2440, 4.843750
749.7261, 19.61914
750.2083, 43.19141
750.6904, 56.62500
751.1725, 32.30469
751.6546, 56.89844
752.1367, 130.0977
752.6188, 109.4570
753.1010, 46.42773
753.5831, 13.03711
754.0652, 10.94727
754.5473, 14.96094
755.0294, 13.25586
755.5115, 7.736328
755.9937, 1.628906
756.4758, 4.968750
756.9579, 18.10547
757.4400, 42.44336
757.9221, 55.46875
758.4042, 43.77539
758.8864, 21.91797
759.3685, 11.72266
759.8506, 16.22461
760.3327, 1.371094
760.8148, 79.38477
761.2969, 120.3281
761.7791, 44.11328
762.2612, 49.97266
762.7433, 64.76367
763.2254, 3.857422
763.7075, 62.93359
764.1896, 104.9883
764.6718, 132.1680
765.1539, 159.1523
765.6360, 176.5469
766.1181, 158.6797
766.6002, 107.6406
767.0823, 51.49219
767.5645, 4.416016
768.0466, 20.49414
768.5287, 19.04297
769.0108, 132.9316
769.4929, 190.3906
769.9750, 168.7168
770.4572, 140.5000
770.9393, 133.0039
771.4214, 142.8555
771.9035, 171.4062
772.3856, 227.0840
772.8677, 252.8730
773.3499, 223.6309
773.8320, 191.8359
774.3141, 166.5918
774.7962, 153.8887
775.2783, 163.4746
775.7604, 193.2109
776.2426, 226.2578
776.7247, 261.3203
777.2068, 285.0371
777.6889, 276.7852
778.1710, 250.3691
778.6531, 231.9004
779.1353, 225.2578
779.6174, 225.0117
780.0995, 228.2695
780.5816, 231.3945
781.0637, 221.0293
781.5458, 195.2324
782.0280, 203.9316
782.5101, 265.9180
782.9922, 304.3301
783.4743, 264.4824
783.9564, 196.2695
784.4385, 190.3945
784.9207, 269.0840
785.4028, 311.2598
785.8849, 276.5879
786.3670, 254.7578
786.8491, 290.7070
787.3312, 336.3262
787.8134, 344.2227
788.2955, 314.5566
788.7776, 280.6699
789.2597, 249.8770
789.7418, 225.2188
790.2239, 216.1562
790.7061, 211.2969
791.1882, 182.0996
791.6703, 136.4844
792.1524, 127.7559
792.6345, 191.4082
793.1166, 273.8242
793.5988, 268.2559
794.0809, 186.6230
794.5630, 153.3711
795.0451, 179.8262
795.5272, 213.6289
796.0093, 234.1133
796.4915, 244.1992
796.9736, 246.4609
797.4557, 238.6172
797.9378, 239.6016
798.4199, 264.7188
798.9020, 275.1289
799.3842, 245.2070
799.8663, 212.3906
800.3484, 208.7676
800.8305, 229.5273
801.3126, 244.3594
801.7947, 240.7129
802.2769, 240.3770
802.7590, 260.5117
803.2411, 287.3301
803.7232, 312.7402
804.2053, 331.6582
804.6874, 331.5977
805.1696, 307.1855
805.6517, 288.4258
806.1338, 316.7070
806.6159, 371.7129
807.0980, 402.5000
807.5801, 410.6289
808.0623, 429.1562
808.5444, 470.7480
809.0265, 516.4531
809.5086, 543.3711
809.9907, 550.8770
810.4728, 549.2383
810.9550, 529.8848
811.4371, 532.5449
811.9192, 570.1484
812.4013, 622.6406
812.8834, 683.8535
813.3655, 747.7168
813.8477, 790.1113
814.3298, 802.3730
814.8119, 810.7266
815.2940, 810.0586
815.7761, 812.8770
816.2582, 831.7344
816.7404, 857.7617
817.2225, 875.4746
817.7046, 881.6895
818.1867, 890.1523
818.6688, 918.2227
819.1509, 941.5098
819.6331, 929.2734
820.1152, 898.8633
820.5973, 880.1934
821.0794, 884.1660
821.5615, 914.1895
822.0436, 980.3691
822.5258, 1054.449
823.0079, 1079.229
823.4900, 1062.855
823.9721, 1054.014
824.4542, 1057.367
824.9363, 1079.111
825.4185, 1125.973
825.9006, 1180.691
826.3827, 1215.295
826.8648, 1227.996
827.3469, 1231.475
827.8290, 1218.588
828.3111, 1210.412
828.7932, 1205.414
829.2753, 1214.350
829.7574, 1258.545
830.2396, 1330.453
830.7217, 1381.166
831.2038, 1390.393
831.6859, 1401.938
832.1680, 1434.535
832.6501, 1462.430
833.1323, 1461.551
833.6144, 1443.842
834.0965, 1434.637
834.5786, 1441.533
835.0607, 1454.479
835.5428, 1477.088
836.0250, 1494.322
836.5071, 1482.510
836.9892, 1454.752
837.4713, 1446.041
837.9534, 1460.490
838.4355, 1460.748
838.9177, 1410.719
839.3998, 1338.939
839.8819, 1308.488
840.3640, 1312.318
840.8461, 1299.752
841.3282, 1263.551
841.8104, 1238.723
842.2925, 1247.789
842.7746, 1274.129
843.2567, 1288.631
843.7388, 1293.498
844.2209, 1265.639
844.7031, 1190.291
845.1852, 1115.527
845.6673, 1054.121
846.1494, 1001.785
846.6315, 953.8145
847.1136, 910.3281
847.5958, 873.0371
848.0779, 844.3223
848.5600, 817.8066
849.0421, 789.9980
849.5242, 766.3906
850.0063, 763.2344
850.4885, 763.1289
850.9706, 726.1562
851.4527, 637.1152
851.9348, 564.2168
852.4169, 548.7910
852.8990, 553.5918
853.3812, 563.7344
853.8633, 567.6738
854.3454, 544.3145
854.8275, 494.6816
855.3096, 445.1250
855.7917, 410.3418
856.2739, 389.9980
856.7560, 387.6543
857.2381, 398.5918
857.7202, 405.0039
858.2023, 408.8105
858.6844, 445.5117
859.1666, 536.0996
859.6487, 626.6250
860.1308, 619.9043
860.6129, 528.9902
861.0950, 519.8887
861.5771, 601.6875
862.0593, 685.1289
862.5414, 749.6582
863.0235, 789.4355
863.5056, 792.0645
863.9877, 772.6094
864.4698, 800.5547
864.9520, 904.0176
865.4341, 977.5156
865.9162, 990.8379
866.3983, 1018.348
866.8804, 1109.906
867.3625, 1219.555
867.8447, 1279.990
868.3268, 1282.523
868.8089, 1319.746
869.2910, 1433.113
869.7731, 1543.523
870.2552, 1624.951
870.7374, 1694.234
871.2195, 1755.676
871.7016, 1813.945
872.1837, 1891.098
872.6658, 1999.297
873.1479, 2109.633
873.6301, 2199.707
874.1122, 2289.645
874.5943, 2413.629
875.0764, 2549.422
875.5585, 2641.553
876.0406, 2682.100
876.5228, 2730.664
877.0049, 2845.277
877.4870, 2982.346
877.9691, 3096.062
878.4512, 3176.771
878.9333, 3184.670
879.4155, 3123.043
879.8976, 3052.352
880.3797, 3007.305
880.8618, 2967.578
881.3439, 2902.869
881.8260, 2814.402
882.3082, 2699.316
882.7903, 2555.824
883.2724, 2455.324
883.7545, 2426.281
884.2366, 2418.670
884.7188, 2387.152
885.2009, 2334.605
885.6830, 2269.764
886.1651, 2175.951
886.6472, 2129.344
887.1293, 2154.857
887.6115, 2190.172
888.0936, 2204.867
888.5757, 2210.217
889.0578, 2222.396
889.5399, 2239.645
890.0220, 2274.018
890.5042, 2355.191
890.9863, 2412.428
891.4684, 2428.602
891.9505, 2420.238
892.4326, 2387.139
892.9147, 2340.523
893.3969, 2311.621
893.8790, 2318.008
894.3611, 2306.768
894.8432, 2253.145
895.3253, 2187.787
895.8074, 2131.510
896.2896, 2073.975
896.7717, 1999.500
897.2538, 1906.965
897.7359, 1806.613
898.2180, 1697.711
898.7001, 1592.197
899.1823, 1518.021
899.6644, 1440.148
900.1465, 1288.043
900.6286, 1093.965
901.1107, 966.2500
901.5928, 943.0254
902.0750, 936.4805
902.5571, 860.9766
903.0392, 749.9727
903.5213, 641.1973
904.0034, 545.8965
904.4855, 506.4238
904.9677, 523.4727
905.4498, 548.0605
905.9319, 550.1934
906.4140, 530.3301
906.8961, 484.0625
907.3782, 415.3906
907.8604, 340.3594
908.3425, 260.6953
908.8246, 209.7031
909.3067, 199.7695
909.7888, 209.9805
910.2709, 221.7031
910.7531, 233.1406
911.2352, 239.3574
911.7173, 242.4922
912.1994, 220.4355
912.6815, 163.5449
913.1636, 107.4629
913.6458, 67.90625
914.1279, 44.17969
914.6100, 38.52148
915.0921, 53.51172
915.5742, 49.57422
916.0563, 17.45703
916.5385, 13.73438
917.0206, 40.82227
917.5027, 62.43555
917.9848, 75.30664
918.4669, 82.22852
918.9490, 92.07617
919.4312, 109.9727
919.9133, 117.2910
920.3954, 96.77344
920.8775, 86.97266
921.3596, 119.2031
921.8417, 152.8691
922.3239, 136.0293
922.8060, 80.55273
923.2881, 60.86523
923.7702, 129.0566
924.2523, 164.3340
924.7344, 119.4805
925.2166, 50.50586
925.6987, 36.76758
926.1808, 110.9531
926.6629, 121.8867
927.1450, 66.47852
927.6271, 12.47070
928.1093, 27.42188
928.5914, 38.78516
929.0735, 11.90625
929.5556, 74.58594
930.0377, 98.66406
930.5198, 89.83203
931.0020, 70.87500
931.4841, 49.09180
931.9662, 35.82812
932.4483, 43.69531
932.9304, 59.81445
933.4125, 75.24805
933.8947, 88.58008
934.3768, 94.95703
934.8589, 97.02344
935.3410, 107.5176
935.8231, 134.5078
936.3052, 162.1582
936.7874, 175.3926
937.2695, 176.6211
937.7516, 167.4551
938.2337, 149.9004
938.7158, 125.4824
939.1979, 96.42188
939.6801, 74.87695
940.1622, 70.72070
940.6443, 75.43555
941.1264, 70.63086
941.6085, 62.92773
942.0906, 77.43750
942.5728, 113.2246
943.0549, 155.2051
943.5370, 197.6680
944.0191, 232.6270
944.5012, 251.6445
944.9833, 257.4316
945.4655, 254.8945
945.9476, 245.1621
946.4297, 243.4863
946.9118, 251.7324
947.3939, 253.2578
947.8760, 239.2188
948.3582, 219.0254
948.8403, 201.0781
949.3224, 188.7559
949.8045, 220.7988
950.2866, 303.6465
950.7687, 352.2266
951.2509, 350.1328
951.7330, 317.3574
952.2151, 256.0039
952.6972, 196.8320
953.1793, 201.0898
953.6614, 272.3848
954.1436, 348.7891
954.6257, 444.2695
955.1078, 489.1309
955.5899, 452.3223
956.0720, 396.5039
956.5541, 366.6621
957.0363, 357.2441
957.5184, 352.1016
958.0005, 349.6016
958.4826, 363.1992
958.9647, 409.2129
959.4468, 432.1875
959.9290, 399.9844
960.4111, 362.0410
960.8932, 364.9922
961.3753, 399.8867
961.8574, 426.8008
962.3395, 444.3242
962.8217, 457.5078
963.3038, 471.6113
963.7859, 470.9980
964.2680, 428.6621
964.7501, 388.0898
965.2322, 414.5273
965.7144, 497.1152
966.1965, 512.6055
966.6786, 371.7832
967.1607, 303.2031
967.6428, 376.1230
968.1249, 446.1699
968.6071, 431.4453
969.0892, 394.0859
969.5713, 429.3809
970.0534, 536.1523
970.5355, 572.4883
971.0176, 454.0234
971.4998, 375.0254
971.9819, 389.2422
972.4640, 419.3125
972.9461, 422.9277
973.4282, 415.6777
973.9103, 430.0215
974.3925, 468.6738
974.8746, 476.2500
975.3567, 410.8418
975.8388, 360.6621
976.3209, 346.7441
976.8030, 354.8184
977.2852, 388.7695
977.7673, 432.4766
978.2494, 457.0879
978.7315, 456.2969
979.2136, 461.0977
979.6957, 492.0293
980.1779, 515.6660
980.6600, 524.8965
981.1421, 519.2422
981.6242, 489.3379
982.1063, 444.7363
982.5884, 400.3711
983.0706, 356.0352
983.5527, 341.0449
984.0348, 386.0312
984.5169, 429.1758
984.9990, 449.3379
985.4811, 450.3301
985.9633, 419.9531
986.4454, 376.7793
986.9275, 368.7520
987.4096, 412.0781
987.8917, 434.5059
988.3738, 391.6094
988.8560, 343.3281
989.3381, 334.8848
989.8202, 325.5684
990.3023, 247.7715
990.7844, 133.8262
991.2665, 89.35742
991.7487, 153.8809
992.2308, 226.6074
992.7129, 277.2598
993.1950, 312.2070
993.6771, 322.2148
994.1592, 327.2266
994.6414, 353.7422
995.1235, 395.3828
995.6056, 423.2363
996.0877, 427.1543
996.5698, 424.2383
997.0519, 416.1250
997.5341, 409.4316
998.0162, 403.0312
998.4983, 403.7871
998.9804, 418.7910
999.4625, 447.6582
999.9446, 490.8203
1000.427, 557.2852
1000.909, 602.8281
1001.391, 594.5859
1001.873, 575.7559
1002.355, 563.1855
1002.837, 556.4941
1003.319, 566.8750
1003.802, 584.6445
1004.284, 562.1953
1004.766, 461.0273
1005.248, 396.5625
1005.730, 465.1660
1006.212, 542.5195
1006.694, 543.1836
1007.176, 506.0039
1007.659, 476.2812
1008.141, 459.4824
1008.623, 449.5078
1009.105, 452.8125
1009.587, 435.5293
1010.069, 340.4023
1010.551, 268.2559
1011.033, 310.6387
1011.515, 391.9629
1011.998, 409.5000
1012.480, 373.3750
1012.962, 374.8301
1013.444, 464.5352
1013.926, 534.0977
1014.408, 538.1797
1014.890, 508.5859
1015.372, 431.1250
1015.854, 354.4766
1016.337, 351.0352
1016.819, 402.2637
1017.301, 409.9844
1017.783, 323.4512
1018.265, 265.2871
1018.747, 323.1855
1019.229, 377.2129
1019.711, 336.6797
1020.194, 273.5430
1020.676, 280.5723
1021.158, 342.4844
1021.640, 370.6484
1022.122, 331.0625
1022.604, 299.2578
1023.086, 298.8301
1023.568, 311.5391
1024.051, 341.6719
1024.533, 370.1055
1025.015, 378.7773
1025.497, 369.2969
1025.979, 346.9746
1026.461, 298.5039
1026.943, 284.7266
1027.425, 348.7773
1027.907, 414.2168
1028.390, 455.8555
1028.872, 477.9395
1029.354, 479.8379
1029.836, 467.1309
1030.318, 452.7734
1030.800, 434.7793
1031.282, 431.2734
1031.764, 462.0312
1032.246, 483.5430
1032.729, 472.0488
1033.211, 458.2539
1033.693, 467.1816
1034.175, 493.2148
1034.657, 524.6543
1035.139, 571.6133
1035.621, 585.6484
1036.103, 535.3613
1036.586, 487.7715
1037.068, 454.3457
1037.550, 433.0957
1038.032, 428.5605
1038.514, 434.0918
1038.996, 431.7676
1039.478, 415.8945
1039.960, 413.5527
1040.443, 444.9453
1040.925, 457.1855
1041.407, 425.0176
1041.889, 392.4473
1042.371, 394.7031
1042.853, 408.8008
1043.335, 387.6289
1043.817, 324.4668
1044.299, 289.7285
1044.781, 290.2754
1045.264, 308.5391
1045.746, 363.0254
1046.228, 394.5547
1046.710, 362.0859
1047.192, 297.8320
1047.674, 248.5566
1048.156, 214.4160
1048.638, 195.3320
1049.121, 201.5566
1049.603, 183.4023
1050.085, 124.1484
1050.567, 75.46680
1051.049, 62.63086
1051.531, 67.90820
1052.013, 71.42969
1052.495, 71.80664
1052.978, 88.75391
1053.460, 88.20117
1053.942, 105.6309
1054.424, 149.0742
1054.906, 170.9648
1055.388, 148.6562
1055.870, 116.3301
1056.352, 110.7988
1056.834, 123.4531
1057.317, 132.1895
1057.799, 135.9199
1058.281, 93.84766
1058.763, 4.533203
1059.245, 42.00391
1059.727, 15.87305
1060.209, 18.92188
1060.691, 7.464844
1061.173, 24.50977
1061.656, 27.92578
1062.138, 7.978516
1062.620, 4.792969
1063.102, 9.041016
1063.584, 7.417969
1064.066, 1.839844
1064.548, 4.828125
1065.030, 27.29688
1065.513, 55.64844
1065.995, 85.74805
1066.477, 103.7246
1066.959, 67.34570
1067.441, 0.2207030
1067.923, 32.85352
1068.405, 26.98828
1068.887, 27.83398
1069.370, 56.98047
1069.852, 71.86719
1070.334, 13.51172
1070.816, 66.64062
1071.298, 118.4883
1071.780, 140.1133
1072.262, 115.2578
1072.744, 62.14648
1073.226, 31.72070
1073.708, 38.95117
1074.191, 45.25977
1074.673, 6.306641
1075.155, 20.57812
1075.637, 14.16406
1076.119, 76.84766
1076.601, 153.6641
1077.083, 223.7480
1077.565, 255.3203
1078.047, 245.3945
1078.530, 218.0137
1079.012, 161.9922
1079.494, 118.1523
1079.976, 102.4688
1080.458, 104.0273
1080.940, 122.7910
1081.422, 154.5938
1081.904, 207.2773
1082.387, 271.5254
1082.869, 290.5605
1083.351, 222.4258
1083.833, 174.4023
1084.315, 169.0938
1084.797, 161.6582
1085.279, 157.3809
1085.761, 154.7441
1086.244, 162.2930
1086.726, 182.2969
1087.208, 192.1660
1087.690, 199.2520
1088.172, 171.1211
1088.654, 62.02930
1089.136, 8.464844
1089.618, 20.54492
1090.100, 42.62500
1090.583, 31.75781
1091.065, 5.763672
1091.547, 8.000000
1092.029, 34.76758
1092.511, 36.99219
1092.993, 2.308594
1093.475, 4.835938
1093.957, 43.25977
1094.439, 101.0176
1094.922, 175.3223
1095.404, 222.2031
1095.886, 185.7949
1096.368, 107.7715
1096.850, 111.4766
1097.332, 177.5137
1097.814, 233.7168
1098.296, 274.3125
1098.779, 287.2305
1099.261, 267.0176
1099.743, 206.9746
1100.225, 163.6660
1100.707, 130.4766
1101.189, 121.9102
1101.671, 123.9941
1102.153, 99.77148
1102.635, 82.76367
1103.118, 110.2148
1103.600, 155.4688
1104.082, 194.1836
1104.564, 198.6406
1105.046, 177.2930
1105.528, 116.4492
1106.010, 68.06641
1106.492, 99.03125
1106.974, 148.6367
1107.457, 106.7734
1107.939, 6.921875
1108.421, 1.140625
1108.903, 136.7656
1109.385, 144.5117
1109.867, 0.0000000E+00
##END=



