##NAMES=Valentinite
##RRUFFID=R050389
##IDEAL CHEMISTRY=Sb_2_O_3_
##LOCALITY=Bohemia Region, Pribram, Czech Republic
##OWNER=RRUFF
##SOURCE=University of Arizona Mineral Museum
##DESCRIPTION=Colorless prismatic parallel crystals
##STATUS=The identification of this mineral has been confirmed by X-ray diffraction and chemical analysis
##URL=rruff.info/R050389
##MEASURED CHEMISTRY=Sb_2.00_O_3_
114.2187, 0.0000000E+00
114.7008, 4.902985
115.1829, 3.639313
115.6650, 1.181763
116.1472, 1.841675
116.6293, 1.698090
117.1114, 10.77121
117.5935, 25.22559
118.0756, 43.38013
118.5577, 64.47067
119.0399, 88.60648
119.5220, 117.2011
120.0041, 151.9842
120.4862, 190.7001
120.9683, 227.9525
121.4504, 264.2422
121.9326, 298.0514
122.4147, 327.7467
122.8968, 353.0952
123.3789, 375.7095
123.8610, 393.9655
124.3431, 410.5219
124.8252, 427.3890
125.3074, 444.5351
125.7895, 463.4650
126.2716, 487.3521
126.7537, 517.4014
127.2358, 550.8663
127.7179, 586.8724
128.2001, 624.3508
128.6822, 662.4775
129.1643, 700.5087
129.6464, 738.7432
130.1285, 778.5303
130.6107, 823.4058
131.0928, 866.9412
131.5749, 906.1586
132.0570, 942.4603
132.5391, 979.2692
133.0212, 1019.136
133.5034, 1062.349
133.9855, 1109.182
134.4676, 1157.465
134.9497, 1210.080
135.4318, 1268.290
135.9139, 1332.212
136.3961, 1402.880
136.8782, 1480.915
137.3603, 1567.055
137.8424, 1668.032
138.3245, 1783.527
138.8066, 1910.956
139.2888, 2055.341
139.7709, 2222.803
140.2530, 2381.269
140.7351, 2500.073
141.2172, 2583.906
141.6993, 2608.669
142.1815, 2553.982
142.6636, 2429.606
143.1457, 2266.434
143.6278, 2048.829
144.1099, 1821.242
144.5920, 1613.816
145.0742, 1428.471
145.5563, 1264.502
146.0384, 1123.423
146.5205, 1006.553
147.0026, 903.2924
147.4847, 818.6450
147.9669, 743.2734
148.4490, 673.2054
148.9311, 607.7576
149.4132, 547.4727
149.8953, 493.9496
150.3774, 449.4602
150.8596, 407.2676
151.3417, 365.5682
151.8238, 326.1662
152.3059, 290.9136
152.7880, 260.6293
153.2701, 233.8419
153.7523, 207.2819
154.2344, 178.6843
154.7165, 153.3679
155.1986, 132.8891
155.6807, 115.3616
156.1628, 98.32050
156.6449, 80.52756
157.1271, 62.60162
157.6092, 47.32504
158.0913, 35.01675
158.5734, 24.24231
159.0555, 15.22037
159.5376, 7.555817
160.0198, 0.1788330
160.5019, 7.617676
160.9840, 15.43286
161.4661, 22.01215
161.9482, 27.15500
162.4303, 31.38370
162.9125, 34.98880
163.3946, 37.97308
163.8767, 40.28317
164.3588, 41.81488
164.8409, 42.59406
165.3230, 42.71515
165.8052, 42.35297
166.2873, 41.21701
166.7694, 38.83490
167.2515, 34.96030
167.7336, 30.63043
168.2157, 25.90695
168.6979, 21.14792
169.1800, 16.82022
169.6621, 13.35928
170.1442, 10.25720
170.6263, 5.960785
171.1084, 0.4099430
171.5906, 6.651276
172.0727, 13.04642
172.5548, 18.85480
173.0369, 24.15469
173.5190, 28.75397
174.0011, 32.98068
174.4833, 39.10168
174.9654, 48.80411
175.4475, 58.89505
175.9296, 68.76166
176.4117, 78.49283
176.8938, 88.56345
177.3760, 99.39575
177.8581, 111.0302
178.3402, 121.7484
178.8223, 128.8441
179.3044, 137.6799
179.7865, 150.6490
180.2687, 167.1484
180.7508, 185.0522
181.2329, 202.5875
181.7150, 219.7938
182.1971, 236.8520
182.6792, 252.9503
183.1614, 269.5331
183.6435, 287.3669
184.1256, 306.4695
184.6077, 326.6620
185.0898, 348.1273
185.5719, 370.9149
186.0541, 392.6943
186.5362, 414.4983
187.0183, 434.6115
187.5004, 451.8885
187.9825, 466.3415
188.4646, 476.8071
188.9468, 481.9203
189.4289, 482.0155
189.9110, 477.1976
190.3931, 466.2080
190.8752, 450.6622
191.3573, 432.0905
191.8395, 409.4754
192.3216, 386.9675
192.8037, 366.2365
193.2858, 347.8004
193.7679, 333.6832
194.2500, 325.2827
194.7322, 321.9681
195.2143, 321.7364
195.6964, 324.7850
196.1785, 331.0326
196.6606, 340.5020
197.1427, 352.5412
197.6249, 365.6687
198.1070, 379.2276
198.5891, 393.1807
199.0712, 407.0263
199.5533, 420.0766
200.0354, 433.9094
200.5176, 448.1991
200.9997, 463.5400
201.4818, 480.9925
201.9639, 501.1519
202.4460, 523.9915
202.9281, 549.9361
203.4103, 579.9977
203.8924, 612.3660
204.3745, 647.2922
204.8566, 684.3428
205.3387, 721.6854
205.8208, 757.2592
206.3030, 790.4124
206.7851, 829.8282
207.2672, 880.3292
207.7493, 931.8926
208.2314, 979.3604
208.7135, 1023.699
209.1957, 1069.213
209.6778, 1119.765
210.1599, 1175.707
210.6420, 1234.062
211.1241, 1294.814
211.6062, 1357.172
212.0884, 1419.562
212.5705, 1482.456
213.0526, 1549.661
213.5347, 1626.378
214.0168, 1714.215
214.4989, 1792.080
214.9811, 1863.647
215.4632, 1923.856
215.9453, 1972.021
216.4274, 2007.129
216.9095, 2023.246
217.3916, 2013.993
217.8738, 1976.595
218.3559, 1927.495
218.8380, 1862.259
219.3201, 1788.117
219.8022, 1707.867
220.2843, 1621.805
220.7665, 1537.769
221.2486, 1461.519
221.7307, 1392.539
222.2128, 1330.627
222.6949, 1277.895
223.1770, 1231.159
223.6592, 1187.655
224.1413, 1147.436
224.6234, 1109.626
225.1055, 1075.808
225.5876, 1044.057
226.0697, 1010.840
226.5519, 975.4750
227.0340, 938.1234
227.5161, 899.3223
227.9982, 859.3521
228.4803, 816.6428
228.9624, 768.1943
229.4446, 717.1758
229.9267, 666.7619
230.4088, 618.0338
230.8909, 571.2105
231.3730, 527.8128
231.8551, 489.4020
232.3373, 450.6680
232.8194, 406.7629
233.3015, 361.7953
233.7836, 320.3443
234.2657, 284.3463
234.7478, 252.8467
235.2300, 223.8250
235.7121, 197.1266
236.1942, 173.3282
236.6763, 152.9285
237.1584, 134.8116
237.6405, 117.7393
238.1227, 101.0925
238.6048, 85.24133
239.0869, 71.17932
239.5690, 59.20496
240.0511, 48.66052
240.5332, 38.78137
241.0154, 30.25031
241.4975, 24.07056
241.9796, 20.67841
242.4617, 19.30511
242.9438, 18.06860
243.4259, 16.52948
243.9081, 15.92676
244.3902, 16.57556
244.8723, 18.01392
245.3544, 19.57806
245.8365, 21.04883
246.3186, 23.05725
246.8008, 27.22998
247.2829, 36.16333
247.7650, 43.51123
248.2471, 47.36237
248.7292, 50.43713
249.2113, 55.06134
249.6935, 62.06476
250.1756, 70.94073
250.6577, 80.74969
251.1398, 91.70190
251.6219, 103.3693
252.1040, 115.7925
252.5862, 128.7731
253.0683, 141.9402
253.5504, 155.1794
254.0325, 169.0978
254.5146, 184.7527
254.9967, 203.3723
255.4789, 221.4763
255.9610, 238.0506
256.4431, 254.5974
256.9252, 272.9467
257.4073, 293.4432
257.8894, 314.2844
258.3716, 333.1088
258.8537, 349.1212
259.3358, 364.7147
259.8179, 381.3625
260.3000, 396.7900
260.7821, 408.0004
261.2643, 414.7419
261.7464, 420.7963
262.2285, 430.1345
262.7106, 443.4503
263.1927, 458.6467
263.6748, 477.5455
264.1570, 497.1021
264.6391, 513.4584
265.1212, 526.4950
265.6033, 541.1674
266.0854, 562.4053
266.5675, 590.6793
267.0497, 618.2773
267.5318, 642.5391
268.0139, 667.6735
268.4960, 697.7386
268.9781, 732.7037
269.4602, 768.4942
269.9424, 801.2621
270.4245, 832.0516
270.9066, 867.4650
271.3887, 910.9922
271.8708, 956.8085
272.3529, 999.7064
272.8351, 1040.078
273.3172, 1082.258
273.7993, 1129.057
274.2814, 1180.151
274.7635, 1233.131
275.2456, 1289.201
275.7278, 1345.472
276.2099, 1398.399
276.6920, 1448.704
277.1741, 1502.522
277.6562, 1563.094
278.1383, 1628.973
278.6205, 1694.974
279.1026, 1761.420
279.5847, 1828.635
280.0668, 1897.146
280.5489, 1967.043
281.0310, 2037.108
281.5132, 2106.940
281.9953, 2176.769
282.4774, 2247.076
282.9595, 2318.240
283.4416, 2387.535
283.9237, 2452.033
284.4059, 2512.776
284.8880, 2575.312
285.3701, 2642.380
285.8522, 2709.176
286.3343, 2770.478
286.8164, 2826.546
287.2986, 2881.944
287.7807, 2941.189
288.2628, 3002.019
288.7449, 3055.615
289.2270, 3098.047
289.7091, 3138.307
290.1913, 3187.901
290.6734, 3243.072
291.1555, 3290.570
291.6376, 3321.551
292.1197, 3340.520
292.6018, 3359.429
293.0840, 3381.437
293.5661, 3396.401
294.0482, 3396.879
294.5303, 3386.326
295.0124, 3369.364
295.4945, 3347.417
295.9767, 3320.372
296.4588, 3288.968
296.9409, 3254.411
297.4230, 3211.000
297.9051, 3151.891
298.3872, 3082.931
298.8694, 3009.231
299.3515, 2931.414
299.8336, 2850.790
300.3157, 2769.240
300.7978, 2686.803
301.2799, 2600.226
301.7621, 2503.276
302.2442, 2403.505
302.7263, 2306.593
303.2084, 2213.359
303.6905, 2123.594
304.1726, 2036.935
304.6548, 1953.689
305.1369, 1871.691
305.6190, 1789.620
306.1011, 1708.880
306.5832, 1630.436
307.0653, 1554.451
307.5475, 1481.537
308.0296, 1412.697
308.5117, 1347.797
308.9938, 1283.885
309.4759, 1220.330
309.9580, 1158.578
310.4402, 1099.299
310.9223, 1042.623
311.4044, 988.6898
311.8865, 937.6599
312.3686, 889.5507
312.8507, 844.1214
313.3329, 801.7141
313.8150, 761.7947
314.2971, 723.9318
314.7792, 687.7369
315.2613, 652.1738
315.7434, 615.8508
316.2256, 580.0703
316.7077, 548.5413
317.1898, 522.8152
317.6719, 496.3180
318.1540, 462.8748
318.6361, 428.3952
319.1183, 399.8745
319.6004, 379.9692
320.0825, 363.9062
320.5646, 345.5020
321.0467, 324.3211
321.5288, 304.1679
322.0110, 286.7472
322.4931, 270.6035
322.9752, 254.7549
323.4573, 239.0902
323.9394, 223.9451
324.4215, 209.9537
324.9037, 197.2039
325.3858, 184.1735
325.8679, 170.0349
326.3500, 156.2894
326.8321, 143.8342
327.3142, 132.6133
327.7964, 122.3483
328.2785, 113.2090
328.7606, 104.9893
329.2427, 96.53522
329.7248, 87.57751
330.2069, 78.87180
330.6891, 70.67465
331.1712, 62.94196
331.6533, 55.66452
332.1354, 48.91733
332.6175, 42.74020
333.0996, 37.03616
333.5818, 31.71381
334.0639, 26.91052
334.5460, 23.13757
335.0281, 19.71371
335.5102, 15.89215
335.9923, 11.30377
336.4745, 6.833557
336.9566, 3.306274
337.4387, 0.6889040
337.9208, 1.446899
338.4029, 2.730865
338.8850, 3.892731
339.3672, 5.815948
339.8493, 8.645874
340.3314, 11.12375
340.8135, 12.17859
341.2956, 12.07172
341.7777, 11.96835
342.2599, 12.00275
342.7420, 12.18826
343.2241, 12.52142
343.7062, 12.98337
344.1883, 13.51358
344.6704, 14.31290
345.1526, 15.17831
345.6347, 15.47653
346.1168, 14.92316
346.5989, 14.42346
347.0810, 15.18192
347.5631, 16.45773
348.0453, 16.83057
348.5274, 15.43744
349.0095, 13.40396
349.4916, 11.94153
349.9737, 11.05383
350.4558, 10.37640
350.9380, 9.791016
351.4201, 9.283417
351.9022, 8.813171
352.3843, 8.359772
352.8664, 8.007111
353.3485, 7.934998
353.8307, 8.022308
354.3128, 7.789734
354.7949, 7.047363
355.2770, 6.072449
355.7591, 5.118408
356.2412, 4.181061
356.7234, 3.600769
357.2055, 3.556229
357.6876, 3.899277
358.1697, 4.637711
358.6518, 5.889572
359.1339, 6.741714
359.6161, 6.102982
360.0982, 4.260422
360.5803, 2.738373
361.0624, 1.604294
361.5445, 0.9237520
362.0266, 1.056061
362.5088, 1.872772
362.9909, 2.326187
363.4730, 1.667633
363.9551, 0.3354490
364.4372, 0.2374730
364.9193, 0.4529270
365.4015, 0.9893650
365.8836, 0.5372920
366.3657, 0.4732210
366.8478, 1.238281
367.3299, 1.537949
367.8120, 1.331039
368.2942, 0.2487950
368.7763, 2.150558
369.2584, 3.442886
369.7405, 2.497330
370.2226, 0.7516780
370.7047, 0.5565490
371.1869, 1.227814
371.6690, 1.411652
372.1511, 1.082153
372.6332, 0.2130280
373.1153, 0.1080930
373.5974, 1.474350
374.0796, 2.814346
374.5617, 3.603760
375.0438, 3.794922
375.5259, 3.139587
376.0080, 1.345016
376.4901, 0.9889830
376.9723, 1.663513
377.4544, 1.068695
377.9365, 3.177826
378.4186, 4.003189
378.9007, 4.119614
379.3828, 3.964783
379.8650, 3.712173
380.3471, 3.659821
380.8292, 4.281403
381.3113, 5.951309
381.7934, 7.171555
382.2755, 7.989075
382.7577, 8.386169
383.2398, 8.148361
383.7219, 7.437469
384.2040, 6.726715
384.6861, 6.398361
385.1682, 6.424835
385.6504, 6.418289
386.1325, 6.467087
386.6146, 6.385345
387.0967, 5.744064
387.5788, 5.097977
388.0609, 5.337357
388.5431, 6.835892
389.0252, 8.790894
389.5073, 9.475250
389.9894, 7.989258
390.4715, 7.101532
390.9536, 6.799530
391.4358, 7.157333
391.9179, 8.775253
392.4000, 11.35559
392.8821, 13.49437
393.3642, 13.50154
393.8463, 11.27333
394.3285, 10.38957
394.8106, 12.08064
395.2927, 13.74757
395.7748, 14.68564
396.2569, 14.94730
396.7390, 14.56763
397.2212, 13.37852
397.7033, 11.85556
398.1854, 11.21512
398.6675, 11.77660
399.1496, 12.46077
399.6317, 13.25597
400.1139, 13.86355
400.5960, 13.86177
401.0781, 13.19672
401.5602, 12.60885
402.0423, 13.14006
402.5244, 14.60349
403.0066, 14.89857
403.4887, 13.03369
403.9708, 11.15256
404.4529, 10.89967
404.9350, 11.75466
405.4171, 12.40778
405.8993, 12.29018
406.3814, 11.81048
406.8635, 11.50656
407.3456, 11.36901
407.8277, 11.18297
408.3098, 10.71600
408.7920, 10.19393
409.2741, 10.04062
409.7562, 10.44256
410.2383, 10.77547
410.7204, 10.44652
411.2025, 9.717865
411.6847, 9.307327
412.1668, 9.338005
412.6489, 9.988419
413.1310, 11.92726
413.6131, 15.13321
414.0952, 17.39337
414.5774, 17.58671
415.0595, 17.12339
415.5416, 17.20050
416.0237, 17.85045
416.5058, 18.73082
416.9879, 19.79079
417.4701, 20.96273
417.9522, 21.53816
418.4343, 20.84751
418.9164, 20.42394
419.3985, 20.61563
419.8806, 21.28210
420.3628, 22.30217
420.8449, 23.66336
421.3270, 25.26948
421.8091, 26.91923
422.2912, 28.47334
422.7733, 30.26350
423.2555, 32.43246
423.7376, 34.74776
424.2197, 37.17703
424.7018, 39.61676
425.1839, 41.89247
425.6660, 43.88436
426.1482, 45.52449
426.6303, 46.63256
427.1124, 46.33107
427.5945, 46.86395
428.0766, 49.45970
428.5587, 52.54902
429.0409, 54.16116
429.5230, 53.81836
430.0051, 53.24780
430.4872, 55.37052
430.9693, 61.36029
431.4514, 65.40639
431.9336, 65.23352
432.4157, 64.88996
432.8978, 65.99718
433.3799, 68.20134
433.8620, 70.32763
434.3441, 71.53344
434.8263, 72.31166
435.3084, 74.16807
435.7905, 77.53821
436.2726, 80.47366
436.7547, 81.87915
437.2368, 82.71777
437.7190, 83.77589
438.2011, 85.21613
438.6832, 86.81885
439.1653, 88.54369
439.6474, 90.30698
440.1295, 91.82663
440.6117, 93.11906
441.0938, 93.95937
441.5759, 93.61571
442.0580, 92.55779
442.5401, 92.36220
443.0222, 94.55412
443.5044, 97.06915
443.9865, 98.00525
444.4686, 97.39674
444.9507, 95.61319
445.4328, 92.49686
445.9149, 88.68175
446.3971, 85.67392
446.8792, 83.84602
447.3613, 81.63615
447.8434, 78.23318
448.3255, 74.31943
448.8076, 70.68710
449.2898, 67.48885
449.7719, 64.58681
450.2540, 61.87976
450.7361, 59.35081
451.2182, 56.57971
451.7003, 52.71785
452.1825, 49.46828
452.6646, 48.09027
453.1467, 47.67975
453.6288, 46.57002
454.1109, 44.01900
454.5930, 40.88216
455.0752, 38.93593
455.5573, 39.16849
456.0394, 38.66998
456.5215, 36.71545
457.0036, 34.83678
457.4857, 33.83168
457.9679, 33.72702
458.4500, 34.24960
458.9321, 35.33376
459.4142, 36.81496
459.8963, 37.64549
460.3784, 37.09285
460.8606, 37.23909
461.3427, 38.77179
461.8248, 41.04181
462.3069, 43.59641
462.7890, 46.33636
463.2711, 49.06215
463.7532, 51.30267
464.2354, 53.14430
464.7175, 55.69769
465.1996, 59.07782
465.6817, 63.24802
466.1638, 68.30782
466.6459, 74.07060
467.1281, 80.15176
467.6102, 86.41331
468.0923, 92.93588
468.5744, 99.60754
469.0565, 106.5155
469.5386, 114.0093
470.0208, 122.1323
470.5029, 131.0749
470.9850, 141.4114
471.4671, 153.4969
471.9492, 164.9534
472.4313, 174.5945
472.9135, 183.6765
473.3956, 193.4863
473.8777, 204.1436
474.3598, 215.3392
474.8419, 226.8227
475.3240, 238.6138
475.8062, 250.6223
476.2883, 261.2948
476.7704, 274.0841
477.2525, 290.7834
477.7346, 309.4953
478.2167, 327.7546
478.6989, 345.0326
479.1810, 362.5195
479.6631, 382.2311
480.1452, 404.7030
480.6273, 426.0253
481.1094, 443.3242
481.5916, 462.3182
482.0737, 485.4266
482.5558, 511.4500
483.0379, 538.2437
483.5200, 564.9293
484.0021, 591.7941
484.4843, 619.6019
484.9664, 648.7500
485.4485, 677.5852
485.9306, 706.8637
486.4127, 734.7209
486.8948, 760.4066
487.3770, 783.7891
487.8591, 804.0856
488.3412, 820.8157
488.8233, 834.1318
489.3054, 843.7514
489.7875, 849.4148
490.2697, 853.5107
490.7518, 856.8407
491.2339, 859.4390
491.7160, 861.4268
492.1981, 862.4071
492.6802, 863.9333
493.1624, 866.8148
493.6445, 870.5822
494.1266, 873.7413
494.6087, 876.1513
495.0908, 881.0877
495.5729, 892.3159
496.0551, 909.6979
496.5372, 923.2610
497.0193, 930.6630
497.5014, 937.5927
497.9835, 945.9973
498.4656, 954.9093
498.9478, 963.4291
499.4299, 971.1585
499.9120, 977.0591
500.3941, 979.6194
500.8762, 978.8079
501.3583, 974.6794
501.8405, 966.7902
502.3226, 956.0043
502.8047, 941.9304
503.2868, 925.2023
503.7689, 906.9861
504.2510, 887.6674
504.7332, 867.4240
505.2153, 847.0323
505.6974, 826.9157
506.1795, 803.5932
506.6616, 774.1599
507.1437, 743.4127
507.6259, 715.1893
508.1080, 688.9169
508.5901, 662.2603
509.0722, 632.9316
509.5543, 603.1125
510.0364, 575.4802
510.5186, 550.1050
511.0007, 527.0634
511.4828, 507.2065
511.9649, 489.1340
512.4470, 469.8312
512.9291, 448.6829
513.4113, 428.4915
513.8934, 410.2270
514.3755, 393.2454
514.8576, 377.3108
515.3397, 362.1830
515.8218, 347.1545
516.3040, 331.3524
516.7861, 315.2269
517.2682, 302.2785
517.7503, 295.8553
518.2324, 288.5265
518.7145, 279.6382
519.1967, 269.4706
519.6788, 257.6565
520.1609, 244.5151
520.6430, 231.6577
521.1251, 220.7088
521.6072, 211.5767
522.0894, 203.1205
522.5715, 195.2396
523.0536, 188.2235
523.5357, 182.4932
524.0178, 177.4016
524.4999, 172.2552
524.9821, 166.8752
525.4642, 161.3792
525.9463, 155.8349
526.4284, 150.2636
526.9105, 144.5424
527.3926, 138.6436
527.8748, 132.7435
528.3569, 126.8904
528.8390, 121.1380
529.3211, 115.5888
529.8032, 110.3822
530.2853, 105.2622
530.7675, 99.95966
531.2496, 94.68909
531.7317, 89.95709
532.2138, 85.89476
532.6959, 82.07283
533.1780, 77.93246
533.6602, 73.31932
534.1423, 69.33415
534.6244, 66.74902
535.1065, 63.82022
535.5886, 59.50078
536.0707, 54.53638
536.5529, 50.08502
537.0350, 46.63487
537.5171, 43.78027
537.9992, 41.02005
538.4813, 38.40611
538.9634, 35.63939
539.4456, 32.55127
539.9277, 29.49608
540.4098, 26.47935
540.8919, 23.65623
541.3740, 21.38666
541.8561, 20.00676
542.3383, 18.82127
542.8204, 16.89938
543.3025, 14.33020
543.7846, 11.93369
544.2667, 9.836121
544.7488, 8.120697
545.2310, 7.161865
545.7131, 6.846848
546.1952, 6.005508
546.6773, 3.867905
547.1594, 1.715363
547.6415, 0.4190060
548.1237, 0.2243800
548.6058, 0.7543950
549.0879, 1.371338
549.5700, 2.114059
550.0521, 3.079224
550.5342, 4.424698
551.0164, 5.483536
551.4985, 6.162216
551.9806, 6.688171
552.4627, 7.115677
552.9448, 7.479401
553.4269, 7.820984
553.9091, 8.159241
554.3912, 8.498657
554.8733, 9.052216
555.3554, 10.00667
555.8375, 9.817398
556.3196, 7.134460
556.8018, 4.596512
557.2839, 4.081985
557.7660, 5.028976
558.2481, 5.852768
558.7302, 5.943527
559.2123, 5.733368
559.6945, 5.709854
560.1766, 5.782440
560.6587, 5.495392
561.1408, 4.653946
561.6229, 3.593979
562.1050, 2.724274
562.5872, 2.085373
563.0693, 1.363342
563.5514, 0.3838200
564.0335, 0.5069430
564.5156, 0.7276150
564.9977, 0.8158420
565.4799, 1.955597
565.9620, 4.588135
566.4441, 7.644470
566.9262, 9.317261
567.4083, 9.128448
567.8904, 9.494965
568.3726, 10.76245
568.8547, 12.26384
569.3368, 14.02458
569.8189, 15.80722
570.3010, 17.10359
570.7831, 17.61856
571.2653, 18.28445
571.7474, 20.35068
572.2295, 23.62485
572.7116, 26.74728
573.1937, 29.44048
573.6758, 32.11629
574.1580, 35.09261
574.6401, 38.34662
575.1222, 41.78770
575.6043, 45.41916
576.0864, 49.20370
576.5685, 53.19193
577.0507, 57.23601
577.5328, 61.09084
578.0149, 64.74915
578.4970, 68.48743
578.9791, 72.61470
579.4612, 77.13950
579.9434, 81.35611
580.4255, 84.71517
580.9076, 88.43809
581.3897, 92.79388
581.8718, 97.46516
582.3539, 102.1525
582.8361, 106.8327
583.3182, 111.6655
583.8003, 116.9494
584.2824, 122.5646
584.7645, 127.5645
585.2466, 131.6054
585.7288, 136.0594
586.2109, 142.0440
586.6930, 148.6810
587.1751, 154.6124
587.6572, 159.6487
588.1393, 164.3914
588.6215, 168.8212
589.1036, 173.2761
589.5857, 178.1600
590.0678, 183.5189
590.5499, 189.2699
591.0320, 195.4566
591.5142, 201.8956
591.9963, 207.8527
592.4784, 214.1346
592.9605, 218.6345
593.4426, 219.9462
593.9247, 220.6441
594.4069, 223.0226
594.8890, 226.5079
595.3711, 228.5967
595.8532, 227.3487
596.3353, 224.3459
596.8174, 223.7657
597.2996, 226.3442
597.7817, 227.0908
598.2638, 224.2484
598.7459, 219.8515
599.2280, 215.4688
599.7101, 211.1092
600.1923, 206.7670
600.6744, 202.6163
601.1565, 198.3362
601.6386, 193.3631
602.1207, 188.0059
602.6028, 183.2403
603.0850, 179.4445
603.5671, 175.9373
604.0492, 171.8129
604.5313, 166.8989
605.0134, 162.4485
605.4955, 159.0248
605.9777, 155.3340
606.4598, 150.5798
606.9419, 145.4714
607.4240, 141.0544
607.9061, 137.5965
608.3882, 134.4316
608.8704, 130.8264
609.3525, 126.8467
609.8346, 123.3145
610.3167, 120.7750
610.7988, 117.3737
611.2809, 111.1768
611.7631, 104.0339
612.2452, 98.62726
612.7273, 95.58419
613.2094, 92.31183
613.6915, 86.93349
614.1736, 81.24485
614.6558, 78.05481
615.1379, 76.98666
615.6200, 74.66193
616.1021, 68.86354
616.5842, 61.04367
617.0663, 55.40379
617.5485, 53.73512
618.0306, 51.14887
618.5127, 47.07426
618.9948, 42.75284
619.4769, 38.65499
619.9590, 34.89922
620.4412, 31.64391
620.9233, 28.99091
621.4054, 26.73271
621.8875, 24.42437
622.3696, 22.06104
622.8517, 20.38863
623.3339, 19.92365
623.8160, 19.42538
624.2981, 17.65949
624.7802, 15.00928
625.2623, 12.71630
625.7444, 11.05395
626.2266, 9.604477
626.7087, 8.234558
627.1908, 6.926125
627.6729, 5.534325
628.1550, 4.088211
628.6371, 3.016701
629.1193, 2.757385
629.6014, 3.184723
630.0835, 3.291336
630.5656, 2.954025
631.0477, 2.482506
631.5298, 1.803375
632.0120, 1.119545
632.4941, 0.5143050
632.9762, 3.0647000E-02
633.4583, 0.2202450
633.9404, 6.9130003E-02
634.4225, 0.4253540
634.9047, 0.1083300
635.3868, 1.445801
635.8689, 2.369476
636.3510, 2.409775
636.8331, 2.137863
637.3152, 2.383179
637.7974, 3.252785
638.2795, 3.131058
638.7616, 0.6929020
639.2437, 1.285797
639.7258, 1.310471
640.2079, 0.3178480
640.6901, 0.4489590
641.1722, 0.6269840
641.6543, 0.4226760
642.1364, 3.7505999E-02
642.6185, 0.7136460
643.1006, 1.004601
643.5828, 0.6061710
644.0649, 0.4976810
644.5470, 1.234474
645.0291, 2.291702
645.5112, 3.280075
645.9933, 4.165436
646.4755, 4.909958
646.9576, 5.492783
647.4397, 5.927399
647.9218, 6.125977
648.4039, 6.165932
648.8860, 6.344238
649.3682, 6.780396
649.8503, 7.389313
650.3324, 7.971786
650.8145, 8.317780
651.2966, 9.632774
651.7787, 13.41988
652.2609, 16.40009
652.7430, 16.94837
653.2251, 16.40852
653.7072, 16.48384
654.1893, 17.60677
654.6714, 19.00092
655.1536, 19.62517
655.6357, 19.93416
656.1178, 21.79231
656.5999, 25.46776
657.0820, 28.76517
657.5641, 30.50336
658.0463, 31.43379
658.5284, 32.65673
659.0105, 33.77925
659.4926, 36.81220
659.9747, 44.96879
660.4568, 52.33557
660.9390, 54.14099
661.4211, 52.45657
661.9032, 51.68539
662.3853, 53.58046
662.8674, 56.97527
663.3495, 60.31454
663.8317, 63.56982
664.3138, 67.39458
664.7959, 72.23274
665.2780, 76.82113
665.7601, 80.30831
666.2422, 83.40468
666.7244, 86.85483
667.2065, 90.74352
667.6886, 94.97347
668.1707, 99.52344
668.6528, 104.3759
669.1349, 109.4691
669.6171, 114.8372
670.0992, 120.8297
670.5813, 127.6522
671.0634, 134.4941
671.5455, 139.8791
672.0276, 143.3217
672.5098, 147.0468
672.9919, 151.0308
673.4740, 155.3263
673.9561, 159.9424
674.4382, 164.8577
674.9203, 170.0879
675.4025, 175.6134
675.8846, 181.3799
676.3667, 187.6378
676.8488, 193.9957
677.3309, 199.5456
677.8130, 204.2372
678.2952, 208.8142
678.7773, 213.8509
679.2594, 218.6024
679.7415, 221.7188
680.2236, 222.7123
680.7057, 223.3865
681.1879, 223.7140
681.6700, 223.7636
682.1521, 223.9967
682.6342, 223.8253
683.1163, 222.3552
683.5984, 219.3095
684.0806, 215.2364
684.5627, 210.2624
685.0448, 204.6498
685.5269, 200.1383
686.0090, 197.1423
686.4911, 192.8489
686.9733, 185.4284
687.4554, 176.6832
687.9375, 169.6565
688.4196, 164.6114
688.9017, 158.8396
689.3839, 151.1182
689.8660, 143.3325
690.3481, 136.6755
690.8302, 130.7860
691.3123, 124.7363
691.7944, 118.3246
692.2766, 112.1979
692.7587, 107.0534
693.2408, 102.7626
693.7229, 98.29993
694.2050, 93.62991
694.6871, 88.97850
695.1693, 84.27183
695.6514, 79.61845
696.1335, 75.10096
696.6156, 70.85730
697.0977, 67.28063
697.5798, 64.66116
698.0620, 62.33250
698.5441, 60.03784
699.0262, 57.68427
699.5083, 54.92228
699.9904, 51.71911
700.4725, 48.80840
700.9547, 47.05916
701.4368, 46.33557
701.9189, 44.90017
702.4010, 42.24062
702.8831, 39.98219
703.3652, 38.89000
703.8474, 38.03072
704.3295, 36.68253
704.8116, 34.89228
705.2937, 33.19747
705.7758, 31.73677
706.2579, 30.52631
706.7401, 29.67646
707.2222, 29.07346
707.7043, 28.46714
708.1864, 27.78950
708.6685, 27.05352
709.1506, 26.32219
709.6328, 25.53780
710.1149, 24.16711
710.5970, 21.38167
711.0791, 19.56865
711.5612, 19.97988
712.0433, 20.60489
712.5255, 19.99398
713.0076, 18.51804
713.4897, 17.43452
713.9718, 17.37085
714.4539, 17.57466
714.9360, 17.51706
715.4182, 17.20105
715.9003, 16.45792
716.3824, 15.30122
716.8645, 14.45449
717.3466, 14.52566
717.8287, 15.20390
718.3109, 15.33746
718.7930, 14.79950
719.2751, 13.93678
719.7572, 12.12323
720.2393, 10.64618
720.7214, 10.53818
721.2036, 11.15514
721.6857, 11.17927
722.1678, 10.10022
722.6499, 8.835648
723.1320, 8.160923
723.6141, 7.882694
724.0963, 7.621563
724.5784, 7.342968
725.0605, 7.168594
725.5426, 7.209064
726.0247, 7.245007
726.5068, 6.758781
726.9890, 5.349113
727.4711, 4.659687
727.9532, 5.492035
728.4353, 6.113548
728.9174, 5.726261
729.3995, 4.907799
729.8817, 4.459438
730.3638, 4.542728
730.8459, 4.601688
731.3280, 4.149773
731.8101, 3.481392
732.2922, 3.123730
732.7744, 3.008888
733.2565, 2.617413
733.7386, 1.701996
734.2207, 0.9331780
734.7028, 1.290257
735.1849, 2.902683
735.6671, 3.706806
736.1492, 2.992382
736.6313, 2.350552
737.1134, 1.852962
737.5955, 1.657173
738.0776, 2.224819
738.5598, 3.332413
739.0419, 3.822239
739.5240, 2.641891
740.0061, 1.125023
740.4882, 0.8905410
740.9703, 1.596786
741.4525, 2.247734
741.9346, 2.630333
742.4167, 2.865505
742.8988, 3.064865
743.3809, 3.195488
743.8630, 3.094574
744.3452, 2.820801
744.8273, 2.194660
745.3094, 0.5813790
745.7915, 0.7469600
746.2736, 0.8144400
746.7557, 0.1489070
747.2379, 3.2515999E-02
747.7200, 0.8033500
748.2021, 1.500961
748.6842, 0.8256380
749.1663, 0.4212270
749.6484, 0.7700920
750.1306, 0.2262230
750.6127, 0.2951050
751.0948, 0.3266120
751.5769, 9.9913001E-02
752.0590, 2.9775999E-02
752.5411, 0.1625730
753.0233, 0.2276460
753.5054, 0.3570480
753.9875, 0.2428670
754.4696, 0.5054470
754.9517, 1.351458
755.4338, 1.712193
755.9160, 1.530466
756.3981, 1.164690
756.8802, 0.6455800
757.3623, 0.1261140
757.8444, 0.2376350
758.3265, 0.4836140
758.8087, 0.7405970
759.2908, 1.029215
759.7729, 1.184711
760.2550, 1.026220
760.7371, 0.6041090
761.2192, 0.2316060
761.7014, 7.6164000E-02
762.1835, 0.3790840
762.6656, 0.7173000
763.1477, 1.019579
763.6298, 1.345360
764.1119, 1.599413
764.5941, 1.469715
765.0762, 0.5917320
765.5583, 5.8371000E-02
766.0404, 0.2076170
766.5225, 0.8061140
767.0046, 1.236448
767.4868, 1.380213
767.9689, 1.005779
768.4510, 2.7454000E-02
768.9331, 1.123184
769.4152, 1.160753
769.8973, 8.8839002E-02
770.3795, 0.5828320
770.8616, 0.6592140
771.3437, 0.8098770
771.8258, 1.569035
772.3079, 2.378160
772.7900, 2.259180
773.2722, 1.107010
773.7543, 0.4256210
774.2364, 0.8313120
774.7185, 1.340836
775.2006, 1.461357
775.6827, 1.388493
776.1649, 1.425764
776.6470, 1.606880
777.1291, 1.749060
777.6112, 1.744535
778.0933, 1.555862
778.5754, 0.9223670
779.0576, 0.1254390
779.5397, 0.6009520
780.0218, 0.2190090
780.5039, 0.4128480
780.9860, 0.8828740
781.4681, 1.206715
781.9503, 1.454931
782.4324, 1.579811
782.9145, 1.710585
783.3966, 2.037958
783.8787, 2.186255
784.3608, 1.774683
784.8430, 1.083261
785.3251, 0.6275960
785.8072, 0.5777870
786.2893, 0.6172940
786.7714, 0.4569510
787.2535, 0.2138160
787.7357, 0.1385040
788.2178, 0.2123450
788.6999, 0.1463660
789.1820, 0.2045590
789.6641, 0.3217600
790.1462, 0.5678920
790.6284, 2.457254
791.1105, 3.369555
791.5926, 2.771988
792.0747, 2.062609
792.5568, 1.275154
793.0389, 0.6715600
793.5211, 0.4850850
794.0032, 0.6268160
794.4853, 0.8189930
794.9674, 1.045782
795.4495, 1.172262
795.9316, 0.9817200
796.4138, 0.7270910
796.8959, 0.8567070
797.3780, 1.267326
797.8601, 1.350277
798.3422, 0.7891010
798.8243, 7.2710000E-02
799.3065, 5.2960999E-02
799.7886, 0.7570880
800.2707, 1.228510
800.7528, 1.395302
801.2349, 1.541170
801.7170, 1.852053
802.1992, 2.128714
802.6813, 1.998720
803.1634, 1.448334
803.6455, 1.111263
804.1276, 1.269110
804.6097, 1.516062
805.0919, 1.756765
805.5740, 1.863012
806.0561, 1.731873
806.5382, 1.466171
807.0203, 1.144999
807.5024, 0.7199360
807.9846, 0.3595920
808.4667, 0.4346580
808.9488, 0.8038480
809.4309, 0.7708820
809.9130, 0.2385330
810.3951, 8.2108997E-02
810.8773, 0.2662490
811.3594, 0.9717540
811.8415, 1.442757
812.3236, 1.699623
812.8057, 1.677261
813.2878, 1.023592
813.7700, 0.5165650
814.2521, 0.4563750
814.7342, 0.5742130
815.2163, 0.5953670
815.6984, 0.5020660
816.1805, 0.4532830
816.6627, 0.4895590
817.1448, 0.6071950
817.6269, 0.8725850
818.1090, 1.222382
818.5911, 1.625757
819.0732, 2.007032
819.5554, 2.084713
820.0375, 1.630379
820.5196, 1.001196
821.0017, 1.042709
821.4838, 1.783506
821.9659, 2.130463
822.4481, 1.936411
822.9302, 1.559029
823.4123, 1.083483
823.8944, 0.6166690
824.3765, 0.2793410
824.8586, 1.6470000E-02
825.3408, 0.1956900
825.8229, 1.361769
826.3050, 2.292410
826.7871, 2.383303
827.2692, 2.149672
827.7513, 2.218513
828.2335, 2.511381
828.7156, 2.463228
829.1977, 1.589874
829.6798, 0.5967310
830.1619, 0.2163620
830.6440, 0.3355480
831.1262, 0.8935780
831.6083, 1.787638
832.0904, 2.288561
832.5725, 1.935068
833.0546, 1.202808
833.5367, 1.094351
834.0188, 1.768753
834.5009, 1.919413
834.9830, 1.273962
835.4651, 0.6420560
835.9473, 0.2368600
836.4294, 5.1803999E-02
836.9115, 0.1323700
837.3936, 0.4529820
837.8757, 0.7014240
838.3578, 0.8316020
838.8400, 0.8586100
839.3221, 0.7119350
839.8042, 0.5179460
840.2863, 0.3076820
840.7684, 0.1699640
841.2505, 0.3782410
841.7327, 1.122135
842.2148, 1.829189
842.6969, 1.680256
843.1790, 0.9801120
843.6611, 0.5806810
844.1432, 0.5216480
844.6254, 0.4542100
845.1075, 0.1981390
845.5896, 9.7939998E-02
846.0717, 0.7063640
846.5538, 2.027229
847.0359, 2.713778
847.5181, 2.414017
848.0002, 2.172903
848.4823, 2.210224
848.9644, 2.338839
849.4465, 2.466116
849.9286, 2.582563
850.4108, 2.688293
850.8929, 2.905584
851.3750, 2.969778
851.8571, 2.395092
852.3392, 1.762882
852.8214, 1.685688
853.3035, 1.982496
853.7856, 2.265303
854.2677, 2.396519
854.7498, 2.365509
855.2319, 2.028940
855.7141, 1.567795
856.1962, 1.375521
856.6783, 1.436111
857.1604, 1.720442
857.6425, 2.230762
858.1246, 2.514349
858.6068, 2.125919
859.0889, 1.293085
859.5710, 0.8818530
860.0531, 1.057825
860.5352, 1.218828
861.0173, 1.351414
861.4995, 1.456871
861.9816, 1.488897
862.4637, 1.515318
862.9458, 1.674423
863.4279, 1.990171
863.9100, 2.145132
864.3922, 1.927858
864.8743, 1.677759
865.3564, 1.426838
865.8385, 1.335915
866.3206, 1.814913
866.8027, 2.687447
867.2849, 3.121174
867.7670, 2.568274
868.2491, 1.734232
868.7312, 1.313850
869.2133, 1.229734
869.6954, 1.091661
870.1776, 0.8735490
870.6597, 0.7155800
871.1418, 0.6817280
871.6239, 0.7625450
872.1060, 0.9291020
872.5881, 1.198050
873.0703, 1.441111
873.5524, 1.704866
874.0345, 1.812046
874.5166, 1.575914
874.9987, 1.345097
875.4808, 1.444792
875.9630, 1.769718
876.4451, 2.040026
876.9272, 2.361719
877.4093, 2.370857
877.8914, 1.685261
878.3735, 0.9763370
878.8557, 0.6538790
879.3378, 0.5839560
879.8199, 0.5356710
880.3020, 0.4481430
880.7841, 0.3280770
881.2662, 0.1505070
881.7484, 2.8248001E-02
882.2305, 0.2158510
882.7126, 0.3375750
883.1947, 0.2079890
883.6768, 0.1988950
884.1589, 0.8814820
884.6411, 1.886602
885.1232, 2.860714
885.6053, 2.993013
886.0874, 2.257465
886.5695, 1.786114
887.0516, 1.698800
887.5338, 1.463018
888.0159, 0.7837620
888.4980, 0.1256910
888.9801, 0.1104570
889.4622, 0.7771880
889.9443, 1.109637
890.4265, 0.8518920
890.9086, 0.6308470
891.3907, 0.3942640
891.8728, 0.3169770
892.3549, 0.5802500
892.8370, 1.059183
893.3192, 1.590013
893.8013, 2.185003
894.2834, 2.415139
894.7655, 1.798656
895.2476, 0.9929030
895.7297, 0.4099720
896.2119, 8.3016999E-02
896.6940, 0.1318050
897.1761, 0.4944350
897.6582, 0.7915860
898.1403, 0.7618870
898.6224, 0.5552430
899.1046, 0.3397350
899.5867, 0.1476570
900.0688, 1.9130000E-03
900.5509, 8.6264998E-02
901.0330, 0.2087680
901.5151, 1.117970
901.9973, 2.069170
902.4794, 2.176717
902.9615, 1.440360
903.4436, 0.8549200
903.9257, 0.3367910
904.4078, 0.2169610
904.8900, 0.8590950
905.3721, 1.551717
905.8542, 1.727489
906.3363, 1.499718
906.8184, 1.302382
907.3005, 1.287961
907.7827, 0.9518910
908.2648, 0.4508130
908.7469, 1.422866
909.2290, 0.8736310
909.7111, 0.3080460
910.1932, 1.106878
910.6754, 1.352875
911.1575, 1.241696
911.6396, 0.5324620
912.1217, 3.0169999E-03
912.6038, 0.6891380
913.0859, 1.710634
913.5681, 1.621348
914.0502, 0.6264920
914.5323, 4.2723998E-02
915.0144, 0.1499730
915.4965, 0.6976520
915.9786, 1.062994
916.4608, 1.278967
916.9429, 1.515663
917.4250, 1.753520
917.9071, 1.601532
918.3892, 0.9158800
918.8713, 0.4094720
919.3535, 0.7009740
919.8356, 1.504332
920.3177, 1.944147
920.7998, 1.943698
921.2819, 1.870298
921.7640, 1.708789
922.2462, 1.500159
922.7283, 1.064805
923.2104, 0.7527190
923.6925, 1.337293
924.1746, 2.720602
924.6567, 2.992772
925.1389, 0.5695920
925.6210, 0.8423970
926.1031, 0.3860240
926.5852, 1.902960
927.0673, 2.136976
927.5494, 1.492369
928.0316, 0.7518840
928.5137, 8.7647997E-02
928.9958, 0.1083350
929.4779, 0.8261980
929.9600, 1.855565
930.4421, 2.220648
930.9243, 2.128900
931.4064, 1.662698
931.8885, 0.8985580
932.3706, 0.4023310
932.8527, 0.5335590
933.3348, 0.8558090
933.8170, 0.7826400
934.2991, 0.4574390
934.7812, 0.2279210
935.2633, 0.1197390
935.7454, 0.1794020
936.2275, 0.4225430
936.7097, 0.8138490
937.1918, 1.381519
937.6739, 1.977108
938.1560, 1.903486
938.6381, 1.027799
939.1202, 0.6004180
939.6024, 0.8278820
940.0845, 1.255466
940.5666, 1.766539
941.0487, 2.213704
941.5308, 2.324118
942.0129, 2.056872
942.4951, 1.839880
942.9772, 1.746242
943.4593, 1.590324
943.9414, 1.470509
944.4235, 1.163306
944.9056, 0.1568370
945.3878, 1.057044
945.8699, 1.300364
946.3520, 0.1583110
946.8341, 0.7076710
947.3162, 0.5887650
947.7983, 0.4231260
948.2805, 0.7719260
948.7626, 1.288944
949.2447, 1.600247
949.7268, 1.665576
950.2089, 1.563544
950.6910, 1.265850
951.1732, 1.017188
951.6553, 1.005569
952.1374, 1.155169
952.6195, 1.475752
953.1016, 1.857726
953.5837, 2.113750
954.0659, 2.168879
954.5480, 1.906021
955.0301, 1.093071
955.5122, 0.1694380
955.9943, 6.9269999E-03
956.4764, 0.4136460
956.9586, 0.9606990
957.4407, 1.548118
957.9228, 1.729671
958.4049, 1.269993
958.8870, 0.7338190
959.3691, 0.8982400
959.8513, 1.651876
960.3334, 2.176394
960.8155, 2.491577
961.2976, 2.346272
961.7797, 1.549300
962.2618, 0.7387810
962.7440, 0.2163620
963.2261, 0.1113410
963.7082, 0.8388130
964.1903, 2.743752
964.6724, 3.627705
965.1545, 2.882494
965.6367, 2.116683
966.1188, 1.490072
966.6009, 1.077966
967.0830, 1.054111
967.5651, 1.417737
968.0472, 2.131580
968.5294, 3.615236
969.0115, 4.325393
969.4936, 3.438087
969.9757, 2.453466
970.4578, 2.067357
970.9399, 1.924466
971.4221, 1.476468
971.9042, 0.8260950
972.3863, 0.7262630
972.8684, 1.841128
973.3505, 2.682671
973.8326, 2.077282
974.3148, 1.240837
974.7969, 1.399865
975.2790, 2.081574
975.7611, 2.237048
976.2432, 1.718034
976.7253, 1.343274
977.2075, 1.806378
977.6896, 2.365675
978.1717, 2.000519
978.6538, 1.277262
979.1359, 1.350863
979.6180, 2.023074
980.1002, 2.064213
980.5823, 1.072937
981.0644, 0.1769160
981.5465, 0.6562940
982.0286, 1.886733
982.5107, 2.474186
982.9929, 2.500406
983.4750, 2.265798
983.9571, 1.957887
984.4392, 1.588148
984.9213, 1.179871
985.4034, 0.8352650
985.8856, 0.7237310
986.3677, 0.8078700
986.8498, 0.8744910
987.3319, 0.9820880
987.8140, 0.5797890
988.2961, 0.6534580
988.7783, 1.330576
989.2604, 0.3707050
989.7425, 1.419818
990.2246, 2.368534
990.7067, 2.365672
991.1888, 2.447551
991.6710, 2.684922
992.1531, 2.834295
992.6352, 2.870134
993.1173, 2.738478
993.5994, 2.263752
994.0815, 1.636953
994.5637, 1.437681
995.0458, 1.796856
995.5279, 2.215474
996.0100, 2.917633
996.4921, 3.386925
996.9742, 3.412018
997.4564, 3.224432
997.9385, 2.919544
998.4206, 2.562202
998.9027, 2.369926
999.3848, 2.475888
999.8669, 2.472005
1000.349, 2.087054
1000.831, 1.800488
1001.313, 2.019258
1001.795, 2.332555
1002.278, 2.166329
1002.760, 1.616243
1003.242, 1.305368
1003.724, 1.624306
1004.206, 2.064020
1004.688, 2.549428
1005.170, 2.738937
1005.652, 2.006162
1006.134, 1.019666
1006.617, 0.9001890
1007.099, 1.656907
1007.581, 2.260218
1008.063, 2.137905
1008.545, 1.868353
1009.027, 1.908845
1009.509, 2.078113
1009.991, 2.196163
1010.474, 2.174864
1010.956, 2.185085
1011.438, 2.229942
1011.920, 2.104630
1012.402, 1.561209
1012.884, 1.049612
1013.366, 1.126781
1013.848, 1.620697
1014.330, 2.494801
1014.813, 3.487806
1015.295, 3.726853
1015.777, 3.018693
1016.259, 2.314807
1016.741, 2.484957
1017.223, 3.039437
1017.705, 3.082191
1018.187, 2.729650
1018.669, 2.310419
1019.152, 1.889426
1019.634, 1.673100
1020.116, 1.732901
1020.598, 1.940001
1021.080, 2.194725
1021.562, 2.480721
1022.044, 2.722992
1022.526, 2.908161
1023.009, 2.856929
1023.491, 2.550907
1023.973, 2.316861
1024.455, 2.301850
1024.937, 2.297333
1025.419, 2.016334
1025.901, 1.587460
1026.383, 1.629148
1026.865, 2.166971
1027.348, 2.894805
1027.830, 3.891607
1028.312, 4.378426
1028.794, 3.924818
1029.276, 3.052039
1029.758, 2.361702
1030.240, 1.858974
1030.722, 1.644430
1031.205, 1.788015
1031.687, 1.919143
1032.169, 2.046041
1032.651, 2.005046
1033.133, 1.603958
1033.615, 1.206900
1034.097, 1.343397
1034.579, 1.964620
1035.062, 2.313145
1035.544, 2.333064
1036.026, 2.203074
1036.508, 1.806782
1036.990, 1.507059
1037.472, 1.517136
1037.954, 1.667135
1038.436, 1.747815
1038.918, 1.755688
1039.401, 1.748949
1039.883, 1.762165
1040.365, 1.676217
1040.847, 1.170049
1041.329, 0.9901090
1041.811, 1.926654
1042.293, 3.054128
1042.775, 3.010758
1043.257, 1.837819
1043.740, 1.184056
1044.222, 1.306604
1044.704, 1.551942
1045.186, 2.175858
1045.668, 2.580278
1046.150, 2.286222
1046.632, 1.700460
1047.114, 1.360627
1047.597, 1.251216
1048.079, 1.297399
1048.561, 1.597799
1049.043, 1.896646
1049.525, 2.485407
1050.007, 2.697526
1050.489, 1.842989
1050.971, 0.6811000
1051.453, 0.1387080
1051.936, 0.2041280
1052.418, 0.2551540
1052.900, 3.2795001E-02
1053.382, 6.2206998E-02
1053.864, 0.7448580
1054.346, 1.363608
1054.828, 1.579558
1055.310, 1.497807
1055.792, 1.108756
1056.275, 0.5156910
1056.757, 0.2242120
1057.239, 0.4671170
1057.721, 0.7644410
1058.203, 1.005565
1058.685, 1.245105
1059.167, 1.544532
1059.649, 1.835894
1060.132, 2.150146
1060.614, 2.399260
1061.096, 2.176815
1061.578, 1.037299
1062.060, 0.3309700
1062.542, 0.8486090
1063.024, 1.548960
1063.506, 2.134106
1063.989, 2.372373
1064.471, 1.754630
1064.953, 0.5658930
1065.435, 4.8149001E-02
1065.917, 0.4450300
1066.399, 0.6982610
1066.881, 0.4500770
1067.363, 1.262536
1067.845, 0.1487850
1068.328, 1.405191
1068.810, 1.571061
1069.292, 0.6578750
1069.774, 0.2238670
1070.256, 0.7839530
1070.738, 1.320212
1071.220, 1.429585
1071.702, 1.377322
1072.184, 1.174181
1072.667, 0.9551500
1073.149, 0.7932940
1073.631, 0.7259950
1074.113, 0.9645790
1074.595, 1.679155
1075.077, 2.133707
1075.559, 1.807014
1076.041, 1.356186
1076.524, 1.030815
1077.006, 0.8574220
1077.488, 0.8717190
1077.970, 1.043797
1078.452, 1.391242
1078.934, 1.916072
1079.416, 2.178567
1079.898, 1.583361
1080.380, 1.185775
1080.863, 1.781276
1081.345, 2.596147
1081.827, 3.054065
1082.309, 3.149668
1082.791, 2.914487
1083.273, 2.385910
1083.755, 1.894645
1084.237, 1.603414
1084.719, 1.359666
1085.202, 1.104847
1085.684, 0.9696460
1086.166, 1.128285
1086.648, 1.429483
1087.130, 1.633414
1087.612, 1.718792
1088.094, 1.892703
1088.576, 2.352426
1089.058, 2.524379
1089.541, 1.800140
1090.023, 1.154444
1090.505, 1.437222
1090.987, 2.101765
1091.469, 2.368197
1091.951, 2.243392
1092.433, 2.297359
1092.915, 2.877468
1093.398, 3.138191
1093.880, 2.400084
1094.362, 1.649713
1094.844, 1.502632
1095.326, 1.624170
1095.808, 1.624319
1096.290, 1.535569
1096.772, 1.633165
1097.255, 2.054308
1097.737, 2.293589
1098.219, 2.166656
1098.701, 1.839284
1099.183, 1.058517
1099.665, 0.3976470
1100.147, 0.4153900
1100.629, 0.9382840
1101.111, 1.584203
1101.594, 2.317969
1102.076, 2.812254
1102.558, 2.915315
1103.040, 2.863694
1103.522, 2.709033
1104.004, 2.445075
1104.486, 1.910948
1104.968, 1.351707
1105.450, 1.204275
1105.933, 1.496459
1106.415, 1.732368
1106.897, 1.842926
1107.379, 1.858057
1107.861, 1.623715
1108.343, 1.468169
1108.825, 1.708253
1109.307, 2.027808
1109.790, 2.066157
1110.272, 1.819313
1110.754, 1.402647
1111.236, 0.3676460
1111.718, 5.0920001E-03
1112.200, 0.9819640
1112.682, 1.911146
1113.164, 2.260283
1113.646, 2.369501
1114.129, 2.630182
1114.611, 2.909729
1115.093, 2.693224
1115.575, 1.690905
1116.057, 1.060952
1116.539, 1.049008
1117.021, 1.035837
1117.503, 0.7338300
1117.985, 0.6075090
1118.468, 1.137429
1118.950, 1.936168
1119.432, 2.315673
1119.914, 2.253078
1120.396, 2.202302
1120.878, 2.177297
1121.360, 2.130265
1121.842, 1.998079
1122.325, 1.956064
1122.807, 2.226183
1123.289, 2.434799
1123.771, 1.990478
1124.253, 1.026822
1124.735, 0.7095770
1125.217, 1.240633
1125.699, 1.676612
1126.182, 1.927532
1126.664, 1.980042
1127.146, 1.832587
1127.628, 1.450171
1128.110, 0.6993340
1128.592, 0.1792040
1129.074, 0.3932420
1129.556, 0.1646450
1130.038, 9.6878000E-02
1130.521, 0.7830980
1131.003, 0.8088470
1131.485, 0.5487380
1131.967, 1.859103
1132.449, 2.167426
1132.931, 1.837418
1133.413, 1.320509
1133.895, 0.7214730
1134.377, 0.6899140
1134.860, 1.213693
1135.342, 1.461884
1135.824, 1.326836
1136.306, 1.092001
1136.788, 0.8762600
1137.270, 0.8174260
1137.752, 1.103964
1138.234, 1.563043
1138.717, 1.781139
1139.199, 1.793548
1139.681, 1.840181
1140.163, 1.868016
1140.645, 1.284758
1141.127, 4.2383000E-02
1141.609, 0.7111850
1142.091, 0.1255150
1142.573, 0.9208580
1143.056, 1.286186
1143.538, 1.177952
1144.020, 0.9329540
1144.502, 0.5855970
1144.984, 6.2426001E-02
1145.466, 0.5242880
1145.948, 0.6701220
1146.430, 0.1681260
1146.912, 0.4109990
1147.395, 0.5676390
1147.877, 0.5490780
1148.359, 0.5547990
1148.841, 0.6163940
1149.323, 0.8699940
1149.805, 1.189317
1150.287, 1.256348
1150.769, 1.036967
1151.252, 0.8254040
1151.734, 0.7100320
1152.216, 0.8082890
1152.698, 1.387243
1153.180, 2.017573
1153.662, 2.498874
1154.144, 2.699069
1154.626, 2.221680
1155.109, 1.348676
1155.591, 1.052462
1156.073, 1.702152
1156.555, 2.203744
1157.037, 2.009003
1157.519, 1.809595
1158.001, 1.956409
1158.483, 2.139763
1158.965, 2.221139
1159.448, 2.122267
1159.930, 1.568151
1160.412, 0.5559680
1160.894, 0.1282360
1161.376, 0.9762540
1161.858, 1.506177
1162.340, 1.389486
1162.822, 1.184249
1163.304, 1.100436
1163.787, 1.002947
1164.269, 0.6469740
1164.751, 0.2005330
1165.233, 0.2660470
1165.715, 0.9649690
1166.197, 1.713929
1166.679, 2.849740
1167.161, 2.961391
1167.644, 1.318342
1168.126, 6.8866998E-02
1168.608, 0.1924430
1169.090, 1.132115
1169.572, 1.217413
1170.054, 0.6489170
1170.536, 1.148263
1171.018, 2.814355
1171.500, 3.029074
1171.983, 1.506840
1172.465, 0.5645450
1172.947, 1.027108
1173.429, 1.921677
1173.911, 2.518352
1174.393, 2.681020
1174.875, 1.839861
1175.357, 0.3856950
1175.839, 0.2170720
1176.322, 5.5346999E-02
1176.804, 0.6414840
1177.286, 1.657102
1177.768, 2.032546
1178.250, 1.357217
1178.732, 0.6641040
1179.214, 1.095391
1179.696, 1.835934
1180.179, 1.716376
1180.661, 1.225626
1181.143, 1.130657
1181.625, 1.311645
1182.107, 1.360771
1182.589, 1.208967
1183.071, 1.035201
1183.553, 0.9189390
1184.036, 0.8215840
1184.518, 0.5050540
1185.000, 0.4361760
1185.482, 1.236025
1185.964, 2.221422
1186.446, 2.739017
1186.928, 2.795057
1187.410, 2.574603
1187.892, 2.075162
1188.375, 1.442008
1188.857, 0.3011290
1189.339, 0.1622290
1189.821, 1.039598
1190.303, 1.953922
1190.785, 1.015983
1191.267, 0.1816130
1191.749, 0.3671260
1192.231, 2.096148
1192.714, 2.777710
1193.196, 2.121681
1193.678, 1.514817
1194.160, 0.9080890
1194.642, 0.4760070
1195.124, 0.2698960
1195.606, 0.1939410
1196.088, 0.1729190
1196.571, 0.3247340
1197.053, 0.8865960
1197.535, 1.707956
1198.017, 2.032297
1198.499, 1.865785
1198.981, 1.393718
1199.463, 0.6182200
1199.945, 0.4106560
1200.427, 0.9515270
1200.910, 1.479234
1201.392, 1.458696
1201.874, 1.273346
1202.356, 1.625076
1202.838, 2.110374
1203.320, 1.487914
1203.802, 0.4431410
1204.284, 0.8348500
1204.766, 2.244864
1205.249, 2.822519
1205.731, 2.108326
1206.213, 1.513682
1206.695, 2.074763
1207.177, 2.638339
1207.659, 2.042094
1208.141, 1.349580
1208.623, 1.740250
1209.106, 2.421778
1209.588, 2.261128
1210.070, 1.448489
1210.552, 0.8359750
1211.034, 0.5861550
1211.516, 0.6509920
1211.998, 1.378410
1212.480, 1.890013
1212.963, 1.829173
1213.445, 1.672102
1213.927, 1.703589
1214.409, 1.758751
1214.891, 1.600771
1215.373, 1.275009
1215.855, 0.9766800
1216.337, 0.6848410
1216.819, 0.4697580
1217.302, 0.2781600
1217.784, 0.3689670
1218.266, 0.8382320
1218.748, 1.415555
1219.230, 2.005274
1219.712, 2.364138
1220.194, 2.103469
1220.676, 1.484452
1221.158, 1.137781
1221.641, 1.030570
1222.123, 0.9415250
1222.605, 0.8828470
1223.087, 1.101907
1223.569, 1.551090
1224.051, 1.405518
1224.533, 0.2879100
1225.015, 0.6752450
1225.498, 4.4321999E-02
1225.980, 1.118938
1226.462, 1.731215
1226.944, 1.969502
1227.426, 1.882871
1227.908, 1.695450
1228.390, 1.960346
1228.872, 2.623891
1229.354, 2.628249
1229.837, 1.256347
1230.319, 0.2442000
1230.801, 0.3868060
1231.283, 0.7559990
1231.765, 1.045852
1232.247, 1.230085
1232.729, 1.048314
1233.211, 0.7402360
1233.693, 0.7982380
1234.176, 1.212254
1234.658, 1.373843
1235.140, 1.149142
1235.622, 1.035374
1236.104, 1.102423
1236.586, 1.084216
1237.068, 0.8380670
1237.550, 0.7654700
1238.033, 1.198277
1238.515, 1.758955
1238.997, 1.741078
1239.479, 1.307795
1239.961, 1.139420
1240.443, 1.162115
1240.925, 0.9287770
1241.407, 0.5202360
1241.890, 0.6429950
1242.372, 1.409056
1242.854, 2.072257
1243.336, 2.160159
1243.818, 2.093459
1244.300, 2.306104
1244.782, 2.502258
1245.264, 2.403139
1245.746, 2.142377
1246.229, 1.693267
1246.711, 1.308153
1247.193, 1.571019
1247.675, 2.496536
1248.157, 3.144550
1248.639, 3.094699
1249.121, 3.024409
1249.603, 2.887946
1250.085, 2.486020
1250.568, 1.389425
1251.050, 0.4569630
1251.532, 0.3003250
1252.014, 0.6920350
1252.496, 1.307167
1252.978, 2.088291
1253.460, 2.185625
1253.942, 1.494166
1254.425, 1.237733
1254.907, 1.511940
1255.389, 1.701688
1255.871, 1.627234
1256.353, 1.524782
1256.835, 1.541457
1257.317, 1.530653
1257.799, 1.012094
1258.281, 0.4999070
1258.764, 1.237905
1259.246, 2.465553
1259.728, 2.953972
1260.210, 2.709562
1260.692, 1.744657
1261.174, 0.3445930
1261.656, 0.4427300
1262.138, 9.8150000E-03
1262.620, 0.6033270
1263.103, 0.9299550
1263.585, 1.142108
1264.067, 1.187588
1264.549, 1.271369
1265.031, 1.608549
1265.513, 2.030244
1265.995, 2.132314
1266.477, 1.893675
1266.960, 0.9454650
1267.442, 0.5042440
1267.924, 0.3863610
1268.406, 0.6457960
1268.888, 0.6805850
1269.370, 0.4128600
1269.852, 0.1795890
1270.334, 0.2166780
1270.817, 0.2387920
1271.299, 0.0000000E+00
##END=



