##NAMES=Vanadinite
##RRUFFID=R050189
##IDEAL CHEMISTRY=Pb_5_(VO_4_)_3_Cl
##LOCALITY=Puzzler mine, Yuma County, Arizona, USA
##OWNER=RRUFF
##SOURCE=Dave Bunk Minerals
##DESCRIPTION=Red and green hexagonal prisms
##STATUS=The identification of this mineral has been confirmed by X-ray diffraction and chemical analysis
##URL=rruff.info/R050189
##MEASURED CHEMISTRY=Pb_5.00_(V_1.00_O_4_)_3_Cl_1.00_
52.866, 0.000
54.266, 42.615
55.666, 84.905
57.065, 35.678
58.464, 8.728
59.863, 13.424
61.262, 20.821
62.661, 72.294
64.059, 16.385
65.458, 87.626
66.856, 204.311
68.253, 527.865
69.651, 1157.813
71.048, 1624.760
72.445, 2568.376
73.842, 2617.388
75.239, 2598.558
76.635, 3291.678
78.031, 4243.585
79.427, 5015.148
80.823, 5923.227
82.218, 6610.687
83.614, 7092.414
85.009, 7642.309
86.404, 8540.284
87.798, 9539.268
89.193, 10748.189
90.587, 12099.997
91.981, 13070.636
93.375, 13452.064
94.768, 12645.241
96.161, 11110.104
97.554, 9322.591
98.947, 7514.655
100.340, 6130.324
101.732, 4988.623
103.124, 4285.540
104.516, 3697.050
105.908, 3361.064
107.300, 3155.482
108.691, 2921.266
110.082, 2908.407
111.473, 2579.893
112.864, 2536.715
114.254, 2317.864
115.644, 2277.331
117.034, 1999.108
118.424, 1777.188
119.813, 1671.561
121.203, 1612.224
122.592, 1532.171
123.981, 1455.397
125.369, 1499.897
126.758, 1480.667
128.146, 1537.705
129.534, 1581.007
130.922, 1693.570
132.309, 1732.392
133.696, 1856.467
135.083, 1938.792
136.470, 2175.294
137.857, 2232.767
139.243, 2425.218
140.630, 2462.683
142.016, 2607.194
143.401, 2573.778
144.787, 2664.599
146.172, 2746.412
147.557, 2669.570
148.942, 2614.373
150.327, 2581.016
151.711, 2472.403
153.096, 2395.219
154.480, 2362.513
155.863, 2315.905
157.247, 2209.439
158.630, 2077.780
160.013, 2086.975
161.396, 1994.946
162.779, 1983.060
164.161, 1944.319
165.544, 1848.718
166.926, 1912.259
168.308, 1811.939
169.689, 1841.756
171.070, 1824.709
172.452, 1766.795
173.833, 1876.014
175.213, 1849.363
176.594, 1868.839
177.974, 1798.441
179.354, 1917.168
180.734, 1930.015
182.114, 1827.982
183.493, 1825.072
184.872, 1788.293
186.251, 1703.643
187.630, 1686.107
189.008, 1661.701
190.387, 1579.437
191.765, 1476.307
193.143, 1331.304
194.520, 1271.432
195.898, 1167.689
197.275, 1106.079
198.652, 980.615
200.029, 893.291
201.405, 791.100
202.782, 742.063
204.158, 609.171
205.534, 625.425
206.909, 578.818
208.285, 499.331
209.660, 434.972
211.035, 383.737
212.410, 328.622
213.784, 307.630
215.159, 263.757
216.533, 275.990
217.907, 257.339
219.281, 191.582
220.654, 182.818
222.027, 145.100
223.400, 164.516
224.773, 126.773
226.146, 97.452
227.518, 123.087
228.891, 36.520
230.263, 75.284
231.634, 24.348
233.006, 67.691
234.377, 22.296
235.748, 8.855
237.119, 5.774
238.490, 43.479
239.860, 24.979
241.231, 40.283
242.601, 30.406
243.970, 55.351
245.340, 58.130
246.709, 54.758
248.079, 58.236
249.448, 42.572
250.816, 58.771
252.185, 54.017
253.553, 68.763
254.921, 55.575
256.289, 48.272
257.657, 42.853
259.024, 33.525
260.391, 57.693
261.758, 25.959
263.125, 12.125
264.492, 21.197
265.858, 28.819
267.224, 32.925
268.590, 41.122
269.956, 34.407
271.321, 94.778
272.687, 132.228
274.052, 140.756
275.416, 144.357
276.781, 262.028
278.146, 263.767
279.510, 313.574
280.874, 355.444
282.237, 429.377
283.601, 499.370
284.964, 546.421
286.327, 603.824
287.690, 655.639
289.053, 698.912
290.416, 735.184
291.778, 788.507
293.140, 790.880
294.502, 807.300
295.863, 852.766
297.225, 912.277
298.586, 1006.833
299.947, 1105.430
301.308, 1192.069
302.668, 1348.865
304.029, 1461.472
305.389, 1700.235
306.749, 1916.039
308.108, 2158.885
309.468, 2495.769
310.827, 2946.686
312.186, 3451.439
313.545, 3907.419
314.903, 4618.354
316.262, 5391.579
317.620, 6123.676
318.978, 6850.750
320.336, 7469.433
321.693, 7902.886
323.051, 8251.331
324.408, 8530.000
325.765, 8659.311
327.121, 9041.370
328.478, 9109.015
329.834, 9129.388
331.190, 8905.658
332.546, 8476.718
333.902, 7407.408
335.257, 6762.021
336.612, 5908.609
337.967, 5282.995
339.322, 4790.710
340.677, 4707.010
342.031, 4846.985
343.385, 5207.076
344.739, 5944.906
346.093, 6998.542
347.446, 8353.798
348.799, 9817.931
350.153, 11342.999
351.505, 12193.994
352.858, 12264.496
354.210, 11426.876
355.563, 10180.254
356.915, 8557.955
358.267, 7270.347
359.618, 6079.428
360.969, 5046.522
362.321, 4314.629
363.672, 3650.373
365.022, 3178.005
366.373, 2715.028
367.723, 2360.064
369.073, 2067.625
370.423, 1881.829
371.773, 1605.239
373.122, 1442.927
374.471, 1317.448
375.821, 1174.557
377.169, 1047.259
378.518, 996.995
379.866, 884.634
381.215, 852.911
382.563, 852.406
383.910, 868.531
385.258, 855.361
386.605, 844.891
387.952, 915.249
389.299, 962.682
390.646, 1090.757
391.992, 1068.721
393.339, 1138.255
394.685, 1152.868
396.031, 1117.250
397.376, 1175.897
398.722, 1079.169
400.067, 1105.797
401.412, 1098.411
402.757, 1150.760
404.101, 1274.968
405.446, 1431.171
406.790, 1512.427
408.134, 1698.348
409.478, 1977.102
410.821, 2216.763
412.165, 2291.342
413.508, 2282.243
414.851, 2200.140
416.193, 2017.952
417.536, 1804.825
418.878, 1647.990
420.220, 1448.932
421.562, 1275.924
422.904, 1119.212
424.245, 900.547
425.586, 842.343
426.927, 712.543
428.268, 647.861
429.609, 603.998
430.949, 486.127
432.289, 428.585
433.629, 405.444
434.969, 403.936
436.309, 354.445
437.648, 330.821
438.987, 279.057
440.326, 257.565
441.665, 238.488
443.003, 202.421
444.342, 216.455
445.680, 191.253
447.018, 179.949
448.355, 167.751
449.693, 141.610
451.030, 145.426
452.367, 110.111
453.704, 126.666
455.041, 107.198
456.377, 100.708
457.713, 84.193
459.049, 81.654
460.385, 72.091
461.721, 56.503
463.056, 54.890
464.391, 25.251
465.726, 43.587
467.061, 49.896
468.395, 28.180
469.730, 43.436
471.064, 36.665
472.398, 2.133
473.731, 41.034
475.065, 23.828
476.398, 15.263
477.731, 22.324
479.064, 30.355
480.397, 5.357
481.729, 12.323
483.062, 25.744
484.394, 10.862
485.725, 3.025
487.057, 15.229
488.389, 13.518
489.720, 0.769
491.051, 15.099
492.382, 7.521
493.712, 19.897
495.043, 0.369
496.373, 1.114
497.703, 11.446
499.032, 16.057
500.362, 24.721
501.691, 18.444
503.020, 19.223
504.349, 14.059
505.678, 9.949
507.007, 18.893
508.335, 31.895
509.663, 45.963
510.991, 12.104
512.319, 35.301
513.646, 32.567
514.973, 15.900
516.300, 36.293
517.627, 14.756
518.954, 9.279
520.280, 8.858
521.607, 24.494
522.933, 18.195
524.259, 15.959
525.584, 21.783
526.910, 5.673
528.235, 29.618
529.560, 23.633
530.885, 10.713
532.209, 30.853
533.534, 12.062
534.858, 5.332
536.182, 14.658
537.506, 31.046
538.829, 13.504
540.152, 8.977
541.476, 26.591
542.799, 4.227
544.121, 30.919
545.444, 25.682
546.766, 22.512
548.088, 23.409
549.410, 33.373
550.732, 31.409
552.053, 8.515
553.375, 9.680
554.696, 21.905
556.017, 10.196
557.337, 21.546
558.658, 10.961
559.978, 18.435
561.298, 25.970
562.618, 11.571
563.938, 25.229
565.257, 16.951
566.576, 3.268
567.895, 9.561
569.214, 9.443
570.533, 4.380
571.851, 30.368
573.170, 29.420
574.488, 1.535
575.805, 1.302
577.123, 17.908
578.440, 2.825
579.758, 12.489
581.075, 0.143
582.391, 10.271
583.708, 16.262
585.024, 35.752
586.341, 2.205
587.657, 12.389
588.972, 13.038
590.288, 19.053
591.603, 11.497
592.918, 5.307
594.233, 22.840
595.548, 32.948
596.863, 28.018
598.177, 18.051
599.491, 51.044
600.805, 48.003
602.119, 37.928
603.432, 53.819
604.746, 64.676
606.059, 48.502
607.372, 41.294
608.685, 42.054
609.997, 49.734
611.309, 79.474
612.621, 80.139
613.933, 103.773
615.245, 118.378
616.557, 72.953
617.868, 112.498
619.179, 90.015
620.490, 104.503
621.801, 81.962
623.111, 109.392
624.421, 103.794
625.731, 114.168
627.041, 110.515
628.351, 132.833
629.660, 122.125
630.970, 113.585
632.279, 138.822
633.588, 130.100
634.896, 132.089
636.205, 124.202
637.513, 133.335
638.821, 132.858
640.129, 141.611
641.437, 126.377
642.744, 126.924
644.051, 143.840
645.358, 107.009
646.665, 123.604
647.972, 142.476
649.278, 122.453
650.584, 130.649
651.890, 111.218
653.196, 99.869
654.502, 103.548
655.807, 98.432
657.113, 126.988
658.418, 141.963
659.722, 136.265
661.027, 121.452
662.331, 119.900
663.636, 136.543
664.940, 147.566
666.244, 137.714
667.547, 144.924
668.851, 159.205
670.154, 161.980
671.457, 178.880
672.760, 175.784
674.062, 205.370
675.365, 183.269
676.667, 205.471
677.969, 222.662
679.271, 240.839
680.572, 269.385
681.874, 267.048
683.175, 255.318
684.476, 278.581
685.777, 294.324
687.077, 316.426
688.378, 323.331
689.678, 335.966
690.978, 344.774
692.278, 371.001
693.577, 399.637
694.877, 394.238
696.176, 437.944
697.475, 466.012
698.774, 517.894
700.072, 518.174
701.371, 593.784
702.669, 591.734
703.967, 654.887
705.265, 749.000
706.562, 830.499
707.860, 912.136
709.157, 1033.220
710.454, 1189.250
711.751, 1248.536
713.047, 1491.575
714.344, 1693.925
715.640, 1997.958
716.936, 2163.543
718.232, 2516.673
719.527, 2782.725
720.823, 3023.944
722.118, 3200.705
723.413, 3291.756
724.708, 3364.032
726.002, 3456.341
727.297, 3457.995
728.591, 3504.046
729.885, 3536.186
731.179, 3510.466
732.472, 3528.240
733.766, 3458.200
735.059, 3383.470
736.352, 3349.211
737.645, 3334.042
738.937, 3318.628
740.230, 3301.475
741.522, 3334.799
742.814, 3367.239
744.106, 3438.858
745.397, 3540.479
746.689, 3583.770
747.980, 3714.654
749.271, 3885.901
750.562, 4050.127
751.853, 4277.580
753.143, 4484.972
754.433, 4764.186
755.723, 5109.978
757.013, 5389.757
758.303, 5881.427
759.592, 6111.329
760.881, 6604.326
762.170, 7099.211
763.459, 7654.034
764.748, 8199.893
766.036, 8845.876
767.325, 9688.982
768.613, 10289.106
769.901, 11375.246
771.188, 12374.401
772.476, 13305.575
773.763, 14989.767
775.050, 15965.977
776.337, 17563.203
777.624, 19305.445
778.910, 20800.707
780.196, 22600.990
781.482, 24591.289
782.768, 25998.607
784.054, 27591.947
785.339, 29395.303
786.625, 30522.682
787.910, 31011.080
789.195, 31779.514
790.479, 31728.961
791.764, 31584.436
793.048, 31457.930
794.332, 30599.445
795.616, 30317.984
796.900, 29869.559
798.183, 29775.158
799.467, 29174.789
800.750, 29112.451
802.033, 29471.135
803.316, 29677.850
804.598, 30721.594
805.880, 30764.365
807.163, 32364.174
808.445, 33218.004
809.726, 34767.871
811.008, 36218.762
812.289, 38213.691
813.570, 40068.660
814.851, 42391.668
816.132, 44866.703
817.413, 46989.785
818.693, 49474.887
819.973, 52395.039
821.253, 54034.320
822.533, 56008.613
823.813, 57285.883
825.092, 57235.078
826.371, 56187.195
827.650, 54668.285
828.929, 52001.434
830.208, 49161.133
831.486, 45597.031
832.764, 41561.520
834.042, 37807.215
835.320, 34463.105
836.598, 30936.703
837.875, 27630.090
839.152, 24750.467
840.429, 22177.047
841.706, 20040.812
842.983, 17772.291
844.259, 16130.317
845.536, 14466.714
846.812, 12917.385
848.088, 11827.129
849.363, 10507.241
850.639, 9832.433
851.914, 8927.550
853.189, 8037.165
854.464, 7468.791
855.739, 6953.820
857.013, 6349.163
858.288, 5782.568
859.562, 5469.138
860.836, 5028.023
862.110, 4741.618
863.383, 4340.469
864.656, 4148.390
865.930, 3864.718
867.203, 3612.625
868.475, 3460.439
869.748, 3252.035
871.020, 3095.891
872.292, 2929.655
873.564, 2727.301
874.836, 2666.193
876.108, 2575.175
877.379, 2381.346
878.650, 2316.290
879.922, 2135.267
881.192, 2091.278
882.463, 2043.330
883.733, 1918.421
885.004, 1798.544
886.274, 1813.699
887.544, 1711.891
888.813, 1622.113
890.083, 1547.370
891.352, 1515.658
892.621, 1473.980
893.890, 1399.330
895.159, 1362.706
896.427, 1290.112
897.695, 1281.551
898.964, 1213.025
900.232, 1142.533
901.499, 1127.069
902.767, 1108.637
904.034, 1055.230
905.301, 1018.849
906.568, 995.493
907.835, 958.163
909.102, 933.034
910.368, 903.574
911.634, 887.315
912.900, 854.080
914.166, 844.867
915.432, 798.677
916.697, 777.510
917.962, 754.367
919.227, 767.246
920.492, 707.147
921.757, 690.069
923.021, 676.013
924.285, 636.978
925.550, 592.965
926.813, 562.973
928.077, 540.002
929.341, 519.052
930.604, 457.123
931.867, 402.215
933.130, 416.328
934.393, 430.461
935.655, 399.614
936.918, 400.886
938.180, 373.983
939.442, 365.197
940.703, 321.431
941.965, 297.686
943.226, 313.960
944.488, 295.254
945.749, 240.567
947.009, 249.899
948.270, 231.252
949.530, 204.624
950.791, 213.016
952.051, 162.427
953.311, 167.857
954.570, 156.305
955.830, 132.772
957.089, 131.258
958.348, 121.762
959.607, 127.284
960.866, 112.825
962.124, 87.386
963.383, 90.965
964.641, 62.563
965.899, 81.180
967.156, 47.814
968.414, 28.467
969.671, 15.140
970.928, 38.832
972.185, 4.459
973.442, 1.732
974.699, 5.013
975.955, 28.222
977.211, 24.446
978.468, 44.659
979.723, 21.872
980.979, 8.073
982.234, 12.262
983.490, 25.437
984.745, 48.607
986.000, 50.879
987.254, 22.954
988.509, 57.125
989.763, 55.307
991.017, 38.497
992.271, 77.687
993.525, 70.899
994.779, 61.126
996.032, 66.365
997.285, 51.623
998.538, 32.895
999.791, 75.170
1001.044, 38.467
1002.296, 35.772
1003.548, 4.084
1004.800, 42.385
1006.052, 66.697
1007.304, 15.030
1008.555, 70.363
1009.807, 35.721
1011.058, 40.091
1012.309, 14.473
1013.559, 36.858
1014.810, 55.256
1016.060, 24.676
1017.310, 34.105
1018.560, 12.545
1019.810, 6.988
1021.060, 10.567
1022.309, 24.128
1023.558, 4.303
1024.807, 15.266
1026.056, 13.842
1027.305, 9.423
1028.553, 58.007
1029.801, 32.597
1031.049, 48.193
1032.297, 49.795
1033.545, 48.402
1034.793, 64.014
1036.040, 72.630
1037.287, 68.250
1038.534, 81.875
1039.781, 95.505
1041.027, 103.138
1042.274, 117.775
1043.520, 132.417
1044.766, 118.062
1046.012, 86.710
1047.257, 110.363
1048.503, 132.020
1049.748, 117.680
1050.993, 153.344
1052.238, 147.010
1053.483, 157.679
1054.727, 147.350
1055.971, 158.022
1057.216, 167.696
1058.459, 151.371
1059.703, 171.046
1060.947, 153.722
1062.190, 192.399
1063.433, 181.076
1064.676, 194.752
1065.919, 201.429
1067.162, 210.105
1068.404, 201.781
1069.646, 220.456
1070.888, 219.295
1072.130, 232.804
1073.372, 230.476
1074.613, 241.147
1075.855, 253.816
1077.096, 277.483
1078.337, 279.147
1079.578, 299.810
1080.818, 298.470
1082.059, 324.127
1083.299, 327.782
1084.539, 316.432
1085.779, 304.080
1087.018, 331.725
1088.258, 321.366
1089.497, 340.003
1090.736, 326.653
1091.975, 346.283
1093.213, 300.926
1094.452, 306.548
1095.690, 325.220
1096.928, 293.893
1098.166, 303.820
1099.404, 282.463
1100.642, 303.225
1101.879, 297.879
1103.116, 275.529
1104.353, 278.196
1105.590, 285.916
1106.827, 260.537
1108.063, 280.279
1109.299, 240.181
1110.536, 267.398
1111.771, 264.139
1113.007, 278.141
1114.243, 311.998
1115.478, 256.796
1116.713, 276.057
1117.948, 262.359
1119.183, 275.415
1120.418, 321.427
1121.652, 312.961
1122.886, 337.143
1124.120, 305.741
1125.354, 322.691
1126.588, 278.757
1127.821, 298.843
1129.055, 268.063
1130.288, 272.785
1131.521, 278.003
1132.753, 268.917
1133.986, 277.462
1135.218, 278.412
1136.450, 273.466
1137.682, 258.762
1138.914, 251.342
1140.146, 245.011
1141.377, 251.101
1142.609, 251.084
1143.840, 247.560
1145.071, 230.873
1146.301, 219.750
1147.532, 218.879
1148.762, 220.016
1149.992, 202.867
1151.222, 220.680
1152.452, 218.144
1153.682, 196.406
1154.911, 185.869
1156.140, 215.495
1157.369, 170.438
1158.598, 183.754
1159.827, 186.941
1161.055, 167.207
1162.284, 172.380
1163.512, 159.367
1164.740, 166.121
1165.967, 174.831
1167.195, 176.223
1168.422, 163.930
1169.650, 185.271
1170.877, 202.051
1172.103, 179.766
1173.330, 171.733
1174.557, 184.086
1175.783, 173.266
1177.009, 160.728
1178.235, 186.052
1179.461, 178.467
1180.686, 178.682
1181.912, 158.926
1183.137, 164.040
1184.362, 162.010
1185.587, 167.725
1186.811, 172.896
1188.036, 178.071
1189.260, 194.509
1190.484, 168.738
1191.708, 152.078
1192.932, 174.295
1194.155, 171.817
1195.378, 153.254
1196.602, 157.628
1197.825, 156.219
1199.047, 175.337
1200.270, 173.529
1201.492, 155.709
1202.715, 183.889
1203.937, 143.969
1205.159, 176.916
1206.380, 139.951
1207.602, 172.034
1208.823, 152.953
1210.044, 145.936
1211.265, 144.798
1212.486, 141.784
1213.707, 136.706
1214.927, 124.659
1216.147, 133.550
1217.367, 113.429
1218.587, 109.297
1219.807, 140.087
1221.027, 86.925
1222.246, 101.611
1223.465, 113.426
1224.684, 78.138
1225.903, 64.833
1227.121, 85.581
1228.340, 91.197
1229.558, 62.817
1230.776, 72.378
1231.994, 58.973
1233.212, 71.657
1234.429, 49.264
1235.646, 51.771
1236.864, 42.482
1238.081, 55.946
1239.297, 43.611
1240.514, 53.172
1241.730, 35.640
1242.947, 35.146
1244.163, 14.746
1245.378, 41.201
1246.594, 24.665
1247.810, 37.088
1249.025, 37.494
1250.240, 33.802
1251.455, 27.164
1252.670, 41.514
1253.885, 24.822
1255.099, 14.230
1256.313, 3.577
1257.527, 23.877
1258.741, 9.097
1259.955, 15.326
1261.168, 18.450
1262.382, 1.633
1263.595, 0.760
1264.808, 5.796
1266.021, 6.837
1267.233, 5.145
1268.446, 0.896
1269.658, 5.092
1270.870, 9.149
1272.082, 9.169
1273.294, 13.768
1274.505, 11.301
1275.716, 5.542
1276.928, 6.634
1278.139, 8.226
1279.349, 7.989
1280.560, 1.217
1281.770, 2.545
1282.981, 2.292
1284.191, 1.967
1285.401, 6.235
1286.610, 0.486
1287.820, 8.798
1289.029, 9.090
1290.239, 7.606
1291.448, 19.295
1292.656, 2.975
1293.865, 3.357
1295.073, 0.308
1296.282, 3.961
1297.490, 15.397
1298.698, 8.224
1299.906, 5.164
1301.113, 7.443
1302.320, 1.965
1303.528, 16.624
1304.735, 7.205
1305.942, 24.777
1307.148, 13.337
1308.355, 25.889
1309.561, 13.438
1310.767, 3.025
1311.973, 9.500
1313.179, 6.011
1314.384, 13.505
1315.590, 0.020
1316.795, 7.433
1318.000, 4.129
1319.205, 12.286
1320.410, 12.681
1321.614, 11.057
1322.819, 20.492
1324.023, 12.749
1325.227, 30.066
1326.431, 25.365
1327.634, 30.645
1328.838, 34.695
1330.041, 7.148
1331.244, 29.372
1332.447, 27.578
1333.650, 6.766
1334.852, 19.936
1336.055, 11.088
1337.257, 19.230
1338.459, 1.346
1339.661, 4.181
1340.862, 6.547
1342.064, 1.618
1343.265, 13.659
1344.466, 15.681
1345.667, 15.686
1346.868, 14.765
1348.068, 21.734
1349.269, 35.686
1350.469, 23.622
1351.669, 18.541
1352.869, 34.501
1354.069, 25.387
1355.268, 38.341
1356.468, 22.200
1357.667, 28.038
1358.866, 23.227
1360.065, 29.033
1361.263, 28.857
1362.462, 28.632
1363.660, 36.783
1364.858, 29.527
1366.056, 52.254
1367.254, 28.966
1368.451, 39.699
1369.649, 40.391
1370.846, 32.100
1372.043, 52.728
1373.240, 48.337
1374.436, 58.902
1375.633, 47.444
1376.829, 30.957
1378.025, 38.436
1379.221, 57.885
1380.417, 22.322
1381.613, 60.696
1382.808, 24.044
1384.003, 35.687
1385.199, 52.212
1386.393, 40.468
1387.588, 27.836
1388.783, 48.264
1389.977, 43.622
1391.171, 50.612
1392.365, 51.210
1393.559, 70.853
1394.753, 54.213
1395.946, 52.174
1397.140, 56.739
1398.333, 32.000
1399.526, 34.231
1400.719, 37.424
1401.911, 50.706
1403.104, 41.940
1404.296, 61.446
1405.488, 41.864
1406.680, 47.825
1407.872, 60.825
1409.063, 54.986
1410.255, 54.181
1411.446, 42.650
1412.637, 41.298
1413.828, 50.983
1415.018, 36.406
1416.209, 42.341
1417.399, 41.384
1418.589, 67.516
1419.779, 63.996
1420.969, 41.261
1422.159, 62.965
1423.348, 59.492
1424.537, 59.078
1425.726, 67.780
1426.915, 61.659
1428.104, 79.181
1429.293, 71.981
1430.481, 65.188
1431.669, 53.440
1432.857, 55.947
1434.045, 69.472
1435.233, 71.533
1436.420, 71.557
1437.608, 72.436
1438.795, 95.133
1439.982, 74.503
1441.169, 66.831
1442.355, 89.973
1443.542, 65.154
1444.728, 77.387
1445.914, 77.716
1447.100, 49.893
1448.286, 68.075
1449.472, 66.491
1450.657, 83.910
1451.842, 76.917
1453.027, 85.900
1454.212, 67.892
1455.397, 91.917
1456.581, 68.603
1457.766, 71.491
1458.950, 72.385
1460.134, 52.435
1461.318, 48.325
1462.501, 53.793
1463.685, 50.574
1464.868, 59.529
1466.051, 57.360
1467.234, 55.660
1468.417, 53.546
1469.600, 48.561
1470.782, 39.440
1471.965, 34.508
1473.147, 34.586
1474.329, 40.825
1475.510, 31.044
1476.692, 33.235
1477.873, 31.402
1479.055, 25.574
1480.236, 33.771
1481.416, 36.968
1482.597, 20.159
1483.778, 23.340
1484.958, 30.519
1486.138, 57.689
1487.318, 33.852
1488.498, 6.002
1489.678, 36.160
1490.857, 24.332
1492.037, 24.526
1493.216, 26.734
1494.395, 8.983
1495.574, 26.259
1496.752, 5.551
1497.931, 20.867
1499.109, 29.206
1500.287, 3.446
1501.465, 26.913
1502.643, 13.228
1503.820, 23.430
1504.998, 3.263
1506.175, 28.147
1507.352, 31.828
1508.529, 24.241
1509.706, 11.120
1510.882, 16.645
1512.059, 9.919
1513.235, 22.608
1514.411, 18.891
1515.587, 13.166
1516.762, 15.532
1517.938, 11.153
1519.113, 19.848
1520.288, 11.461
1521.463, 0.014
1522.638, 23.868
1523.813, 0.000
##END=



