##NAMES=Vanadinite
##RRUFFID=R050171
##IDEAL CHEMISTRY=Pb_5_(VO_4_)_3_Cl
##LOCALITY=Hamburg mine, La Paz County, Arizona, USA
##OWNER=RRUFF
##SOURCE=Marcus Origlieri
##DESCRIPTION=Red prismatic hexagonal crystals
##STATUS=The identification of this mineral has been confirmed by X-ray diffraction and chemical analysis
##URL=rruff.info/R050171
##MEASURED CHEMISTRY=Pb_5.00_((V_0.89_As_0.11_)O_4_)_3_Cl_1.00_
52.866, 0.000
54.266, 21.849
55.666, 57.611
57.065, 47.110
58.464, 8.999
59.863, 3.667
61.262, 16.207
62.661, 6.826
64.059, 11.110
65.458, 62.592
66.856, 120.161
68.253, 186.435
69.651, 293.097
71.048, 483.885
72.445, 698.579
73.842, 1002.997
75.239, 1332.981
76.635, 1695.397
78.031, 2231.121
79.427, 2587.033
80.823, 2992.037
82.218, 3207.043
83.614, 3331.977
85.009, 3322.775
86.404, 3382.376
87.798, 3325.733
89.193, 3230.800
90.587, 3128.540
91.981, 3082.916
93.375, 3027.899
94.768, 2955.459
96.161, 2882.555
97.554, 2803.157
98.947, 2782.277
100.340, 2769.852
101.732, 2730.814
103.124, 2662.141
104.516, 2606.817
105.908, 2598.828
107.300, 2610.162
108.691, 2576.807
110.082, 2673.753
111.473, 2605.992
112.864, 2717.512
114.254, 2707.307
115.644, 2862.369
117.034, 2919.691
118.424, 3048.266
119.813, 3080.089
121.203, 3299.156
122.592, 3382.462
123.981, 3547.005
125.369, 3742.781
126.758, 3940.787
128.146, 4204.020
129.534, 4322.479
130.922, 4633.156
132.309, 4711.052
133.696, 5064.160
135.083, 5021.476
136.470, 5261.946
137.857, 5211.408
139.243, 5378.897
140.630, 5402.681
142.016, 5326.535
143.401, 5126.163
144.787, 5032.245
146.172, 4871.354
147.557, 4736.208
148.942, 4490.053
150.327, 4273.996
151.711, 4059.042
153.096, 3796.195
154.480, 3645.455
155.863, 3356.825
157.247, 3240.306
158.630, 2987.899
160.013, 2813.605
161.396, 2682.423
162.779, 2543.352
164.161, 2384.395
165.544, 2234.546
166.926, 2169.809
168.308, 2086.180
169.689, 2023.660
171.070, 1942.715
172.452, 1863.938
173.833, 1769.732
175.213, 1692.630
176.594, 1574.628
177.974, 1483.725
179.354, 1461.930
180.734, 1366.240
182.114, 1328.646
183.493, 1202.156
184.872, 1123.777
186.251, 1047.518
187.630, 995.365
189.008, 890.328
190.387, 801.416
191.765, 765.619
193.143, 711.943
194.520, 639.384
195.898, 584.947
197.275, 526.633
198.652, 481.442
200.029, 468.365
201.405, 375.393
202.782, 389.544
204.158, 340.809
205.534, 277.175
206.909, 282.636
208.285, 255.201
209.660, 189.878
211.035, 176.657
212.410, 132.529
213.784, 142.485
215.159, 117.528
216.533, 83.666
217.907, 82.895
219.281, 62.607
220.654, 59.324
222.027, 41.151
223.400, 18.074
224.773, 0.935
226.146, 9.198
227.518, 23.381
228.891, 22.284
230.263, 2.849
231.634, 27.186
233.006, 44.312
234.377, 17.759
235.748, 73.984
237.119, 16.445
238.490, 32.960
239.860, 8.207
241.231, 3.695
242.601, 32.739
243.970, 21.922
245.340, 57.233
246.709, 74.664
248.079, 112.217
249.448, 139.050
250.816, 157.662
252.185, 204.547
253.553, 215.535
254.921, 260.627
256.289, 338.820
257.657, 388.105
259.024, 481.482
260.391, 523.945
261.758, 625.495
263.125, 695.131
264.492, 826.842
265.858, 1022.632
267.224, 1128.492
268.590, 1394.425
269.956, 1574.424
271.321, 1911.491
272.687, 2215.618
274.052, 2587.808
275.416, 3073.053
276.781, 3623.357
278.146, 4263.717
279.510, 4939.134
280.874, 5891.603
282.237, 6712.123
283.601, 7756.695
284.964, 8489.311
286.327, 9176.972
287.690, 9780.678
289.053, 9768.428
290.416, 9460.220
291.778, 9264.052
293.140, 8456.921
294.502, 7631.831
295.863, 6753.777
297.225, 6038.760
298.586, 5223.776
299.947, 4554.826
301.308, 4069.909
302.668, 3542.366
304.029, 3083.224
305.389, 2818.675
306.749, 2634.960
308.108, 2429.194
309.468, 2370.566
310.827, 2295.941
312.186, 2300.490
313.545, 2343.075
314.903, 2397.056
316.262, 2579.472
317.620, 2654.312
318.978, 2615.788
320.336, 2614.193
321.693, 2533.447
323.051, 2472.600
324.408, 2352.138
325.765, 2089.394
327.121, 2013.028
328.478, 1778.975
329.834, 1639.013
331.190, 1585.216
332.546, 1550.262
333.902, 1433.222
335.257, 1489.781
336.612, 1468.258
337.967, 1448.460
339.322, 1575.753
340.677, 1601.039
342.031, 1779.432
343.385, 1861.368
344.739, 2087.601
346.093, 2231.816
347.446, 2478.020
348.799, 2803.154
350.153, 3179.401
351.505, 3662.761
352.858, 4299.300
354.210, 4841.708
355.563, 5946.454
356.915, 6960.474
358.267, 8336.055
359.618, 9552.943
360.969, 10583.903
362.321, 11577.545
363.672, 11654.753
365.022, 11363.274
366.373, 10356.867
367.723, 9058.215
369.073, 7830.381
370.423, 6515.244
371.773, 5444.305
373.122, 4554.066
374.471, 3870.597
375.821, 3359.889
377.169, 2835.203
378.518, 2532.845
379.866, 2149.508
381.215, 1984.189
382.563, 1785.544
383.910, 1589.830
385.258, 1477.546
386.605, 1381.878
387.952, 1268.310
389.299, 1159.322
390.646, 1108.101
391.992, 1043.569
393.339, 971.611
394.685, 975.843
396.031, 922.321
397.376, 912.559
398.722, 852.915
400.067, 835.216
401.412, 796.648
402.757, 772.712
404.101, 776.704
405.446, 757.272
406.790, 725.750
408.134, 696.802
409.478, 649.457
410.821, 623.119
412.165, 573.919
413.508, 527.444
414.851, 451.872
416.193, 421.720
417.536, 379.522
418.878, 312.089
420.220, 297.366
421.562, 281.101
422.904, 246.236
424.245, 234.023
425.586, 194.584
426.927, 186.861
428.268, 198.607
429.609, 174.877
430.949, 155.474
432.289, 133.307
433.629, 131.454
434.969, 138.888
436.309, 124.713
437.648, 123.087
438.987, 103.247
440.326, 92.050
441.665, 87.017
443.003, 63.863
444.342, 81.775
445.680, 81.428
447.018, 73.079
448.355, 52.677
449.693, 29.249
451.030, 35.799
452.367, 46.326
453.704, 18.831
455.041, 7.314
456.377, 30.780
457.713, 21.216
459.049, 19.628
460.385, 25.016
461.721, 12.379
463.056, 4.281
464.391, 12.971
465.726, 1.693
467.061, 4.557
468.395, 14.779
469.730, 3.975
471.064, 5.143
472.398, 19.716
473.731, 1.386
475.065, 24.543
476.398, 13.514
477.731, 19.523
479.064, 10.427
480.397, 26.652
481.729, 5.777
483.062, 19.939
484.394, 25.145
485.725, 19.398
487.057, 7.696
488.389, 28.034
489.720, 12.423
491.051, 29.855
492.382, 10.340
493.712, 23.868
495.043, 16.447
496.373, 30.074
497.703, 24.757
499.032, 25.264
500.362, 24.281
501.691, 25.123
503.020, 17.021
504.349, 20.969
505.678, 3.970
507.007, 19.016
508.335, 33.115
509.663, 34.275
510.991, 19.496
512.319, 21.772
513.646, 19.104
514.973, 8.510
516.300, 11.918
517.627, 20.396
518.954, 8.931
520.280, 41.517
521.607, 20.170
522.933, 28.880
524.259, 17.652
525.584, 18.480
526.910, 14.364
528.235, 11.302
529.560, 6.294
530.885, 9.335
532.209, 4.429
533.534, 32.573
534.858, 12.781
536.182, 29.043
537.506, 18.367
538.829, 18.749
540.152, 3.188
541.476, 2.324
542.799, 12.210
544.121, 18.798
545.444, 12.443
546.766, 1.857
548.088, 22.889
549.410, 21.694
550.732, 16.557
552.053, 23.681
553.375, 13.455
554.696, 20.486
556.017, 10.574
557.337, 9.714
558.658, 11.903
559.978, 18.144
561.298, 9.440
562.618, 7.788
563.938, 17.185
565.257, 2.638
566.576, 10.863
567.895, 19.677
569.214, 4.272
570.533, 6.915
571.851, 7.606
573.170, 13.345
574.488, 25.135
575.805, 24.983
577.123, 5.886
578.440, 17.836
579.758, 9.838
581.075, 16.887
582.391, 27.987
583.708, 9.857
585.024, 21.336
586.341, 2.419
587.657, 6.864
588.972, 3.809
590.288, 1.555
591.603, 18.041
592.918, 4.605
594.233, 36.133
595.548, 3.632
596.863, 10.096
598.177, 6.472
599.491, 15.920
600.805, 21.282
602.119, 14.614
603.432, 34.917
604.746, 29.191
606.059, 35.439
607.372, 44.659
608.685, 45.853
609.997, 40.021
611.309, 58.163
612.621, 48.280
613.933, 27.370
615.245, 50.436
616.557, 76.476
617.868, 32.491
619.179, 65.482
620.490, 67.448
621.801, 65.048
623.111, 72.256
624.421, 71.877
625.731, 84.670
627.041, 65.518
628.351, 63.229
629.660, 69.943
630.970, 93.490
632.279, 82.008
633.588, 93.138
634.896, 70.839
636.205, 91.122
637.513, 70.776
638.821, 92.507
640.129, 87.394
641.437, 88.387
642.744, 72.999
644.051, 74.352
645.358, 83.422
646.665, 68.638
647.972, 72.764
649.278, 66.729
650.584, 93.853
651.890, 67.065
653.196, 81.679
654.502, 68.378
655.807, 68.351
657.113, 98.236
658.418, 86.126
659.722, 95.910
661.027, 99.151
662.331, 85.094
663.636, 92.055
664.940, 114.024
666.244, 92.063
667.547, 122.986
668.851, 131.795
670.154, 139.421
671.457, 152.177
672.760, 178.589
674.062, 186.725
675.365, 204.295
676.667, 222.552
677.969, 221.735
679.271, 251.229
680.572, 280.151
681.874, 270.753
683.175, 302.988
684.476, 332.046
685.777, 336.985
687.077, 393.221
688.378, 407.250
689.678, 440.572
690.978, 499.117
692.278, 524.894
693.577, 564.645
694.877, 632.061
696.176, 621.451
697.475, 710.820
698.774, 812.540
700.072, 854.353
701.371, 976.759
702.669, 1087.570
703.967, 1123.285
705.265, 1266.458
706.562, 1472.720
707.860, 1611.320
709.157, 1705.490
710.454, 1887.323
711.751, 2054.738
713.047, 2301.798
714.344, 2386.932
715.640, 2626.957
716.936, 2742.616
718.232, 2791.848
719.527, 2870.212
720.823, 2847.018
722.118, 2711.770
723.413, 2564.269
724.708, 2300.024
726.002, 2134.781
727.297, 2002.410
728.591, 1706.035
729.885, 1671.341
731.179, 1447.949
732.472, 1369.611
733.766, 1272.515
735.059, 1254.714
736.352, 1188.463
737.645, 1110.818
738.937, 1083.524
740.230, 1069.463
741.522, 1047.688
742.814, 1065.448
744.106, 1083.685
745.397, 1130.599
746.689, 1145.282
747.980, 1117.652
749.271, 1247.738
750.562, 1218.437
751.853, 1335.590
753.143, 1360.958
754.433, 1531.681
755.723, 1560.242
757.013, 1669.923
758.303, 1784.537
759.592, 1873.407
760.881, 2062.277
762.170, 2134.197
763.459, 2387.143
764.748, 2453.106
766.036, 2662.090
767.325, 2981.092
768.613, 3121.115
769.901, 3453.151
771.188, 3717.215
772.476, 3958.297
773.763, 4378.401
775.050, 4648.525
776.337, 5062.668
777.624, 5567.835
778.910, 6097.027
780.196, 6513.242
781.482, 7010.479
782.768, 7512.738
784.054, 8035.019
785.339, 8782.324
786.625, 9400.658
787.910, 10036.014
789.195, 10823.401
790.479, 11513.818
791.764, 12283.264
793.048, 13008.736
794.332, 13639.239
795.616, 14867.771
796.900, 15481.334
798.183, 16835.928
799.467, 17951.562
800.750, 19127.217
802.033, 20287.910
803.316, 21877.637
804.598, 23982.400
805.880, 25412.193
807.163, 27681.025
808.445, 29766.889
809.726, 31533.799
811.008, 34136.742
812.289, 36934.723
813.570, 39641.730
814.851, 42742.789
816.132, 45877.879
817.413, 49194.008
818.693, 51545.172
819.973, 55053.379
821.253, 57729.613
822.533, 59148.891
823.813, 61193.227
825.092, 60442.586
826.371, 60759.996
827.650, 58951.430
828.929, 56830.898
830.208, 55417.410
831.486, 51641.965
832.764, 47844.559
834.042, 44224.219
835.320, 41058.895
836.598, 37181.629
837.875, 34499.438
839.152, 31387.254
840.429, 28105.094
841.706, 25893.973
842.983, 23011.887
844.259, 20899.201
845.536, 19275.422
846.812, 17225.959
848.088, 15776.603
849.363, 14513.585
850.639, 13277.989
851.914, 12291.816
853.189, 11168.298
854.464, 10367.798
855.739, 9646.179
857.013, 8934.760
858.288, 8250.405
859.562, 7550.726
860.836, 7188.514
862.110, 6789.422
863.383, 6228.013
864.656, 5974.841
865.930, 5575.059
867.203, 5250.689
868.475, 4984.359
869.748, 4663.628
871.020, 4410.797
872.292, 4228.914
873.564, 3920.927
874.836, 3738.020
876.108, 3529.216
877.379, 3322.825
878.650, 3216.999
879.922, 3056.556
881.192, 2798.911
882.463, 2636.990
883.733, 2587.760
885.004, 2379.441
886.274, 2280.980
887.544, 2192.208
888.813, 2090.889
890.083, 1944.748
891.352, 1831.972
892.621, 1814.542
893.890, 1668.850
895.159, 1646.121
896.427, 1547.146
897.695, 1491.768
898.964, 1428.618
900.232, 1353.598
901.499, 1286.577
902.767, 1221.398
904.034, 1229.899
905.301, 1131.465
906.568, 1137.391
907.835, 1101.871
909.102, 1015.083
910.368, 974.049
911.634, 980.895
912.900, 943.013
914.166, 915.150
915.432, 861.066
916.697, 801.015
917.962, 775.236
919.227, 754.237
920.492, 676.432
921.757, 697.596
923.021, 653.653
924.285, 597.732
925.550, 534.835
926.813, 551.960
928.077, 514.109
929.341, 511.280
930.604, 473.474
931.867, 444.691
933.130, 410.931
934.393, 415.194
935.655, 408.479
936.918, 369.789
938.180, 365.121
939.442, 327.474
940.703, 360.851
941.965, 305.250
943.226, 339.671
944.488, 308.113
945.749, 227.577
947.009, 256.062
948.270, 232.569
949.530, 192.097
950.791, 232.648
952.051, 204.220
953.311, 191.813
954.570, 153.427
955.830, 179.061
957.089, 147.715
958.348, 161.389
959.607, 121.082
960.866, 128.794
962.124, 121.525
963.383, 120.276
964.641, 114.148
965.899, 107.834
967.156, 97.644
968.414, 88.472
969.671, 82.318
970.928, 80.275
972.185, 72.424
973.442, 76.956
974.699, 65.868
975.955, 54.797
977.211, 60.741
978.468, 18.701
979.723, 32.678
980.979, 24.670
982.234, 11.678
983.490, 28.702
984.745, 1.259
986.000, 12.794
987.254, 21.861
988.509, 4.058
989.763, 0.035
991.017, 5.141
992.271, 9.260
993.525, 8.391
994.779, 16.465
996.032, 11.054
997.285, 19.719
998.538, 20.984
999.791, 27.810
1001.044, 35.677
1002.296, 42.813
1003.548, 34.285
1004.800, 33.115
1006.052, 28.947
1007.304, 7.780
1008.555, 31.605
1009.807, 43.434
1011.058, 31.271
1012.309, 32.112
1013.559, 43.959
1014.810, 46.817
1016.060, 33.687
1017.310, 20.565
1018.560, 39.446
1019.810, 30.338
1021.060, 25.239
1022.309, 26.145
1023.558, 21.058
1024.807, 39.977
1026.056, 21.911
1027.305, 46.852
1028.553, 18.812
1029.801, 24.778
1031.049, 19.755
1032.297, 31.739
1033.545, 24.738
1034.793, 21.748
1036.040, 17.768
1037.287, 10.798
1038.534, 17.835
1039.781, 19.882
1041.027, 6.941
1042.274, 12.007
1043.520, 6.081
1044.766, 4.162
1046.012, 1.750
1047.257, 8.343
1048.503, 11.445
1049.748, 6.441
1050.993, 11.677
1052.238, 7.722
1053.483, 0.863
1054.727, 1.013
1055.971, 14.830
1057.216, 2.669
1058.459, 9.502
1059.703, 18.329
1060.947, 33.153
1062.190, 15.975
1063.433, 16.799
1064.676, 48.613
1065.919, 29.424
1067.162, 18.396
1068.404, 30.235
1069.646, 22.236
1070.888, 25.265
1072.130, 36.168
1073.372, 67.065
1074.613, 60.955
1075.855, 63.041
1077.096, 76.018
1078.337, 51.852
1079.578, 56.922
1080.818, 67.959
1082.059, 78.069
1083.299, 58.268
1084.539, 97.239
1085.779, 88.765
1087.018, 75.717
1088.258, 86.747
1089.497, 94.160
1090.736, 93.189
1091.975, 72.170
1093.213, 72.284
1094.452, 69.460
1095.690, 91.621
1096.928, 86.695
1098.166, 74.696
1099.404, 79.335
1100.642, 76.655
1101.879, 78.756
1103.116, 84.933
1104.353, 92.940
1105.590, 90.050
1106.827, 106.057
1108.063, 137.196
1109.299, 93.125
1110.536, 116.061
1111.771, 118.321
1113.007, 100.296
1114.243, 107.461
1115.478, 92.308
1116.713, 119.251
1117.948, 115.351
1119.183, 141.153
1120.418, 124.933
1121.652, 112.717
1122.886, 121.449
1124.120, 138.495
1125.354, 116.299
1126.588, 133.111
1127.821, 131.157
1129.055, 115.043
1130.288, 144.103
1131.521, 149.079
1132.753, 142.002
1133.986, 151.528
1135.218, 145.611
1136.450, 149.440
1137.682, 147.005
1138.914, 151.843
1140.146, 144.436
1141.377, 148.994
1142.609, 137.850
1143.840, 145.163
1145.071, 129.458
1146.301, 152.660
1147.532, 155.103
1148.762, 149.968
1149.992, 154.331
1151.222, 142.245
1152.452, 138.705
1153.682, 124.975
1154.911, 148.397
1156.140, 130.815
1157.369, 154.042
1158.598, 134.566
1159.827, 120.693
1161.055, 146.683
1162.284, 124.867
1163.512, 136.080
1164.740, 118.740
1165.967, 136.006
1167.195, 116.355
1168.422, 102.028
1169.650, 122.027
1170.877, 116.859
1172.103, 114.897
1173.330, 120.829
1174.557, 120.684
1175.783, 120.116
1177.009, 119.123
1178.235, 102.681
1179.461, 98.468
1180.686, 95.617
1181.912, 107.012
1183.137, 81.670
1184.362, 67.344
1185.587, 91.313
1186.811, 86.924
1188.036, 82.350
1189.260, 74.514
1190.484, 86.434
1191.708, 82.458
1192.932, 70.541
1194.155, 82.894
1195.378, 69.656
1196.602, 79.196
1197.825, 59.633
1199.047, 30.107
1200.270, 52.748
1201.492, 49.725
1202.715, 61.753
1203.937, 43.407
1205.159, 40.534
1206.380, 53.936
1207.602, 51.535
1208.823, 39.266
1210.044, 36.687
1211.265, 46.087
1212.486, 56.734
1213.707, 24.300
1214.927, 33.687
1216.147, 22.239
1217.367, 20.581
1218.587, 28.000
1219.807, 28.506
1221.027, 29.131
1222.246, 17.642
1223.465, 23.166
1224.684, 33.679
1225.903, 18.187
1227.121, 19.683
1228.340, 16.167
1229.558, 12.594
1230.776, 23.016
1231.994, 3.407
1233.212, 23.779
1234.429, 19.124
1235.646, 5.469
1236.864, 18.754
1238.081, 21.061
1239.297, 14.348
1240.514, 11.661
1241.730, 11.956
1242.947, 15.216
1244.163, 18.451
1245.378, 0.330
1246.594, 5.852
1247.810, 20.029
1249.025, 5.160
1250.240, 16.252
1251.455, 11.315
1252.670, 15.407
1253.885, 9.455
1255.099, 18.490
1256.313, 17.560
1257.527, 4.575
1258.741, 14.542
1259.955, 6.520
1261.168, 6.537
1262.382, 14.404
1263.595, 7.318
1264.808, 21.231
1266.021, 22.121
1267.233, 20.980
1268.446, 24.223
1269.658, 6.624
1270.870, 17.452
1272.082, 16.220
1273.294, 5.014
1274.505, 10.746
1275.716, 3.510
1276.928, 5.672
1278.139, 7.110
1279.349, 7.693
1280.560, 14.377
1281.770, 9.085
1282.981, 20.748
1284.191, 6.402
1285.401, 21.004
1286.610, 22.602
1287.820, 4.223
1289.029, 10.796
1290.239, 24.327
1291.448, 8.869
1292.656, 1.600
1293.865, 5.951
1295.073, 11.432
1296.282, 14.937
1297.490, 4.424
1298.698, 15.902
1299.906, 15.399
1301.113, 4.859
1302.320, 13.302
1303.528, 17.714
1304.735, 14.120
1305.942, 17.538
1307.148, 33.962
1308.355, 10.405
1309.561, 27.785
1310.767, 28.173
1311.973, 17.538
1313.179, 28.897
1314.384, 16.248
1315.590, 23.591
1316.795, 23.927
1318.000, 30.255
1319.205, 29.580
1320.410, 32.897
1321.614, 19.214
1322.819, 29.522
1324.023, 28.824
1325.227, 21.119
1326.431, 31.424
1327.634, 14.710
1328.838, 31.989
1330.041, 40.261
1331.244, 27.567
1332.447, 30.825
1333.650, 21.076
1334.852, 13.339
1336.055, 34.574
1337.257, 34.801
1338.459, 33.019
1339.661, 36.227
1340.862, 38.428
1342.064, 36.622
1343.265, 30.810
1344.466, 31.930
1345.667, 31.128
1346.868, 18.291
1348.068, 21.445
1349.269, 20.303
1350.469, 20.795
1351.669, 27.912
1352.869, 28.028
1354.069, 38.158
1355.268, 41.247
1356.468, 37.332
1357.667, 51.445
1358.866, 31.345
1360.065, 46.363
1361.263, 52.293
1362.462, 43.093
1363.660, 50.005
1364.858, 31.918
1366.056, 27.827
1367.254, 34.514
1368.451, 33.294
1369.649, 31.204
1370.846, 29.861
1372.043, 28.537
1373.240, 38.134
1374.436, 34.631
1375.633, 38.323
1376.829, 37.584
1378.025, 39.974
1379.221, 35.844
1380.417, 45.003
1381.613, 35.521
1382.808, 36.015
1384.003, 25.659
1385.199, 25.301
1386.393, 28.471
1387.588, 29.954
1388.783, 29.028
1389.977, 32.830
1391.171, 29.335
1392.365, 35.637
1393.559, 39.928
1394.753, 41.436
1395.946, 28.833
1397.140, 35.532
1398.333, 33.920
1399.526, 21.416
1400.719, 29.473
1401.911, 35.325
1403.104, 27.343
1404.296, 31.181
1405.488, 25.788
1406.680, 28.330
1407.872, 23.299
1409.063, 24.617
1410.255, 26.177
1411.446, 25.369
1412.637, 33.397
1413.828, 19.416
1415.018, 29.643
1416.209, 18.864
1417.399, 35.204
1418.589, 17.713
1419.779, 21.086
1420.969, 10.362
1422.159, 22.800
1423.348, 20.318
1424.537, 10.658
1425.726, 16.993
1426.915, 15.248
1428.104, 23.760
1429.293, 21.139
1430.481, 11.181
1431.669, 18.607
1432.857, 28.011
1434.045, 19.432
1435.233, 18.751
1436.420, 11.881
1437.608, 21.890
1438.795, 14.965
1439.982, 17.195
1441.169, 16.709
1442.355, 9.806
1443.542, 16.214
1444.728, 16.573
1445.914, 23.667
1447.100, 38.808
1448.286, 15.880
1449.472, 11.985
1450.657, 6.136
1451.842, 44.326
1453.027, 15.543
1454.212, 35.688
1455.397, 27.654
1456.581, 26.695
1457.766, 23.773
1458.950, 24.884
1460.134, 25.167
1461.318, 22.532
1462.501, 27.404
1463.685, 15.598
1464.868, 26.766
1466.051, 18.903
1467.234, 40.995
1468.417, 11.165
1469.600, 22.357
1470.782, 34.544
1471.965, 18.725
1473.147, 3.716
1474.329, 15.850
1475.510, 18.795
1476.692, 7.878
1477.873, 21.879
1479.055, 20.030
1480.236, 12.104
1481.416, 24.131
1482.597, 25.153
1483.778, 12.095
1484.958, 10.126
1486.138, 4.320
1487.318, 4.309
1488.498, 20.274
1489.678, 12.397
1490.857, 21.588
1492.037, 0.785
1493.216, 4.979
1494.395, 11.171
1495.574, 3.368
1496.752, 22.495
1497.931, 15.690
1499.109, 0.660
1500.287, 12.858
1501.465, 13.945
1502.643, 1.841
1503.820, 32.389
1504.998, 11.618
1506.175, 6.477
1507.352, 5.748
1508.529, 25.667
1509.706, 20.739
1510.882, 19.727
1512.059, 19.523
1513.235, 30.734
1514.411, 5.714
1515.587, 4.611
1516.762, 22.378
1517.938, 0.698
1519.113, 24.184
1520.288, 22.208
1521.463, 4.249
1522.638, 0.476
1523.813, 0.000
##END=



