##NAMES=Vanadinite
##RRUFFID=R050533
##IDEAL CHEMISTRY=Pb_5_(VO_4_)_3_Cl
##LOCALITY=Ahumada mine, Los Lamentos, Mexico
##OWNER=RRUFF
##SOURCE=University of Arizona Mineral Museum
##DESCRIPTION=Greenish-brown hexagonal prisms
##STATUS=The identification of this mineral has been confirmed by X-ray diffraction and chemical analysis
##URL=rruff.info/R050533
##MEASURED CHEMISTRY=Pb_5.00_((V_0.95_As_0.05_)O_4_)_3_Cl_1.00_
145.4053, 0.0000000E+00
145.8874, 0.4880370
146.3695, 2.553833
146.8516, 8.304077
147.3337, 15.82227
147.8158, 25.04065
148.2980, 34.09399
148.7801, 43.10913
149.2622, 51.61609
149.7443, 58.70837
150.2264, 63.58679
150.7085, 67.70129
151.1907, 71.44958
151.6728, 74.39258
152.1549, 77.48633
152.6370, 81.98206
153.1191, 86.65662
153.6012, 88.50464
154.0834, 85.09192
154.5655, 80.49548
155.0476, 76.22913
155.5297, 72.44568
156.0118, 69.11646
156.4939, 66.28491
156.9761, 63.78015
157.4582, 61.48486
157.9403, 58.89539
158.4224, 56.77600
158.9045, 55.55603
159.3866, 55.38135
159.8688, 56.21387
160.3509, 58.35010
160.8330, 61.67310
161.3151, 65.64600
161.7972, 70.08838
162.2793, 75.16260
162.7615, 80.93213
163.2436, 88.74609
163.7257, 95.93567
164.2078, 100.8252
164.6899, 103.7102
165.1720, 106.9656
165.6541, 111.4236
166.1363, 116.9004
166.6184, 123.1609
167.1005, 131.6139
167.5826, 139.5996
168.0647, 145.2664
168.5468, 148.7522
169.0290, 151.8043
169.5111, 154.7734
169.9932, 158.0103
170.4753, 161.9529
170.9574, 167.9795
171.4395, 174.1613
171.9217, 178.5532
172.4038, 181.0795
172.8859, 183.6053
173.3680, 188.2864
173.8501, 194.1643
174.3322, 199.3795
174.8144, 201.0444
175.2965, 201.9573
175.7786, 205.6432
176.2607, 212.1998
176.7428, 220.0000
177.2249, 227.7992
177.7071, 235.2218
178.1892, 240.7688
178.6713, 240.7637
179.1534, 237.4919
179.6355, 237.1141
180.1176, 240.3401
180.5998, 243.6331
181.0819, 244.5100
181.5640, 243.4835
182.0461, 242.1410
182.5282, 241.5306
183.0103, 240.0811
183.4925, 238.1726
183.9746, 236.2936
184.4567, 233.3812
184.9388, 230.4213
185.4209, 227.3192
185.9030, 224.2953
186.3852, 222.4280
186.8673, 219.9799
187.3494, 213.7262
187.8315, 203.4072
188.3136, 192.5845
188.7957, 185.9674
189.2779, 182.6984
189.7600, 179.2794
190.2421, 175.2543
190.7242, 170.3866
191.2063, 164.7455
191.6884, 158.1393
192.1706, 151.0359
192.6527, 144.8145
193.1348, 139.1938
193.6169, 133.3035
194.0990, 126.6348
194.5811, 119.4487
195.0633, 113.4523
195.5454, 109.0321
196.0275, 104.6161
196.5096, 97.58569
196.9917, 87.62439
197.4738, 77.61304
197.9560, 69.02051
198.4381, 61.68982
198.9202, 55.17505
199.4023, 49.65649
199.8844, 44.90430
200.3665, 40.82910
200.8487, 37.62073
201.3308, 33.99109
201.8129, 29.11218
202.2950, 22.88977
202.7771, 16.80579
203.2592, 13.33521
203.7414, 10.20264
204.2235, 7.774902
204.7056, 6.036133
205.1877, 5.018677
205.6698, 5.105103
206.1519, 6.605347
206.6341, 6.867432
207.1162, 5.453735
207.5983, 3.046509
208.0804, 1.246460
208.5625, 0.2844240
209.0446, 0.7109380
209.5268, 2.315186
210.0089, 4.807251
210.4910, 6.581909
210.9731, 7.603149
211.4552, 7.868896
211.9373, 7.114990
212.4195, 4.817993
212.9016, 2.768555
213.3837, 1.999878
213.8658, 3.034790
214.3479, 3.320068
214.8300, 2.429810
215.3121, 0.9925540
215.7943, 0.6353760
216.2764, 1.792847
216.7585, 3.152222
217.2406, 4.110107
217.7227, 4.426758
218.2048, 5.263916
218.6870, 7.184326
219.1691, 9.387817
219.6512, 9.759521
220.1333, 7.095215
220.6154, 4.859131
221.0975, 4.832031
221.5797, 8.283325
222.0618, 10.05933
222.5439, 9.268066
223.0260, 7.184204
223.5081, 6.799805
223.9902, 8.940674
224.4724, 11.26074
224.9545, 12.69397
225.4366, 12.86292
225.9187, 13.29907
226.4008, 14.45239
226.8829, 15.64050
227.3651, 15.27844
227.8472, 12.40295
228.3293, 9.576782
228.8114, 7.798706
229.2935, 7.350342
229.7757, 7.165771
230.2578, 7.332275
230.7399, 7.759766
231.2220, 8.389771
231.7041, 9.838379
232.1862, 10.54138
232.6684, 9.661011
233.1505, 6.303345
233.6326, 4.384766
234.1147, 4.524536
234.5968, 5.774414
235.0789, 6.405518
235.5611, 6.044067
236.0432, 5.670288
236.5253, 5.657104
237.0074, 6.230103
237.4895, 6.233154
237.9716, 5.105713
238.4538, 3.732544
238.9359, 3.697754
239.4180, 6.091064
239.9001, 8.015259
240.3822, 8.470947
240.8643, 7.109985
241.3465, 5.875244
241.8286, 4.661499
242.3107, 3.652100
242.7928, 3.147095
243.2749, 3.375000
243.7570, 3.761353
244.2392, 4.390625
244.7213, 5.501831
245.2034, 5.155151
245.6855, 2.197876
246.1676, 1.286865
246.6497, 2.500977
247.1319, 2.1361999E-02
247.6140, 2.064087
248.0961, 2.313110
248.5782, 0.4350590
249.0603, 0.1843260
249.5424, 1.427979
250.0246, 3.355957
250.5067, 3.376709
250.9888, 0.5755620
251.4709, 2.370239
251.9530, 4.916626
252.4351, 7.069946
252.9173, 9.076294
253.3994, 10.57642
253.8815, 12.35950
254.3636, 15.40161
254.8457, 20.57703
255.3278, 24.77966
255.8100, 27.05737
256.2921, 27.49646
256.7742, 28.81042
257.2563, 31.14807
257.7384, 34.13538
258.2205, 37.51135
258.7026, 41.62610
259.1848, 45.36487
259.6669, 48.27222
260.1490, 50.51953
260.6311, 53.36987
261.1132, 56.84790
261.5953, 60.98035
262.0775, 65.84607
262.5596, 71.91028
263.0417, 77.62708
263.5238, 82.65283
264.0059, 87.30151
264.4880, 93.13586
264.9702, 100.0315
265.4523, 107.8990
265.9344, 116.9041
266.4165, 127.6123
266.8986, 137.7712
267.3807, 146.7289
267.8629, 155.1796
268.3450, 166.1616
268.8271, 181.0732
269.3092, 195.7396
269.7913, 207.4434
270.2734, 214.8082
270.7556, 226.5771
271.2377, 244.4359
271.7198, 265.8895
272.2019, 285.4690
272.6840, 302.6360
273.1661, 320.3187
273.6483, 339.4594
274.1304, 359.7263
274.6125, 382.8510
275.0946, 409.4036
275.5767, 437.9022
276.0588, 465.5790
276.5410, 491.9537
277.0231, 518.8767
277.5052, 546.5314
277.9873, 575.1887
278.4694, 604.8490
278.9515, 635.2588
279.4337, 666.3859
279.9158, 698.2871
280.3979, 730.8097
280.8800, 766.0410
281.3621, 804.9231
281.8442, 846.9038
282.3264, 886.2146
282.8085, 922.4004
283.2906, 957.9543
283.7727, 995.7336
284.2548, 1035.745
284.7369, 1076.198
285.2191, 1117.874
285.7012, 1159.601
286.1833, 1197.719
286.6654, 1232.130
287.1475, 1263.274
287.6296, 1291.306
288.1118, 1316.293
288.5939, 1337.852
289.0760, 1356.723
289.5581, 1371.338
290.0402, 1377.979
290.5223, 1376.634
291.0045, 1370.548
291.4866, 1361.809
291.9687, 1350.130
292.4508, 1334.434
292.9329, 1313.876
293.4150, 1290.392
293.8972, 1266.025
294.3793, 1240.827
294.8614, 1215.232
295.3435, 1188.658
295.8256, 1162.137
296.3077, 1138.245
296.7899, 1117.124
297.2720, 1099.480
297.7541, 1086.930
298.2362, 1079.290
298.7183, 1075.340
299.2004, 1074.194
299.6826, 1076.247
300.1647, 1082.304
300.6468, 1092.386
301.1289, 1106.139
301.6110, 1123.160
302.0931, 1143.519
302.5753, 1168.072
303.0574, 1196.629
303.5395, 1229.791
304.0216, 1268.142
304.5037, 1312.033
304.9858, 1359.286
305.4680, 1409.364
305.9501, 1461.569
306.4322, 1514.401
306.9143, 1565.745
307.3964, 1619.066
307.8785, 1679.018
308.3607, 1745.076
308.8428, 1813.966
309.3249, 1882.932
309.8070, 1953.682
310.2891, 2027.819
310.7712, 2106.202
311.2534, 2188.827
311.7355, 2275.781
312.2176, 2367.542
312.6997, 2463.271
313.1818, 2562.205
313.6639, 2663.676
314.1461, 2768.236
314.6282, 2875.901
315.1103, 2984.965
315.5924, 3095.171
316.0745, 3205.669
316.5566, 3316.628
317.0388, 3432.044
317.5209, 3543.747
318.0030, 3650.407
318.4851, 3754.270
318.9672, 3842.910
319.4493, 3911.432
319.9315, 3962.322
320.4136, 3999.659
320.8957, 4030.415
321.3778, 4041.843
321.8599, 4029.729
322.3420, 3993.589
322.8242, 3936.748
323.3063, 3856.357
323.7884, 3757.277
324.2705, 3643.751
324.7526, 3509.251
325.2347, 3366.786
325.7169, 3217.898
326.1990, 3062.303
326.6811, 2910.795
327.1632, 2764.925
327.6453, 2622.777
328.1274, 2483.356
328.6096, 2341.894
329.0917, 2208.318
329.5738, 2083.971
330.0559, 1968.750
330.5380, 1860.545
331.0201, 1761.138
331.5023, 1666.809
331.9844, 1575.573
332.4665, 1487.111
332.9486, 1404.515
333.4307, 1329.054
333.9128, 1259.086
334.3950, 1193.535
334.8771, 1131.737
335.3592, 1074.566
335.8413, 1023.393
336.3234, 978.4479
336.8055, 934.7361
337.2877, 891.3087
337.7698, 850.8754
338.2519, 816.2764
338.7340, 788.5833
339.2161, 763.5759
339.6982, 740.1692
340.1803, 718.7283
340.6624, 703.1877
341.1446, 694.0634
341.6267, 688.6249
342.1088, 684.5432
342.5909, 681.7961
343.0730, 681.7551
343.5551, 684.4480
344.0373, 690.1659
344.5194, 699.6040
345.0015, 712.8701
345.4836, 729.0483
345.9657, 747.0444
346.4478, 767.2812
346.9300, 792.9612
347.4121, 825.4216
347.8942, 859.9421
348.3763, 890.0774
348.8584, 916.6116
349.3405, 944.8193
349.8227, 978.5713
350.3048, 1015.375
350.7869, 1050.608
351.2690, 1084.198
351.7511, 1115.558
352.2332, 1144.288
352.7154, 1170.061
353.1975, 1191.987
353.6796, 1208.634
354.1617, 1222.467
354.6438, 1235.801
355.1259, 1248.578
355.6081, 1260.601
356.0902, 1271.183
356.5723, 1281.177
357.0544, 1291.335
357.5365, 1300.988
358.0186, 1312.348
358.5008, 1325.958
358.9829, 1342.326
359.4650, 1362.593
359.9471, 1392.054
360.4292, 1422.121
360.9113, 1447.372
361.3935, 1466.690
361.8756, 1484.062
362.3577, 1502.525
362.8398, 1519.472
363.3219, 1531.937
363.8040, 1546.733
364.2862, 1549.642
364.7683, 1535.355
365.2504, 1504.022
365.7325, 1462.528
366.2146, 1409.640
366.6967, 1348.564
367.1789, 1281.291
367.6610, 1203.949
368.1431, 1125.318
368.6252, 1042.798
369.1073, 958.2881
369.5894, 879.5432
370.0716, 807.3182
370.5537, 739.5574
371.0358, 674.6564
371.5179, 611.5074
372.0000, 553.6614
372.4821, 502.4375
372.9643, 456.4946
373.4464, 414.2245
373.9285, 376.4448
374.4106, 340.9100
374.8927, 306.4156
375.3748, 272.9313
375.8570, 244.4651
376.3391, 221.6345
376.8212, 202.0272
377.3033, 183.6418
377.7854, 166.6791
378.2675, 149.8464
378.7497, 132.3428
379.2318, 115.1107
379.7139, 100.3599
380.1960, 88.47974
380.6781, 77.68066
381.1602, 67.17944
381.6424, 57.03455
382.1245, 47.45862
382.6066, 38.15857
383.0887, 29.73291
383.5708, 23.06897
384.0529, 17.98218
384.5351, 13.18738
385.0172, 8.445435
385.4993, 3.890991
385.9814, 1.034546
386.4635, 6.258789
386.9456, 10.49939
387.4278, 12.19019
387.9099, 12.30737
388.3920, 12.34668
388.8741, 12.44971
389.3562, 12.76465
389.8383, 14.02515
390.3205, 15.88928
390.8026, 17.00867
391.2847, 15.98157
391.7668, 14.24207
392.2489, 12.69299
392.7310, 11.37134
393.2132, 11.07739
393.6953, 13.26965
394.1774, 16.15039
394.6595, 17.77087
395.1416, 16.85193
395.6237, 15.42505
396.1059, 13.93628
396.5880, 12.38586
397.0701, 11.01050
397.5522, 9.946655
398.0343, 8.917603
398.5164, 7.831665
398.9986, 6.863037
399.4807, 5.624756
399.9628, 3.949341
400.4449, 1.932617
400.9270, 0.1091310
401.4091, 1.980469
401.8913, 4.105835
402.3734, 6.726685
402.8555, 9.968872
403.3376, 12.87183
403.8197, 14.76245
404.3018, 17.04919
404.7840, 21.70386
405.2661, 29.77405
405.7482, 36.48816
406.2303, 40.57214
406.7124, 42.66125
407.1945, 45.44800
407.6767, 48.90491
408.1588, 52.99695
408.6409, 58.31958
409.1230, 64.69653
409.6051, 68.97766
410.0872, 70.61511
410.5694, 71.20605
411.0515, 73.22986
411.5336, 76.44800
412.0157, 79.40149
412.4978, 81.93091
412.9799, 83.65637
413.4621, 83.68152
413.9442, 82.02942
414.4263, 79.46350
414.9084, 76.48743
415.3905, 73.02051
415.8727, 68.62720
416.3548, 62.37134
416.8369, 56.55029
417.3190, 53.93933
417.8011, 53.42480
418.2832, 51.92334
418.7654, 47.39221
419.2475, 41.70886
419.7296, 35.67542
420.2117, 28.96021
420.6938, 24.00732
421.1759, 23.45886
421.6581, 24.47632
422.1402, 24.03186
422.6223, 19.47815
423.1044, 15.41553
423.5865, 13.61938
424.0686, 13.71143
424.5508, 12.49207
425.0329, 8.062622
425.5150, 3.601563
425.9971, 0.6024170
426.4792, 0.1036380
426.9613, 1.081665
427.4435, 3.760376
427.9256, 6.624023
428.4077, 7.279663
428.8898, 4.307495
429.3719, 2.427124
429.8540, 3.344849
430.3362, 6.781128
430.8183, 8.793335
431.3004, 9.086060
431.7825, 8.720093
432.2646, 8.398682
432.7467, 8.116211
433.2289, 8.246338
433.7110, 8.974976
434.1931, 9.853516
434.6752, 10.18018
435.1573, 9.956055
435.6394, 9.115845
436.1216, 6.855225
436.6036, 4.099609
437.0858, 3.054321
437.5679, 3.788818
438.0500, 5.137329
438.5321, 6.768677
439.0142, 8.193115
439.4963, 8.516968
439.9785, 7.062622
440.4606, 4.975952
440.9427, 2.539307
441.4248, 8.6304002E-02
441.9069, 1.339478
442.3890, 0.3027340
442.8712, 1.217285
443.3533, 2.038574
443.8354, 2.012329
444.3175, 1.414917
444.7996, 0.2500000
445.2817, 2.214722
445.7639, 3.660400
446.2460, 3.145752
446.7281, 3.510742
447.2102, 6.029419
447.6923, 10.21521
448.1744, 12.77661
448.6566, 12.38660
449.1387, 11.78516
449.6208, 12.40381
450.1029, 15.30762
450.5850, 15.88733
451.0671, 12.77661
451.5493, 8.634155
452.0314, 7.596069
452.5135, 10.47876
452.9956, 13.34290
453.4777, 15.37524
453.9598, 16.56775
454.4420, 16.38074
454.9241, 14.63477
455.4062, 13.21509
455.8883, 14.13171
456.3704, 16.76404
456.8525, 18.07568
457.3347, 17.53052
457.8168, 16.51208
458.2989, 16.88293
458.7810, 18.21228
459.2631, 19.25586
459.7452, 19.09277
460.2274, 18.58887
460.7095, 18.89185
461.1916, 19.86426
461.6737, 20.52686
462.1558, 19.93958
462.6379, 18.95923
463.1201, 18.34741
463.6022, 18.27209
464.0843, 18.45569
464.5664, 18.25122
465.0485, 18.32239
465.5306, 19.73022
466.0128, 25.21802
466.4949, 29.56836
466.9770, 30.57947
467.4591, 28.08081
467.9412, 26.71228
468.4233, 27.24854
468.9055, 28.36646
469.3876, 29.38184
469.8697, 30.52124
470.3518, 30.98645
470.8339, 30.43323
471.3160, 29.49536
471.7982, 29.30847
472.2803, 29.93811
472.7624, 31.14893
473.2445, 32.96387
473.7266, 35.28125
474.2087, 37.82385
474.6909, 40.68188
475.1730, 42.93127
475.6551, 43.21814
476.1372, 42.04626
476.6193, 41.55981
477.1014, 42.08118
477.5836, 43.31812
478.0657, 45.52271
478.5478, 48.21753
479.0299, 50.05920
479.5120, 49.16077
479.9941, 48.00818
480.4763, 49.62524
480.9584, 53.69202
481.4405, 56.75818
481.9226, 55.87244
482.4047, 53.84424
482.8868, 53.07239
483.3690, 54.88879
483.8511, 55.91956
484.3332, 54.83264
484.8153, 52.51941
485.2974, 50.38538
485.7795, 48.31079
486.2617, 46.88916
486.7438, 46.49512
487.2259, 47.07349
487.7080, 47.92859
488.1901, 49.36963
488.6722, 50.46948
489.1544, 50.66040
489.6365, 49.70300
490.1186, 48.98291
490.6007, 48.64124
491.0828, 48.36816
491.5649, 47.57678
492.0471, 46.22168
492.5292, 45.08423
493.0113, 44.49341
493.4934, 44.31335
493.9755, 44.33813
494.4576, 44.56714
494.9398, 44.56140
495.4219, 43.59277
495.9040, 42.11951
496.3861, 41.20386
496.8682, 41.12451
497.3503, 40.87207
497.8325, 39.48169
498.3146, 37.53687
498.7967, 35.89478
499.2788, 35.39990
499.7609, 34.78723
500.2430, 33.25610
500.7252, 30.92957
501.2073, 28.47412
501.6894, 25.24292
502.1715, 22.79871
502.6536, 22.25964
503.1357, 24.86023
503.6179, 26.12744
504.1000, 25.17249
504.5821, 23.23132
505.0642, 21.42456
505.5463, 19.29333
506.0284, 18.45837
506.5106, 19.46033
506.9927, 21.62415
507.4748, 22.77625
507.9569, 22.80261
508.4390, 22.64282
508.9211, 22.62256
509.4033, 22.65686
509.8854, 22.80139
510.3675, 23.26746
510.8496, 23.61670
511.3317, 22.98047
511.8138, 21.79077
512.2960, 21.40088
512.7781, 22.39197
513.2602, 23.59009
513.7423, 24.03809
514.2244, 23.88220
514.7065, 23.30835
515.1887, 21.94946
515.6708, 20.49780
516.1529, 19.43567
516.6350, 18.78943
517.1171, 18.34412
517.5992, 17.92896
518.0814, 17.72290
518.5635, 17.92419
519.0456, 19.36304
519.5277, 19.86609
520.0098, 18.67078
520.4919, 16.72900
520.9741, 15.47046
521.4562, 15.24353
521.9383, 14.99048
522.4204, 14.26929
522.9025, 13.27429
523.3846, 13.48035
523.8668, 15.25525
524.3489, 17.05347
524.8310, 18.00146
525.3131, 18.05396
525.7952, 16.96814
526.2773, 14.48499
526.7595, 12.56812
527.2416, 14.79932
527.7237, 19.39575
528.2058, 21.69531
528.6879, 19.44946
529.1700, 15.54321
529.6522, 11.82788
530.1343, 8.668091
530.6164, 6.971558
531.0985, 8.873657
531.5806, 11.13708
532.0627, 11.55640
532.5449, 9.860718
533.0270, 8.483521
533.5091, 8.365601
533.9912, 8.572754
534.4733, 8.446777
534.9554, 6.749878
535.4376, 6.483032
535.9197, 8.678589
536.4018, 11.76367
536.8839, 12.71545
537.3660, 10.51648
537.8481, 8.860718
538.3303, 8.843628
538.8124, 10.18542
539.2945, 11.60034
539.7766, 13.14880
540.2587, 14.12183
540.7408, 13.46814
541.2230, 11.79553
541.7051, 11.65625
542.1872, 13.42676
542.6693, 15.09460
543.1514, 14.40442
543.6335, 12.25244
544.1157, 10.26575
544.5978, 8.862549
545.0799, 7.935913
545.5620, 7.641479
546.0441, 7.780396
546.5262, 7.848877
547.0084, 7.172363
547.4905, 6.813110
547.9726, 7.434326
548.4547, 9.153198
548.9368, 10.43994
549.4189, 11.16064
549.9011, 11.36157
550.3832, 11.02539
550.8653, 9.985107
551.3474, 8.611084
551.8295, 6.370605
552.3116, 4.414429
552.7938, 4.980103
553.2759, 8.428955
553.7580, 10.78870
554.2401, 10.76208
554.7222, 9.205444
555.2043, 8.137329
555.6865, 7.530151
556.1686, 6.994629
556.6507, 6.198853
557.1328, 5.387939
557.6149, 4.913696
558.0970, 4.810425
558.5792, 4.978271
559.0613, 5.699707
559.5434, 6.506714
560.0255, 6.916382
560.5076, 6.680420
560.9897, 6.343872
561.4719, 6.005981
561.9540, 5.671265
562.4361, 5.358521
562.9182, 4.580200
563.4003, 4.390259
563.8824, 5.364746
564.3646, 7.221191
564.8467, 8.017334
565.3288, 7.350464
565.8109, 6.379395
566.2930, 5.810791
566.7751, 5.685181
567.2573, 4.467896
567.7394, 1.850098
568.2215, 0.5487060
568.7036, 0.9680180
569.1857, 0.2425540
569.6678, 2.039917
570.1500, 4.570557
570.6321, 6.729858
571.1142, 7.144775
571.5963, 6.189575
572.0784, 4.709961
572.5605, 2.150757
573.0427, 1.9286999E-02
573.5248, 0.3348390
574.0069, 0.7983400
574.4890, 1.366699
574.9711, 6.8480998E-02
575.4532, 1.555054
575.9354, 2.012207
576.4175, 0.9669190
576.8996, 0.3895260
577.3817, 0.7199710
577.8638, 1.117554
578.3459, 0.7956540
578.8281, 0.3813480
579.3102, 1.807739
579.7923, 3.700684
580.2744, 5.360718
580.7565, 5.006226
581.2386, 2.765137
581.7208, 0.9447020
582.2029, 0.6665040
582.6850, 1.136841
583.1671, 0.8536380
583.6492, 4.6753000E-02
584.1313, 0.7663570
584.6134, 0.8936770
585.0955, 0.5230710
585.5776, 0.2376710
586.0598, 1.371338
586.5419, 2.976074
587.0240, 6.274292
587.5061, 9.424561
587.9882, 10.88953
588.4703, 9.287109
588.9525, 7.539429
589.4346, 5.046509
589.9167, 2.757690
590.3988, 2.519775
590.8809, 5.484375
591.3630, 7.368774
591.8452, 6.530396
592.3273, 4.052124
592.8094, 4.656006
593.2915, 8.542480
593.7736, 12.21692
594.2557, 13.49097
594.7379, 13.03406
595.2200, 12.56470
595.7021, 12.11768
596.1842, 11.53821
596.6663, 10.30127
597.1484, 9.060181
597.6306, 8.635254
598.1127, 9.324219
598.5948, 10.51160
599.0769, 12.37012
599.5590, 14.40735
600.0411, 16.02258
600.5233, 17.94006
601.0054, 18.43481
601.4875, 16.15332
601.9696, 12.25867
602.4517, 10.45398
602.9338, 11.76489
603.4160, 13.00452
603.8981, 12.99963
604.3802, 11.88770
604.8623, 11.00122
605.3444, 10.30310
605.8265, 10.11462
606.3087, 10.59143
606.7908, 11.70447
607.2729, 13.94543
607.7550, 17.57129
608.2371, 20.64612
608.7192, 20.67908
609.2014, 19.27039
609.6835, 18.78503
610.1656, 20.74341
610.6477, 22.36597
611.1298, 21.67664
611.6119, 19.87939
612.0941, 19.21802
612.5762, 21.70300
613.0583, 23.62878
613.5404, 23.81995
614.0225, 22.72888
614.5046, 23.01587
614.9868, 25.50488
615.4689, 27.45093
615.9510, 27.11096
616.4331, 24.66162
616.9152, 24.46252
617.3973, 26.77661
617.8795, 28.96155
618.3616, 27.70691
618.8437, 24.70032
619.3258, 24.05823
619.8079, 26.64771
620.2900, 30.09985
620.7722, 32.23059
621.2543, 33.80859
621.7364, 36.13281
622.2185, 41.90466
622.7006, 45.82373
623.1827, 44.89282
623.6649, 40.98132
624.1470, 38.40149
624.6291, 38.17188
625.1112, 38.19287
625.5933, 37.96033
626.0754, 37.70886
626.5576, 38.98364
627.0397, 42.37024
627.5218, 45.25391
628.0039, 45.67065
628.4860, 43.96997
628.9681, 43.78247
629.4503, 45.37170
629.9324, 47.22998
630.4145, 47.84412
630.8966, 47.49023
631.3787, 47.11145
631.8608, 46.99707
632.3430, 47.19836
632.8251, 47.72363
633.3072, 48.33008
633.7893, 48.92944
634.2714, 49.33276
634.7535, 50.19043
635.2357, 51.72803
635.7178, 53.64246
636.1999, 55.42712
636.6820, 57.25464
637.1641, 58.77283
637.6462, 59.97290
638.1284, 60.74243
638.6105, 60.17346
639.0926, 58.04077
639.5747, 56.14307
640.0568, 55.98462
640.5389, 56.78101
641.0211, 56.00940
641.5032, 53.69568
641.9853, 51.69800
642.4674, 51.71851
642.9495, 52.76050
643.4316, 54.03467
643.9138, 55.71204
644.3959, 56.26062
644.8780, 54.06848
645.3601, 50.89001
645.8422, 48.46326
646.3243, 47.23901
646.8065, 46.54150
647.2886, 46.88562
647.7707, 47.46497
648.2528, 46.66858
648.7349, 44.06958
649.2170, 41.95508
649.6992, 40.95276
650.1813, 40.70361
650.6634, 40.52917
651.1455, 40.39758
651.6276, 39.94067
652.1097, 38.34534
652.5919, 36.62036
653.0740, 36.28418
653.5561, 37.19629
654.0382, 38.16394
654.5203, 38.83081
655.0024, 39.04761
655.4846, 38.55969
655.9667, 37.09680
656.4488, 36.06909
656.9309, 36.48010
657.4130, 36.72070
657.8951, 35.50732
658.3773, 31.84790
658.8594, 29.77124
659.3415, 29.86450
659.8236, 30.67993
660.3057, 30.30347
660.7878, 28.82898
661.2700, 27.25952
661.7521, 25.80298
662.2342, 24.38025
662.7163, 22.60669
663.1984, 20.79395
663.6805, 19.71216
664.1627, 20.96887
664.6448, 21.91394
665.1269, 20.54834
665.6090, 17.49182
666.0911, 15.07043
666.5732, 14.58411
667.0554, 14.03772
667.5375, 12.50037
668.0196, 10.00989
668.5017, 8.923340
668.9838, 9.746826
669.4659, 10.70935
669.9481, 10.80872
670.4302, 10.06311
670.9123, 8.957275
671.3944, 7.438599
671.8765, 5.901001
672.3586, 4.640381
672.8408, 3.630737
673.3229, 2.876099
673.8050, 2.412231
674.2871, 1.968628
674.7692, 1.641357
675.2513, 1.155151
675.7335, 0.1881100
676.2156, 1.773804
676.6977, 3.687012
677.1798, 5.757080
677.6619, 7.510986
678.1440, 8.076294
678.6262, 6.809082
679.1083, 5.819092
679.5904, 5.483398
680.0725, 5.689575
680.5546, 6.497437
681.0367, 7.849365
681.5189, 8.123413
682.0010, 5.858276
682.4831, 2.674438
682.9652, 1.064209
683.4473, 0.8009030
683.9294, 0.5306400
684.4116, 0.1842040
684.8937, 1.235840
685.3758, 2.800049
685.8579, 4.903442
686.3400, 6.171387
686.8221, 4.467651
687.3043, 3.650757
687.7864, 6.037354
688.2685, 12.60449
688.7506, 16.22205
689.2327, 16.03674
689.7148, 15.02820
690.1970, 16.53418
690.6791, 20.02283
691.1612, 21.39612
691.6433, 19.87927
692.1254, 17.87366
692.6075, 17.99866
693.0897, 19.13416
693.5718, 19.54529
694.0539, 18.50623
694.5360, 17.24829
695.0181, 16.00378
695.5002, 15.00366
695.9824, 14.63977
696.4645, 14.72620
696.9466, 15.83435
697.4287, 18.37354
697.9108, 21.85767
698.3929, 25.01392
698.8751, 27.84546
699.3572, 30.82532
699.8393, 34.32446
700.3214, 37.99805
700.8035, 40.94263
701.2856, 43.24158
701.7678, 45.39954
702.2499, 46.54187
702.7320, 48.49231
703.2141, 53.79504
703.6962, 61.98376
704.1783, 69.09680
704.6605, 71.61328
705.1426, 74.44495
705.6247, 80.77917
706.1068, 91.27039
706.5889, 98.64929
707.0710, 100.8678
707.5532, 103.3354
708.0353, 110.1438
708.5174, 121.2990
708.9995, 130.7395
709.4816, 138.2297
709.9637, 145.2554
710.4459, 152.8744
710.9280, 161.2764
711.4101, 170.7391
711.8922, 181.6243
712.3743, 192.5189
712.8564, 202.9752
713.3386, 212.7638
713.8207, 221.8374
714.3028, 229.2915
714.7849, 237.1459
715.2670, 245.3359
715.7491, 254.1467
716.2313, 264.5989
716.7134, 277.3354
717.1955, 288.4575
717.6776, 297.4612
718.1597, 304.2748
718.6418, 307.9703
719.1240, 309.1205
719.6061, 311.0099
720.0882, 316.5529
720.5703, 321.0902
721.0524, 319.3756
721.5345, 312.8755
722.0167, 305.1461
722.4988, 297.4644
722.9809, 288.8700
723.4630, 278.5629
723.9451, 266.9868
724.4272, 256.3112
724.9094, 248.0178
725.3915, 237.9111
725.8736, 224.0146
726.3557, 207.1991
726.8378, 191.1898
727.3199, 175.8940
727.8021, 162.0787
728.2842, 151.1917
728.7663, 141.5886
729.2484, 130.2107
729.7305, 117.2686
730.2126, 105.4204
730.6948, 97.65613
731.1769, 90.32446
731.6590, 80.48804
732.1411, 67.12878
732.6232, 56.07947
733.1053, 48.55200
733.5875, 42.26367
734.0696, 36.11279
734.5517, 30.23230
735.0338, 23.30750
735.5159, 15.16309
735.9980, 6.966187
736.4802, 0.2377930
736.9623, 6.542480
737.4444, 12.13611
737.9265, 17.04041
738.4086, 21.54138
738.8907, 26.03064
739.3729, 30.09229
739.8550, 33.07727
740.3371, 34.01709
740.8192, 35.58704
741.3013, 39.48413
741.7834, 43.63794
742.2656, 45.93701
742.7477, 45.81567
743.2298, 45.77576
743.7119, 46.11792
744.1940, 46.65320
744.6761, 47.62744
745.1583, 48.73364
745.6404, 48.55737
746.1225, 46.54102
746.6046, 43.22290
747.0867, 38.23608
747.5688, 32.51562
748.0510, 27.63477
748.5331, 24.42456
749.0152, 21.51538
749.4973, 19.36890
749.9794, 17.19971
750.4615, 13.45703
750.9437, 8.187012
751.4258, 0.9113770
751.9079, 9.613770
752.3900, 21.04883
752.8721, 26.25830
753.3542, 26.01855
753.8364, 29.26245
754.3185, 41.50244
754.8006, 57.29883
755.2827, 70.28564
755.7648, 81.47656
756.2469, 93.24146
756.7291, 107.2053
757.2112, 121.1985
757.6933, 134.1541
758.1754, 146.2383
758.6575, 159.5044
759.1396, 174.2126
759.6218, 189.2314
760.1039, 204.1165
760.5860, 218.9946
761.0681, 236.5186
761.5502, 256.5505
762.0323, 276.5642
762.5145, 294.6523
762.9966, 312.4111
763.4787, 331.8516
763.9608, 353.0042
764.4429, 375.6958
764.9250, 401.6267
765.4072, 427.5173
765.8893, 450.8428
766.3714, 471.6365
766.8535, 495.2175
767.3356, 522.5281
767.8177, 551.0210
768.2999, 579.0493
768.7820, 606.7175
769.2641, 635.4304
769.7462, 665.0000
770.2283, 696.4111
770.7104, 730.8118
771.1926, 767.2412
771.6747, 804.6890
772.1568, 842.7366
772.6389, 881.5056
773.1210, 921.4741
773.6031, 961.7798
774.0853, 1001.768
774.5674, 1041.290
775.0495, 1081.625
775.5316, 1122.585
776.0137, 1164.973
776.4958, 1209.986
776.9780, 1257.575
777.4601, 1306.104
777.9422, 1355.835
778.4243, 1405.573
778.9064, 1454.237
779.3885, 1502.910
779.8707, 1554.257
780.3528, 1608.758
780.8349, 1663.183
781.3170, 1714.873
781.7991, 1766.134
782.2812, 1818.633
782.7633, 1873.194
783.2454, 1926.728
783.7275, 1978.185
784.2097, 2028.440
784.6918, 2077.831
785.1739, 2126.026
785.6560, 2175.030
786.1381, 2225.514
786.6202, 2272.588
787.1024, 2308.447
787.5845, 2340.147
788.0666, 2376.224
788.5487, 2419.299
789.0308, 2462.131
789.5129, 2504.818
789.9951, 2544.863
790.4772, 2579.493
790.9593, 2606.386
791.4414, 2635.734
791.9235, 2668.271
792.4056, 2702.365
792.8878, 2737.756
793.3699, 2773.821
793.8520, 2807.455
794.3341, 2838.237
794.8162, 2869.240
795.2983, 2903.556
795.7805, 2940.225
796.2626, 2978.913
796.7447, 3019.564
797.2268, 3061.306
797.7089, 3103.063
798.1910, 3147.519
798.6732, 3195.661
799.1553, 3247.771
799.6374, 3305.306
800.1195, 3368.948
800.6016, 3436.393
801.0837, 3505.375
801.5659, 3576.623
802.0480, 3653.469
802.5301, 3735.734
803.0122, 3822.641
803.4943, 3914.361
803.9764, 4010.964
804.4586, 4112.708
804.9407, 4219.200
805.4228, 4332.197
805.9049, 4451.474
806.3870, 4576.450
806.8691, 4710.500
807.3513, 4853.835
807.8334, 4998.580
808.3155, 5144.428
808.7976, 5291.144
809.2797, 5437.278
809.7618, 5584.814
810.2440, 5735.433
810.7261, 5890.210
811.2082, 6048.196
811.6903, 6209.627
812.1724, 6374.195
812.6545, 6539.414
813.1367, 6704.221
813.6188, 6876.167
814.1009, 7056.622
814.5830, 7239.121
815.0651, 7417.645
815.5472, 7592.440
816.0294, 7767.396
816.5115, 7941.571
816.9936, 8114.460
817.4757, 8281.368
817.9578, 8446.244
818.4399, 8616.445
818.9221, 8794.591
819.4042, 8960.778
819.8863, 9103.222
820.3684, 9234.622
820.8505, 9367.771
821.3326, 9509.620
821.8148, 9624.821
822.2969, 9710.136
822.7790, 9778.060
823.2611, 9841.726
823.7432, 9895.736
824.2253, 9920.539
824.7075, 9914.020
825.1896, 9889.186
825.6717, 9859.972
826.1538, 9813.489
826.6359, 9738.478
827.1180, 9632.831
827.6002, 9504.561
828.0823, 9354.850
828.5644, 9186.026
829.0465, 8998.069
829.5286, 8793.243
830.0107, 8580.778
830.4929, 8362.770
830.9750, 8135.367
831.4571, 7897.458
831.9392, 7649.869
832.4213, 7395.050
832.9034, 7136.620
833.3856, 6875.939
833.8677, 6610.384
834.3498, 6349.862
834.8319, 6098.414
835.3140, 5856.871
835.7961, 5616.868
836.2783, 5376.214
836.7604, 5142.594
837.2425, 4920.596
837.7246, 4708.790
838.2067, 4502.282
838.6888, 4299.963
839.1710, 4107.039
839.6531, 3928.835
840.1352, 3757.897
840.6173, 3590.253
841.0994, 3425.214
841.5815, 3266.877
842.0637, 3114.426
842.5458, 2967.983
843.0279, 2827.393
843.5100, 2692.864
843.9921, 2565.083
844.4742, 2445.207
844.9564, 2330.063
845.4385, 2218.487
845.9206, 2110.947
846.4027, 2007.228
846.8848, 1908.029
847.3669, 1815.517
847.8491, 1732.668
848.3312, 1654.508
848.8133, 1578.726
849.2954, 1505.476
849.7775, 1436.854
850.2596, 1372.746
850.7418, 1311.583
851.2239, 1253.152
851.7060, 1197.188
852.1881, 1143.603
852.6702, 1091.837
853.1523, 1042.485
853.6345, 994.7593
854.1166, 949.9790
854.5987, 910.6113
855.0808, 874.4719
855.5629, 836.5295
856.0450, 792.3403
856.5272, 752.4026
857.0093, 719.5388
857.4914, 690.2703
857.9735, 658.4863
858.4556, 624.7957
858.9377, 593.4280
859.4199, 566.4519
859.9020, 540.8379
860.3841, 512.8230
860.8662, 484.6724
861.3483, 459.1577
861.8304, 438.3206
862.3126, 418.3589
862.7947, 398.4146
863.2768, 379.1580
863.7589, 361.4285
864.2410, 345.2654
864.7231, 329.1128
865.2053, 312.3875
865.6874, 296.4990
866.1695, 283.6416
866.6516, 272.4177
867.1337, 259.3982
867.6158, 243.5881
868.0980, 228.6621
868.5801, 217.0112
869.0622, 206.5815
869.5443, 195.8291
870.0264, 184.4302
870.5085, 173.7732
870.9907, 164.3525
871.4728, 154.8875
871.9549, 144.1030
872.4370, 132.6724
872.9191, 123.7043
873.4012, 117.0083
873.8834, 110.2012
874.3655, 100.0630
874.8476, 90.38794
875.3297, 84.62842
875.8118, 82.87866
876.2939, 79.26904
876.7761, 71.83667
877.2582, 64.86328
877.7403, 60.24023
878.2224, 57.35132
878.7045, 52.98755
879.1866, 47.16016
879.6688, 41.44189
880.1509, 36.65405
880.6330, 32.51099
881.1151, 28.98975
881.5972, 25.82642
882.0793, 22.44263
882.5615, 18.13721
883.0436, 14.17944
883.5257, 10.93848
884.0078, 8.171143
884.4899, 5.588135
884.9720, 3.271484
885.4542, 0.4089360
885.9363, 6.532227
886.4184, 12.65466
886.9005, 15.53906
887.3826, 16.17041
887.8647, 16.13525
888.3469, 15.54761
888.8290, 15.00476
889.3111, 14.10974
889.7932, 13.69910
890.2753, 14.86865
890.7574, 18.20032
891.2396, 20.49146
891.7217, 21.53516
892.2038, 21.99023
892.6859, 22.59082
893.1680, 23.11829
893.6501, 23.24634
894.1323, 22.98608
894.6144, 21.95435
895.0965, 17.91736
895.5786, 14.62207
896.0607, 15.41919
896.5428, 20.99976
897.0250, 24.25171
897.5071, 24.74976
897.9892, 24.19897
898.4713, 23.64172
898.9534, 22.89832
899.4355, 21.25391
899.9177, 18.86365
900.3998, 16.93787
900.8819, 16.59094
901.3640, 16.56116
901.8461, 16.12439
902.3282, 15.36182
902.8104, 14.92371
903.2925, 14.96875
903.7746, 15.02148
904.2567, 15.09863
904.7388, 14.89539
905.2209, 13.18872
905.7031, 10.45190
906.1852, 8.700806
906.6673, 9.548096
907.1494, 10.27209
907.6315, 8.276245
908.1136, 5.184448
908.5958, 3.671387
909.0779, 5.453247
909.5600, 5.951050
910.0421, 4.571533
910.5242, 2.322510
911.0063, 0.6634520
911.4885, 0.6806640
911.9706, 3.249023
912.4527, 7.368530
912.9348, 11.66016
913.4169, 15.20947
913.8990, 18.29639
914.3812, 21.26306
914.8633, 24.28125
915.3454, 26.09766
915.8275, 25.66309
916.3096, 25.73535
916.7917, 27.93787
917.2739, 32.02563
917.7560, 37.30249
918.2381, 43.54797
918.7202, 48.29688
919.2023, 48.95105
919.6844, 48.29248
920.1666, 48.68701
920.6487, 49.82312
921.1308, 49.56030
921.6129, 46.17822
922.0950, 43.90271
922.5771, 44.61890
923.0593, 46.39758
923.5414, 43.27197
924.0235, 36.21106
924.5056, 31.50000
924.9877, 31.99463
925.4698, 33.97498
925.9520, 35.07800
926.4341, 35.41968
926.9162, 35.15466
927.3983, 33.32471
927.8804, 32.28735
928.3625, 32.36865
928.8447, 32.88232
929.3268, 33.01331
929.8089, 32.86621
930.2910, 33.23657
930.7731, 34.17078
931.2552, 35.46362
931.7374, 37.20435
932.2195, 38.99939
932.7016, 40.29236
933.1837, 40.94543
933.6658, 42.61633
934.1479, 46.59387
934.6301, 49.49634
935.1122, 49.11938
935.5943, 46.67139
936.0764, 48.07922
936.5585, 52.78699
937.0406, 56.57800
937.5228, 56.32495
938.0049, 55.16736
938.4870, 55.17773
938.9691, 56.08569
939.4512, 57.29333
939.9333, 59.00781
940.4155, 60.52881
940.8976, 61.68970
941.3797, 62.70349
941.8618, 63.89648
942.3439, 65.22693
942.8260, 66.57690
943.3082, 67.86267
943.7903, 69.18835
944.2724, 70.82080
944.7545, 72.38501
945.2366, 73.51477
945.7188, 73.99548
946.2009, 74.80420
946.6830, 76.47607
947.1651, 77.34753
947.6472, 75.51868
948.1293, 71.87805
948.6115, 70.51062
949.0936, 71.21606
949.5757, 71.96301
950.0578, 71.66833
950.5399, 70.95239
951.0220, 70.29822
951.5042, 69.58801
951.9863, 68.08289
952.4684, 65.16785
952.9505, 63.55383
953.4326, 64.22510
953.9147, 65.50073
954.3969, 63.76379
954.8790, 60.35559
955.3611, 59.05420
955.8432, 61.97803
956.3253, 64.37244
956.8074, 63.15552
957.2896, 60.61597
957.7717, 58.88171
958.2538, 57.92651
958.7359, 57.76135
959.2180, 58.43323
959.7001, 59.48022
960.1823, 61.23047
960.6644, 62.77429
961.1465, 61.81348
961.6286, 58.54712
962.1107, 55.34875
962.5928, 53.68164
963.0750, 52.09521
963.5571, 49.86450
964.0392, 47.20312
964.5213, 44.92493
965.0034, 43.09094
965.4855, 41.87476
965.9677, 41.66895
966.4498, 41.49438
966.9319, 39.52856
967.4140, 36.71790
967.8961, 34.74072
968.3782, 34.69116
968.8604, 34.40015
969.3425, 33.17334
969.8246, 31.87695
970.3067, 31.33264
970.7888, 31.54224
971.2709, 30.45544
971.7531, 27.84900
972.2352, 26.16858
972.7173, 28.60144
973.1994, 32.00354
973.6815, 32.70386
974.1636, 30.81726
974.6458, 30.14490
975.1279, 32.34839
975.6100, 34.43542
976.0921, 35.55225
976.5742, 35.94446
977.0563, 36.64990
977.5385, 37.47449
978.0206, 36.94250
978.5027, 33.36914
978.9848, 30.72961
979.4669, 33.97363
979.9490, 39.08081
980.4311, 40.77551
980.9132, 36.53540
981.3953, 33.11279
981.8774, 30.22424
982.3596, 28.63220
982.8417, 30.82898
983.3238, 34.88757
983.8059, 33.55566
984.2880, 27.06836
984.7701, 22.73730
985.2523, 27.72180
985.7344, 33.01208
986.2165, 33.07703
986.6986, 29.24463
987.1807, 27.08704
987.6628, 26.83411
988.1450, 26.97559
988.6271, 27.27246
989.1092, 27.39893
989.5913, 26.85999
990.0734, 25.81348
990.5555, 24.51709
991.0377, 22.97412
991.5198, 21.37537
992.0019, 19.42639
992.4840, 17.86414
992.9661, 17.35303
993.4482, 17.89722
993.9304, 18.22388
994.4125, 18.40881
994.8946, 18.40759
995.3767, 17.48535
995.8588, 16.73169
996.3409, 18.00928
996.8231, 20.79211
997.3052, 21.37488
997.7873, 17.41064
998.2694, 14.52161
998.7515, 14.00037
999.2336, 15.04004
999.7158, 16.73120
1000.198, 18.66809
1000.680, 19.16382
1001.162, 17.39844
1001.644, 15.37366
1002.126, 13.94995
1002.608, 13.16858
1003.091, 13.32019
1003.573, 14.72986
1004.055, 14.84827
1004.537, 13.43518
1005.019, 11.97717
1005.501, 11.57202
1005.983, 11.69849
1006.465, 11.62622
1006.948, 11.38684
1007.430, 11.00061
1007.912, 10.32141
1008.394, 9.645264
1008.876, 8.656128
1009.358, 7.999512
1009.840, 9.410522
1010.322, 12.76538
1010.804, 14.22302
1011.287, 12.99658
1011.769, 10.89539
1012.251, 8.764160
1012.733, 7.086304
1013.215, 6.521973
1013.697, 7.396606
1014.179, 8.276978
1014.661, 9.231079
1015.143, 9.801270
1015.626, 9.843018
1016.108, 9.308228
1016.590, 7.417725
1017.072, 4.707153
1017.554, 3.075806
1018.036, 3.964355
1018.518, 5.477661
1019.000, 7.205078
1019.483, 8.890381
1019.965, 10.23132
1020.447, 11.25317
1020.929, 11.90540
1021.411, 12.23584
1021.893, 11.74500
1022.375, 9.253662
1022.857, 6.073120
1023.339, 3.860596
1023.822, 2.731934
1024.304, 1.774536
1024.786, 0.4173580
1025.268, 0.2071530
1025.750, 0.6429440
1026.232, 2.218140
1026.714, 1.500244
1027.196, 0.7271730
1027.679, 1.4771000E-02
1028.161, 6.825195
1028.643, 12.84509
1029.125, 12.95398
1029.607, 10.14966
1030.089, 7.492676
1030.571, 5.004272
1031.053, 3.261230
1031.536, 2.117432
1032.018, 2.086670
1032.500, 4.310547
1032.982, 7.491821
1033.464, 9.457397
1033.946, 10.41272
1034.428, 11.42297
1034.910, 13.95349
1035.392, 15.29626
1035.875, 14.47961
1036.357, 12.61694
1036.839, 11.61914
1037.321, 11.46631
1037.803, 11.83997
1038.285, 12.75977
1038.767, 12.77869
1039.249, 9.350098
1039.731, 5.799072
1040.214, 5.347290
1040.696, 8.440674
1041.178, 10.03333
1041.660, 9.909058
1042.142, 8.659180
1042.624, 5.777100
1043.106, 2.927612
1043.588, 3.589722
1044.071, 6.383423
1044.553, 8.212524
1045.035, 6.684692
1045.517, 6.276123
1045.999, 9.175537
1046.481, 12.12903
1046.963, 11.59094
1047.445, 7.887207
1047.927, 6.222656
1048.410, 6.700073
1048.892, 7.111450
1049.374, 5.630127
1049.856, 3.721558
1050.338, 2.510498
1050.820, 1.818115
1051.302, 0.5489500
1051.784, 1.776001
1052.266, 3.116821
1052.749, 3.113159
1053.231, 1.880249
1053.713, 1.942627
1054.195, 6.329468
1054.677, 7.479248
1055.159, 3.926758
1055.641, 1.535889
1056.123, 3.413452
1056.606, 5.046265
1057.088, 4.096924
1057.570, 1.237305
1058.052, 0.3039550
1058.534, 1.023315
1059.016, 1.687134
1059.498, 1.278198
1059.980, 0.8858640
1060.463, 1.453491
1060.945, 2.296997
1061.427, 2.315918
1061.909, 0.8416750
1062.391, 1.148071
1062.873, 3.599854
1063.355, 6.240356
1063.837, 7.500366
1064.319, 8.015381
1064.802, 8.751465
1065.284, 9.578857
1065.766, 9.530518
1066.248, 7.398438
1066.730, 5.638062
1067.212, 4.719238
1067.694, 4.351196
1068.176, 3.835449
1068.658, 3.389282
1069.141, 4.108276
1069.623, 6.412598
1070.105, 8.289185
1070.587, 8.499268
1071.069, 7.936157
1071.551, 6.935791
1072.033, 5.620117
1072.515, 5.668091
1072.998, 7.131470
1073.480, 8.132813
1073.962, 7.651611
1074.444, 6.579590
1074.926, 5.365967
1075.408, 4.372192
1075.890, 4.227295
1076.372, 5.594238
1076.854, 6.767700
1077.337, 7.731445
1077.819, 8.534912
1078.301, 9.417603
1078.783, 10.09546
1079.265, 9.488281
1079.747, 7.887207
1080.229, 6.818481
1080.711, 7.755981
1081.193, 8.209839
1081.676, 6.900635
1082.158, 5.317871
1082.640, 6.584839
1083.122, 10.29370
1083.604, 12.16772
1084.086, 11.19031
1084.568, 9.452393
1085.050, 7.804443
1085.532, 6.774536
1086.015, 7.491211
1086.497, 9.538940
1086.979, 9.018311
1087.461, 5.484863
1087.943, 2.493164
1088.425, 1.236816
1088.907, 1.054932
1089.389, 2.125488
1089.872, 3.308472
1090.354, 2.583618
1090.836, 2.079834
1091.318, 3.735229
1091.800, 1.071289
1092.282, 2.427856
1092.764, 5.254150
1093.246, 7.034668
1093.729, 6.168091
1094.211, 3.171265
1094.693, 2.0752000E-02
1095.175, 4.366455
1095.657, 6.262939
1096.139, 3.358765
1096.621, 1.293579
1097.103, 4.879395
1097.585, 7.395630
1098.068, 8.238403
1098.550, 7.411621
1099.032, 6.121094
1099.514, 4.621094
1099.996, 3.561523
1100.478, 3.593628
1100.960, 4.484375
1101.442, 5.516235
1101.924, 7.034668
1102.407, 6.309448
1102.889, 2.224609
1103.371, 1.682861
1103.853, 1.010376
1104.335, 1.821411
1104.817, 4.153564
1105.299, 5.605835
1105.781, 6.603638
1106.264, 7.305786
1106.746, 7.193237
1107.228, 5.677246
1107.710, 3.710693
1108.192, 3.275513
1108.674, 3.912964
1109.156, 4.658936
1109.638, 5.480103
1110.120, 5.633423
1110.603, 4.326538
1111.085, 3.144287
1111.567, 3.424438
1112.049, 4.768921
1112.531, 3.838623
1113.013, 1.110840
1113.495, 0.4921880
1113.977, 2.233398
1114.459, 4.560791
1114.942, 3.699463
1115.424, 1.453491
1115.906, 0.1287840
1116.388, 0.1907960
1116.870, 0.5692140
1117.352, 1.080811
1117.834, 0.8267820
1118.316, 2.705933
1118.799, 5.757935
1119.281, 3.933472
1119.763, 1.331421
1120.245, 3.440918
1120.727, 1.411743
1121.209, 0.9125980
1121.691, 3.051270
1122.173, 4.681763
1122.656, 5.290527
1123.138, 5.207397
1123.620, 4.633423
1124.102, 3.562988
1124.584, 3.246704
1125.066, 4.406860
1125.548, 4.930298
1126.030, 3.677490
1126.512, 2.134644
1126.995, 4.045410
1127.477, 7.904175
1127.959, 10.02368
1128.441, 9.058472
1128.923, 8.186523
1129.405, 8.671631
1129.887, 9.184326
1130.369, 9.089355
1130.851, 8.465454
1131.334, 7.320435
1131.816, 5.872437
1132.298, 5.173828
1132.780, 5.804932
1133.262, 6.989014
1133.744, 9.266968
1134.226, 11.20410
1134.708, 11.22913
1135.191, 9.152954
1135.673, 8.005859
1136.155, 7.764526
1136.637, 7.999146
1137.119, 9.100586
1137.601, 9.942871
1138.083, 9.587402
1138.565, 8.468262
1139.047, 7.825684
1139.530, 8.204956
1140.012, 5.530151
1140.494, 0.9792480
1140.976, 6.030884
1141.458, 2.915527
1141.940, 2.610718
1142.422, 4.570190
1142.904, 3.329468
1143.386, 2.873535
1143.869, 3.807617
1144.351, 4.282349
1144.833, 3.802979
1145.315, 3.273804
1145.797, 4.344727
1146.279, 5.837646
1146.761, 5.755371
1147.243, 3.820679
1147.726, 2.842651
1148.208, 3.134155
1148.690, 4.588257
1149.172, 8.118530
1149.654, 11.54468
1150.136, 9.300415
1150.618, 3.867920
1151.100, 0.2100830
1151.583, 0.4639890
1152.065, 0.3652340
1152.547, 3.532104
1153.029, 6.246216
1153.511, 7.281860
1153.993, 7.157349
1154.475, 6.841797
1154.957, 6.474854
1155.439, 6.624634
1155.922, 8.155151
1156.404, 8.909180
1156.886, 7.588745
1157.368, 5.713989
1157.850, 4.064697
1158.332, 2.690186
1158.814, 2.005005
1159.296, 1.974609
1159.778, 2.329468
1160.261, 3.252930
1160.743, 4.135986
1161.225, 4.533325
1161.707, 4.784912
1162.189, 5.323486
1162.671, 6.132446
1163.153, 5.590088
1163.635, 3.719971
1164.118, 2.778198
1164.600, 5.863159
1165.082, 8.754272
1165.564, 8.284790
1166.046, 5.949829
1166.528, 4.622070
1167.010, 4.424683
1167.492, 4.183716
1167.974, 3.822754
1168.457, 3.468872
1168.939, 3.544434
1169.421, 3.546265
1169.903, 2.732544
1170.385, 1.484497
1170.867, 1.511108
1171.349, 2.993164
1171.831, 3.919922
1172.313, 3.920654
1172.796, 3.611572
1173.278, 3.658203
1173.760, 3.619385
1174.242, 2.559448
1174.724, 0.6254880
1175.206, 0.6643070
1175.688, 2.535278
1176.170, 7.118408
1176.653, 16.07727
1177.135, 23.79138
1177.617, 21.12427
1178.099, 13.68396
1178.581, 8.447510
1179.063, 6.647095
1179.545, 5.053345
1180.027, 3.204468
1180.510, 1.981445
1180.992, 1.743530
1181.474, 2.136108
1181.956, 3.227417
1182.438, 4.334351
1182.920, 4.354736
1183.402, 2.533813
1183.884, 2.418457
1184.366, 4.750488
1184.849, 6.960205
1185.331, 8.009155
1185.813, 7.838379
1186.295, 4.935791
1186.777, 1.341309
1187.259, 1.167847
1187.741, 8.938354
1188.223, 11.63977
1188.705, 6.720215
1189.188, 1.486938
1189.670, 0.8526610
1190.152, 3.014771
1190.634, 4.754150
1191.116, 6.049561
1191.598, 6.855347
1192.080, 5.841187
1192.562, 6.762329
1193.045, 11.17664
1193.527, 14.53052
1194.009, 11.46777
1194.491, 5.211426
1194.973, 3.618286
1195.455, 5.717407
1195.937, 7.657471
1196.419, 6.907715
1196.901, 7.257446
1197.384, 10.20959
1197.866, 12.37122
1198.348, 9.059326
1198.830, 2.847778
1199.312, 0.3273930
1199.794, 1.132446
1200.276, 2.635498
1200.758, 5.537231
1201.240, 6.609009
1201.723, 4.819580
1202.205, 2.213135
1202.687, 1.240967
1203.169, 1.405640
1203.651, 1.690918
1204.133, 1.978638
1204.615, 1.949219
1205.097, 0.2377930
1205.580, 0.1763920
1206.062, 3.202637
1206.544, 6.704102
1207.026, 6.240845
1207.508, 3.387329
1207.990, 1.976685
1208.472, 2.347046
1208.954, 3.295166
1209.437, 6.026611
1209.919, 6.778198
1210.401, 3.772705
1210.883, 0.2771000
1211.365, 0.5916750
1211.847, 1.604736
1212.329, 3.507568
1212.811, 4.720337
1213.293, 5.806030
1213.776, 7.527344
1214.258, 8.244995
1214.740, 6.995972
1215.222, 5.254517
1215.704, 6.362061
1216.186, 9.106323
1216.668, 10.75146
1217.150, 10.78015
1217.632, 10.14661
1218.115, 8.645630
1218.597, 7.167358
1219.079, 5.856934
1219.561, 4.915283
1220.043, 4.465210
1220.525, 4.742554
1221.007, 6.749634
1221.489, 11.25696
1221.972, 13.82788
1222.454, 12.90088
1222.936, 11.07446
1223.418, 9.156372
1223.900, 7.127197
1224.382, 4.331299
1224.864, 1.529297
1225.346, 0.5751950
1225.828, 2.512085
1226.311, 3.696899
1226.793, 3.543701
1227.275, 2.717285
1227.757, 1.157837
1228.239, 0.4411620
1228.721, 0.4545900
1229.203, 0.5552980
1229.685, 1.364014
1230.167, 1.354126
1230.650, 2.597046
1231.132, 6.517822
1231.614, 8.388550
1232.096, 4.518066
1232.578, 1.475342
1233.060, 2.264648
1233.542, 8.4229996E-03
1234.024, 1.253906
1234.507, 0.2578130
1234.989, 0.7359620
1235.471, 0.3333740
1235.953, 1.203003
1236.435, 0.3046880
1236.917, 0.7918700
1237.399, 1.657959
1237.881, 5.514038
1238.364, 6.672119
1238.846, 2.325439
1239.328, 0.2790530
1239.810, 1.119751
1240.292, 2.048584
1240.774, 1.135986
1241.256, 0.4180910
1241.738, 1.378906
1242.220, 1.672485
1242.703, 1.117798
1243.185, 0.4604490
1243.667, 2.478149
1244.149, 5.062622
1244.631, 7.083618
1245.113, 7.343506
1245.595, 7.002808
1246.077, 7.073853
1246.559, 7.549072
1247.042, 8.321777
1247.524, 9.574585
1248.006, 10.43726
1248.488, 10.95288
1248.970, 10.62500
1249.452, 8.561890
1249.934, 6.147095
1250.416, 4.297729
1250.899, 3.132446
1251.381, 3.004639
1251.863, 4.419312
1252.345, 3.452881
1252.827, 7.9833999E-02
1253.309, 2.560425
1253.791, 1.816650
1254.273, 0.2224120
1254.755, 1.030029
1255.238, 1.770142
1255.720, 1.230835
1256.202, 0.7452390
1256.684, 0.7576900
1257.166, 1.128418
1257.648, 2.911377
1258.130, 3.331421
1258.612, 4.025024
1259.094, 7.167847
1259.577, 10.13440
1260.059, 9.410400
1260.541, 5.457031
1261.023, 4.466187
1261.505, 6.265869
1261.987, 8.063110
1262.469, 7.724243
1262.951, 8.023926
1263.434, 10.96033
1263.916, 13.64685
1264.398, 12.34875
1264.880, 8.204346
1265.362, 7.022339
1265.844, 8.287598
1266.326, 8.717896
1266.808, 6.318237
1267.291, 4.928955
1267.773, 5.287476
1268.255, 6.191284
1268.737, 6.959473
1269.219, 8.131226
1269.701, 9.831055
1270.183, 11.97168
1270.665, 12.80310
1271.147, 11.00476
1271.630, 9.820557
1272.112, 9.993896
1272.594, 9.931885
1273.076, 7.505981
1273.558, 4.928833
1274.040, 4.709595
1274.522, 6.132935
1275.004, 8.240112
1275.486, 12.02991
1275.969, 12.96655
1276.451, 10.26099
1276.933, 7.539917
1277.415, 8.491211
1277.897, 10.54431
1278.379, 10.50635
1278.861, 8.552612
1279.343, 8.855713
1279.825, 11.90320
1280.308, 10.92273
1280.790, 6.591797
1281.272, 3.152832
1281.754, 4.525391
1282.236, 7.202881
1282.718, 9.385864
1283.200, 10.87512
1283.682, 11.51892
1284.165, 11.30725
1284.647, 9.934937
1285.129, 7.509399
1285.611, 5.845215
1286.093, 7.178711
1286.575, 8.211304
1287.057, 6.563354
1287.539, 4.596802
1288.021, 5.210815
1288.504, 7.849121
1288.986, 9.394043
1289.468, 9.776123
1289.950, 9.448364
1290.432, 8.096436
1290.914, 6.837769
1291.396, 6.040161
1291.878, 5.289795
1292.360, 3.598755
1292.843, 1.810547
1293.325, 2.755493
1293.807, 5.613159
1294.289, 7.364624
1294.771, 6.365112
1295.253, 4.923462
1295.735, 2.651733
1296.217, 1.497925
1296.700, 4.187988
1297.182, 8.190918
1297.664, 10.34460
1298.146, 10.77039
1298.628, 10.04761
1299.110, 8.046387
1299.592, 7.186035
1300.074, 7.611206
1300.557, 7.959595
1301.039, 7.535889
1301.521, 6.365967
1302.003, 4.180420
1302.485, 1.576904
1302.967, 5.8472000E-02
1303.449, 0.0000000E+00
##END=



