##NAMES=Variscite
##RRUFFID=R040180
##IDEAL CHEMISTRY=AlPO_4_&#183;2H_2_O
##LOCALITY=de Linde mine, Montgomery County, Arkansas, USA
##OWNER=RRUFF
##SOURCE=University of Arizona Mineral Museum
##DESCRIPTION=Indistinct green crystals forming a glassy crust
##STATUS=The identification of this mineral is confirmed by single-crystal X-ray diffraction and chemical analysis.
##URL=rruff.info/R040180
##MEASURED CHEMISTRY=Al_0.98_P_1.00_O_4_Â·2H_2_O
96.161, 0.000
97.554, 34.882
98.947, 0.941
100.340, 38.229
101.732, 10.930
103.124, 105.499
104.516, 102.769
105.908, 288.465
107.300, 412.790
108.691, 537.414
110.082, 660.336
111.473, 1097.850
112.864, 1325.557
114.254, 1934.905
115.644, 2786.304
117.034, 3726.412
118.424, 4612.938
119.813, 5207.625
121.203, 6029.248
122.592, 7230.627
123.981, 7087.793
125.369, 5959.741
126.758, 4161.273
128.146, 2656.209
129.534, 1868.951
130.922, 1209.157
132.309, 1101.419
133.696, 826.648
135.083, 1052.773
136.470, 1139.730
137.857, 1486.463
139.243, 1624.900
140.630, 2063.974
142.016, 2474.632
143.401, 2728.833
144.787, 2847.545
146.172, 2865.738
147.557, 2301.389
148.942, 1635.743
150.327, 1033.184
151.711, 601.685
153.096, 422.659
154.480, 176.745
155.863, 334.952
157.247, 33.288
158.630, 80.765
160.013, 103.390
161.396, 62.832
162.779, 129.104
164.161, 119.204
165.544, 188.470
166.926, 306.904
168.308, 379.508
169.689, 408.284
171.070, 504.235
172.452, 428.361
173.833, 563.665
175.213, 632.146
176.594, 569.806
177.974, 795.646
179.354, 548.590
180.734, 599.435
182.114, 618.234
183.493, 394.030
184.872, 258.855
186.251, 318.729
187.630, 222.670
189.008, 309.691
190.387, 233.807
191.765, 407.022
193.143, 615.348
194.520, 737.790
195.898, 1000.353
197.275, 1213.041
198.652, 1499.854
200.029, 1602.801
201.405, 1591.956
202.782, 1265.136
204.158, 1153.150
205.534, 930.186
206.909, 821.391
208.285, 1057.848
209.660, 865.873
211.035, 1028.067
212.410, 1214.419
213.784, 1388.938
215.159, 1895.621
216.533, 2356.467
217.907, 3332.528
219.281, 4842.807
220.654, 6376.258
222.027, 8411.866
223.400, 10314.637
224.773, 12506.560
226.146, 14198.639
227.518, 15200.875
228.891, 14817.263
230.263, 12825.807
231.634, 10166.498
233.006, 8036.342
234.377, 6241.324
235.748, 4988.441
237.119, 4170.698
238.490, 3498.089
239.860, 2883.620
241.231, 2660.290
242.601, 1966.098
243.970, 1836.043
245.340, 1492.127
246.709, 1249.351
248.079, 1086.711
249.448, 815.208
250.816, 1092.842
252.185, 1062.612
253.553, 1349.518
254.921, 1185.558
256.289, 1034.729
257.657, 1104.033
259.024, 880.468
260.391, 908.032
261.758, 586.342
263.125, 681.498
264.492, 521.255
265.858, 653.846
267.224, 558.883
268.590, 560.534
269.956, 805.625
271.321, 663.111
272.687, 915.956
274.052, 980.133
275.416, 774.614
276.781, 597.383
278.146, 632.417
279.510, 494.699
280.874, 211.218
282.237, 482.959
283.601, 228.913
284.964, 410.069
286.327, 365.419
287.690, 482.955
289.053, 670.287
290.416, 956.550
291.778, 968.594
293.140, 1206.795
294.502, 1135.128
295.863, 1234.606
297.225, 916.229
298.586, 828.985
299.947, 640.877
301.308, 378.897
302.668, 280.044
304.029, 48.688
305.389, 270.308
306.749, 215.856
308.108, 362.326
309.468, 351.746
310.827, 266.117
312.186, 387.426
313.545, 253.697
314.903, 342.916
316.262, 84.107
317.620, 1.228
318.978, 236.734
320.336, 623.780
321.693, 1003.910
323.051, 1363.124
324.408, 1924.421
325.765, 2279.078
327.121, 2192.542
328.478, 2387.090
329.834, 1801.718
331.190, 1528.428
332.546, 1435.216
333.902, 1393.086
335.257, 1103.047
336.612, 1471.264
337.967, 1290.090
339.322, 1445.824
340.677, 1712.831
342.031, 1538.253
343.385, 1635.809
344.739, 1652.388
346.093, 1623.907
347.446, 1754.955
348.799, 1642.838
350.153, 1596.794
351.505, 1571.877
352.858, 1291.035
354.210, 1095.321
355.563, 874.683
356.915, 810.137
358.267, 680.546
359.618, 599.306
360.969, 583.008
362.321, 532.812
363.672, 570.688
365.022, 492.562
366.373, 472.365
367.723, 564.140
369.073, 417.818
370.423, 492.460
371.773, 440.177
373.122, 581.990
374.471, 654.965
375.821, 836.011
377.169, 1088.154
378.518, 1009.383
379.866, 1604.806
381.215, 1555.299
382.563, 1662.874
383.910, 2045.524
385.258, 1920.260
386.605, 1827.081
387.952, 1860.987
389.299, 1860.980
390.646, 1560.147
391.992, 1679.406
393.339, 1540.729
394.685, 1675.119
396.031, 1745.649
397.376, 1735.245
398.722, 1962.823
400.067, 2204.661
401.412, 2387.476
402.757, 2530.349
404.101, 2807.318
405.446, 3455.386
406.790, 3770.509
408.134, 4044.689
409.478, 4875.924
410.821, 5524.219
412.165, 6228.583
413.508, 7026.000
414.851, 7454.469
416.193, 7762.342
417.536, 8418.606
418.878, 7902.251
420.220, 7857.945
421.562, 7610.690
422.904, 7719.486
424.245, 7350.371
425.586, 7710.340
426.927, 8068.391
428.268, 8404.514
429.609, 9361.723
430.949, 9578.002
432.289, 10275.350
433.629, 11556.769
434.969, 12639.250
436.309, 12772.798
437.648, 13004.457
438.987, 12505.181
440.326, 12068.963
441.665, 10873.800
443.003, 9303.738
444.342, 7854.734
445.680, 6768.789
447.018, 5438.900
448.355, 4555.066
449.693, 3914.287
451.030, 2924.557
452.367, 2505.879
453.704, 2134.250
455.041, 2114.693
456.377, 1449.186
457.713, 1505.727
459.049, 1451.311
460.385, 1312.941
461.721, 1230.617
463.056, 1204.336
464.391, 1237.102
465.726, 1123.135
467.061, 938.541
468.395, 1067.246
469.730, 817.523
471.064, 911.301
472.398, 991.963
473.731, 736.133
475.065, 1073.359
476.398, 774.613
477.731, 997.689
479.064, 1057.496
480.397, 1241.748
481.729, 1228.039
483.062, 1284.369
484.394, 1236.736
485.725, 957.680
487.057, 1006.123
488.389, 683.768
489.720, 660.432
491.051, 495.982
492.382, 218.566
493.712, 31.676
495.043, 28.773
496.373, 96.309
497.703, 57.014
499.032, 78.834
500.362, 57.248
501.691, 100.576
503.020, 2.977
504.349, 127.744
505.678, 2.354
507.007, 177.213
508.335, 361.057
509.663, 345.928
510.991, 506.936
512.319, 416.629
513.646, 710.330
514.973, 801.303
516.300, 981.783
517.627, 1008.471
518.954, 1327.488
520.280, 1568.543
521.607, 1577.400
522.933, 2015.799
524.259, 2338.201
525.584, 2723.861
526.910, 3085.863
528.235, 3436.996
529.560, 3992.143
530.885, 4334.324
532.209, 4573.197
533.534, 4250.398
534.858, 4143.598
536.182, 4185.188
537.506, 3749.271
538.829, 3626.236
540.152, 3205.477
541.476, 3160.750
542.799, 2881.248
544.121, 2906.586
545.444, 2445.670
546.766, 2708.188
548.088, 2382.025
549.410, 2446.967
550.732, 2560.385
552.053, 2548.668
553.375, 2579.287
554.696, 2585.570
556.017, 2537.449
557.337, 2842.699
558.658, 2949.986
559.978, 2904.898
561.298, 2874.160
562.618, 2697.309
563.938, 2883.422
565.257, 2728.658
566.576, 2602.041
567.895, 2638.396
569.214, 2248.062
570.533, 2225.918
571.851, 2196.184
573.170, 1941.367
574.488, 1582.111
575.805, 1726.273
577.123, 1457.420
578.440, 1197.555
579.758, 1100.916
581.075, 1029.539
582.391, 1239.908
583.708, 942.008
585.024, 1273.492
586.341, 1058.559
587.657, 871.348
588.972, 1190.910
590.288, 1321.096
591.603, 1436.090
592.918, 1468.064
594.233, 1554.738
595.548, 1663.352
596.863, 1651.695
598.177, 1826.584
599.491, 1861.451
600.805, 1877.322
602.119, 2198.840
603.432, 2152.615
604.746, 2588.385
606.059, 2735.107
607.372, 2956.824
608.685, 2974.781
609.997, 3070.551
611.309, 3327.186
612.621, 3356.189
613.933, 3321.768
615.245, 3295.629
616.557, 3217.148
617.868, 3026.637
619.179, 2879.096
620.490, 2583.521
621.801, 2266.395
623.111, 1809.762
624.421, 2022.102
625.731, 1409.455
627.041, 1428.814
628.351, 921.201
629.660, 1206.619
630.970, 684.049
632.279, 590.512
633.588, 884.980
634.896, 391.479
636.205, 564.955
637.513, 205.396
638.821, 628.805
640.129, 155.172
641.437, 263.504
642.744, 87.797
644.051, 284.047
645.358, 113.258
646.665, 116.428
647.972, 277.555
649.278, 142.641
650.584, 99.688
651.890, 38.689
653.196, 31.625
654.502, 335.330
655.807, 64.457
657.113, 84.703
658.418, 137.295
659.722, 61.268
661.027, 172.943
662.331, 81.596
663.636, 52.330
664.940, 153.885
666.244, 153.059
667.547, 110.812
668.851, 191.166
670.154, 122.898
671.457, 158.881
672.760, 10.619
674.062, 8.266
675.365, 183.826
676.667, 72.340
677.969, 23.213
679.271, 146.129
680.572, 40.520
681.874, 61.730
683.175, 149.125
684.476, 179.844
685.777, 204.764
687.077, 123.635
688.378, 16.451
689.678, 227.822
690.978, 209.686
692.278, 6.250
693.577, 62.617
694.877, 364.928
696.176, 228.070
697.475, 60.021
698.774, 126.896
700.072, 33.711
701.371, 40.457
702.669, 31.801
703.967, 25.359
705.265, 313.170
706.562, 1.971
707.860, 329.129
709.157, 131.180
710.454, 190.834
711.751, 175.049
713.047, 17.777
714.344, 254.410
715.640, 47.996
716.936, 316.500
718.232, 46.047
719.527, 45.723
720.823, 402.477
722.118, 235.625
723.413, 241.723
724.708, 196.771
726.002, 47.207
727.297, 262.117
728.591, 460.166
729.885, 23.979
731.179, 305.287
732.472, 382.963
733.766, 313.586
735.059, 234.342
736.352, 202.021
737.645, 235.576
738.937, 394.992
740.230, 217.367
741.522, 351.684
742.814, 184.949
744.106, 204.160
745.397, 263.316
746.689, 408.422
747.980, 345.480
749.271, 243.488
750.562, 91.453
751.853, 301.025
753.143, 516.826
754.433, 565.469
755.723, 53.598
757.013, 189.350
758.303, 166.412
759.592, 409.836
760.881, 166.215
762.170, 486.535
763.459, 253.809
764.748, 293.029
766.036, 485.205
767.325, 0.666
768.613, 926.367
769.901, 245.352
771.188, 473.287
772.476, 439.178
773.763, 454.020
775.050, 553.816
776.337, 213.570
777.624, 533.268
778.910, 442.924
780.196, 653.533
781.482, 418.096
782.768, 509.615
784.054, 531.088
785.339, 472.512
786.625, 607.895
787.910, 662.225
789.195, 412.514
790.479, 756.756
791.764, 484.953
793.048, 516.102
794.332, 740.205
795.616, 466.266
796.900, 674.277
798.183, 591.705
799.467, 808.627
800.750, 457.342
802.033, 567.025
803.316, 698.814
804.598, 632.561
805.880, 931.766
807.163, 362.979
808.445, 1221.750
809.726, 730.340
811.008, 424.418
812.289, 524.066
813.570, 555.455
814.851, 237.258
816.132, 664.678
817.413, 594.242
818.693, 486.545
819.973, 498.848
821.253, 689.107
822.533, 490.441
823.813, 548.629
825.092, 595.018
826.371, 473.117
827.650, 568.695
828.929, 515.051
830.208, 436.062
831.486, 591.020
832.764, 604.156
834.042, 198.736
835.320, 376.295
836.598, 326.582
837.875, 430.553
839.152, 447.373
840.429, 409.225
841.706, 272.023
842.983, 506.117
844.259, 218.918
845.536, 145.707
846.812, 563.123
848.088, 122.033
849.363, 452.053
850.639, 177.783
851.914, 272.461
853.189, 411.900
854.464, 119.480
855.739, 49.695
857.013, 456.664
858.288, 367.688
859.562, 145.590
860.836, 96.994
862.110, 224.512
863.383, 406.672
864.656, 34.154
865.930, 322.014
867.203, 160.486
868.475, 210.896
869.748, 348.660
871.020, 198.059
872.292, 238.797
873.564, 98.053
874.836, 138.412
876.108, 157.611
877.379, 90.818
878.650, 24.295
879.922, 183.385
881.192, 8.371
882.463, 47.982
883.733, 35.246
885.004, 160.088
886.274, 143.414
887.544, 11.268
888.813, 124.197
890.083, 58.980
891.352, 27.566
892.621, 5.811
893.890, 149.648
895.159, 57.883
896.427, 134.363
897.695, 17.049
898.964, 112.086
900.232, 56.184
901.499, 121.512
902.767, 36.451
904.034, 147.143
905.301, 256.305
906.568, 194.506
907.835, 95.699
909.102, 133.781
910.368, 324.406
911.634, 179.635
912.900, 271.846
914.166, 447.094
915.432, 281.322
916.697, 727.281
917.962, 429.400
919.227, 314.623
920.492, 759.449
921.757, 701.670
923.021, 715.598
924.285, 841.834
925.550, 1047.072
926.813, 1003.311
928.077, 889.547
929.341, 918.316
930.604, 839.566
931.867, 828.693
933.130, 917.342
934.393, 916.312
935.655, 996.566
936.918, 1270.820
938.180, 1071.078
939.442, 1374.340
940.703, 1112.604
941.965, 1005.867
943.226, 1163.133
944.488, 1001.398
945.749, 792.666
947.009, 841.934
948.270, 715.957
949.530, 786.484
950.791, 735.764
952.051, 630.053
953.311, 829.342
954.570, 702.631
955.830, 501.936
957.089, 607.240
958.348, 648.555
959.607, 580.611
960.866, 510.961
962.124, 565.633
963.383, 445.002
964.641, 523.426
965.899, 477.166
967.156, 623.566
968.414, 591.109
969.671, 546.701
970.928, 411.338
972.185, 602.975
973.442, 373.619
974.699, 701.322
975.955, 450.033
977.211, 884.803
978.468, 685.592
979.723, 473.453
980.979, 831.295
982.234, 687.406
983.490, 766.281
984.745, 1173.191
986.000, 546.018
987.254, 1182.711
988.509, 1092.186
989.763, 844.213
991.017, 1274.604
992.271, 1216.646
993.525, 1356.312
994.779, 1639.338
996.032, 1383.600
997.285, 1898.361
998.538, 1846.414
999.791, 2133.459
1001.044, 1819.771
1002.296, 2715.623
1003.548, 2241.613
1004.800, 2888.863
1006.052, 2879.934
1007.304, 3081.727
1008.555, 3715.963
1009.807, 3694.523
1011.058, 4507.205
1012.309, 4667.918
1013.559, 5308.633
1014.810, 6089.381
1016.060, 6713.102
1017.310, 7632.932
1018.560, 9119.789
1019.810, 10441.645
1021.060, 11508.660
1022.309, 13201.121
1023.558, 14888.109
1024.807, 15854.605
1026.056, 18086.691
1027.305, 19426.619
1028.553, 21447.223
1029.801, 22277.496
1031.049, 22895.109
1032.297, 21216.186
1033.545, 18690.475
1034.793, 16198.996
1036.040, 14090.279
1037.287, 11804.082
1038.534, 10522.248
1039.781, 9750.074
1041.027, 9230.066
1042.274, 9356.418
1043.520, 9044.543
1044.766, 9449.320
1046.012, 9709.230
1047.257, 9382.480
1048.503, 8823.828
1049.748, 8255.434
1050.993, 7730.863
1052.238, 6544.723
1053.483, 6209.215
1054.727, 5395.529
1055.971, 4633.371
1057.216, 4442.623
1058.459, 4445.656
1059.703, 4075.930
1060.947, 4007.260
1062.190, 3829.520
1063.433, 3604.455
1064.676, 3488.504
1065.919, 3343.318
1067.162, 3353.039
1068.404, 3178.059
1069.646, 3780.371
1070.888, 3365.736
1072.130, 3716.518
1073.372, 4715.057
1074.613, 4973.824
1075.855, 5768.730
1077.096, 6823.125
1078.337, 7022.889
1079.578, 7667.188
1080.818, 8209.266
1082.059, 7176.930
1083.299, 6762.123
1084.539, 5507.996
1085.779, 4950.447
1087.018, 3640.402
1088.258, 3122.770
1089.497, 2484.404
1090.736, 2054.521
1091.975, 1694.197
1093.213, 1556.477
1094.452, 1232.787
1095.690, 956.799
1096.928, 1075.316
1098.166, 592.191
1099.404, 656.803
1100.642, 698.555
1101.879, 604.297
1103.116, 353.135
1104.353, 608.619
1105.590, 337.760
1106.827, 332.477
1108.063, 9.145
1109.299, 484.961
1110.536, 33.686
1111.771, 248.559
1113.007, 191.438
1114.243, 93.916
1115.478, 127.920
1116.713, 228.350
1117.948, 211.631
1119.183, 221.125
1120.418, 250.830
1121.652, 194.203
1122.886, 559.850
1124.120, 583.857
1125.354, 484.266
1126.588, 605.740
1127.821, 187.283
1129.055, 537.525
1130.288, 141.088
1131.521, 279.223
1132.753, 328.574
1133.986, 284.883
1135.218, 37.518
1136.450, 171.502
1137.682, 415.648
1138.914, 230.555
1140.146, 313.188
1141.377, 83.682
1142.609, 189.234
1143.840, 2.754
1145.071, 151.457
1146.301, 36.893
1147.532, 5.340
1148.762, 13.773
1149.992, 129.129
1151.222, 106.451
1152.452, 50.830
1153.682, 106.771
1154.911, 296.701
1156.140, 109.117
1157.369, 527.789
1158.598, 354.961
1159.827, 410.924
1161.055, 566.432
1162.284, 564.613
1163.512, 464.836
1164.740, 433.176
1165.967, 392.447
1167.195, 362.760
1168.422, 281.389
1169.650, 176.979
1170.877, 89.121
1172.103, 220.297
1173.330, 82.711
1174.557, 122.615
1175.783, 28.117
1177.009, 195.043
1178.235, 225.879
1179.461, 143.359
1180.686, 85.734
1181.912, 134.873
1183.137, 95.398
1184.362, 210.525
1185.587, 343.367
1186.811, 201.326
1188.036, 200.266
1189.260, 374.408
1190.484, 191.807
1191.708, 281.492
1192.932, 250.666
1194.155, 410.818
1195.378, 149.031
1196.602, 327.475
1197.825, 10.762
1199.047, 267.061
1200.270, 118.342
1201.492, 409.533
1202.715, 284.201
1203.937, 608.557
1205.159, 47.350
1206.380, 434.703
1207.602, 177.352
1208.823, 444.254
1210.044, 26.883
1211.265, 243.838
1212.486, 297.484
1213.707, 318.717
1214.927, 246.223
1216.147, 174.662
1217.367, 405.164
1218.587, 4.535
1219.807, 359.807
1221.027, 303.072
1222.246, 268.135
1223.465, 389.084
1224.684, 36.023
1225.903, 168.992
1227.121, 472.803
1228.340, 314.773
1229.558, 186.463
1230.776, 260.092
1231.994, 358.660
1233.212, 234.170
1234.429, 148.695
1235.646, 305.080
1236.864, 425.818
1238.081, 290.062
1239.297, 380.242
1240.514, 370.303
1241.730, 438.303
1242.947, 313.182
1244.163, 223.996
1245.378, 282.732
1246.594, 245.398
1247.810, 561.975
1249.025, 455.479
1250.240, 52.902
1251.455, 374.240
1252.670, 232.506
1253.885, 307.688
1255.099, 157.066
1256.313, 303.094
1257.527, 134.729
1258.741, 77.076
1259.955, 569.645
1261.168, 360.957
1262.382, 101.711
1263.595, 282.797
1264.808, 226.000
1266.021, 409.064
1267.233, 243.109
1268.446, 184.043
1269.658, 137.990
1270.870, 452.648
1272.082, 27.225
1273.294, 405.582
1274.505, 229.807
1275.716, 173.996
1276.928, 58.213
1278.139, 418.029
1279.349, 90.734
1280.560, 332.338
1281.770, 239.102
1282.981, 401.193
1284.191, 104.533
1285.401, 201.424
1286.610, 250.578
1287.820, 144.033
1289.029, 201.074
1290.239, 232.883
1291.448, 184.059
1292.656, 162.107
1293.865, 157.555
1295.073, 62.156
1296.282, 27.129
1297.490, 55.898
1298.698, 20.660
1299.906, 53.125
1301.113, 29.613
1302.320, 236.188
1303.528, 24.051
1304.735, 159.820
1305.942, 239.496
1307.148, 29.914
1308.355, 281.566
1309.561, 240.961
1310.767, 94.258
1311.973, 464.469
1313.179, 16.414
1314.384, 230.473
1315.590, 163.180
1316.795, 196.582
1318.000, 58.789
1319.205, 230.316
1320.410, 90.082
1321.614, 367.762
1322.819, 190.410
1324.023, 86.902
1325.227, 305.066
1326.431, 101.930
1327.634, 406.906
1328.838, 245.641
1330.041, 132.223
1331.244, 23.707
1332.447, 104.219
1333.650, 179.734
1334.852, 45.016
1336.055, 31.445
1337.257, 141.156
1338.459, 134.664
1339.661, 315.758
1340.862, 242.688
1342.064, 387.297
1343.265, 345.004
1344.466, 217.227
1345.667, 219.766
1346.868, 122.453
1348.068, 150.555
1349.269, 191.188
1350.469, 403.988
1351.669, 244.633
1352.869, 524.070
1354.069, 396.547
1355.268, 485.297
1356.468, 628.910
1357.667, 238.719
1358.866, 484.590
1360.065, 533.191
1361.263, 359.453
1362.462, 526.473
1363.660, 352.277
1364.858, 350.562
1366.056, 486.672
1367.254, 157.082
1368.451, 545.109
1369.649, 361.438
1370.846, 614.125
1372.043, 331.551
1373.240, 514.418
1374.436, 491.867
1375.633, 432.789
1376.829, 506.332
1378.025, 363.680
1379.221, 464.762
1380.417, 280.223
1381.613, 498.133
1382.808, 566.367
1384.003, 414.156
1385.199, 634.012
1386.393, 552.223
1387.588, 577.578
1388.783, 385.656
1389.977, 530.156
1391.171, 411.152
1392.365, 667.500
1393.559, 420.645
1394.753, 349.098
1395.946, 573.434
1397.140, 386.484
1398.333, 595.316
1399.526, 513.688
1400.719, 550.539
1401.911, 260.637
1403.104, 549.672
1404.296, 362.879
1405.488, 466.777
1406.680, 266.238
1407.872, 487.516
1409.063, 89.012
1410.255, 548.035
1411.446, 640.703
1412.637, 228.012
1413.828, 492.055
1415.018, 243.520
1416.209, 302.809
1417.399, 369.828
1418.589, 676.793
1419.779, 96.344
1420.969, 525.684
1422.159, 202.648
1423.348, 322.492
1424.537, 211.516
1425.726, 142.734
1426.915, 624.730
1428.104, 290.047
1429.293, 355.996
1430.481, 555.312
1431.669, 208.734
1432.857, 375.879
1434.045, 371.125
1435.233, 543.969
1436.420, 580.672
1437.608, 453.320
1438.795, 653.684
1439.982, 364.535
1441.169, 317.590
1442.355, 497.359
1443.542, 556.668
1444.728, 331.941
1445.914, 632.039
1447.100, 388.102
1448.286, 426.047
1449.472, 513.793
1450.657, 541.383
1451.842, 154.781
1453.027, 733.977
1454.212, 580.941
1455.397, 430.855
1456.581, 859.980
1457.766, 331.648
1458.950, 567.957
1460.134, 599.660
1461.318, 247.109
1462.501, 668.188
1463.685, 334.910
1464.868, 316.102
1466.051, 720.449
1467.234, 296.176
1468.417, 679.602
1469.600, 180.012
1470.782, 368.383
1471.965, 510.711
1473.147, 562.070
1474.329, 215.438
1475.510, 668.840
1476.692, 552.363
1477.873, 161.988
1479.055, 453.754
1480.236, 483.715
1481.416, 297.953
1482.597, 658.516
1483.778, 301.570
1484.958, 443.996
1486.138, 498.805
1487.318, 41.891
1488.498, 61.293
1489.678, 666.055
1490.857, 331.254
1492.037, 341.980
1493.216, 31.324
1494.395, 440.387
1495.574, 250.242
1496.752, 180.957
1497.931, 413.488
1499.109, 243.395
1500.287, 501.598
1501.465, 7.762
1502.643, 162.785
1503.820, 16.895
1504.998, 35.309
1506.175, 0.000
##END=



