##NAMES=Varulite
##RRUFFID=R060740
##IDEAL CHEMISTRY=NaCaMn^2+^_3_(PO_4_)_3_
##LOCALITY=Kaatiala, Finland
##OWNER=RRUFF
##SOURCE=Michael Scott
##DESCRIPTION=Brown massive
##STATUS=The identification of this mineral is not yet confirmed.
##URL=rruff.info/R060740
120.077, 0.000
120.559, 8.831
121.041, 17.600
121.523, 27.196
122.005, 37.348
122.487, 48.762
122.969, 64.975
123.451, 84.048
123.934, 98.060
124.416, 98.631
124.898, 91.357
125.380, 84.761
125.862, 80.540
126.344, 78.698
126.826, 80.253
127.308, 85.139
127.790, 90.313
128.273, 82.495
128.755, 99.033
129.237, 109.688
129.719, 114.776
130.201, 97.556
130.683, 109.187
131.165, 109.282
131.648, 108.919
132.130, 124.658
132.612, 110.769
133.094, 126.282
133.576, 130.078
134.058, 139.257
134.540, 136.821
135.022, 137.682
135.504, 151.222
135.986, 157.844
136.469, 156.334
136.951, 154.463
137.433, 157.811
137.915, 167.116
138.397, 175.433
138.879, 181.805
139.361, 186.531
139.843, 191.835
140.326, 199.080
140.808, 204.457
141.290, 203.925
141.772, 194.855
142.254, 186.962
142.736, 181.276
143.218, 177.602
143.700, 180.178
144.182, 192.106
144.665, 207.667
145.147, 219.761
145.629, 227.580
146.111, 233.206
146.593, 236.944
147.075, 238.374
147.557, 239.087
148.039, 237.861
148.521, 236.119
149.004, 236.653
149.486, 241.032
149.968, 246.225
150.450, 251.584
150.932, 261.457
151.414, 265.162
151.896, 257.853
152.378, 243.350
152.861, 234.455
153.343, 234.310
153.825, 238.243
154.307, 243.887
154.789, 258.737
155.271, 267.173
155.753, 263.978
156.235, 250.456
156.717, 238.707
157.200, 230.614
157.682, 225.296
158.164, 222.028
158.646, 221.952
159.128, 222.648
159.610, 223.266
160.092, 223.714
160.574, 224.837
161.057, 229.551
161.539, 234.263
162.021, 234.834
162.503, 225.212
162.985, 214.546
163.467, 208.476
163.949, 208.759
164.431, 206.823
164.913, 194.482
165.396, 177.473
165.878, 165.638
166.360, 166.128
166.842, 171.817
167.324, 178.214
167.806, 185.550
168.288, 191.164
168.770, 191.413
169.253, 188.307
169.735, 187.189
170.217, 194.924
170.699, 204.604
171.181, 208.413
171.663, 201.938
172.145, 193.591
172.627, 191.432
173.109, 194.280
173.592, 196.310
174.074, 191.417
174.556, 183.603
175.038, 179.318
175.520, 182.411
176.002, 187.896
176.484, 189.669
176.966, 187.924
177.449, 185.566
177.931, 186.373
178.413, 188.412
178.895, 186.796
179.377, 176.460
179.859, 162.779
180.341, 154.900
180.823, 152.950
181.305, 153.453
181.788, 153.510
182.270, 153.244
182.752, 153.119
183.234, 152.779
183.716, 152.739
184.198, 155.209
184.680, 160.821
185.162, 165.813
185.645, 165.355
186.127, 159.894
186.609, 152.695
187.091, 142.823
187.573, 131.910
188.055, 127.493
188.537, 130.768
189.019, 138.477
189.501, 146.788
189.984, 155.732
190.466, 163.385
190.948, 167.533
191.430, 168.830
191.912, 172.885
192.394, 181.601
192.876, 191.199
193.358, 191.598
193.840, 181.997
194.323, 174.546
194.805, 180.397
195.287, 199.055
195.769, 211.694
196.251, 215.184
196.733, 211.873
197.215, 206.652
197.697, 198.438
198.180, 194.012
198.662, 201.947
199.144, 223.561
199.626, 237.555
200.108, 237.652
200.590, 227.724
201.072, 226.169
201.554, 234.755
202.036, 245.821
202.519, 251.988
203.001, 252.275
203.483, 254.428
203.965, 260.659
204.447, 270.420
204.929, 278.716
205.411, 285.570
205.893, 290.953
206.376, 294.259
206.858, 294.774
207.340, 296.123
207.822, 298.378
208.304, 301.603
208.786, 311.553
209.268, 332.146
209.750, 353.119
210.232, 360.406
210.714, 349.483
211.197, 339.603
211.679, 336.096
212.161, 339.299
212.643, 344.926
213.125, 353.664
213.607, 364.003
214.089, 374.609
214.572, 386.799
215.054, 395.841
215.536, 398.358
216.018, 392.075
216.500, 393.858
216.982, 407.982
217.464, 426.484
217.946, 435.783
218.428, 432.384
218.911, 426.875
219.393, 421.944
219.875, 416.269
220.357, 417.018
220.839, 427.997
221.321, 443.166
221.803, 450.940
222.285, 448.967
222.767, 443.844
223.250, 436.950
223.732, 424.928
224.214, 420.858
224.696, 427.366
225.178, 440.752
225.660, 453.586
226.142, 468.199
226.624, 478.276
227.107, 479.257
227.589, 463.184
228.071, 457.581
228.553, 468.718
229.035, 489.203
229.517, 496.654
229.999, 483.306
230.481, 468.595
230.963, 461.746
231.445, 465.613
231.928, 471.110
232.410, 478.531
232.892, 487.424
233.374, 495.941
233.856, 504.776
234.338, 512.347
234.820, 517.709
235.303, 519.574
235.785, 522.034
236.267, 526.311
236.749, 531.436
237.231, 532.527
237.713, 525.778
238.195, 520.028
238.677, 520.680
239.159, 531.523
239.641, 540.888
240.124, 547.715
240.606, 552.454
241.088, 557.831
241.570, 565.160
242.052, 571.376
242.534, 574.143
243.016, 570.448
243.498, 569.736
243.981, 574.970
244.463, 584.308
244.945, 583.539
245.427, 567.271
245.909, 572.565
246.391, 572.627
246.873, 567.741
247.355, 543.072
247.837, 543.954
248.320, 534.601
248.802, 524.830
249.284, 529.316
249.766, 507.539
250.248, 511.803
250.730, 505.676
251.212, 504.310
251.694, 490.516
252.176, 493.333
252.659, 489.561
253.141, 474.614
253.623, 459.350
254.105, 451.286
254.587, 453.431
255.069, 455.972
255.551, 458.003
256.033, 459.588
256.516, 461.638
256.998, 465.879
257.480, 468.096
257.962, 464.956
258.444, 454.502
258.926, 443.199
259.408, 430.225
259.890, 416.472
260.372, 409.153
260.855, 411.266
261.337, 414.899
261.819, 414.222
262.301, 407.648
262.783, 401.082
263.265, 394.513
263.747, 388.393
264.229, 385.756
264.711, 388.708
265.194, 391.365
265.676, 388.211
266.158, 376.401
266.640, 369.781
267.122, 372.871
267.604, 382.657
268.086, 381.685
268.569, 364.776
269.051, 348.184
269.533, 346.184
270.015, 363.840
270.497, 373.258
270.979, 369.072
271.461, 354.490
271.943, 343.204
272.425, 335.911
272.908, 330.092
273.390, 323.626
273.872, 316.086
274.354, 311.207
274.836, 309.992
275.318, 311.504
275.800, 312.718
276.282, 313.860
276.764, 313.859
277.247, 312.090
277.729, 308.533
278.211, 302.647
278.693, 293.336
279.175, 282.329
279.657, 274.351
280.139, 269.452
280.621, 267.267
281.103, 269.002
281.586, 274.741
282.068, 277.900
282.550, 277.912
283.032, 274.721
283.514, 266.432
283.996, 252.330
284.478, 239.874
284.960, 234.689
285.443, 236.384
285.925, 238.530
286.407, 240.951
286.889, 242.729
287.371, 241.088
287.853, 235.961
288.335, 231.578
288.817, 232.768
289.299, 237.995
289.782, 236.730
290.264, 226.432
290.746, 212.721
291.228, 204.921
291.710, 202.720
292.192, 201.563
292.674, 198.856
293.156, 195.053
293.638, 191.654
294.121, 188.764
294.603, 186.484
295.085, 185.463
295.567, 185.451
296.049, 184.855
296.531, 182.329
297.013, 178.657
297.496, 175.553
297.978, 173.222
298.460, 171.454
298.942, 170.868
299.424, 170.924
299.906, 169.697
300.388, 165.276
300.870, 159.169
301.352, 152.833
301.835, 145.878
302.317, 142.058
302.799, 148.933
303.281, 162.028
303.763, 170.738
304.245, 166.456
304.727, 156.646
305.209, 149.643
305.691, 145.733
306.174, 143.740
306.656, 144.784
307.138, 146.812
307.620, 146.254
308.102, 138.384
308.584, 129.402
309.066, 125.437
309.548, 126.558
310.030, 127.543
310.513, 123.249
310.995, 117.269
311.477, 114.247
311.959, 120.192
312.441, 126.227
312.923, 126.246
313.405, 120.569
313.887, 114.305
314.370, 109.376
314.852, 105.313
315.334, 101.638
315.816, 98.178
316.298, 95.118
316.780, 93.142
317.262, 91.951
317.744, 89.537
318.226, 82.663
318.709, 75.700
319.191, 71.891
319.673, 74.913
320.155, 77.699
320.637, 78.237
321.119, 76.971
321.601, 75.521
322.083, 72.558
322.565, 70.711
323.048, 71.582
323.530, 78.274
324.012, 83.401
324.494, 85.841
324.976, 85.961
325.458, 84.728
325.940, 77.976
326.422, 73.386
326.905, 74.522
327.387, 87.032
327.869, 94.969
328.351, 94.880
328.833, 90.500
329.315, 88.584
329.797, 91.063
330.279, 93.964
330.762, 96.638
331.244, 99.939
331.726, 99.798
332.208, 92.223
332.690, 83.516
333.172, 82.962
333.654, 95.523
334.136, 107.843
334.618, 116.974
335.100, 122.745
335.583, 126.277
336.065, 125.994
336.547, 125.412
337.029, 128.577
337.511, 136.746
337.993, 145.107
338.475, 153.646
338.957, 161.818
339.440, 164.024
339.922, 158.430
340.404, 151.411
340.886, 147.613
341.368, 146.983
341.850, 150.936
342.332, 161.267
342.814, 175.457
343.297, 186.102
343.779, 193.496
344.261, 195.889
344.743, 189.067
345.225, 174.281
345.707, 164.373
346.189, 161.825
346.671, 163.278
347.153, 162.427
347.635, 159.484
348.118, 157.616
348.600, 160.382
349.082, 165.720
349.564, 168.024
350.046, 166.874
350.528, 162.239
351.010, 151.288
351.492, 136.124
351.975, 123.654
352.457, 119.148
352.939, 118.882
353.421, 118.687
353.903, 118.577
354.385, 115.856
354.867, 105.422
355.349, 91.096
355.832, 79.595
356.314, 75.559
356.796, 74.177
357.278, 71.780
357.760, 68.375
358.242, 65.261
358.724, 64.971
359.206, 64.640
359.688, 61.185
360.171, 49.522
360.653, 38.785
361.135, 33.711
361.617, 33.395
362.099, 33.739
362.581, 35.273
363.063, 35.593
363.545, 32.782
364.027, 22.871
364.510, 15.421
364.992, 14.182
365.474, 17.068
365.956, 19.009
366.438, 19.678
366.920, 18.734
367.402, 15.429
367.884, 7.298
368.366, 2.578
368.849, 4.468
369.331, 9.164
369.813, 11.290
370.295, 8.348
370.777, 5.965
371.259, 5.679
371.741, 7.829
372.224, 9.047
372.706, 7.786
373.188, 7.062
373.670, 10.747
374.152, 22.151
374.634, 29.345
375.116, 28.979
375.598, 22.292
376.080, 18.133
376.562, 17.557
377.045, 16.930
377.527, 12.634
378.009, 3.941
378.491, 1.231
378.973, 1.529
379.455, 1.649
379.937, 6.135
380.419, 12.152
380.902, 16.553
381.384, 16.005
381.866, 11.750
382.348, 11.572
382.830, 16.848
383.312, 22.700
383.794, 20.790
384.276, 13.006
384.759, 7.802
385.241, 11.718
385.723, 20.013
386.205, 23.889
386.687, 23.234
387.169, 21.557
387.651, 20.154
388.133, 20.013
388.615, 23.054
389.098, 33.535
389.580, 44.022
390.062, 46.901
390.544, 43.533
391.026, 40.512
391.508, 40.802
391.990, 43.493
392.472, 48.162
392.954, 56.066
393.437, 63.401
393.919, 68.091
394.401, 71.005
394.883, 74.185
395.365, 78.709
395.847, 83.269
396.329, 87.359
396.811, 90.985
397.293, 93.945
397.776, 94.397
398.258, 94.772
398.740, 97.984
399.222, 109.562
399.704, 118.205
400.186, 120.875
400.668, 117.430
401.151, 115.672
401.633, 115.142
402.115, 116.760
402.597, 121.677
403.079, 132.150
403.561, 140.726
404.043, 146.485
404.525, 149.920
405.007, 152.173
405.490, 152.365
405.972, 153.850
406.454, 159.586
406.936, 170.113
407.418, 176.465
407.900, 177.559
408.382, 176.160
408.864, 175.941
409.346, 176.901
409.828, 179.069
410.311, 182.866
410.793, 187.824
411.275, 192.100
411.757, 195.603
412.239, 200.319
412.721, 210.245
413.203, 223.003
413.685, 231.974
414.168, 233.600
414.650, 232.939
415.132, 234.258
415.614, 237.877
416.096, 245.179
416.578, 261.554
417.060, 279.882
417.542, 292.116
418.025, 295.381
418.507, 297.694
418.989, 302.916
419.471, 310.327
419.953, 318.832
420.435, 331.592
420.917, 342.235
421.399, 345.119
421.881, 339.022
422.364, 339.485
422.846, 358.268
423.328, 380.783
423.810, 394.811
424.292, 387.388
424.774, 385.131
425.256, 393.561
425.738, 410.426
426.220, 423.815
426.703, 431.513
427.185, 438.530
427.667, 448.028
428.149, 463.883
428.631, 470.393
429.113, 462.669
429.595, 450.003
430.077, 448.892
430.560, 461.627
431.042, 475.707
431.524, 487.436
432.006, 496.942
432.488, 505.146
432.970, 511.874
433.452, 518.159
433.934, 525.471
434.417, 533.457
434.899, 540.444
435.381, 546.614
435.863, 550.855
436.345, 549.553
436.827, 543.668
437.309, 539.039
437.791, 541.083
438.273, 546.056
438.755, 549.080
439.238, 549.756
439.720, 547.701
440.202, 540.027
440.684, 529.785
441.166, 521.959
441.648, 523.334
442.130, 523.794
442.612, 516.034
443.095, 500.573
443.577, 487.134
444.059, 478.203
444.541, 473.136
445.023, 471.778
445.505, 481.294
445.987, 484.934
446.469, 473.048
446.952, 453.471
447.434, 446.276
447.916, 463.628
448.398, 480.638
448.880, 489.429
449.362, 488.484
449.844, 487.256
450.326, 484.971
450.808, 483.281
451.290, 483.845
451.773, 486.648
452.255, 491.719
452.737, 499.243
453.219, 508.993
453.701, 521.917
454.183, 538.818
454.665, 552.702
455.147, 555.939
455.630, 550.897
456.112, 553.083
456.594, 565.322
457.076, 579.710
457.558, 584.633
458.040, 582.515
458.522, 581.682
459.004, 587.532
459.487, 595.754
459.969, 601.598
460.451, 605.058
460.933, 606.912
461.415, 607.749
461.897, 607.176
462.379, 604.479
462.861, 597.779
463.343, 591.739
463.826, 590.358
464.308, 591.277
464.790, 589.090
465.272, 578.577
465.754, 567.844
466.236, 560.467
466.718, 557.473
467.200, 553.483
467.682, 551.060
468.165, 545.851
468.647, 533.515
469.129, 508.871
469.611, 485.459
470.093, 463.024
470.575, 442.937
471.057, 432.098
471.539, 434.427
472.022, 436.318
472.504, 429.811
472.986, 414.363
473.468, 399.699
473.950, 386.029
474.432, 373.747
474.914, 364.468
475.396, 357.758
475.878, 349.449
476.361, 334.988
476.843, 320.233
477.325, 320.549
477.807, 333.878
478.289, 342.652
478.771, 329.944
479.253, 307.120
479.735, 287.900
480.217, 273.945
480.700, 266.180
481.182, 271.266
481.664, 282.141
482.146, 286.987
482.628, 275.305
483.110, 262.057
483.592, 253.495
484.074, 249.844
484.556, 246.508
485.039, 242.158
485.521, 238.107
486.003, 235.333
486.485, 239.584
486.967, 236.355
487.449, 220.328
487.931, 198.533
488.414, 186.680
488.896, 189.698
489.378, 191.822
489.860, 187.186
490.342, 176.157
490.824, 168.831
491.306, 166.517
491.788, 163.366
492.270, 151.000
492.753, 130.952
493.235, 117.826
493.717, 115.994
494.199, 119.478
494.681, 120.584
495.163, 119.301
495.645, 115.609
496.127, 108.515
496.609, 99.438
497.092, 89.113
497.574, 77.534
498.056, 68.763
498.538, 67.453
499.020, 69.637
499.502, 71.221
499.984, 72.375
500.466, 71.146
500.948, 65.675
501.431, 57.183
501.913, 49.251
502.395, 42.490
502.877, 36.453
503.359, 30.869
503.841, 25.476
504.323, 21.904
504.805, 21.612
505.288, 21.794
505.770, 19.663
506.252, 14.324
506.734, 9.192
507.216, 4.141
507.698, 0.017
508.180, 0.466
508.662, 6.227
509.145, 9.702
509.627, 5.422
510.109, 4.703
510.591, 13.003
511.073, 19.231
511.555, 24.572
512.037, 32.025
512.519, 39.297
513.001, 40.944
513.484, 31.495
513.966, 21.640
514.448, 21.978
514.930, 29.371
515.412, 34.828
515.894, 31.961
516.376, 27.721
516.858, 26.002
517.341, 27.384
517.823, 29.683
518.305, 33.826
518.787, 37.956
519.269, 40.433
519.751, 41.137
520.233, 40.226
520.715, 36.941
521.197, 32.195
521.680, 28.220
522.162, 24.164
522.644, 23.143
523.126, 28.917
523.608, 41.172
524.090, 41.758
524.572, 28.147
525.054, 13.308
525.536, 11.669
526.019, 20.451
526.501, 25.902
526.983, 24.549
527.465, 19.843
527.947, 14.650
528.429, 9.654
528.911, 6.747
529.393, 10.806
529.875, 14.805
530.358, 10.524
530.840, 2.333
531.322, 11.235
531.804, 7.630
532.286, 0.992
532.768, 8.591
533.250, 15.658
533.732, 19.564
534.214, 19.051
534.697, 15.269
535.179, 10.456
535.661, 3.766
536.143, 2.681
536.625, 8.160
537.107, 12.769
537.589, 17.402
538.071, 22.043
538.554, 26.733
539.036, 31.006
539.518, 34.921
540.000, 41.212
540.482, 50.817
540.964, 60.586
541.446, 64.151
541.928, 63.592
542.411, 67.000
542.893, 82.931
543.375, 100.966
543.857, 107.014
544.339, 102.917
544.821, 100.360
545.303, 107.198
545.785, 117.315
546.268, 126.002
546.750, 131.966
547.232, 138.399
547.714, 148.457
548.196, 158.523
548.678, 164.541
549.160, 162.071
549.642, 160.704
550.124, 162.131
550.606, 165.581
551.089, 167.224
551.571, 165.469
552.053, 165.671
552.535, 172.395
553.017, 185.710
553.499, 189.489
553.981, 181.680
554.463, 173.636
554.945, 180.862
555.428, 199.069
555.910, 209.927
556.392, 206.823
556.874, 199.616
557.356, 199.785
557.838, 205.176
558.320, 209.964
558.802, 210.571
559.284, 210.088
559.767, 210.302
560.249, 211.322
560.731, 213.143
561.213, 216.548
561.695, 220.229
562.177, 223.303
562.659, 224.503
563.141, 227.017
563.624, 231.796
564.106, 237.361
564.588, 241.429
565.070, 243.203
565.552, 245.521
566.034, 249.079
566.516, 253.691
566.998, 258.649
567.481, 263.893
567.963, 269.890
568.445, 278.258
568.927, 287.638
569.409, 292.907
569.891, 293.182
570.373, 294.864
570.855, 306.367
571.338, 322.802
571.820, 335.628
572.302, 339.214
572.784, 343.220
573.266, 355.328
573.748, 371.954
574.230, 384.742
574.712, 388.887
575.194, 390.832
575.677, 391.935
576.159, 392.076
576.641, 394.683
577.123, 401.333
577.605, 408.688
578.087, 413.833
578.569, 415.110
579.051, 422.676
579.533, 439.289
580.016, 457.916
580.498, 466.106
580.980, 464.817
581.462, 467.226
581.944, 479.021
582.426, 495.491
582.908, 509.166
583.390, 520.144
583.872, 529.794
584.355, 533.957
584.837, 540.304
585.319, 558.465
585.801, 590.336
586.283, 618.765
586.765, 635.964
587.247, 646.672
587.729, 655.085
588.211, 657.271
588.694, 663.211
589.176, 674.486
589.658, 689.195
590.140, 704.157
590.622, 719.803
591.104, 734.671
591.586, 748.288
592.068, 760.776
592.551, 771.719
593.033, 780.884
593.515, 791.067
593.997, 807.693
594.479, 826.733
594.961, 835.112
595.443, 831.251
595.925, 825.477
596.407, 830.175
596.890, 837.935
597.372, 837.363
597.854, 818.896
598.336, 801.036
598.818, 795.227
599.300, 796.296
599.782, 792.719
600.265, 777.707
600.747, 762.075
601.229, 748.310
601.711, 736.362
602.193, 726.624
602.675, 719.360
603.157, 713.998
603.639, 711.485
604.121, 712.417
604.604, 707.872
605.086, 696.824
605.568, 683.128
606.050, 670.158
606.532, 658.084
607.014, 647.326
607.496, 638.003
607.978, 630.033
608.460, 625.929
608.943, 623.322
609.425, 616.506
609.907, 597.240
610.389, 577.815
610.871, 566.546
611.353, 563.169
611.835, 556.349
612.317, 542.510
612.799, 525.677
613.282, 507.475
613.764, 487.426
614.246, 467.963
614.728, 449.451
615.210, 431.019
615.692, 411.891
616.174, 391.912
616.656, 370.238
617.138, 344.754
617.621, 321.147
618.103, 312.763
618.585, 316.262
619.067, 315.896
619.549, 299.251
620.031, 278.342
620.513, 265.286
620.995, 259.272
621.477, 253.790
621.960, 247.538
622.442, 239.316
622.924, 227.136
623.406, 208.448
623.888, 194.782
624.370, 191.279
624.852, 190.495
625.334, 186.410
625.817, 177.508
626.299, 169.232
626.781, 161.891
627.263, 155.507
627.745, 150.174
628.227, 145.864
628.709, 142.172
629.191, 139.308
629.674, 136.698
630.156, 132.743
630.638, 127.831
631.120, 124.116
631.602, 125.195
632.084, 126.553
632.566, 123.130
633.048, 114.167
633.531, 107.451
634.013, 107.489
634.495, 110.015
634.977, 111.911
635.459, 110.383
635.941, 112.911
636.423, 122.534
636.905, 133.778
637.387, 138.937
637.870, 137.064
638.352, 133.380
638.834, 127.870
639.316, 122.314
639.798, 121.516
640.280, 124.965
640.762, 128.285
641.244, 129.581
641.726, 129.271
642.209, 126.969
642.691, 123.012
643.173, 120.437
643.655, 122.238
644.137, 125.021
644.619, 126.112
645.101, 124.210
645.583, 124.014
646.065, 128.860
646.548, 133.966
647.030, 135.109
647.512, 130.180
647.994, 126.638
648.476, 124.891
648.958, 124.848
649.440, 126.389
649.922, 129.512
650.404, 134.538
650.887, 143.565
651.369, 152.647
651.851, 154.286
652.333, 149.643
652.815, 143.661
653.297, 138.489
653.779, 133.780
654.261, 130.283
654.744, 127.959
655.226, 122.985
655.708, 110.427
656.190, 97.562
656.672, 89.084
657.154, 86.512
657.636, 84.766
658.118, 85.240
658.601, 84.714
659.083, 78.297
659.565, 65.304
660.047, 55.795
660.529, 51.537
661.011, 51.040
661.493, 54.799
661.975, 60.844
662.458, 62.194
662.940, 52.094
663.422, 39.431
663.904, 31.985
664.386, 28.608
664.868, 25.139
665.350, 18.562
665.832, 12.709
666.314, 9.302
666.797, 8.641
667.279, 9.336
667.761, 12.911
668.243, 15.799
668.725, 15.578
669.207, 11.736
669.689, 8.319
670.171, 5.320
670.653, 2.826
671.135, 0.544
671.618, 1.235
672.100, 0.889
672.582, 2.918
673.064, 6.154
673.546, 3.637
674.028, 1.891
674.510, 5.711
674.992, 3.757
675.474, 2.219
675.957, 3.434
676.439, 6.898
676.921, 10.652
677.403, 15.827
677.885, 19.415
678.367, 20.379
678.849, 18.856
679.331, 15.901
679.814, 11.072
680.296, 7.440
680.778, 8.500
681.260, 12.477
681.742, 13.508
682.224, 11.297
682.706, 8.143
683.188, 4.246
683.670, 1.216
684.153, 1.604
684.635, 7.789
685.117, 12.213
685.599, 10.716
686.081, 6.644
686.563, 4.026
687.045, 4.297
687.528, 3.782
688.010, 1.189
688.492, 1.684
688.974, 0.188
689.456, 6.311
689.938, 10.363
690.420, 8.809
690.902, 3.955
691.384, 0.055
691.867, 2.854
692.349, 4.780
692.831, 6.215
693.313, 6.306
693.795, 4.199
694.277, 0.084
694.759, 5.542
695.241, 15.434
695.723, 23.552
696.206, 25.700
696.688, 20.374
697.170, 16.618
697.652, 14.721
698.134, 13.904
698.616, 13.370
699.098, 13.110
699.580, 15.115
700.062, 20.335
700.545, 24.364
701.027, 20.333
701.509, 11.360
701.991, 4.038
702.473, 0.264
702.955, 1.365
703.437, 1.792
703.919, 0.714
704.402, 2.391
704.884, 12.186
705.366, 18.693
705.848, 18.552
706.330, 13.793
706.812, 11.370
707.294, 12.513
707.776, 12.048
708.258, 6.403
708.741, 1.988
709.223, 3.114
709.705, 4.205
710.187, 4.381
710.669, 9.105
711.151, 10.176
711.633, 3.355
712.115, 1.964
712.597, 0.274
713.080, 1.228
713.562, 2.364
714.044, 1.229
714.526, 3.254
715.008, 6.066
715.490, 6.535
715.972, 5.977
716.455, 5.954
716.937, 6.830
717.419, 4.019
717.901, 4.124
718.383, 12.176
718.865, 11.915
719.347, 5.804
719.829, 0.534
720.311, 2.305
720.794, 3.021
721.276, 0.570
721.758, 3.659
722.240, 7.152
722.722, 11.063
723.204, 12.004
723.686, 6.845
724.168, 1.772
724.651, 5.785
725.133, 3.298
725.615, 1.337
726.097, 2.378
726.579, 5.679
727.061, 9.562
727.543, 13.825
728.025, 15.113
728.507, 7.471
728.990, 2.087
729.472, 3.661
729.954, 2.443
730.436, 8.102
730.918, 8.748
731.400, 8.297
731.882, 9.690
732.364, 14.507
732.846, 14.703
733.328, 6.876
733.811, 1.059
734.293, 1.982
734.775, 4.810
735.257, 5.170
735.739, 2.550
736.221, 11.253
736.703, 13.334
737.185, 10.721
737.667, 7.317
738.150, 3.826
738.632, 0.064
739.114, 6.914
739.596, 13.100
740.078, 13.615
740.560, 2.029
741.042, 11.062
741.524, 7.985
742.007, 0.771
742.489, 4.176
742.971, 1.108
743.453, 1.827
743.935, 3.348
744.417, 3.682
744.899, 3.145
745.381, 1.707
745.864, 0.498
746.346, 6.136
746.828, 10.203
747.310, 5.670
747.792, 4.425
748.274, 10.086
748.756, 4.339
749.238, 11.854
749.721, 16.133
750.203, 17.359
750.685, 6.405
751.167, 11.202
751.649, 9.683
752.131, 7.915
752.613, 14.946
753.095, 5.767
753.577, 12.564
754.060, 12.888
754.542, 16.161
755.024, 13.143
755.506, 11.961
755.988, 5.507
756.470, 1.050
756.952, 2.793
757.434, 2.952
757.916, 3.589
758.399, 5.044
758.881, 6.062
759.363, 7.235
759.845, 6.751
760.327, 1.554
760.809, 7.644
761.291, 12.829
761.773, 12.949
762.255, 11.042
762.738, 9.094
763.220, 7.424
763.702, 2.605
764.184, 2.134
764.666, 4.124
765.148, 7.706
765.630, 8.759
766.112, 0.250
766.594, 3.787
767.077, 2.606
767.559, 1.170
768.041, 6.987
768.523, 0.586
769.005, 5.150
769.487, 4.628
769.969, 5.604
770.451, 7.758
770.934, 6.461
771.416, 3.272
771.898, 1.300
772.380, 2.380
772.862, 4.217
773.344, 7.119
773.826, 10.144
774.308, 10.863
774.791, 8.022
775.273, 4.915
775.755, 1.897
776.237, 0.686
776.719, 1.642
777.201, 1.044
777.683, 0.129
778.165, 2.314
778.648, 4.126
779.130, 3.203
779.612, 0.117
780.094, 3.001
780.576, 7.125
781.058, 9.361
781.540, 6.592
782.022, 0.408
782.504, 2.996
782.987, 0.749
783.469, 5.211
783.951, 8.822
784.433, 11.336
784.915, 13.293
785.397, 14.588
785.879, 13.182
786.361, 3.323
786.843, 7.666
787.326, 8.401
787.808, 0.214
788.290, 7.686
788.772, 9.134
789.254, 8.202
789.736, 5.956
790.218, 2.315
790.700, 0.998
791.182, 2.949
791.665, 5.025
792.147, 5.142
792.629, 3.647
793.111, 3.480
793.593, 4.650
794.075, 5.997
794.557, 6.688
795.039, 6.957
795.521, 6.890
796.004, 6.473
796.486, 6.568
796.968, 8.513
797.450, 10.260
797.932, 10.478
798.414, 8.743
798.896, 7.085
799.378, 5.223
799.860, 3.998
800.343, 4.121
800.825, 5.438
801.307, 8.629
801.789, 13.991
802.271, 16.268
802.753, 6.460
803.235, 5.973
803.718, 11.219
804.200, 5.930
804.682, 0.179
805.164, 8.011
805.646, 13.356
806.128, 12.324
806.610, 2.259
807.092, 2.159
807.574, 0.202
808.057, 4.640
808.539, 5.681
809.021, 4.976
809.503, 8.261
809.985, 17.460
810.467, 23.353
810.949, 13.715
811.431, 0.771
811.914, 3.177
812.396, 10.988
812.878, 19.435
813.360, 18.892
813.842, 14.691
814.324, 11.421
814.806, 9.154
815.288, 7.128
815.770, 5.183
816.253, 4.105
816.735, 5.501
817.217, 8.189
817.699, 10.139
818.181, 10.862
818.663, 10.917
819.145, 8.710
819.627, 6.943
820.109, 8.724
820.592, 16.978
821.074, 22.799
821.556, 25.708
822.038, 26.751
822.520, 26.528
823.002, 25.270
823.484, 24.872
823.966, 25.932
824.448, 26.280
824.931, 21.378
825.413, 15.487
825.895, 14.796
826.377, 24.996
826.859, 31.276
827.341, 26.177
827.823, 18.172
828.305, 15.090
828.787, 18.459
829.270, 19.597
829.752, 16.835
830.234, 14.952
830.716, 23.113
831.198, 36.528
831.680, 41.408
832.162, 32.926
832.644, 24.502
833.127, 26.866
833.609, 33.085
834.091, 35.887
834.573, 30.160
835.055, 27.783
835.537, 31.431
836.019, 35.156
836.501, 32.094
836.984, 22.362
837.466, 37.485
837.948, 19.658
838.430, 9.855
838.912, 7.639
839.394, 35.668
839.876, 24.609
840.358, 29.211
840.841, 34.463
841.323, 17.942
841.805, 41.605
842.287, 25.465
842.769, 25.233
843.251, 17.736
843.733, 25.990
844.215, 29.342
844.697, 16.927
845.180, 13.241
845.662, 23.272
846.144, 31.828
846.626, 29.304
847.108, 19.683
847.590, 9.870
848.072, 6.786
848.554, 15.234
849.036, 21.533
849.519, 25.443
850.001, 26.953
850.483, 24.532
850.965, 18.328
851.447, 17.864
851.929, 24.163
852.411, 30.514
852.893, 30.130
853.375, 26.609
853.858, 24.855
854.340, 26.079
854.822, 25.371
855.304, 17.312
855.786, 9.894
856.268, 8.882
856.750, 15.847
857.232, 18.869
857.714, 17.017
858.197, 15.129
858.679, 19.558
859.161, 26.496
859.643, 25.553
860.125, 16.301
860.607, 7.039
861.089, 1.571
861.571, 4.805
862.054, 3.362
862.536, 26.101
863.018, 39.217
863.500, 39.390
863.982, 35.793
864.464, 32.964
864.946, 30.740
865.428, 28.300
865.911, 25.656
866.393, 22.354
866.875, 15.002
867.357, 9.088
867.839, 12.788
868.321, 25.139
868.803, 31.363
869.285, 20.348
869.767, 10.741
870.250, 8.927
870.732, 13.850
871.214, 17.950
871.696, 21.274
872.178, 22.578
872.660, 19.638
873.142, 15.256
873.624, 13.719
874.106, 14.436
874.589, 15.066
875.071, 15.622
875.553, 14.818
876.035, 11.241
876.517, 5.863
876.999, 1.739
877.481, 1.086
877.963, 2.633
878.445, 2.318
878.928, 1.401
879.410, 2.549
879.892, 5.323
880.374, 8.329
880.856, 12.974
881.338, 15.519
881.820, 9.722
882.302, 1.121
882.784, 2.704
883.267, 22.742
883.749, 35.824
884.231, 36.845
884.713, 31.252
885.195, 27.296
885.677, 25.106
886.159, 25.293
886.641, 28.366
887.124, 32.849
887.606, 38.982
888.088, 45.265
888.570, 49.637
889.052, 52.692
889.534, 51.840
890.016, 44.716
890.498, 36.570
890.981, 32.522
891.463, 32.515
891.945, 36.053
892.427, 43.331
892.909, 52.263
893.391, 61.786
893.873, 71.285
894.355, 79.980
894.838, 87.647
895.320, 95.205
895.802, 105.259
896.284, 113.280
896.766, 115.404
897.248, 110.538
897.730, 111.783
898.212, 119.562
898.694, 127.746
899.177, 130.996
899.659, 131.784
900.141, 134.200
900.623, 138.287
901.105, 141.008
901.587, 132.778
902.069, 131.700
902.551, 150.728
903.033, 186.841
903.516, 202.644
903.998, 195.299
904.480, 186.643
904.962, 187.456
905.444, 194.299
905.926, 203.038
906.408, 212.488
906.890, 218.944
907.372, 214.494
907.855, 213.131
908.337, 225.095
908.819, 244.254
909.301, 252.292
909.783, 245.518
910.265, 242.219
910.747, 246.684
911.229, 257.002
911.711, 274.688
912.194, 295.561
912.676, 308.263
913.158, 304.300
913.640, 299.298
914.122, 298.848
914.604, 302.391
915.086, 309.838
915.568, 324.941
916.051, 332.394
916.533, 328.641
917.015, 323.807
917.497, 331.533
917.979, 347.601
918.461, 360.707
918.943, 369.128
919.425, 375.106
919.907, 376.037
920.390, 377.823
920.872, 386.128
921.354, 402.827
921.836, 418.064
922.318, 431.290
922.800, 444.667
923.282, 460.429
923.764, 477.612
924.247, 490.823
924.729, 500.755
925.211, 512.825
925.693, 530.147
926.175, 550.719
926.657, 579.148
927.139, 612.603
927.621, 625.782
928.104, 605.261
928.586, 597.085
929.068, 619.650
929.550, 660.867
930.032, 693.309
930.514, 718.420
930.996, 742.879
931.478, 768.735
931.960, 795.767
932.443, 825.523
932.925, 856.358
933.407, 886.011
933.889, 914.197
934.371, 941.178
934.853, 966.937
935.335, 991.124
935.817, 1010.434
936.299, 1027.198
936.782, 1049.385
937.264, 1079.906
937.746, 1108.345
938.228, 1122.857
938.710, 1135.347
939.192, 1142.294
939.674, 1141.785
940.156, 1174.062
940.638, 1198.391
941.121, 1215.193
941.603, 1201.901
942.085, 1227.476
942.567, 1237.485
943.049, 1246.854
943.531, 1277.914
944.013, 1283.474
944.495, 1297.749
944.977, 1305.186
945.460, 1304.009
945.942, 1300.425
946.424, 1292.574
946.906, 1287.523
947.388, 1286.991
947.870, 1291.076
948.352, 1302.691
948.834, 1319.320
949.317, 1333.025
949.799, 1337.568
950.281, 1343.213
950.763, 1353.247
951.245, 1368.238
951.727, 1389.438
952.209, 1420.459
952.691, 1446.149
953.174, 1464.945
953.656, 1479.603
954.138, 1490.985
954.620, 1500.999
955.102, 1515.342
955.584, 1535.530
956.066, 1551.450
956.548, 1549.828
957.031, 1549.232
957.513, 1564.168
957.995, 1595.577
958.477, 1616.239
958.959, 1624.210
959.441, 1633.726
959.923, 1656.959
960.405, 1685.498
960.887, 1703.887
961.370, 1714.301
961.852, 1724.926
962.334, 1740.287
962.816, 1755.207
963.298, 1768.200
963.780, 1779.499
964.262, 1789.440
964.744, 1797.844
965.226, 1807.757
965.709, 1821.043
966.191, 1832.577
966.673, 1836.391
967.155, 1834.234
967.637, 1827.642
968.119, 1812.437
968.601, 1804.489
969.083, 1811.227
969.565, 1822.050
970.048, 1831.681
970.530, 1840.237
971.012, 1838.677
971.494, 1826.592
971.976, 1814.000
972.458, 1813.764
972.940, 1812.909
973.422, 1793.710
973.904, 1758.161
974.387, 1734.089
974.869, 1738.883
975.351, 1736.453
975.833, 1715.637
976.315, 1681.688
976.797, 1651.419
977.279, 1623.587
977.761, 1587.186
978.244, 1533.241
978.726, 1478.955
979.208, 1436.873
979.690, 1403.020
980.172, 1371.678
980.654, 1346.721
981.136, 1315.025
981.618, 1273.761
982.101, 1231.549
982.583, 1197.295
983.065, 1169.198
983.547, 1143.567
984.029, 1119.972
984.511, 1095.738
984.993, 1069.691
985.475, 1041.852
985.957, 1011.155
986.440, 978.049
986.922, 946.238
987.404, 914.406
987.886, 890.683
988.368, 883.187
988.850, 880.872
989.332, 864.282
989.814, 837.219
990.296, 808.796
990.779, 775.967
991.261, 751.056
991.743, 741.802
992.225, 738.852
992.707, 733.609
993.189, 726.401
993.671, 707.663
994.153, 674.713
994.635, 644.477
995.118, 638.308
995.600, 640.795
996.082, 634.589
996.564, 617.222
997.046, 597.935
997.528, 574.141
998.010, 555.308
998.492, 547.367
998.974, 547.037
999.457, 538.942
999.939, 524.538
1000.421, 513.730
1000.903, 515.874
1001.385, 518.034
1001.867, 511.698
1002.349, 499.446
1002.831, 486.076
1003.314, 471.833
1003.796, 456.048
1004.278, 436.798
1004.760, 420.785
1005.242, 421.383
1005.724, 429.768
1006.206, 423.812
1006.688, 399.841
1007.171, 379.506
1007.653, 373.865
1008.135, 373.932
1008.617, 375.943
1009.099, 379.438
1009.581, 379.240
1010.063, 375.217
1010.545, 369.169
1011.027, 359.251
1011.510, 350.719
1011.992, 353.108
1012.474, 361.387
1012.956, 365.233
1013.438, 358.055
1013.920, 351.265
1014.402, 345.981
1014.884, 341.455
1015.367, 336.328
1015.849, 331.006
1016.331, 328.818
1016.813, 330.282
1017.295, 330.023
1017.777, 319.479
1018.259, 309.528
1018.741, 309.973
1019.223, 320.963
1019.706, 327.066
1020.188, 327.255
1020.670, 326.113
1021.152, 325.479
1021.634, 324.594
1022.116, 319.746
1022.598, 313.634
1023.080, 312.806
1023.563, 326.781
1024.045, 336.346
1024.527, 333.556
1025.009, 326.988
1025.491, 325.145
1025.973, 328.094
1026.455, 327.241
1026.937, 321.525
1027.419, 323.029
1027.901, 355.695
1028.384, 390.013
1028.866, 392.415
1029.348, 363.472
1029.830, 352.530
1030.312, 370.853
1030.794, 389.164
1031.276, 398.826
1031.758, 403.058
1032.241, 406.358
1032.723, 410.089
1033.205, 418.757
1033.687, 436.456
1034.169, 453.487
1034.651, 467.429
1035.133, 477.002
1035.615, 478.896
1036.098, 469.571
1036.580, 476.359
1037.062, 500.178
1037.544, 527.030
1038.026, 547.623
1038.508, 564.447
1038.990, 579.657
1039.472, 593.610
1039.954, 608.031
1040.437, 624.835
1040.919, 639.432
1041.401, 650.534
1041.883, 659.758
1042.365, 670.892
1042.847, 683.037
1043.329, 693.252
1043.811, 701.201
1044.293, 705.842
1044.776, 701.968
1045.258, 698.247
1045.740, 702.712
1046.222, 716.147
1046.704, 723.775
1047.186, 725.247
1047.668, 723.445
1048.150, 717.571
1048.633, 711.184
1049.115, 709.853
1049.597, 711.758
1050.079, 712.215
1050.561, 708.444
1051.043, 704.488
1051.525, 698.060
1052.007, 695.720
1052.490, 710.621
1052.972, 737.553
1053.454, 756.272
1053.936, 764.306
1054.418, 764.910
1054.900, 751.398
1055.382, 738.913
1055.864, 739.712
1056.346, 751.191
1056.828, 753.610
1057.311, 746.039
1057.793, 738.674
1058.275, 735.301
1058.757, 734.012
1059.239, 733.514
1059.721, 733.099
1060.203, 731.627
1060.685, 728.800
1061.168, 724.420
1061.650, 716.250
1062.132, 710.809
1062.614, 716.255
1063.096, 728.999
1063.578, 736.072
1064.060, 737.318
1064.542, 735.171
1065.025, 724.330
1065.507, 717.449
1065.989, 724.963
1066.471, 739.310
1066.953, 744.478
1067.435, 739.874
1067.917, 735.084
1068.399, 732.011
1068.881, 728.753
1069.364, 724.163
1069.846, 717.729
1070.328, 706.911
1070.810, 689.123
1071.292, 683.064
1071.774, 694.187
1072.256, 704.472
1072.738, 703.462
1073.220, 696.661
1073.703, 698.352
1074.185, 705.981
1074.667, 712.240
1075.149, 713.847
1075.631, 714.178
1076.113, 716.550
1076.595, 716.077
1077.077, 704.304
1077.559, 681.649
1078.042, 673.842
1078.524, 682.140
1079.006, 692.889
1079.488, 695.279
1079.970, 696.563
1080.452, 704.749
1080.934, 717.485
1081.416, 719.155
1081.899, 704.742
1082.381, 699.199
1082.863, 710.287
1083.345, 726.963
1083.827, 734.335
1084.309, 736.581
1084.791, 740.590
1085.273, 748.446
1085.755, 754.111
1086.238, 754.536
1086.720, 755.896
1087.202, 763.245
1087.684, 773.491
1088.166, 771.946
1088.648, 761.195
1089.130, 753.152
1089.612, 755.372
1090.094, 759.268
1090.577, 764.027
1091.059, 766.643
1091.541, 762.846
1092.023, 751.912
1092.505, 740.452
1092.987, 728.439
1093.469, 723.399
1093.951, 737.988
1094.434, 757.154
1094.916, 768.480
1095.398, 771.700
1095.880, 770.218
1096.362, 761.925
1096.844, 756.412
1097.326, 756.573
1097.808, 757.856
1098.291, 751.407
1098.773, 741.914
1099.255, 738.689
1099.737, 744.217
1100.219, 750.433
1100.701, 760.641
1101.183, 763.659
1101.665, 750.174
1102.147, 726.786
1102.630, 724.057
1103.112, 737.583
1103.594, 747.280
1104.076, 740.828
1104.558, 734.332
1105.040, 738.528
1105.522, 744.801
1106.004, 743.164
1106.486, 732.031
1106.969, 727.090
1107.451, 728.808
1107.933, 729.661
1108.415, 720.340
1108.897, 710.892
1109.379, 709.363
1109.861, 715.496
1110.343, 727.960
1110.826, 751.304
1111.308, 766.143
1111.790, 769.353
1112.272, 764.020
1112.754, 742.959
1113.236, 720.748
1113.718, 724.454
1114.200, 758.481
1114.682, 784.274
1115.165, 790.298
1115.647, 792.372
1116.129, 793.893
1116.611, 796.238
1117.093, 806.232
1117.575, 820.223
1118.057, 825.595
1118.539, 814.186
1119.021, 805.592
1119.504, 811.441
1119.986, 819.862
1120.468, 820.978
1120.950, 807.734
1121.432, 828.360
1121.914, 840.789
1122.396, 845.475
1122.878, 819.135
1123.361, 832.950
1123.843, 830.683
1124.325, 836.360
1124.807, 835.491
1125.289, 835.751
1125.771, 835.617
1126.253, 834.997
1126.735, 834.025
1127.218, 830.790
1127.700, 828.699
1128.182, 832.613
1128.664, 841.546
1129.146, 848.335
1129.628, 853.189
1130.110, 853.567
1130.592, 848.314
1131.074, 840.093
1131.557, 830.096
1132.039, 820.630
1132.521, 817.708
1133.003, 823.189
1133.485, 823.355
1133.967, 813.629
1134.449, 800.617
1134.931, 784.847
1135.413, 768.922
1135.896, 763.443
1136.378, 764.023
1136.860, 756.399
1137.342, 731.124
1137.824, 709.490
1138.306, 703.646
1138.788, 700.413
1139.270, 690.192
1139.752, 674.074
1140.235, 668.061
1140.717, 670.353
1141.199, 666.902
1141.681, 646.604
1142.163, 622.328
1142.645, 597.799
1143.127, 575.055
1143.609, 558.379
1144.092, 548.349
1144.574, 536.355
1145.056, 521.987
1145.538, 505.856
1146.020, 489.926
1146.502, 471.247
1146.984, 445.871
1147.466, 415.898
1147.948, 389.124
1148.431, 365.585
1148.913, 346.493
1149.395, 332.078
1149.877, 321.030
1150.359, 315.392
1150.841, 310.068
1151.323, 297.288
1151.805, 276.189
1152.287, 261.190
1152.770, 257.705
1153.252, 246.749
1153.734, 219.722
1154.216, 186.807
1154.698, 163.325
1155.180, 146.922
1155.662, 134.383
1156.144, 126.058
1156.627, 117.868
1157.109, 109.218
1157.591, 100.698
1158.073, 92.522
1158.555, 84.776
1159.037, 77.259
1159.519, 70.148
1160.001, 63.939
1160.484, 59.278
1160.966, 54.873
1161.448, 50.781
1161.930, 46.326
1162.412, 40.718
1162.894, 34.245
1163.376, 27.705
1163.858, 21.343
1164.340, 16.796
1164.823, 17.175
1165.305, 16.711
1165.787, 11.924
1166.269, 6.507
1166.751, 6.280
1167.233, 10.378
1167.715, 9.427
1168.197, 2.903
1168.679, 5.019
1169.162, 14.595
1169.644, 21.921
1170.126, 24.506
1170.608, 23.291
1171.090, 17.457
1171.572, 7.258
1172.054, 7.222
1172.536, 21.083
1173.019, 32.851
1173.501, 24.992
1173.983, 14.321
1174.465, 14.556
1174.947, 23.814
1175.429, 33.095
1175.911, 42.641
1176.393, 44.535
1176.875, 34.533
1177.358, 22.964
1177.840, 18.231
1178.322, 17.987
1178.804, 20.355
1179.286, 25.130
1179.768, 32.616
1180.250, 43.408
1180.732, 50.471
1181.214, 49.603
1181.697, 45.363
1182.179, 40.576
1182.661, 36.626
1183.143, 35.727
1183.625, 38.778
1184.107, 42.683
1184.589, 48.132
1185.071, 50.763
1185.554, 46.330
1186.036, 38.923
1186.518, 31.715
1187.000, 25.916
1187.482, 24.723
1187.964, 33.454
1188.446, 34.407
1188.928, 25.242
1189.411, 16.226
1189.893, 16.831
1190.375, 22.144
1190.857, 25.562
1191.339, 27.503
1191.821, 30.120
1192.303, 35.279
1192.785, 37.912
1193.267, 37.171
1193.750, 34.990
1194.232, 32.063
1194.714, 29.854
1195.196, 32.439
1195.678, 38.842
1196.160, 40.072
1196.642, 28.794
1197.124, 24.457
1197.606, 33.280
1198.089, 41.682
1198.571, 28.453
1199.053, 20.477
1199.535, 17.479
1200.017, 34.360
1200.499, 25.600
1200.981, 27.122
1201.463, 29.059
1201.945, 16.675
1202.428, 30.657
1202.910, 18.516
1203.392, 16.834
1203.874, 10.382
1204.356, 14.274
1204.838, 14.978
1205.320, 5.342
1205.802, 1.438
1206.285, 6.538
1206.767, 10.652
1207.249, 9.535
1207.731, 15.277
1208.213, 19.263
1208.695, 19.023
1209.177, 18.042
1209.659, 16.099
1210.141, 15.333
1210.624, 17.998
1211.106, 21.574
1211.588, 19.327
1212.070, 13.299
1212.552, 8.046
1213.034, 4.269
1213.516, 3.514
1213.998, 7.404
1214.480, 11.127
1214.963, 11.215
1215.445, 9.090
1215.927, 8.473
1216.409, 8.875
1216.891, 8.952
1217.373, 5.360
1217.855, 6.697
1218.337, 16.836
1218.820, 25.490
1219.302, 20.949
1219.784, 9.668
1220.266, 10.453
1220.748, 19.553
1221.230, 23.830
1221.712, 12.052
1222.194, 4.897
1222.677, 5.411
1223.159, 8.880
1223.641, 12.439
1224.123, 14.821
1224.605, 10.426
1225.087, 1.496
1225.569, 0.958
1226.051, 17.296
1226.533, 26.198
1227.016, 19.398
1227.498, 8.362
1227.980, 7.341
1228.462, 11.080
1228.944, 8.001
1229.426, 1.118
1229.908, 5.074
1230.390, 3.918
1230.872, 10.462
1231.355, 11.891
1231.837, 10.488
1232.319, 7.965
1232.801, 5.399
1233.283, 5.000
1233.765, 6.745
1234.247, 7.625
1234.729, 7.370
1235.212, 5.010
1235.694, 0.704
1236.176, 5.791
1236.658, 2.931
1237.140, 3.378
1237.622, 6.195
1238.104, 4.629
1238.586, 3.432
1239.068, 3.200
1239.551, 2.912
1240.033, 2.218
1240.515, 1.505
1240.997, 3.293
1241.479, 4.791
1241.961, 0.029
1242.443, 12.292
1242.925, 16.025
1243.407, 8.492
1243.890, 0.066
1244.372, 6.984
1244.854, 11.653
1245.336, 11.816
1245.818, 9.078
1246.300, 5.059
1246.782, 0.123
1247.264, 5.177
1247.747, 10.507
1248.229, 13.422
1248.711, 12.804
1249.193, 10.151
1249.675, 6.464
1250.157, 2.717
1250.639, 0.309
1251.121, 2.678
1251.604, 1.399
1252.086, 3.991
1252.568, 8.721
1253.050, 11.651
1253.532, 11.592
1254.014, 3.855
1254.496, 5.365
1254.978, 8.262
1255.460, 4.430
1255.943, 3.058
1256.425, 4.230
1256.907, 3.231
1257.389, 4.381
1257.871, 10.280
1258.353, 5.511
1258.835, 2.508
1259.317, 6.871
1259.799, 7.569
1260.281, 5.169
1260.764, 0.248
1261.246, 3.290
1261.728, 2.825
1262.210, 1.819
1262.692, 2.656
1263.174, 4.486
1263.656, 7.618
1264.138, 11.533
1264.621, 8.501
1265.103, 0.098
1265.585, 7.349
1266.067, 12.223
1266.549, 11.748
1267.031, 0.722
1267.513, 13.239
1267.995, 16.014
1268.478, 11.204
1268.960, 10.650
1269.442, 12.911
1269.924, 12.337
1270.406, 0.537
1270.888, 5.481
1271.370, 3.559
1271.852, 14.862
1272.334, 18.824
1272.817, 17.688
1273.299, 16.626
1273.781, 16.320
1274.263, 18.682
1274.745, 30.649
1275.227, 34.442
1275.709, 26.599
1276.191, 17.237
1276.673, 15.098
1277.156, 16.609
1277.638, 15.144
1278.120, 11.955
1278.602, 10.561
1279.084, 14.118
1279.566, 13.656
1280.048, 7.754
1280.530, 2.498
1281.013, 3.333
1281.495, 6.785
1281.977, 9.121
1282.459, 11.021
1282.941, 13.350
1283.423, 16.119
1283.905, 18.401
1284.387, 20.031
1284.870, 21.726
1285.352, 26.786
1285.834, 28.819
1286.316, 18.663
1286.798, 4.212
1287.280, 0.003
1287.762, 6.788
1288.244, 7.650
1288.726, 2.253
1289.208, 2.799
1289.691, 4.828
1290.173, 3.544
1290.655, 2.936
1291.137, 11.580
1291.619, 21.140
1292.101, 30.576
1292.583, 30.367
1293.065, 21.515
1293.548, 12.692
1294.030, 6.507
1294.512, 4.095
1294.994, 6.414
1295.476, 9.041
1295.958, 5.849
1296.440, 0.368
1296.922, 1.602
1297.405, 0.000
##END=



