##NAMES=Vayrynenite
##RRUFFID=R050243
##IDEAL CHEMISTRY=Mn^2+^Be(PO_4_)OH
##LOCALITY=Viitaniemi pegmatite, Erajarvi, Orivesi, Finland
##OWNER=RRUFF
##SOURCE=Marcus Origlieri
##DESCRIPTION=Pink massive with defined cleavage planes
##STATUS=The identification of this mineral has been confirmed by X-ray diffraction and chemical analysis
##URL=rruff.info/R050243
##MEASURED CHEMISTRY=(Mn^2+^_0.95_Fe^2+^_0.05_)_Σ=1_Be_1.00_(P_1.00_O_4_)((OH)_0.94_F_0.06_)_Σ=1_ ; Be not measured but estimated by difference and charge balance.
140.9935, 0.0000000E+00
141.4756, 0.2393530
141.9577, 0.4067500
142.4399, 0.4965930
142.9220, 0.2675740
143.4041, 2.3006000E-02
143.8862, 0.1150360
144.3683, 0.1373600
144.8504, 9.5859999E-03
145.3326, 0.1254270
145.8147, 0.2229460
146.2968, 0.2986760
146.7789, 0.4678760
147.2610, 0.8200990
147.7431, 1.174461
148.2253, 1.402260
148.7074, 1.358368
149.1895, 1.390839
149.6716, 1.551792
150.1537, 1.841717
150.6358, 2.136723
151.1180, 2.385265
151.6001, 2.663166
152.0822, 3.028088
152.5643, 3.421440
153.0464, 3.957455
153.5285, 4.674114
154.0107, 5.578419
154.4928, 6.533657
154.9749, 7.557312
155.4570, 8.626816
155.9391, 9.718983
156.4212, 10.72104
156.9034, 11.86186
157.3855, 13.12415
157.8676, 14.42241
158.3497, 16.22242
158.8318, 18.61429
159.3139, 21.56172
159.7961, 25.02774
160.2782, 29.23647
160.7603, 33.76511
161.2424, 38.74681
161.7245, 44.58362
162.2066, 49.33955
162.6888, 52.59494
163.1709, 54.33328
163.6530, 54.52316
164.1351, 52.17432
164.6172, 48.96095
165.0993, 45.74029
165.5815, 42.52758
166.0636, 39.62298
166.5457, 37.01303
167.0278, 34.78700
167.5099, 33.13388
167.9920, 32.09105
168.4742, 31.68003
168.9563, 31.99921
169.4384, 33.25240
169.9205, 34.79970
170.4026, 36.06861
170.8847, 37.26072
171.3669, 38.91337
171.8490, 41.87812
172.3311, 45.22977
172.8132, 47.95309
173.2953, 49.66744
173.7774, 51.04796
174.2596, 52.68461
174.7417, 54.50954
175.2238, 56.24643
175.7059, 57.19397
176.1880, 58.05637
176.6701, 59.76908
177.1523, 62.41919
177.6344, 66.19859
178.1165, 71.25938
178.5986, 77.64310
179.0807, 85.31033
179.5628, 93.94925
180.0450, 103.9633
180.5271, 116.1283
181.0092, 131.2786
181.4913, 148.1181
181.9734, 166.4278
182.4555, 185.8466
182.9377, 201.5828
183.4198, 211.8947
183.9019, 215.9467
184.3840, 210.6733
184.8661, 192.8152
185.3482, 167.3110
185.8304, 141.2232
186.3125, 114.6505
186.7946, 90.43823
187.2767, 71.24660
187.7588, 56.50288
188.2409, 44.60336
188.7231, 35.38720
189.2052, 28.44394
189.6873, 22.84918
190.1694, 18.58718
190.6515, 15.20830
191.1336, 12.39022
191.6158, 10.11282
192.0979, 8.225567
192.5800, 6.725624
193.0621, 5.562164
193.5442, 4.576702
194.0263, 3.839912
194.5085, 3.235313
194.9906, 2.429260
195.4727, 1.507614
195.9548, 0.7833290
196.4369, 0.4183920
196.9190, 0.3600540
197.4012, 0.3176040
197.8833, 0.2884710
198.3654, 0.2868350
198.8475, 0.2872620
199.3296, 0.3263020
199.8117, 0.4073410
200.2939, 0.5467640
200.7760, 0.7351000
201.2581, 0.8944740
201.7402, 1.017105
202.2223, 1.131844
202.7044, 1.233505
203.1866, 1.297100
203.6687, 1.501556
204.1508, 1.937225
204.6329, 2.585732
205.1150, 3.151878
205.5971, 3.601112
206.0793, 4.042721
206.5614, 4.608341
207.0435, 5.307095
207.5256, 6.046986
208.0077, 6.759075
208.4898, 7.448322
208.9720, 8.401489
209.4541, 9.630306
209.9362, 11.10008
210.4183, 12.80849
210.9004, 14.79056
211.3825, 16.85294
211.8647, 19.02314
212.3468, 21.30724
212.8289, 23.28977
213.3110, 24.87931
213.7931, 26.30692
214.2752, 27.85023
214.7574, 29.60608
215.2395, 31.23166
215.7216, 32.63660
216.2037, 33.80291
216.6858, 34.97569
217.1679, 36.22449
217.6500, 37.39752
218.1322, 38.28739
218.6143, 38.83107
219.0964, 39.28024
219.5785, 39.75801
220.0606, 40.29477
220.5427, 40.28736
221.0249, 39.48488
221.5070, 38.42384
221.9891, 37.67864
222.4712, 37.17836
222.9533, 37.15423
223.4354, 37.77794
223.9176, 39.10444
224.3997, 40.16910
224.8818, 40.66237
225.3639, 41.23940
225.8460, 42.56575
226.3281, 44.53256
226.8103, 47.48042
227.2924, 51.50183
227.7745, 56.67608
228.2566, 62.28278
228.7387, 67.90765
229.2208, 74.39379
229.7030, 82.58878
230.1851, 93.07782
230.6672, 104.4187
231.1493, 117.2100
231.6314, 131.6335
232.1135, 142.7777
232.5957, 152.3440
233.0778, 156.8811
233.5599, 152.3054
234.0420, 135.1566
234.5241, 115.6082
235.0062, 94.17243
235.4884, 70.99381
235.9705, 52.26589
236.4526, 38.71469
236.9347, 28.70144
237.4168, 20.79205
237.8989, 15.48762
238.3811, 11.23509
238.8632, 7.940117
239.3453, 5.599934
239.8274, 3.876938
240.3095, 2.941559
240.7916, 2.413956
241.2738, 1.994602
241.7559, 1.710167
242.2380, 1.470409
242.7201, 1.265953
243.2022, 1.088272
243.6843, 0.9096070
244.1665, 0.7370000
244.6486, 0.5654300
245.1307, 0.4005170
245.6128, 0.3114590
246.0949, 6.7528002E-02
246.5770, 0.4552610
247.0592, 1.181419
247.5413, 1.481392
248.0234, 1.170292
248.5055, 0.7096140
248.9876, 0.4432300
249.4697, 0.4991260
249.9519, 0.4553180
250.4340, 0.2419850
250.9161, 0.1173020
251.3982, 0.4963110
251.8803, 0.9643670
252.3624, 1.348503
252.8446, 1.493736
253.3267, 1.211430
253.8088, 1.151421
254.2909, 1.428814
254.7730, 1.967556
255.2551, 2.442917
255.7373, 2.825119
256.2194, 3.192284
256.7015, 3.563046
257.1836, 3.886181
257.6657, 4.366993
258.1478, 5.077419
258.6299, 5.935242
259.1121, 6.676575
259.5942, 7.168304
260.0763, 7.788876
260.5584, 8.782223
261.0405, 10.30288
261.5226, 11.69149
262.0048, 12.94652
262.4869, 14.05385
262.9690, 15.03572
263.4511, 15.94872
263.9332, 16.59687
264.4153, 16.90271
264.8975, 16.86520
265.3796, 16.48756
265.8617, 15.72865
266.3438, 14.66441
266.8259, 13.35189
267.3080, 11.68583
267.7902, 10.07810
268.2723, 8.736637
268.7544, 7.677753
269.2365, 6.614437
269.7186, 5.507832
270.2007, 4.447464
270.6829, 3.585354
271.1650, 2.935478
271.6471, 2.442631
272.1292, 2.147522
272.6113, 2.056652
273.0934, 1.830021
273.5756, 1.390388
274.0577, 0.9567530
274.5398, 0.8206940
275.0219, 1.032249
275.5040, 1.303864
275.9861, 1.579514
276.4683, 1.854378
276.9504, 2.050266
277.4325, 2.142727
277.9146, 2.219521
278.3967, 2.378841
278.8788, 2.627605
279.3610, 2.887218
279.8431, 3.156605
280.3252, 3.419224
280.8073, 3.568420
281.2894, 3.571426
281.7715, 3.596882
282.2537, 3.779552
282.7358, 4.119896
283.2179, 4.626766
283.7000, 5.405155
284.1821, 6.290424
284.6642, 6.741486
285.1464, 6.737247
285.6285, 6.520538
286.1106, 6.235435
286.5927, 5.883751
287.0748, 5.503719
287.5569, 5.126556
288.0391, 4.688072
288.5212, 3.966576
289.0033, 2.954659
289.4854, 2.041634
289.9675, 1.543827
290.4496, 1.391651
290.9318, 1.175163
291.4139, 0.8310320
291.8960, 0.4673610
292.3781, 0.3355980
292.8602, 0.4051480
293.3423, 0.3573380
293.8245, 0.1542170
294.3066, 0.9345550
294.7887, 1.307957
295.2708, 1.184025
295.7529, 0.8871230
296.2350, 0.7906340
296.7172, 0.8683320
297.1993, 0.9903410
297.6814, 1.135597
298.1635, 1.278896
298.6456, 1.374920
299.1277, 1.425526
299.6099, 1.407700
300.0920, 1.260365
300.5741, 1.021664
301.0562, 0.7990110
301.5383, 0.6450580
302.0204, 0.5191190
302.5026, 0.3157270
302.9847, 4.0348001E-02
303.4668, 0.1257860
303.9489, 9.9509999E-02
304.4310, 0.5260510
304.9131, 0.8322450
305.3953, 0.9137950
305.8774, 0.7658770
306.3595, 0.2902950
306.8416, 0.4350360
307.3237, 1.078232
307.8058, 1.347816
308.2880, 1.448883
308.7701, 1.618046
309.2522, 1.908428
309.7343, 2.261288
310.2164, 2.650608
310.6985, 3.071556
311.1807, 3.497616
311.6628, 3.828426
312.1449, 4.209618
312.6270, 4.772137
313.1091, 5.566811
313.5912, 6.437859
314.0734, 7.408680
314.5555, 8.388893
315.0376, 9.223698
315.5197, 9.714081
316.0018, 10.13828
316.4839, 10.64220
316.9661, 11.24436
317.4482, 11.89693
317.9303, 12.43192
318.4124, 13.04882
318.8945, 13.99171
319.3766, 15.60893
319.8588, 17.32140
320.3409, 18.93916
320.8230, 20.46117
321.3051, 21.84006
321.7872, 22.80459
322.2693, 23.75835
322.7515, 25.01921
323.2336, 26.88487
323.7157, 28.81441
324.1978, 30.62111
324.6799, 32.34988
325.1620, 34.36262
325.6442, 37.12474
326.1263, 39.88766
326.6084, 42.25167
327.0905, 43.62571
327.5726, 45.36433
328.0547, 48.15794
328.5369, 51.39748
329.0190, 53.54990
329.5011, 53.69048
329.9832, 53.59253
330.4653, 53.85635
330.9474, 54.73595
331.4296, 55.33200
331.9117, 55.67754
332.3938, 55.72576
332.8759, 55.35535
333.3580, 54.05153
333.8401, 53.11168
334.3223, 52.96021
334.8044, 53.67861
335.2865, 54.24471
335.7686, 54.63587
336.2507, 54.89343
336.7328, 55.05817
337.2150, 55.15458
337.6971, 55.07370
338.1792, 54.69700
338.6613, 54.10999
339.1434, 53.87997
339.6255, 54.13275
340.1077, 54.44591
340.5898, 54.48926
341.0719, 54.20773
341.5540, 54.03458
342.0361, 53.97633
342.5182, 54.08438
343.0003, 54.52063
343.4825, 55.30589
343.9646, 56.23125
344.4467, 57.09692
344.9288, 57.92239
345.4109, 59.20036
345.8930, 60.97166
346.3752, 63.08265
346.8573, 65.31318
347.3394, 67.68289
347.8215, 70.19483
348.3036, 73.03951
348.7857, 76.00465
349.2679, 78.54042
349.7500, 80.64043
350.2321, 82.24742
350.7142, 83.40070
351.1963, 84.00900
351.6784, 83.77872
352.1606, 82.51438
352.6427, 80.47745
353.1248, 78.01679
353.6069, 75.10626
354.0890, 71.62527
354.5711, 67.05267
355.0533, 61.99645
355.5354, 57.22485
356.0175, 52.87173
356.4996, 48.92701
356.9817, 45.28339
357.4638, 41.99965
357.9460, 39.21499
358.4281, 37.08955
358.9102, 35.43320
359.3923, 34.16657
359.8744, 33.30287
360.3565, 32.69125
360.8387, 32.02201
361.3208, 31.56041
361.8029, 31.65518
362.2850, 32.97919
362.7671, 34.41679
363.2492, 35.42258
363.7314, 36.01122
364.2135, 36.74364
364.6956, 37.83458
365.1777, 39.14549
365.6598, 40.56097
366.1419, 41.99911
366.6241, 43.54356
367.1062, 45.11920
367.5883, 46.81159
368.0704, 48.82140
368.5525, 51.30147
369.0346, 53.98384
369.5168, 56.75095
369.9989, 59.43719
370.4810, 62.70214
370.9631, 66.93149
371.4452, 71.54422
371.9273, 75.75540
372.4095, 78.84742
372.8916, 82.57267
373.3737, 87.47086
373.8558, 93.60460
374.3379, 99.62743
374.8200, 105.5117
375.3022, 111.4087
375.7843, 117.5470
376.2664, 124.3680
376.7485, 130.1748
377.2306, 134.7946
377.7127, 138.2437
378.1949, 140.5601
378.6770, 141.7971
379.1591, 141.6054
379.6412, 139.7272
380.1233, 136.1413
380.6054, 131.1889
381.0876, 124.7262
381.5697, 117.3271
382.0518, 109.4558
382.5339, 101.2132
383.0160, 93.12206
383.4981, 85.31011
383.9803, 77.85308
384.4624, 71.24114
384.9445, 65.48315
385.4266, 60.33507
385.9087, 55.59422
386.3908, 51.26099
386.8730, 47.30688
387.3551, 43.73012
387.8372, 40.45007
388.3193, 37.23829
388.8014, 34.17884
389.2835, 31.61693
389.7657, 30.02748
390.2478, 28.91437
390.7299, 27.74743
391.2120, 26.41979
391.6941, 25.21644
392.1762, 24.39754
392.6584, 23.83548
393.1405, 23.31384
393.6226, 22.71158
394.1047, 22.15743
394.5868, 21.63616
395.0689, 21.16015
395.5511, 21.01655
396.0332, 21.44054
396.5153, 22.16384
396.9974, 22.98342
397.4795, 23.96756
397.9616, 24.91747
398.4438, 25.69786
398.9259, 26.40273
399.4080, 27.32563
399.8901, 28.81707
400.3722, 30.25477
400.8543, 31.40796
401.3365, 32.23670
401.8186, 32.93368
402.3007, 33.69235
402.7828, 34.20121
403.2649, 34.05632
403.7470, 33.05749
404.2292, 31.78410
404.7113, 30.40977
405.1934, 28.89957
405.6755, 26.81248
406.1576, 23.99561
406.6397, 20.99376
407.1219, 18.09445
407.6040, 15.25240
408.0861, 12.93986
408.5682, 11.28387
409.0503, 10.05912
409.5324, 8.757675
410.0146, 7.374641
410.4967, 6.134941
410.9788, 5.193161
411.4609, 4.497784
411.9430, 3.783821
412.4251, 3.035904
412.9073, 2.352951
413.3894, 1.839626
413.8715, 1.456360
414.3536, 1.087311
414.8357, 0.6409230
415.3178, 0.2523310
415.8000, 0.2176360
416.2821, 0.4484480
416.7642, 0.5303120
417.2463, 6.7899999E-04
417.7284, 0.7124370
418.2105, 1.122192
418.6927, 1.096371
419.1748, 1.036915
419.6569, 1.257469
420.1390, 1.590103
420.6211, 1.773041
421.1032, 1.471691
421.5854, 1.220928
422.0675, 1.356262
422.5496, 1.861584
423.0317, 2.170338
423.5138, 1.979683
423.9959, 1.644108
424.4781, 1.390686
424.9602, 1.326462
425.4423, 1.252953
425.9244, 1.093403
426.4065, 0.9196360
426.8886, 0.9038160
427.3708, 1.287361
427.8529, 1.527481
428.3350, 1.425446
428.8171, 0.9265480
429.2992, 0.4551090
429.7813, 2.1217000E-02
430.2635, 0.4276280
430.7456, 0.6757660
431.2277, 0.7268220
431.7098, 0.7631910
432.1919, 0.7807010
432.6740, 0.8230670
433.1562, 1.065117
433.6383, 1.528259
434.1204, 2.000824
434.6025, 2.303360
435.0846, 2.482086
435.5667, 2.837059
436.0489, 3.404762
436.5310, 4.057594
437.0131, 4.553337
437.4952, 4.981499
437.9773, 5.656639
438.4594, 6.868599
438.9416, 8.252441
439.4236, 9.248970
439.9058, 9.924332
440.3879, 10.69481
440.8700, 11.78648
441.3521, 13.14896
441.8342, 14.73017
442.3163, 16.51971
442.7985, 18.53181
443.2806, 20.78279
443.7627, 23.25327
444.2448, 25.96204
444.7269, 29.18324
445.2090, 32.35606
445.6912, 35.12154
446.1733, 37.47027
446.6554, 40.16308
447.1375, 43.63648
447.6196, 47.27988
448.1017, 50.71268
448.5839, 53.32265
449.0660, 56.47993
449.5481, 60.33410
450.0302, 64.67947
450.5123, 69.02672
450.9944, 73.06809
451.4766, 77.57433
451.9587, 82.78609
452.4408, 88.76712
452.9229, 95.11007
453.4050, 101.8209
453.8871, 109.0811
454.3693, 117.1263
454.8514, 125.9985
455.3335, 135.5963
455.8156, 146.1035
456.2977, 157.2162
456.7798, 168.5624
457.2620, 180.1996
457.7441, 191.5444
458.2262, 202.6866
458.7083, 213.3049
459.1904, 223.4020
459.6725, 232.9833
460.1547, 240.5970
460.6368, 245.5537
461.1189, 247.5998
461.6010, 246.2083
462.0831, 241.1108
462.5652, 232.7368
463.0474, 220.6557
463.5295, 205.4254
464.0116, 188.8631
464.4937, 170.4020
464.9758, 152.0841
465.4579, 135.1856
465.9401, 119.9382
466.4222, 105.7798
466.9043, 92.31839
467.3864, 80.13113
467.8685, 69.76146
468.3506, 62.23568
468.8328, 55.40551
469.3149, 48.99374
469.7970, 43.12865
470.2791, 38.23506
470.7612, 34.75767
471.2433, 31.63271
471.7255, 28.34720
472.2076, 24.74903
472.6897, 21.97126
473.1718, 20.14625
473.6539, 18.78802
474.1360, 17.34701
474.6182, 15.81429
475.1003, 14.37504
475.5824, 13.00374
476.0645, 11.76334
476.5466, 10.86739
477.0287, 10.29453
477.5109, 9.789093
477.9930, 9.233192
478.4751, 8.634254
478.9572, 7.972824
479.4393, 7.227325
479.9214, 6.569046
480.4036, 6.221619
480.8857, 6.047974
481.3678, 5.847031
481.8499, 5.353279
482.3320, 5.043793
482.8141, 5.313881
483.2963, 6.015900
483.7784, 6.693443
484.2605, 7.136055
484.7426, 7.525330
485.2247, 7.860481
485.7068, 8.058159
486.1890, 8.628464
486.6711, 9.806709
487.1532, 11.35020
487.6353, 13.03022
488.1174, 14.82717
488.5995, 16.70222
489.0817, 18.60242
489.5638, 20.56987
490.0459, 22.81121
490.5280, 25.35894
491.0101, 28.04484
491.4922, 30.86316
491.9744, 33.84312
492.4565, 36.70205
492.9386, 39.44008
493.4207, 42.23782
493.9028, 45.20413
494.3849, 48.31201
494.8671, 51.46047
495.3492, 54.60357
495.8313, 57.97460
496.3134, 61.81274
496.7955, 66.11270
497.2776, 70.98399
497.7598, 76.47218
498.2419, 82.53665
498.7240, 88.94627
499.2061, 95.75306
499.6882, 103.3743
500.1703, 112.2365
500.6525, 121.9582
501.1346, 132.1620
501.6167, 143.0147
502.0988, 154.1448
502.5809, 165.6161
503.0630, 177.3352
503.5452, 188.9099
504.0273, 201.5844
504.5094, 212.6102
504.9915, 221.8908
505.4736, 229.5112
505.9557, 232.3809
506.4379, 230.2934
506.9200, 223.6550
507.4021, 212.2331
507.8842, 195.0151
508.3663, 176.5730
508.8484, 156.4053
509.3306, 136.2387
509.8127, 118.6609
510.2948, 103.7240
510.7769, 91.17545
511.2590, 81.45958
511.7411, 73.91056
512.2233, 67.26659
512.7054, 61.48956
513.1875, 56.52566
513.6696, 52.75813
514.1517, 49.62202
514.6339, 46.32337
515.1160, 42.69695
515.5981, 39.09728
516.0802, 35.83373
516.5623, 32.68555
517.0444, 29.35783
517.5266, 25.21246
518.0087, 21.41795
518.4908, 18.38174
518.9729, 16.04332
519.4550, 14.09874
519.9371, 12.80564
520.4193, 11.64424
520.9014, 10.35461
521.3835, 8.771912
521.8656, 7.777420
522.3477, 7.638138
522.8298, 7.792282
523.3120, 7.684296
523.7941, 7.241653
524.2762, 6.867195
524.7583, 6.588150
525.2404, 6.440964
525.7225, 6.557304
526.2047, 6.935654
526.6868, 7.348099
527.1689, 7.595055
527.6510, 7.812309
528.1331, 8.444649
528.6152, 9.485641
529.0974, 10.48825
529.5795, 10.99284
530.0616, 11.29132
530.5437, 11.77349
531.0258, 12.52766
531.5079, 13.46404
531.9901, 14.57765
532.4722, 15.84398
532.9543, 17.20682
533.4364, 18.77511
533.9185, 20.32253
534.4006, 21.86514
534.8828, 23.36406
535.3649, 24.62532
535.8470, 26.01058
536.3291, 26.75906
536.8112, 26.49117
537.2933, 25.02582
537.7755, 23.24435
538.2576, 21.11413
538.7397, 18.73200
539.2218, 16.10378
539.7039, 13.20369
540.1860, 10.64046
540.6682, 8.561699
541.1503, 6.875900
541.6324, 5.434341
542.1145, 4.229668
542.5966, 3.120415
543.0787, 1.945610
543.5609, 0.8540800
544.0430, 0.1541210
544.5251, 0.1672900
545.0072, 0.4288560
545.4893, 0.8556290
545.9714, 1.332672
546.4536, 1.758980
546.9357, 2.148216
547.4178, 2.395088
547.8999, 2.363808
548.3820, 2.191689
548.8641, 2.068054
549.3463, 2.023239
549.8284, 2.039871
550.3105, 2.244392
550.7926, 2.549759
551.2747, 2.454666
551.7568, 1.694656
552.2390, 0.9648900
552.7211, 0.5978240
553.2032, 0.6309280
553.6853, 0.5743480
554.1674, 0.4168090
554.6495, 0.2045590
555.1317, 3.3040000E-03
555.6138, 0.2147220
556.0959, 0.5439990
556.5780, 1.061455
557.0601, 1.578232
557.5422, 1.702393
558.0244, 1.594810
558.5065, 1.723961
558.9886, 2.531509
559.4707, 3.507530
559.9528, 4.178574
560.4349, 4.599190
560.9171, 5.107864
561.3992, 5.951019
561.8813, 6.864555
562.3634, 7.668114
562.8455, 8.306259
563.3276, 8.965256
563.8098, 9.681145
564.2919, 10.42086
564.7740, 11.16563
565.2561, 11.93037
565.7382, 12.66096
566.2203, 13.31994
566.7025, 13.97160
567.1846, 14.78644
567.6667, 15.80391
568.1488, 16.77179
568.6309, 17.66624
569.1130, 18.42014
569.5952, 18.67860
570.0773, 18.45087
570.5594, 18.10757
571.0415, 17.89718
571.5236, 17.76116
572.0057, 17.61394
572.4879, 17.44607
572.9700, 17.25121
573.4521, 17.03616
573.9342, 16.78615
574.4163, 16.48393
574.8984, 15.92067
575.3806, 15.53684
575.8627, 15.39241
576.3448, 15.51189
576.8269, 15.96340
577.3090, 16.97455
577.7911, 18.05247
578.2733, 19.02448
578.7554, 19.88774
579.2375, 21.13956
579.7196, 22.81364
580.2017, 24.78282
580.6838, 27.03185
581.1660, 29.54540
581.6481, 31.94219
582.1302, 34.16956
582.6123, 36.37711
583.0944, 38.61858
583.5765, 40.94842
584.0587, 43.55904
584.5408, 46.53446
585.0229, 49.72127
585.5050, 52.91345
585.9871, 56.21003
586.4692, 59.78937
586.9514, 63.57071
587.4335, 67.83749
587.9155, 72.72397
588.3976, 78.22650
588.8798, 84.17790
589.3619, 90.59169
589.8440, 97.42294
590.3261, 104.6410
590.8082, 112.1375
591.2903, 120.1337
591.7725, 128.5836
592.2546, 137.5874
592.7367, 147.4567
593.2188, 158.3086
593.7009, 168.9138
594.1830, 179.3570
594.6652, 189.0242
595.1473, 197.6192
595.6294, 204.9821
596.1115, 210.2931
596.5936, 213.4749
597.0757, 214.2288
597.5579, 211.8247
598.0400, 206.5329
598.5221, 199.5108
599.0042, 190.0535
599.4863, 180.0781
599.9684, 170.7499
600.4506, 162.3082
600.9327, 154.3697
601.4148, 146.4726
601.8969, 139.3017
602.3790, 133.3709
602.8611, 129.3494
603.3433, 125.1611
603.8254, 120.3929
604.3075, 115.7932
604.7896, 112.6108
605.2717, 110.8740
605.7538, 110.1964
606.2360, 110.5200
606.7181, 111.8342
607.2002, 114.1826
607.6823, 117.5321
608.1644, 121.5981
608.6465, 125.8397
609.1287, 130.8423
609.6108, 137.4584
610.0929, 145.6969
610.5750, 154.9059
611.0571, 164.7368
611.5392, 175.4101
612.0214, 187.2430
612.5035, 200.8426
612.9856, 214.2743
613.4677, 227.2014
613.9498, 239.8912
614.4319, 252.9007
614.9141, 267.4843
615.3962, 280.3451
615.8783, 291.7103
616.3604, 300.7961
616.8425, 306.0624
617.3246, 307.6358
617.8068, 303.9090
618.2889, 293.5484
618.7710, 277.9943
619.2531, 259.9008
619.7352, 239.3272
620.2173, 218.4662
620.6995, 197.9975
621.1816, 178.2893
621.6637, 160.0384
622.1458, 143.0406
622.6279, 127.3942
623.1100, 113.0841
623.5922, 100.1523
624.0743, 88.63293
624.5564, 78.60941
625.0385, 69.80280
625.5206, 62.34192
626.0027, 56.07482
626.4849, 50.99963
626.9670, 47.43803
627.4491, 44.06281
627.9312, 40.56943
628.4133, 37.23161
628.8954, 34.83487
629.3776, 33.38922
629.8597, 32.04324
630.3418, 30.30505
630.8239, 28.49609
631.3060, 27.26014
631.7881, 26.55068
632.2703, 26.07163
632.7524, 25.69272
633.2345, 25.42063
633.7166, 25.29307
634.1987, 25.32410
634.6808, 25.32404
635.1630, 25.12430
635.6451, 24.93269
636.1272, 24.91789
636.6093, 25.30961
637.0914, 25.46078
637.5735, 25.24984
638.0557, 24.90585
638.5378, 24.76692
639.0199, 24.91060
639.5020, 24.80654
639.9841, 24.34789
640.4662, 23.61087
640.9484, 22.65446
641.4305, 21.51253
641.9126, 20.38191
642.3947, 19.33626
642.8768, 18.35022
643.3589, 17.41692
643.8411, 16.51208
644.3232, 15.55166
644.8053, 14.40032
645.2874, 13.24470
645.7695, 12.14094
646.2516, 11.09576
646.7338, 10.20292
647.2159, 9.726196
647.6980, 9.202759
648.1801, 8.329102
648.6622, 6.823540
649.1443, 5.857063
649.6265, 5.569115
650.1086, 5.526001
650.5907, 5.209084
651.0728, 4.641151
651.5549, 4.205803
652.0370, 3.992844
652.5192, 3.881630
653.0013, 3.752403
653.4834, 3.600510
653.9655, 3.411324
654.4476, 3.105537
654.9297, 2.837448
655.4119, 2.796295
655.8940, 2.882805
656.3761, 2.793007
656.8582, 2.320007
657.3403, 1.776749
657.8224, 1.186432
658.3046, 0.5657350
658.7867, 0.2252350
659.2688, 0.2946470
659.7509, 0.3955690
660.2330, 0.3121720
660.7151, 4.4043999E-02
661.1973, 0.1615600
661.6794, 0.3053740
662.1615, 0.3814930
662.6436, 0.3301160
663.1257, 0.2135850
663.6078, 0.1788100
664.0900, 0.2574310
664.5721, 0.3708570
665.0542, 0.5621030
665.5363, 0.7130430
666.0184, 0.6698150
666.5005, 8.2115002E-02
666.9827, 0.2965770
667.4648, 0.1357960
667.9469, 0.3209300
668.4290, 0.6044460
668.9111, 0.6631010
669.3932, 0.6434400
669.8754, 0.5375900
670.3575, 0.3913040
670.8396, 0.3611070
671.3217, 0.4531860
671.8038, 0.5780720
672.2859, 0.7066960
672.7681, 0.8341670
673.2502, 0.9784240
673.7323, 1.128540
674.2144, 1.205299
674.6965, 1.096336
675.1786, 0.9310530
675.6608, 0.8665390
676.1429, 0.9293140
676.6250, 0.8151630
677.1071, 8.5410997E-02
677.5892, 0.6052470
678.0714, 0.7811510
678.5535, 0.1996230
679.0356, 0.2222980
679.5177, 0.4439770
679.9998, 0.5605010
680.4819, 0.6854020
680.9641, 0.8230820
681.4462, 0.7898640
681.9283, 0.5142360
682.4104, 0.2077640
682.8925, 0.1951680
683.3746, 0.3901750
683.8568, 0.5706250
684.3389, 0.6872020
684.8210, 0.7313770
685.3031, 0.7246250
685.7852, 0.6381610
686.2673, 0.4133380
686.7495, 0.1908260
687.2316, 0.7019270
687.7137, 0.9085770
688.1958, 0.8962630
688.6779, 1.024521
689.1600, 1.391289
689.6422, 1.676414
690.1243, 1.668472
690.6064, 1.455132
691.0885, 1.728867
691.5706, 2.508293
692.0527, 3.256119
692.5349, 3.613640
693.0170, 3.702042
693.4991, 3.624352
693.9812, 3.393753
694.4633, 3.372375
694.9454, 4.063034
695.4276, 4.886978
695.9097, 5.337685
696.3918, 5.159950
696.8739, 5.159332
697.3560, 5.517586
697.8381, 6.041130
698.3203, 6.604057
698.8024, 7.239899
699.2845, 7.810776
699.7666, 8.307480
700.2487, 8.728188
700.7308, 9.029915
701.2130, 9.234764
701.6951, 9.486008
702.1772, 9.839775
702.6593, 10.20804
703.1414, 10.54586
703.6235, 10.81383
704.1057, 10.93136
704.5878, 10.63485
705.0699, 10.42530
705.5520, 10.69393
706.0341, 11.22605
706.5162, 11.32437
706.9984, 10.55043
707.4805, 9.931717
707.9626, 9.745232
708.4447, 9.908226
708.9268, 9.981743
709.4089, 9.947418
709.8911, 9.955818
710.3732, 10.10731
710.8553, 10.35353
711.3374, 10.58935
711.8195, 10.80788
712.3016, 10.96535
712.7838, 10.88222
713.2659, 10.82674
713.7480, 11.01164
714.2301, 11.46278
714.7122, 12.11402
715.1943, 13.13031
715.6765, 14.20708
716.1586, 15.13162
716.6407, 15.82047
717.1228, 16.71570
717.6049, 17.88418
718.0870, 19.13581
718.5692, 20.28093
719.0513, 21.33051
719.5334, 22.32799
720.0155, 23.25486
720.4976, 24.36781
720.9797, 26.04951
721.4619, 28.06881
721.9440, 30.09297
722.4261, 31.94962
722.9082, 33.89563
723.3903, 36.09925
723.8724, 38.46496
724.3546, 40.92953
724.8367, 43.35589
725.3188, 45.96046
725.8009, 48.79202
726.2830, 51.80106
726.7651, 54.84110
727.2473, 57.94666
727.7294, 61.20852
728.2115, 64.64908
728.6936, 68.25350
729.1757, 71.91077
729.6578, 75.66181
730.1400, 79.56970
730.6221, 83.72838
731.1042, 88.04539
731.5863, 92.54668
732.0684, 97.14346
732.5505, 101.5410
733.0327, 105.7426
733.5148, 109.6255
733.9969, 113.0499
734.4790, 116.0735
734.9611, 119.2998
735.4432, 122.7803
735.9254, 126.1570
736.4075, 129.5813
736.8896, 132.7284
737.3717, 134.3439
737.8538, 134.4544
738.3359, 133.5139
738.8181, 131.3778
739.3002, 128.6347
739.7823, 125.9746
740.2644, 123.4282
740.7465, 120.3192
741.2286, 116.2407
741.7108, 111.6211
742.1929, 106.5476
742.6750, 100.9026
743.1571, 95.51028
743.6392, 90.30224
744.1213, 85.43031
744.6035, 81.21715
745.0856, 77.57278
745.5677, 73.12734
746.0498, 67.79074
746.5319, 62.75888
747.0140, 59.49944
747.4962, 57.15724
747.9783, 54.45882
748.4604, 51.05351
748.9425, 47.85938
749.4246, 45.43684
749.9067, 43.40020
750.3889, 41.38530
750.8710, 39.25261
751.3531, 37.31846
751.8352, 35.56434
752.3173, 34.00954
752.7994, 32.71420
753.2816, 31.66679
753.7637, 30.78034
754.2458, 30.05550
754.7279, 29.38294
755.2100, 28.50800
755.6921, 27.59326
756.1743, 26.96052
756.6564, 26.80627
757.1385, 26.77692
757.6206, 26.81545
758.1027, 26.82289
758.5848, 26.64902
759.0670, 25.95845
759.5491, 25.53548
760.0312, 25.51050
760.5133, 25.73822
760.9954, 25.96843
761.4775, 26.20363
761.9597, 26.41663
762.4418, 26.60454
762.9239, 26.76003
763.4060, 26.77631
763.8881, 26.74088
764.3702, 26.89175
764.8524, 27.54621
765.3345, 28.19707
765.8166, 28.59571
766.2987, 28.78584
766.7808, 28.86106
767.2629, 28.63917
767.7451, 28.58616
768.2272, 28.98743
768.7093, 29.55291
769.1914, 29.29026
769.6735, 28.13265
770.1556, 26.91981
770.6378, 26.02365
771.1199, 25.22269
771.6020, 23.97524
772.0841, 22.42747
772.5662, 21.11047
773.0483, 20.52776
773.5305, 20.04791
774.0126, 19.31578
774.4947, 18.38018
774.9768, 17.42116
775.4589, 16.32130
775.9410, 15.35323
776.4232, 14.60339
776.9053, 14.05689
777.3874, 13.64751
777.8695, 13.37284
778.3516, 13.17575
778.8337, 13.01785
779.3159, 12.92124
779.7980, 12.93858
780.2801, 13.06336
780.7622, 13.26063
781.2443, 13.63861
781.7264, 13.99649
782.2086, 14.10393
782.6907, 13.98653
783.1728, 14.03552
783.6549, 14.28695
784.1370, 14.70782
784.6191, 15.33427
785.1012, 16.12871
785.5833, 16.86797
786.0654, 17.53794
786.5475, 18.19586
787.0297, 18.80062
787.5118, 19.45563
787.9939, 20.42241
788.4760, 21.65976
788.9581, 22.73651
789.4402, 23.11237
789.9224, 23.53635
790.4045, 24.45623
790.8866, 25.94026
791.3687, 27.30830
791.8508, 28.45351
792.3329, 29.63493
792.8151, 30.98772
793.2972, 32.48701
793.7793, 33.69392
794.2614, 34.61674
794.7435, 35.49886
795.2256, 36.50934
795.7078, 37.57916
796.1899, 38.73280
796.6720, 39.93747
797.1541, 40.68806
797.6362, 40.70148
798.1183, 40.23792
798.6005, 39.31516
799.0826, 37.91116
799.5647, 36.59811
800.0468, 35.50542
800.5289, 34.24357
801.0110, 32.55202
801.4932, 30.47539
801.9753, 28.21736
802.4574, 25.78798
802.9395, 23.50587
803.4216, 21.68916
803.9037, 20.07529
804.3859, 18.36932
804.8680, 16.56287
805.3501, 14.91547
805.8322, 13.51874
806.3143, 12.28465
806.7964, 11.16227
807.2786, 10.16378
807.7607, 9.258896
808.2428, 8.469315
808.7249, 7.693649
809.2070, 6.789391
809.6891, 5.853073
810.1713, 5.202629
810.6534, 4.835846
811.1355, 4.621086
811.6176, 4.594093
812.0997, 4.605385
812.5818, 4.568275
813.0640, 4.473579
813.5461, 4.250572
814.0282, 3.748291
814.5103, 3.277832
814.9924, 2.990845
815.4745, 2.875267
815.9567, 2.657631
816.4388, 2.323296
816.9209, 2.033348
817.4030, 1.979599
817.8851, 2.007545
818.3672, 1.766144
818.8494, 1.296036
819.3315, 0.9594570
819.8136, 1.081627
820.2957, 1.280144
820.7778, 1.344490
821.2599, 1.259628
821.7421, 1.177017
822.2242, 1.131447
822.7063, 1.018082
823.1884, 0.7245100
823.6705, 0.3228680
824.1526, 0.2332690
824.6348, 0.4390340
825.1169, 0.6453930
825.5990, 0.6800770
826.0811, 0.6109850
826.5632, 0.4572300
827.0453, 0.2426530
827.5275, 0.1037450
828.0096, 0.1519850
828.4917, 0.2122960
828.9738, 0.2087170
829.4559, 0.1558380
829.9380, 0.2059100
830.4202, 0.4115520
830.9023, 0.4377900
831.3844, 2.9640000E-02
831.8665, 0.6743930
832.3486, 0.6608280
832.8307, 0.1302570
833.3129, 0.2787700
833.7950, 9.3796000E-02
834.2771, 0.1922070
834.7592, 0.3196110
835.2413, 0.3047410
835.7234, 0.2510450
836.2056, 0.1664580
836.6877, 4.2686000E-02
837.1698, 0.1803360
837.6519, 0.4108890
838.1340, 0.2518540
838.6161, 0.2654110
839.0983, 0.5421680
839.5804, 0.1330720
840.0625, 0.4230650
840.5446, 0.4831240
841.0267, 0.1872480
841.5089, 0.1213990
841.9910, 0.4616700
842.4731, 0.6306610
842.9552, 0.4457400
843.4373, 8.6266004E-02
843.9194, 6.1744999E-02
844.4016, 6.4315997E-02
844.8837, 8.4853999E-02
845.3658, 0.1655650
845.8479, 0.4278260
846.3300, 7.3692001E-02
846.8121, 0.6506810
847.2943, 1.026688
847.7764, 0.5245130
848.2585, 3.8757000E-02
848.7406, 0.2281720
849.2227, 0.7278210
849.7048, 0.9636990
850.1870, 0.7576140
850.6691, 0.4871370
851.1512, 0.1221390
851.6333, 0.2200700
852.1154, 0.3237990
852.5975, 0.2147290
853.0797, 0.1646730
853.5618, 0.2415390
854.0439, 0.3284680
854.5260, 0.2781910
855.0081, 0.1757050
855.4902, 0.1321950
855.9724, 0.1672060
856.4545, 0.3062740
856.9366, 0.6983800
857.4187, 1.062927
857.9008, 1.111496
858.3829, 0.7616960
858.8651, 0.6513060
859.3472, 0.8609540
859.8293, 1.118263
860.3114, 1.025055
860.7935, 0.8262020
861.2756, 1.021278
861.7578, 1.714836
862.2399, 2.305389
862.7220, 2.402359
863.2041, 2.300835
863.6862, 2.246811
864.1683, 2.312988
864.6505, 2.322205
865.1326, 2.235092
865.6147, 2.207336
866.0968, 2.377419
866.5789, 2.641212
867.0610, 2.669106
867.5432, 2.505707
868.0253, 2.504524
868.5074, 3.074654
868.9895, 3.724121
869.4716, 4.033127
869.9537, 3.978111
870.4359, 4.054520
870.9180, 4.457687
871.4001, 4.835251
871.8822, 5.006599
872.3643, 5.028877
872.8464, 5.257088
873.3286, 5.659683
873.8107, 6.003151
874.2928, 6.200981
874.7749, 6.294472
875.2570, 6.163475
875.7391, 5.913170
876.2213, 5.911049
876.7034, 6.688835
877.1855, 7.275810
877.6676, 7.272278
878.1497, 6.957207
878.6318, 7.135651
879.1140, 7.876984
879.5961, 8.485321
880.0782, 8.739998
880.5603, 8.871567
881.0424, 9.200058
881.5245, 9.658287
882.0067, 10.09792
882.4888, 10.38048
882.9709, 10.73534
883.4530, 11.45300
883.9351, 12.22105
884.4172, 12.55923
884.8994, 12.20737
885.3815, 12.22974
885.8636, 12.75676
886.3457, 13.56982
886.8278, 14.55717
887.3099, 15.58932
887.7921, 16.34989
888.2742, 16.75546
888.7563, 17.09775
889.2384, 17.50742
889.7205, 17.92818
890.2026, 18.36281
890.6848, 18.84447
891.1669, 19.25688
891.6490, 19.55524
892.1311, 19.86042
892.6132, 20.37495
893.0953, 20.98536
893.5775, 21.13719
894.0596, 20.84628
894.5417, 20.53062
895.0238, 20.39507
895.5059, 20.39358
895.9880, 20.69173
896.4702, 21.21886
896.9523, 21.04628
897.4344, 19.86634
897.9165, 18.56887
898.3986, 17.40086
898.8807, 16.36560
899.3629, 15.55695
899.8450, 14.94228
900.3271, 14.41282
900.8092, 14.10484
901.2913, 13.70268
901.7734, 12.64105
902.2556, 11.28040
902.7377, 10.41046
903.2198, 10.91979
903.7019, 11.01779
904.1840, 10.38095
904.6661, 9.317383
905.1483, 8.343239
905.6304, 7.510857
906.1125, 6.959053
906.5946, 6.729370
907.0767, 6.466072
907.5588, 5.752457
908.0410, 4.890793
908.5231, 4.224487
909.0052, 3.895073
909.4873, 3.606102
909.9694, 3.311478
910.4515, 3.001938
910.9337, 2.651962
911.4158, 2.261536
911.8979, 2.051903
912.3800, 2.030708
912.8621, 1.969780
913.3442, 1.598076
913.8264, 1.148735
914.3085, 0.8968120
914.7906, 0.8572920
915.2727, 0.8565900
915.7548, 0.9397050
916.2369, 0.9257740
916.7191, 0.7506790
917.2012, 0.4416280
917.6833, 5.9859999E-02
918.1654, 0.4054790
918.6475, 0.7936020
919.1296, 1.057449
919.6118, 1.146927
920.0939, 0.8244630
920.5760, 0.3026730
921.0581, 7.5142004E-02
921.5402, 0.5351640
922.0223, 1.030724
922.5045, 1.580376
922.9866, 2.002037
923.4687, 1.909431
923.9508, 1.243797
924.4329, 0.8930130
924.9150, 1.053307
925.3972, 1.354729
925.8793, 1.445229
926.3614, 1.373825
926.8435, 1.175629
927.3256, 0.7812960
927.8077, 0.6026610
928.2899, 0.9595870
928.7720, 1.397652
929.2541, 1.702690
929.7362, 1.879959
930.2183, 1.738960
930.7004, 1.251160
931.1826, 0.8169400
931.6647, 0.8431700
932.1468, 1.022530
932.6289, 0.8924940
933.1110, 0.5108490
933.5931, 0.2992020
934.0753, 0.6947400
934.5574, 0.9236150
935.0395, 0.6548690
935.5216, 8.0092996E-02
936.0037, 0.1478650
936.4858, 2.8076001E-02
936.9680, 0.1984860
937.4501, 0.4905400
937.9322, 0.7904820
938.4143, 1.105377
938.8964, 1.359039
939.3785, 1.402725
939.8607, 0.8971480
940.3428, 0.6871720
940.8249, 1.200218
941.3070, 1.779732
941.7891, 1.758125
942.2712, 1.111046
942.7534, 0.5034410
943.2355, 4.7791000E-02
943.7176, 0.4121480
944.1997, 0.3340680
944.6818, 0.1085590
945.1639, 8.1734002E-02
945.6461, 0.2891850
946.1282, 0.4520420
946.6103, 0.3865200
947.0924, 0.4124530
947.5745, 0.6468430
948.0566, 1.069130
948.5388, 1.630608
949.0209, 2.319679
949.5030, 2.892166
949.9851, 3.120888
950.4672, 3.310799
950.9493, 3.774620
951.4315, 4.417351
951.9136, 5.044777
952.3957, 5.674606
952.8778, 6.173645
953.3599, 6.439659
953.8420, 6.682411
954.3242, 7.131790
954.8063, 7.794167
955.2884, 8.868858
955.7705, 10.43861
956.2526, 11.92645
956.7347, 12.65001
957.2169, 13.18613
957.6990, 14.02726
958.1811, 15.25833
958.6632, 16.86613
959.1453, 19.16777
959.6274, 21.21343
960.1096, 22.28767
960.5917, 22.73950
961.0738, 24.07607
961.5559, 26.20538
962.0380, 28.49388
962.5201, 30.56511
963.0023, 32.74504
963.4844, 35.36919
963.9665, 38.27045
964.4486, 40.95174
964.9307, 43.31276
965.4128, 45.70154
965.8950, 48.12668
966.3771, 50.64333
966.8592, 53.31877
967.3413, 56.16685
967.8234, 59.28915
968.3055, 62.66164
968.7877, 66.39711
969.2698, 70.65585
969.7519, 75.18927
970.2340, 79.70360
970.7161, 84.14272
971.1982, 89.42900
971.6804, 95.69807
972.1625, 102.3210
972.6446, 108.8845
973.1267, 115.6459
973.6088, 123.1334
974.0909, 131.2856
974.5731, 139.8448
975.0552, 148.5613
975.5373, 157.9305
976.0194, 168.4547
976.5015, 179.6362
976.9836, 190.5948
977.4658, 201.1513
977.9479, 212.5961
978.4300, 225.2632
978.9121, 238.1332
979.3942, 250.4389
979.8763, 262.1952
980.3585, 273.7277
980.8406, 285.3524
981.3227, 295.1848
981.8048, 303.1494
982.2869, 309.3512
982.7690, 313.9138
983.2511, 316.7799
983.7332, 317.4524
984.2153, 315.9473
984.6974, 312.4361
985.1796, 306.7874
985.6617, 299.3841
986.1438, 289.2614
986.6259, 277.5935
987.1080, 267.9490
987.5901, 260.9648
988.0723, 255.0932
988.5544, 249.9818
989.0365, 246.2980
989.5186, 244.8626
990.0007, 245.7106
990.4828, 248.9500
990.9650, 254.6017
991.4471, 262.7004
991.9292, 274.0152
992.4113, 287.1999
992.8934, 301.4054
993.3755, 316.5164
993.8577, 333.0145
994.3398, 350.6499
994.8219, 370.2217
995.3040, 391.7682
995.7861, 415.7344
996.2682, 443.3009
996.7504, 474.1566
997.2325, 508.1201
997.7146, 543.9490
998.1967, 584.6094
998.6788, 631.1472
999.1609, 682.4456
999.6431, 737.5791
1000.125, 795.7054
1000.607, 858.7321
1001.089, 926.8027
1001.572, 995.5564
1002.054, 1066.421
1002.536, 1132.042
1003.018, 1188.763
1003.500, 1235.757
1003.982, 1261.089
1004.464, 1264.463
1004.946, 1247.235
1005.428, 1208.262
1005.911, 1150.016
1006.393, 1077.455
1006.875, 992.0159
1007.357, 904.5662
1007.839, 813.0463
1008.321, 727.0555
1008.803, 649.6286
1009.285, 580.9401
1009.768, 519.7884
1010.250, 466.0930
1010.732, 418.3219
1011.214, 377.1625
1011.696, 340.7050
1012.178, 308.1538
1012.660, 279.4962
1013.142, 254.8282
1013.624, 234.1720
1014.107, 215.3163
1014.589, 198.1435
1015.071, 182.3106
1015.553, 167.7581
1016.035, 154.5925
1016.517, 143.4253
1016.999, 134.1788
1017.481, 125.6035
1017.964, 117.3582
1018.446, 109.6212
1018.928, 102.4202
1019.410, 95.76651
1019.892, 89.70848
1020.374, 84.33838
1020.856, 79.30063
1021.338, 74.55765
1021.820, 70.22917
1022.303, 66.45366
1022.785, 63.18784
1023.267, 60.50110
1023.749, 58.31561
1024.231, 56.19832
1024.713, 53.82988
1025.195, 51.61050
1025.677, 49.70517
1026.160, 48.05295
1026.642, 46.56966
1027.124, 45.27213
1027.606, 43.73097
1028.088, 41.74219
1028.570, 40.02759
1029.052, 39.41725
1029.534, 39.44376
1030.016, 39.67444
1030.499, 40.14009
1030.981, 40.15581
1031.463, 39.24001
1031.945, 38.79158
1032.427, 39.72908
1032.909, 41.56619
1033.391, 42.72441
1033.873, 43.29097
1034.355, 43.67902
1034.838, 43.87653
1035.320, 44.27512
1035.802, 45.05011
1036.284, 46.11925
1036.766, 47.40190
1037.248, 48.95802
1037.730, 50.48624
1038.212, 51.98448
1038.695, 53.37068
1039.177, 54.65271
1039.659, 55.68349
1040.141, 56.15724
1040.623, 56.09546
1041.105, 56.07434
1041.587, 56.34901
1042.069, 56.45470
1042.552, 56.40297
1043.034, 55.99054
1043.516, 54.64764
1043.998, 52.47839
1044.480, 49.95901
1044.962, 47.06360
1045.444, 44.18625
1045.926, 41.73083
1046.408, 39.26581
1046.891, 36.37753
1047.373, 32.97047
1047.855, 29.87917
1048.337, 27.12396
1048.819, 24.61208
1049.301, 22.30785
1049.783, 20.19128
1050.265, 18.22528
1050.747, 16.41577
1051.230, 14.75600
1051.712, 12.97668
1052.194, 11.79611
1052.676, 11.43980
1053.158, 11.42169
1053.640, 11.07561
1054.122, 10.53749
1054.604, 10.35870
1055.087, 10.59763
1055.569, 11.00143
1056.051, 11.40822
1056.533, 11.94621
1057.015, 12.63971
1057.497, 13.51782
1057.979, 14.78021
1058.461, 16.43655
1058.943, 18.39111
1059.426, 20.68047
1059.908, 23.11290
1060.390, 25.51292
1060.872, 27.92503
1061.354, 30.37558
1061.836, 32.67749
1062.318, 35.50914
1062.800, 38.86031
1063.282, 42.79831
1063.765, 47.67183
1064.247, 53.15915
1064.729, 57.95364
1065.211, 62.27351
1065.693, 66.95192
1066.175, 72.37823
1066.657, 78.26894
1067.139, 84.59467
1067.622, 91.39465
1068.104, 98.91815
1068.586, 107.1296
1069.068, 115.3737
1069.550, 123.6567
1070.032, 131.4000
1070.514, 138.1575
1070.996, 144.1163
1071.479, 150.1069
1071.961, 155.8793
1072.443, 158.2857
1072.925, 156.9467
1073.407, 153.3400
1073.889, 147.7576
1074.371, 140.2669
1074.853, 129.9591
1075.335, 117.9204
1075.818, 105.8643
1076.300, 94.15077
1076.782, 83.00674
1077.264, 72.43954
1077.746, 62.61681
1078.228, 53.81921
1078.710, 46.02711
1079.192, 39.11674
1079.674, 33.12297
1080.157, 28.08913
1080.639, 24.20496
1081.121, 21.01212
1081.603, 18.70807
1082.085, 16.76288
1082.567, 14.35591
1083.049, 11.30830
1083.531, 8.584732
1084.013, 6.168655
1084.496, 4.392487
1084.978, 3.981110
1085.460, 4.061127
1085.942, 3.629410
1086.424, 2.714447
1086.906, 1.893051
1087.388, 1.273712
1087.870, 0.7199710
1088.353, 0.2283780
1088.835, 0.2509460
1089.317, 0.8205410
1089.799, 1.431396
1090.281, 2.010040
1090.763, 2.572083
1091.245, 2.861343
1091.727, 2.378998
1092.209, 2.024139
1092.692, 2.364716
1093.174, 3.177643
1093.656, 3.202759
1094.138, 2.537827
1094.620, 2.027130
1095.102, 2.016434
1095.584, 2.235275
1096.066, 2.668213
1096.548, 3.122467
1097.031, 3.384232
1097.513, 3.432755
1097.995, 3.369080
1098.477, 3.192215
1098.959, 2.902802
1099.441, 2.361389
1099.923, 1.811142
1100.405, 1.562210
1100.888, 1.528198
1101.370, 1.492035
1101.852, 1.455917
1102.334, 1.357147
1102.816, 1.169235
1103.298, 0.9447020
1103.780, 0.7879640
1104.262, 0.6319120
1104.745, 0.2888950
1105.227, 0.2437740
1105.709, 0.7244570
1106.191, 0.9350890
1106.673, 1.223114
1107.155, 1.733948
1107.637, 2.371384
1108.119, 2.813934
1108.601, 3.139114
1109.083, 3.847382
1109.566, 5.112686
1110.048, 6.471893
1110.530, 7.433594
1111.012, 8.538788
1111.494, 10.31245
1111.976, 12.69243
1112.458, 14.67307
1112.940, 16.23726
1113.423, 18.10442
1113.905, 20.70633
1114.387, 23.57300
1114.869, 26.08894
1115.351, 28.58502
1115.833, 31.49680
1116.315, 34.99210
1116.797, 38.51712
1117.280, 41.99385
1117.762, 45.90059
1118.244, 50.69090
1118.726, 56.05212
1119.208, 61.48883
1119.690, 67.16032
1120.172, 73.59418
1120.654, 81.13538
1121.136, 89.33528
1121.619, 98.39291
1122.101, 107.6236
1122.583, 116.9696
1123.065, 125.7877
1123.547, 132.2213
1124.029, 136.1381
1124.511, 137.6115
1124.993, 137.1522
1125.475, 133.3919
1125.958, 125.3756
1126.440, 114.6077
1126.922, 103.5509
1127.404, 92.33189
1127.886, 81.82709
1128.368, 72.11028
1128.850, 63.88275
1129.332, 58.11995
1129.815, 53.65515
1130.297, 49.59174
1130.779, 45.93576
1131.261, 43.09315
1131.743, 41.05716
1132.225, 40.05511
1132.707, 40.40001
1133.189, 41.16801
1133.672, 41.36871
1134.154, 41.52780
1134.636, 42.27246
1135.118, 43.72107
1135.600, 45.38124
1136.082, 47.28889
1136.564, 49.29066
1137.046, 51.57114
1137.528, 53.64871
1138.010, 54.82227
1138.493, 55.29025
1138.975, 55.40144
1139.457, 55.23032
1139.939, 54.72896
1140.421, 54.03885
1140.903, 52.67130
1141.385, 50.01353
1141.867, 46.46370
1142.350, 42.62897
1142.832, 38.63889
1143.314, 34.78751
1143.796, 31.05318
1144.278, 27.74734
1144.760, 24.96033
1145.242, 22.51682
1145.724, 20.26131
1146.207, 18.21162
1146.689, 16.34798
1147.171, 14.67688
1147.653, 13.27769
1148.135, 12.45679
1148.617, 11.67279
1149.099, 10.77991
1149.581, 9.820511
1150.063, 8.686188
1150.546, 7.394684
1151.028, 6.332214
1151.510, 5.642731
1151.992, 5.064301
1152.474, 4.356247
1152.956, 3.681320
1153.438, 3.087204
1153.920, 2.599884
1154.402, 2.524017
1154.885, 2.855042
1155.367, 2.901398
1155.849, 2.402969
1156.331, 1.816788
1156.813, 1.560410
1157.295, 1.401855
1157.777, 1.034714
1158.259, 0.4401090
1158.742, 0.2243650
1159.224, 0.4166260
1159.706, 0.5651400
1160.188, 0.4193570
1160.670, 0.2872310
1161.152, 0.6546780
1161.634, 1.148880
1162.116, 1.223190
1162.599, 0.6716920
1163.081, 0.3721010
1163.563, 0.2906490
1164.045, 0.5469360
1164.527, 1.581787
1165.009, 2.683258
1165.491, 2.717651
1165.973, 2.153900
1166.455, 1.936447
1166.938, 2.569687
1167.420, 2.876068
1167.902, 2.741440
1168.384, 2.631653
1168.866, 3.002380
1169.348, 3.614029
1169.830, 4.085648
1170.312, 4.446411
1170.794, 4.821381
1171.277, 5.266632
1171.759, 5.690018
1172.241, 6.053833
1172.723, 6.442383
1173.205, 6.947525
1173.687, 7.559082
1174.169, 8.346191
1174.651, 9.274017
1175.134, 10.07715
1175.616, 10.58516
1176.098, 11.06366
1176.580, 11.51717
1177.062, 12.03568
1177.544, 12.78023
1178.026, 13.68629
1178.508, 14.69235
1178.990, 15.77879
1179.473, 16.63530
1179.955, 16.72588
1180.437, 17.14247
1180.919, 18.25774
1181.401, 19.74797
1181.883, 21.30963
1182.365, 22.80411
1182.847, 23.72267
1183.329, 23.95111
1183.812, 23.44176
1184.294, 21.34079
1184.776, 19.57556
1185.258, 19.04085
1185.740, 19.20653
1186.222, 18.55377
1186.704, 17.23280
1187.186, 15.83325
1187.669, 14.41992
1188.151, 13.27931
1188.633, 12.71552
1189.115, 12.21355
1189.597, 11.50902
1190.079, 10.69720
1190.561, 10.12589
1191.043, 9.739029
1191.526, 9.256821
1192.008, 8.489792
1192.490, 7.761612
1192.972, 7.311401
1193.454, 6.922455
1193.936, 6.455780
1194.418, 5.912994
1194.900, 5.316635
1195.382, 4.679825
1195.865, 4.028366
1196.347, 3.276520
1196.829, 2.665802
1197.311, 2.238220
1197.793, 2.084915
1198.275, 2.411880
1198.757, 3.196274
1199.239, 3.390320
1199.721, 3.038651
1200.204, 2.549606
1200.686, 1.860001
1201.168, 1.416031
1201.650, 1.746994
1202.132, 2.220871
1202.614, 2.095139
1203.096, 1.376404
1203.578, 0.9693760
1204.061, 0.8778990
1204.543, 0.8950350
1205.025, 0.8890840
1205.507, 0.9649350
1205.989, 1.240952
1206.471, 1.598389
1206.953, 1.928009
1207.435, 2.229202
1207.917, 2.156143
1208.400, 1.712692
1208.882, 1.381180
1209.364, 1.719513
1209.846, 2.007309
1210.328, 1.748596
1210.810, 1.225311
1211.292, 0.8175510
1211.774, 0.5247040
1212.256, 0.3193660
1212.739, 0.1897130
1213.221, 0.1405640
1213.703, 0.2782590
1214.185, 0.3942410
1214.667, 0.3283230
1215.149, 0.1788020
1215.631, 8.3572000E-02
1216.113, 3.9138999E-02
1216.596, 0.2083440
1217.078, 0.6334380
1217.560, 0.9299470
1218.042, 0.6574100
1218.524, 0.3712160
1219.006, 0.4612880
1219.488, 0.7307130
1219.970, 0.6711880
1220.453, 0.3289490
1220.935, 0.3161010
1221.417, 0.7549740
1221.899, 1.108994
1222.381, 0.9224240
1222.863, 0.6556090
1223.345, 0.5761260
1223.827, 0.6100160
1224.309, 0.5163120
1224.792, 0.3249510
1225.274, 0.3176120
1225.756, 0.5740810
1226.238, 0.7601780
1226.720, 0.5298460
1227.202, 0.3254700
1227.684, 0.4444270
1228.166, 0.7308350
1228.648, 0.5553280
1229.131, 7.3501997E-02
1229.613, 0.1464690
1230.095, 1.095947
1230.577, 1.789093
1231.059, 1.254776
1231.541, 0.6485440
1232.023, 0.5532230
1232.505, 0.8446040
1232.988, 1.272202
1233.470, 1.738632
1233.952, 1.756058
1234.434, 1.087753
1234.916, 0.4944310
1235.398, 0.4135590
1235.880, 0.4417420
1236.362, 0.4281770
1236.844, 0.3616640
1237.327, 0.1256870
1237.809, 0.1988370
1238.291, 0.3006440
1238.773, 5.2640000E-03
1239.255, 0.1581880
1239.737, 0.3007810
1240.219, 0.6330110
1240.701, 0.4074550
1241.183, 9.8846003E-02
1241.666, 8.7280003E-03
1242.148, 0.5107120
1242.630, 0.7973630
1243.112, 0.7047270
1243.594, 0.3521580
1244.076, 0.5968480
1244.558, 1.159973
1245.040, 0.6541440
1245.523, 0.3832700
1246.005, 0.5734860
1246.487, 0.2177890
1246.969, 3.0289000E-02
1247.451, 0.2792970
1247.933, 0.5012050
1248.415, 0.7264400
1248.897, 0.7022710
1249.380, 0.2017520
1249.862, 0.4753110
1250.344, 0.6587220
1250.826, 0.5415800
1251.308, 0.4965210
1251.790, 0.6994930
1252.272, 0.7213900
1252.754, 0.4792330
1253.236, 0.2757720
1253.719, 0.3097990
1254.201, 0.4504700
1254.683, 0.4585110
1255.165, 0.4351810
1255.647, 0.5821380
1256.129, 1.102692
1256.611, 1.253006
1257.093, 0.9550020
1257.575, 0.6668240
1258.058, 0.6479640
1258.540, 0.7721100
1259.022, 0.9888760
1259.504, 1.197815
1259.986, 1.221054
1260.468, 0.9861450
1260.950, 0.9182430
1261.432, 1.034256
1261.915, 1.186569
1262.397, 1.295853
1262.879, 1.370880
1263.361, 1.375671
1263.843, 1.372238
1264.325, 1.464462
1264.807, 1.676239
1265.289, 1.699844
1265.771, 1.537811
1266.254, 1.445663
1266.736, 1.574326
1267.218, 1.774338
1267.700, 2.157669
1268.182, 2.380310
1268.664, 1.959686
1269.146, 0.9048000
1269.628, 0.6158290
1270.110, 1.000900
1270.593, 1.335098
1271.075, 1.083099
1271.557, 0.9662930
1272.039, 1.538666
1272.521, 2.112686
1273.003, 2.118256
1273.485, 1.575714
1273.967, 1.451920
1274.450, 1.407578
1274.932, 1.329575
1275.414, 1.079987
1275.896, 0.9561000
1276.378, 1.216949
1276.860, 1.501617
1277.342, 1.202805
1277.824, 0.6644590
1278.307, 0.5803990
1278.789, 0.7245940
1279.271, 0.9077300
1279.753, 1.052063
1280.235, 1.225143
1280.717, 1.490463
1281.199, 1.634827
1281.681, 1.356552
1282.163, 0.9423370
1282.646, 0.9907230
1283.128, 1.338654
1283.610, 1.644760
1284.092, 1.968460
1284.574, 1.944427
1285.056, 1.525635
1285.538, 0.9908140
1286.020, 0.3345640
1286.502, 0.1717070
1286.984, 9.9914998E-02
1287.467, 0.2696990
1287.949, 0.4553220
1288.431, 0.4461210
1288.913, 0.6233520
1289.395, 1.029800
1289.877, 1.246552
1290.359, 0.8897710
1290.841, 0.4752810
1291.324, 0.2550660
1291.806, 0.2664790
1292.288, 0.5705720
1292.770, 1.168060
1293.252, 1.384644
1293.734, 1.251938
1294.216, 1.040665
1294.698, 0.7584380
1295.181, 0.6139070
1295.663, 0.8774870
1296.145, 1.123505
1296.627, 0.8050380
1297.109, 0.4457550
1297.591, 0.6051030
1298.073, 1.080078
1298.555, 1.223419
1299.037, 0.5307310
1299.520, 5.3589001E-02
1300.002, 7.7072002E-02
1300.484, 1.0040000E-02
1300.966, 0.2875670
1301.448, 0.6652980
1301.930, 1.033188
1302.412, 1.342148
1302.894, 1.504471
1303.376, 1.376846
1303.859, 1.301788
1304.341, 1.216644
1304.823, 1.005981
1305.305, 0.5906220
1305.787, 0.0000000E+00
##END=



