##NAMES=Vergasovaite
##RRUFFID=R061141
##IDEAL CHEMISTRY=Cu_3_O(MoO_4_)(SO_4_)
##LOCALITY=Tolbachik Volcano, Kamchatka, Russia
##OWNER=RRUFF
##SOURCE=Michael Scott
##DESCRIPTION=Dark green prismatic, co-type material, associated with apple green euchlorine
##STATUS=The identification of this mineral is confirmed by single-crystal X-ray diffraction and chemical analysis.
##URL=rruff.info/R061141
##MEASURED CHEMISTRY=(Cu_2.97_Zn_0.03_)_Σ=3_O(Mo_0.98_S_0.02_)_Σ=1_O_4_(S_1.00_O_4_); trace amounts of Fe
131.8679, 0.0000000E+00
132.3500, 5.493164
132.8322, 1.961914
133.3143, 48.04785
133.7964, 110.0449
134.2785, 180.7422
134.7606, 257.0068
135.2427, 332.8457
135.7249, 402.3062
136.2070, 490.4292
136.6891, 617.6348
137.1712, 794.0132
137.6533, 956.6519
138.1354, 1108.374
138.6176, 1242.724
139.0997, 1329.563
139.5818, 1339.703
140.0639, 1352.691
140.5460, 1431.380
141.0281, 1605.638
141.5103, 1777.511
141.9924, 1929.988
142.4745, 2064.499
142.9566, 2189.402
143.4387, 2259.407
143.9208, 2302.792
144.4030, 2355.590
144.8851, 2418.101
145.3672, 2488.387
145.8493, 2571.110
146.3314, 2684.978
146.8135, 2761.117
147.2957, 2761.273
147.7778, 2729.705
148.2599, 2752.729
148.7420, 2905.666
149.2241, 3053.479
149.7062, 3148.367
150.1883, 3157.084
150.6705, 3162.965
151.1526, 3154.437
151.6347, 3142.793
152.1168, 3118.735
152.5989, 3085.059
153.0810, 3037.118
153.5632, 2967.264
154.0453, 2885.492
154.5274, 2772.688
155.0095, 2608.137
155.4916, 2392.775
155.9737, 2194.264
156.4559, 2045.959
156.9380, 1914.698
157.4201, 1769.451
157.9022, 1579.681
158.3843, 1392.074
158.8664, 1223.339
159.3486, 1076.958
159.8307, 946.3833
160.3128, 835.0542
160.7949, 737.1973
161.2770, 643.0752
161.7591, 553.3164
162.2413, 463.3330
162.7234, 365.7725
163.2055, 246.8726
163.6876, 147.3662
164.1697, 102.0249
164.6518, 97.03418
165.1339, 88.28857
165.6161, 42.02002
166.0982, 14.70947
166.5803, 54.71777
167.0624, 58.01123
167.5445, 54.13770
168.0266, 72.56689
168.5088, 110.1001
168.9909, 132.2021
169.4730, 98.04297
169.9551, 36.79688
170.4372, 7.890625
170.9193, 4.573242
171.4015, 16.00830
171.8836, 21.51709
172.3657, 10.38037
172.8478, 1.665527
173.3299, 4.562012
173.8120, 21.47119
174.2942, 30.36279
174.7763, 21.11377
175.2584, 1.393066
175.7405, 33.24121
176.2226, 77.61719
176.7047, 119.6821
177.1869, 138.4292
177.6690, 138.2549
178.1511, 139.8960
178.6332, 161.0811
179.1153, 193.4517
179.5974, 217.7773
180.0796, 229.5483
180.5617, 234.3281
181.0438, 238.5654
181.5259, 242.5483
182.0080, 248.8130
182.4901, 254.4658
182.9722, 262.7202
183.4544, 287.9116
183.9365, 344.7271
184.4186, 414.6484
184.9007, 451.7778
185.3828, 453.4409
185.8649, 449.0879
186.3471, 472.3989
186.8292, 519.2793
187.3113, 557.3525
187.7934, 566.5957
188.2755, 556.2114
188.7576, 571.6533
189.2398, 618.8911
189.7219, 662.1880
190.2040, 665.5132
190.6861, 629.1538
191.1682, 597.3960
191.6503, 595.2773
192.1325, 619.9082
192.6146, 626.6606
193.0967, 605.7612
193.5788, 583.6553
194.0609, 626.0518
194.5430, 742.6382
195.0252, 835.7827
195.5073, 838.8462
195.9894, 749.1621
196.4715, 671.2881
196.9536, 612.9458
197.4357, 571.0308
197.9178, 539.8872
198.4000, 521.0986
198.8821, 505.5151
199.3642, 486.2378
199.8463, 462.0015
200.3284, 440.5713
200.8105, 422.4360
201.2927, 407.6440
201.7748, 400.6660
202.2569, 406.7339
202.7390, 407.7051
203.2211, 384.3545
203.7032, 333.4316
204.1854, 281.0317
204.6675, 232.0117
205.1496, 185.8247
205.6317, 150.3794
206.1138, 129.2603
206.5959, 113.4839
207.0781, 90.57666
207.5602, 54.93262
208.0423, 29.90479
208.5244, 22.76709
209.0065, 34.27930
209.4886, 52.77051
209.9708, 84.46582
210.4529, 117.0625
210.9350, 128.5679
211.4171, 109.1650
211.8992, 93.15088
212.3813, 93.23877
212.8635, 110.5693
213.3456, 126.8555
213.8277, 138.7031
214.3098, 152.3921
214.7919, 183.0674
215.2740, 240.4751
215.7561, 296.5669
216.2383, 334.8394
216.7204, 339.9883
217.2025, 365.6733
217.6846, 421.0640
218.1667, 498.0361
218.6488, 569.6338
219.1310, 635.4209
219.6131, 696.1924
220.0952, 751.4658
220.5773, 796.0059
221.0594, 845.4478
221.5415, 899.3008
222.0237, 957.9707
222.5058, 1024.333
222.9879, 1102.077
223.4700, 1183.374
223.9521, 1263.881
224.4342, 1342.851
224.9164, 1422.023
225.3985, 1502.027
225.8806, 1581.196
226.3627, 1656.344
226.8448, 1726.829
227.3270, 1795.191
227.8091, 1862.230
228.2912, 1927.996
228.7733, 1987.993
229.2554, 2040.077
229.7375, 2084.194
230.2197, 2135.629
230.7018, 2203.270
231.1839, 2270.047
231.6660, 2314.984
232.1481, 2320.591
232.6302, 2337.196
233.1123, 2380.676
233.5945, 2456.253
234.0766, 2517.671
234.5587, 2566.772
235.0408, 2599.801
235.5229, 2608.672
236.0050, 2576.125
236.4872, 2548.467
236.9693, 2544.800
237.4514, 2578.084
237.9335, 2579.226
238.4156, 2537.372
238.8977, 2469.557
239.3799, 2403.472
239.8620, 2341.280
240.3441, 2277.136
240.8262, 2209.747
241.3083, 2138.182
241.7904, 2064.359
242.2726, 1983.572
242.7547, 1902.518
243.2368, 1838.601
243.7189, 1810.737
244.2010, 1771.075
244.6831, 1695.541
245.1653, 1559.510
245.6474, 1449.883
246.1295, 1380.926
246.6116, 1334.860
247.0937, 1259.978
247.5758, 1131.390
248.0579, 1010.597
248.5401, 929.7124
249.0222, 916.3721
249.5043, 877.9253
249.9864, 799.9819
250.4685, 695.3198
250.9506, 611.3403
251.4328, 551.6255
251.9149, 506.0010
252.3970, 471.9600
252.8791, 460.0869
253.3612, 434.2451
253.8433, 387.0034
254.3255, 324.0630
254.8076, 267.2637
255.2897, 215.7207
255.7718, 171.6182
256.2539, 136.4463
256.7360, 112.3184
257.2181, 91.54004
257.7003, 74.13818
258.1824, 59.25439
258.6645, 40.95312
259.1466, 12.94336
259.6287, 8.814453
260.1108, 9.159180
260.5930, 23.99902
261.0751, 42.32715
261.5572, 33.38281
262.0393, 2.211914
262.5214, 9.374512
263.0035, 8.171875
263.4857, 28.19482
263.9678, 26.29883
264.4499, 6.036621
264.9320, 31.29053
265.4141, 41.80811
265.8962, 39.20215
266.3784, 34.35205
266.8605, 24.42822
267.3426, 17.51123
267.8247, 22.30762
268.3068, 41.50244
268.7889, 61.57129
269.2711, 83.68457
269.7532, 105.5947
270.2353, 102.6021
270.7174, 66.21094
271.1995, 23.14209
271.6816, 0.5161130
272.1638, 2.334961
272.6459, 2.536133
273.1280, 16.01270
273.6101, 35.15283
274.0922, 30.93066
274.5743, 3.830078
275.0565, 43.02344
275.5386, 58.61426
276.0207, 48.36621
276.5028, 32.96191
276.9849, 15.62354
277.4670, 2.726563
277.9492, 18.18848
278.4313, 30.99512
278.9134, 39.78613
279.3955, 41.16748
279.8776, 34.67383
280.3597, 29.71826
280.8419, 28.33643
281.3240, 30.59326
281.8061, 38.75732
282.2882, 54.44482
282.7703, 69.28564
283.2524, 73.88525
283.7346, 68.36865
284.2167, 58.55176
284.6988, 46.06201
285.1809, 30.66016
285.6630, 11.13232
286.1451, 13.00049
286.6273, 38.78857
287.1094, 60.47900
287.5915, 79.10791
288.0736, 104.8721
288.5557, 141.4263
289.0378, 187.7212
289.5199, 242.2729
290.0020, 305.8135
290.4842, 372.6758
290.9663, 443.5200
291.4484, 514.7852
291.9305, 571.3647
292.4126, 602.9951
292.8947, 617.0791
293.3769, 631.0703
293.8590, 645.1631
294.3411, 656.8174
294.8232, 654.6626
295.3053, 645.9473
295.7874, 654.6172
296.2696, 701.6404
296.7517, 768.1238
297.2338, 812.9351
297.7159, 835.5427
298.1980, 866.9912
298.6801, 940.5312
299.1623, 1045.618
299.6444, 1155.522
300.1265, 1259.062
300.6086, 1362.498
301.0907, 1476.078
301.5728, 1597.935
302.0550, 1727.279
302.5371, 1871.142
303.0192, 2020.432
303.5013, 2156.210
303.9834, 2257.946
304.4655, 2350.931
304.9477, 2459.491
305.4298, 2583.541
305.9119, 2708.765
306.3940, 2821.136
306.8761, 2929.777
307.3582, 3045.702
307.8404, 3166.377
308.3225, 3301.107
308.8046, 3461.308
309.2867, 3644.219
309.7688, 3830.633
310.2509, 4002.313
310.7331, 4171.715
311.2152, 4352.212
311.6973, 4557.495
312.1794, 4769.636
312.6615, 4983.308
313.1436, 5198.705
313.6258, 5405.572
314.1079, 5625.060
314.5900, 5826.566
315.0721, 5982.466
315.5542, 6093.685
316.0363, 6149.382
316.5185, 6139.210
317.0006, 6064.457
317.4827, 5950.199
317.9648, 5809.213
318.4469, 5632.879
318.9290, 5412.027
319.4112, 5091.105
319.8933, 4779.116
320.3754, 4501.322
320.8575, 4258.007
321.3396, 4030.970
321.8217, 3813.382
322.3038, 3612.817
322.7859, 3435.746
323.2681, 3285.638
323.7502, 3158.021
324.2323, 3056.066
324.7144, 2978.476
325.1965, 2916.831
325.6786, 2885.998
326.1608, 2859.162
326.6429, 2822.268
327.1250, 2748.868
327.6071, 2700.017
328.0892, 2686.324
328.5714, 2704.630
329.0535, 2728.948
329.5356, 2758.839
330.0177, 2791.390
330.4998, 2826.506
330.9819, 2867.995
331.4641, 2901.854
331.9462, 2922.750
332.4283, 2939.130
332.9104, 2973.548
333.3925, 3029.220
333.8746, 3093.284
334.3568, 3161.478
334.8389, 3235.332
335.3210, 3305.544
335.8031, 3374.933
336.2852, 3438.658
336.7673, 3481.278
337.2495, 3494.273
337.7316, 3516.382
338.2137, 3579.274
338.6958, 3689.806
339.1779, 3749.874
339.6600, 3740.274
340.1422, 3700.993
340.6243, 3713.021
341.1064, 3782.326
341.5885, 3844.960
342.0706, 3857.260
342.5527, 3827.775
343.0349, 3830.919
343.5170, 3872.825
343.9991, 3935.694
344.4812, 3994.723
344.9633, 4050.437
345.4454, 4114.782
345.9276, 4203.762
346.4097, 4305.276
346.8918, 4379.716
347.3739, 4423.470
347.8560, 4465.686
348.3381, 4543.521
348.8203, 4648.091
349.3024, 4748.719
349.7845, 4825.915
350.2666, 4893.367
350.7487, 4966.865
351.2308, 5046.321
351.7130, 5140.142
352.1951, 5271.908
352.6772, 5421.334
353.1593, 5554.296
353.6414, 5628.231
354.1235, 5701.918
354.6056, 5836.960
355.0877, 6028.207
355.5699, 6211.155
356.0520, 6347.826
356.5341, 6452.075
357.0162, 6539.459
357.4983, 6608.675
357.9804, 6670.083
358.4626, 6734.705
358.9447, 6798.571
359.4268, 6838.261
359.9089, 6833.029
360.3910, 6808.466
360.8731, 6783.215
361.3553, 6772.417
361.8374, 6745.582
362.3195, 6691.108
362.8016, 6613.390
363.2837, 6528.154
363.7658, 6426.425
364.2480, 6328.172
364.7301, 6241.866
365.2122, 6156.991
365.6943, 6100.810
366.1764, 6102.437
366.6585, 6133.100
367.1407, 6123.229
367.6228, 6042.076
368.1049, 5951.250
368.5870, 5867.660
369.0691, 5784.592
369.5512, 5728.212
370.0334, 5718.793
370.5155, 5725.873
370.9976, 5699.917
371.4797, 5631.383
371.9618, 5547.800
372.4439, 5454.666
372.9261, 5350.387
373.4082, 5249.407
373.8903, 5157.930
374.3724, 5060.425
374.8545, 4936.208
375.3366, 4779.762
375.8188, 4621.553
376.3009, 4465.309
376.7830, 4313.551
377.2651, 4177.993
377.7472, 4063.405
378.2293, 3947.267
378.7115, 3800.340
379.1936, 3627.068
379.6757, 3460.160
380.1578, 3308.344
380.6399, 3169.701
381.1220, 3038.255
381.6042, 2914.582
382.0863, 2798.014
382.5684, 2687.800
383.0505, 2583.786
383.5326, 2490.456
384.0147, 2414.326
384.4969, 2339.345
384.9790, 2236.996
385.4611, 2117.390
385.9432, 2013.877
386.4253, 1962.309
386.9074, 1932.540
387.3895, 1888.656
387.8716, 1820.113
388.3538, 1753.325
388.8359, 1713.529
389.3180, 1688.290
389.8001, 1653.799
390.2822, 1581.940
390.7643, 1510.182
391.2465, 1465.303
391.7286, 1455.013
392.2107, 1438.897
392.6928, 1396.459
393.1749, 1341.601
393.6570, 1292.065
394.1392, 1270.164
394.6213, 1235.928
395.1034, 1167.921
395.5855, 1061.897
396.0676, 978.9045
396.5497, 944.7507
397.0319, 924.0608
397.5140, 887.5657
397.9961, 813.9404
398.4782, 753.5181
398.9603, 719.2795
399.4424, 705.9749
399.9246, 674.0999
400.4067, 612.9578
400.8888, 547.3323
401.3709, 491.8403
401.8530, 450.6509
402.3351, 408.3154
402.8173, 363.2341
403.2994, 316.8997
403.7815, 272.9104
404.2636, 231.1250
404.7457, 191.6792
405.2278, 151.1409
405.7100, 110.0103
406.1921, 85.12427
406.6742, 80.23950
407.1563, 82.60938
407.6384, 76.15674
408.1205, 61.03516
408.6027, 38.83813
409.0848, 3.030273
409.5669, 38.51147
410.0490, 60.68774
410.5311, 62.57251
411.0132, 63.42554
411.4954, 84.28711
411.9775, 117.2070
412.4596, 146.1265
412.9417, 170.8342
413.4238, 184.4158
413.9059, 172.6926
414.3881, 139.8723
414.8702, 112.3750
415.3523, 113.9268
415.8344, 125.2656
416.3165, 127.2749
416.7986, 108.7551
417.2808, 91.65161
417.7629, 91.74609
418.2450, 101.8247
418.7271, 103.8779
419.2092, 87.40234
419.6913, 65.11597
420.1734, 42.08667
420.6555, 16.88062
421.1377, 3.939697
421.6198, 17.13599
422.1019, 26.01318
422.5840, 35.20020
423.0661, 41.56421
423.5482, 52.16284
424.0304, 68.79321
424.5125, 91.98389
424.9946, 117.6987
425.4767, 145.4688
425.9588, 176.1113
426.4409, 211.0798
426.9231, 253.3179
427.4052, 291.3267
427.8873, 323.7078
428.3694, 350.7166
428.8515, 373.0139
429.3336, 389.4971
429.8158, 405.5830
430.2979, 421.5862
430.7800, 438.1011
431.2621, 469.6213
431.7442, 521.7974
432.2263, 579.8718
432.7085, 619.2463
433.1906, 641.5623
433.6727, 659.6873
434.1548, 679.0959
434.6369, 699.2866
435.1190, 722.6372
435.6012, 750.2681
436.0833, 769.1743
436.5654, 758.6841
437.0475, 732.4590
437.5296, 714.9441
438.0117, 741.9341
438.4939, 760.3928
438.9760, 725.2234
439.4581, 642.0264
439.9402, 554.5923
440.4223, 477.9407
440.9044, 409.2051
441.3866, 347.3909
441.8687, 296.6091
442.3508, 245.2383
442.8329, 182.6750
443.3150, 116.8384
443.7971, 69.46582
444.2793, 57.38379
444.7614, 52.50952
445.2435, 44.70996
445.7256, 31.72729
446.2077, 22.05615
446.6898, 15.61450
447.1720, 12.50171
447.6541, 12.61523
448.1362, 15.46729
448.6183, 22.79761
449.1004, 36.62134
449.5826, 56.16479
450.0647, 70.84814
450.5468, 78.54712
451.0289, 87.70459
451.5110, 109.1963
451.9931, 143.2329
452.4753, 164.0149
452.9574, 161.7134
453.4395, 153.0852
453.9216, 175.5339
454.4037, 226.8340
454.8858, 278.3911
455.3679, 312.9604
455.8500, 336.3008
456.3322, 359.7844
456.8143, 383.9717
457.2964, 409.9666
457.7785, 439.5181
458.2606, 471.4414
458.7427, 504.0173
459.2249, 539.8159
459.7070, 573.2251
460.1891, 597.3535
460.6712, 612.9724
461.1533, 631.9114
461.6354, 658.0774
462.1176, 690.4402
462.5997, 728.4133
463.0818, 783.1541
463.5639, 828.5764
464.0460, 856.5193
464.5281, 871.1936
465.0103, 885.5916
465.4924, 895.6355
465.9745, 910.1216
466.4566, 934.1541
466.9387, 973.4385
467.4208, 996.6038
467.9030, 1001.423
468.3851, 996.0239
468.8672, 988.7808
469.3493, 978.8083
469.8314, 964.3198
470.3135, 945.9336
470.7957, 923.5081
471.2778, 894.2776
471.7599, 859.3557
472.2420, 825.1282
472.7241, 794.8940
473.2062, 766.9268
473.6884, 740.3850
474.1705, 716.8240
474.6526, 694.2051
475.1347, 662.2798
475.6168, 624.3669
476.0989, 596.7041
476.5811, 603.0337
477.0632, 618.5925
477.5453, 609.9426
478.0274, 573.8508
478.5095, 543.4297
478.9916, 547.1355
479.4738, 563.8853
479.9559, 570.2942
480.4380, 544.4492
480.9201, 521.5881
481.4022, 512.5737
481.8843, 516.5217
482.3665, 528.9978
482.8486, 559.5205
483.3307, 590.4016
483.8128, 612.3972
484.2949, 620.3320
484.7770, 629.5237
485.2592, 635.0864
485.7413, 644.3640
486.2234, 670.7019
486.7055, 722.4089
487.1876, 771.4731
487.6697, 807.4629
488.1518, 832.1738
488.6339, 873.0430
489.1161, 933.7034
489.5982, 995.9287
490.0803, 1043.145
490.5624, 1077.007
491.0445, 1111.317
491.5266, 1147.701
492.0088, 1187.364
492.4909, 1232.462
492.9730, 1282.522
493.4551, 1339.030
493.9372, 1406.584
494.4193, 1478.932
494.9015, 1545.450
495.3836, 1605.295
495.8657, 1669.475
496.3478, 1747.172
496.8299, 1833.059
497.3120, 1923.073
497.7942, 2020.997
498.2763, 2116.258
498.7584, 2207.063
499.2405, 2292.821
499.7226, 2372.557
500.2047, 2429.742
500.6869, 2494.670
501.1690, 2584.675
501.6511, 2720.618
502.1332, 2836.371
502.6153, 2920.939
503.0974, 2992.162
503.5796, 3078.176
504.0617, 3184.820
504.5438, 3289.398
505.0259, 3384.290
505.5080, 3471.334
505.9901, 3561.102
506.4723, 3653.467
506.9544, 3752.066
507.4365, 3864.067
507.9186, 3983.560
508.4007, 4087.154
508.8828, 4167.622
509.3650, 4246.167
509.8471, 4350.444
510.3292, 4473.523
510.8113, 4595.113
511.2934, 4709.192
511.7755, 4814.169
512.2576, 4911.253
512.7397, 4999.363
513.2219, 5069.221
513.7040, 5096.914
514.1861, 5112.435
514.6682, 5143.439
515.1503, 5217.111
515.6324, 5284.667
516.1146, 5335.672
516.5967, 5372.542
517.0788, 5404.760
517.5609, 5428.044
518.0430, 5452.779
518.5251, 5487.003
519.0073, 5537.377
519.4894, 5558.994
519.9715, 5540.306
520.4536, 5507.173
520.9357, 5491.749
521.4178, 5498.194
521.9000, 5491.074
522.3821, 5462.336
522.8642, 5416.741
523.3463, 5366.403
523.8284, 5310.784
524.3105, 5247.362
524.7927, 5179.086
525.2748, 5101.639
525.7569, 5002.569
526.2390, 4878.658
526.7211, 4748.917
527.2032, 4627.308
527.6854, 4509.189
528.1675, 4387.357
528.6496, 4259.813
529.1317, 4126.413
529.6138, 3987.311
530.0959, 3842.656
530.5781, 3686.194
531.0602, 3499.004
531.5423, 3314.387
532.0244, 3152.978
532.5065, 3032.593
532.9886, 2894.737
533.4708, 2722.049
533.9529, 2542.079
534.4350, 2389.405
534.9171, 2267.809
535.3992, 2160.788
535.8813, 2069.991
536.3635, 1989.840
536.8456, 1883.738
537.3277, 1746.601
537.8098, 1617.668
538.2919, 1531.715
538.7740, 1477.031
539.2562, 1411.312
539.7383, 1328.939
540.2204, 1243.118
540.7025, 1164.164
541.1846, 1090.829
541.6667, 1019.680
542.1489, 940.1436
542.6310, 869.6150
543.1131, 826.8782
543.5952, 807.6851
544.0773, 787.0222
544.5594, 759.9309
545.0416, 724.5547
545.5237, 677.7656
546.0058, 611.1113
546.4879, 551.0271
546.9700, 494.7656
547.4521, 448.0933
547.9343, 421.4890
548.4164, 429.7031
548.8985, 427.4783
549.3806, 400.9690
549.8627, 355.7205
550.3448, 327.1843
550.8270, 318.8042
551.3091, 311.3696
551.7912, 287.9241
552.2733, 252.4888
552.7554, 230.5659
553.2375, 226.0981
553.7197, 225.8191
554.2018, 215.6128
554.6839, 197.4497
555.1660, 176.3799
555.6481, 150.4904
556.1302, 125.9689
556.6124, 107.1501
557.0945, 93.92603
557.5766, 85.66504
558.0587, 86.66577
558.5408, 89.35522
559.0229, 89.95630
559.5051, 89.30762
559.9872, 82.79980
560.4693, 62.96765
560.9514, 40.04761
561.4335, 25.56848
561.9156, 25.33203
562.3978, 23.14099
562.8799, 16.91882
563.3620, 6.651245
563.8441, 11.46924
564.3262, 41.35413
564.8083, 61.46912
565.2905, 49.87280
565.7726, 14.13452
566.2547, 3.174927
566.7368, 21.32141
567.2189, 47.92761
567.7010, 63.22290
568.1831, 70.08240
568.6652, 74.79980
569.1473, 79.65173
569.6295, 82.60388
570.1116, 82.25757
570.5937, 78.70947
571.0758, 72.07495
571.5579, 56.23816
572.0400, 42.47473
572.5222, 37.95190
573.0043, 45.74780
573.4864, 50.44312
573.9685, 49.11951
574.4506, 45.22168
574.9327, 41.15137
575.4149, 36.12744
575.8970, 33.47839
576.3791, 36.22339
576.8612, 39.57336
577.3433, 28.66040
577.8254, 1.422974
578.3076, 20.57410
578.7897, 9.266235
579.2718, 35.74036
579.7539, 54.39087
580.2360, 65.63770
580.7181, 47.31824
581.2003, 67.17407
581.6824, 71.72778
582.1645, 75.65137
582.6466, 100.8735
583.1287, 86.84338
583.6108, 111.7220
584.0930, 121.0673
584.5751, 137.5167
585.0572, 138.5698
585.5393, 144.3741
586.0214, 165.5725
586.5035, 178.2419
586.9857, 177.5101
587.4678, 186.8853
587.9499, 205.3108
588.4320, 222.9064
588.9141, 240.4480
589.3962, 252.5707
589.8784, 257.2264
590.3605, 260.2609
590.8426, 270.2079
591.3247, 286.5085
591.8068, 303.8041
592.2889, 321.6809
592.7711, 338.4221
593.2532, 352.2745
593.7353, 362.8652
594.2174, 368.6971
594.6995, 362.4590
595.1816, 355.2129
595.6638, 360.7147
596.1459, 383.0972
596.6280, 393.7085
597.1101, 368.0586
597.5922, 332.5020
598.0743, 311.2660
598.5565, 316.5837
599.0386, 325.4250
599.5207, 341.8431
600.0028, 359.4116
600.4849, 360.5706
600.9670, 338.1890
601.4492, 319.4795
601.9313, 316.4142
602.4134, 326.1396
602.8955, 327.2795
603.3776, 319.4825
603.8597, 307.9629
604.3419, 287.8018
604.8240, 267.9811
605.3061, 271.5920
605.7882, 305.3619
606.2703, 350.2203
606.7524, 400.9128
607.2346, 448.7402
607.7167, 478.6538
608.1988, 465.9041
608.6809, 453.8757
609.1630, 456.5747
609.6451, 473.6875
610.1273, 502.1278
610.6094, 561.4451
611.0915, 611.9979
611.5736, 635.1581
612.0557, 623.1017
612.5378, 629.5681
613.0200, 658.5165
613.5021, 698.1575
613.9842, 738.1959
614.4663, 778.2847
614.9484, 816.0042
615.4305, 848.7415
615.9127, 884.2559
616.3948, 939.4191
616.8769, 1008.586
617.3590, 1073.822
617.8411, 1117.020
618.3232, 1158.364
618.8054, 1219.307
619.2875, 1297.795
619.7696, 1371.694
620.2517, 1434.968
620.7338, 1489.318
621.2159, 1533.293
621.6981, 1554.139
622.1802, 1593.024
622.6623, 1670.555
623.1444, 1754.804
623.6265, 1807.779
624.1086, 1819.148
624.5908, 1824.618
625.0729, 1825.710
625.5550, 1828.059
626.0371, 1847.908
626.5192, 1884.568
627.0013, 1921.124
627.4835, 1943.993
627.9656, 1962.754
628.4477, 1999.077
628.9298, 2052.614
629.4119, 2099.495
629.8940, 2107.891
630.3762, 2109.628
630.8583, 2134.804
631.3404, 2198.569
631.8225, 2264.908
632.3046, 2331.611
632.7867, 2392.007
633.2689, 2437.900
633.7510, 2476.617
634.2330, 2488.902
634.7151, 2466.572
635.1973, 2418.121
635.6794, 2370.629
636.1615, 2323.670
636.6436, 2274.631
637.1257, 2233.185
637.6078, 2190.897
638.0900, 2106.673
638.5721, 1979.025
639.0542, 1835.943
639.5363, 1685.870
640.0184, 1538.058
640.5005, 1407.283
640.9827, 1295.557
641.4648, 1198.857
641.9469, 1122.658
642.4290, 1056.011
642.9111, 981.9379
643.3932, 878.9805
643.8754, 790.9050
644.3575, 730.1631
644.8396, 689.4252
645.3217, 642.4478
645.8038, 584.6610
646.2859, 532.3552
646.7681, 495.3431
647.2502, 471.8026
647.7323, 449.3627
648.2144, 427.5956
648.6965, 403.6429
649.1786, 373.8278
649.6608, 341.8818
650.1429, 315.5448
650.6250, 295.7469
651.1071, 279.5579
651.5892, 263.0897
652.0714, 249.6395
652.5535, 244.4890
653.0356, 266.6178
653.5177, 278.8872
653.9998, 261.5352
654.4819, 223.9940
654.9641, 206.7618
655.4462, 226.1619
655.9283, 241.0530
656.4104, 231.5044
656.8925, 196.6259
657.3746, 173.5537
657.8568, 164.0341
658.3389, 160.7479
658.8210, 157.3705
659.3031, 154.1808
659.7852, 154.0183
660.2673, 157.6183
660.7495, 163.3342
661.2316, 174.6133
661.7137, 186.9923
662.1958, 192.9436
662.6779, 177.4083
663.1600, 162.9598
663.6422, 161.4347
664.1243, 169.3276
664.6064, 171.4634
665.0885, 159.9750
665.5706, 151.4421
666.0527, 152.3805
666.5349, 161.3041
667.0170, 159.9004
667.4991, 146.7241
667.9812, 133.4810
668.4633, 125.4397
668.9454, 122.0927
669.4276, 127.8501
669.9097, 145.0878
670.3918, 160.8308
670.8739, 159.8059
671.3560, 149.4385
671.8381, 140.4579
672.3203, 135.1138
672.8024, 134.8765
673.2845, 144.4000
673.7666, 157.5063
674.2487, 163.3427
674.7308, 153.0211
675.2130, 144.4055
675.6951, 142.2422
676.1772, 145.9797
676.6593, 148.8654
677.1414, 150.4150
677.6235, 149.4875
678.1057, 144.1984
678.5878, 136.1674
679.0699, 134.0957
679.5520, 138.4686
680.0341, 140.9293
680.5162, 126.3668
680.9984, 108.7742
681.4805, 107.6774
681.9626, 133.0962
682.4447, 155.1166
682.9268, 161.2990
683.4089, 155.5938
683.8911, 142.8505
684.3732, 112.1169
684.8553, 89.84131
685.3374, 79.43640
685.8195, 78.76599
686.3016, 83.69092
686.7838, 95.39709
687.2659, 106.3282
687.7480, 114.9849
688.2301, 119.9563
688.7122, 110.0907
689.1943, 87.22070
689.6765, 71.84021
690.1586, 90.09094
690.6407, 117.2051
691.1228, 121.7361
691.6049, 98.42126
692.0870, 79.62048
692.5692, 78.55945
693.0513, 88.53784
693.5334, 105.3579
694.0155, 148.5070
694.4976, 164.3384
694.9797, 137.8696
695.4619, 97.18909
695.9440, 82.89417
696.4261, 98.80347
696.9082, 110.8036
697.3903, 109.6156
697.8724, 101.4811
698.3546, 96.35168
698.8367, 94.60352
699.3188, 96.33997
699.8009, 106.8177
700.2830, 116.4238
700.7651, 104.2590
701.2472, 76.59985
701.7293, 80.19543
702.2114, 202.1086
702.6935, 302.2618
703.1757, 288.4971
703.6578, 127.7964
704.1399, 26.38708
704.6220, 0.2310790
705.1041, 9.021484
705.5862, 30.59290
706.0684, 65.72693
706.5505, 74.65930
707.0326, 48.80115
707.5147, 14.40063
707.9968, 0.8958740
708.4789, 3.348999
708.9611, 10.99219
709.4432, 24.04175
709.9253, 35.51855
710.4074, 40.19727
710.8895, 39.88684
711.3716, 38.64050
711.8538, 41.49622
712.3359, 38.71423
712.8180, 20.91907
713.3001, 6.375610
713.7822, 7.501221
714.2643, 28.79700
714.7465, 59.96484
715.2286, 60.04553
715.7107, 35.81067
716.1928, 28.24768
716.6749, 37.58606
717.1570, 49.82104
717.6392, 59.74158
718.1213, 63.07886
718.6034, 48.91846
719.0855, 10.87219
719.5676, 16.95752
720.0497, 7.356323
720.5319, 14.34814
721.0140, 23.65540
721.4961, 4.813110
721.9782, 7.931763
722.4603, 12.91284
722.9424, 12.46924
723.4246, 8.267212
723.9067, 0.5239260
724.3888, 3.491699
724.8709, 5.307007
725.3530, 17.11584
725.8351, 12.24158
726.3173, 5.174683
726.7994, 17.61414
727.2815, 11.91541
727.7636, 1.666382
728.2457, 2.439941
728.7278, 1.410034
729.2100, 3.965942
729.6921, 19.65564
730.1742, 32.71399
730.6563, 36.11853
731.1384, 29.03259
731.6205, 20.10059
732.1027, 7.218140
732.5848, 1.877930
733.0669, 2.544678
733.5490, 17.82971
734.0311, 24.05823
734.5132, 18.98010
734.9954, 11.36499
735.4775, 8.898071
735.9596, 9.608643
736.4417, 11.35229
736.9238, 16.77319
737.4059, 16.67468
737.8881, 0.7569580
738.3702, 23.22473
738.8523, 32.08313
739.3344, 17.45215
739.8165, 5.896484
740.2986, 1.681152
740.7808, 1.878906
741.2629, 0.2006840
741.7450, 4.640137
742.2271, 10.36938
742.7092, 18.01196
743.1913, 25.79248
743.6735, 32.64087
744.1556, 37.52979
744.6377, 35.95898
745.1198, 15.67029
745.6019, 3.842529
746.0840, 9.201050
746.5662, 0.4718020
747.0483, 11.38013
747.5304, 24.49512
748.0125, 35.02649
748.4946, 40.71606
748.9767, 41.45056
749.4589, 39.68311
749.9410, 34.89514
750.4231, 30.28540
750.9052, 28.45837
751.3873, 29.25293
751.8694, 33.01367
752.3516, 40.44897
752.8337, 48.32385
753.3158, 58.22754
753.7979, 65.26538
754.2800, 62.96753
754.7621, 36.92200
755.2443, 20.37439
755.7264, 25.64600
756.2085, 40.26465
756.6906, 48.12610
757.1727, 48.33130
757.6548, 44.14185
758.1370, 35.36401
758.6191, 23.77710
759.1012, 13.70532
759.5833, 4.343994
760.0654, 8.064331
760.5475, 27.07104
761.0297, 46.20447
761.5118, 57.56885
761.9939, 61.95679
762.4760, 68.78003
762.9581, 91.20337
763.4402, 111.1799
763.9224, 119.0017
764.4045, 114.8928
764.8866, 112.2224
765.3687, 108.8623
765.8508, 109.9753
766.3329, 120.0398
766.8150, 138.5193
767.2971, 158.5608
767.7792, 179.9402
768.2614, 207.2751
768.7435, 250.9917
769.2256, 298.9121
769.7077, 335.2041
770.1898, 355.5618
770.6719, 376.5476
771.1541, 406.0728
771.6362, 437.9675
772.1183, 467.4805
772.6004, 487.1816
773.0825, 515.2737
773.5646, 550.0603
774.0468, 595.1963
774.5289, 662.6897
775.0110, 749.1912
775.4931, 820.4697
775.9752, 867.4673
776.4573, 905.5105
776.9395, 949.2546
777.4216, 996.5010
777.9037, 1046.472
778.3858, 1089.165
778.8679, 1145.432
779.3500, 1229.305
779.8322, 1329.579
780.3143, 1419.359
780.7964, 1498.348
781.2785, 1569.263
781.7606, 1629.209
782.2427, 1685.122
782.7249, 1758.204
783.2070, 1847.238
783.6891, 1936.927
784.1712, 2013.586
784.6533, 2088.996
785.1354, 2183.252
785.6176, 2288.888
786.0997, 2379.753
786.5818, 2436.518
787.0639, 2482.059
787.5460, 2521.178
788.0281, 2554.156
788.5103, 2599.669
788.9924, 2665.253
789.4745, 2728.171
789.9566, 2777.951
790.4387, 2814.743
790.9208, 2834.303
791.4030, 2836.132
791.8851, 2830.736
792.3672, 2833.529
792.8493, 2830.677
793.3314, 2801.345
793.8135, 2740.134
794.2957, 2680.657
794.7778, 2642.801
795.2599, 2605.095
795.7420, 2553.021
796.2241, 2478.927
796.7062, 2411.458
797.1884, 2352.069
797.6705, 2296.642
798.1526, 2245.339
798.6347, 2195.526
799.1168, 2133.016
799.5989, 2054.826
800.0811, 1972.236
800.5632, 1895.484
801.0453, 1819.850
801.5274, 1737.588
802.0095, 1632.508
802.4916, 1545.511
802.9738, 1492.923
803.4559, 1460.283
803.9380, 1433.582
804.4201, 1416.024
804.9022, 1389.740
805.3843, 1345.557
805.8665, 1304.015
806.3486, 1310.485
806.8307, 1351.462
807.3128, 1375.817
807.7949, 1354.529
808.2770, 1328.432
808.7592, 1324.992
809.2413, 1339.674
809.7234, 1363.556
810.2055, 1393.144
810.6876, 1434.384
811.1697, 1491.603
811.6519, 1558.710
812.1340, 1617.875
812.6161, 1668.811
813.0982, 1720.854
813.5803, 1774.049
814.0624, 1832.623
814.5446, 1903.627
815.0267, 1986.731
815.5088, 2078.304
815.9909, 2182.234
816.4730, 2288.848
816.9551, 2385.895
817.4373, 2477.827
817.9194, 2597.797
818.4015, 2754.113
818.8836, 2925.921
819.3657, 3115.045
819.8478, 3314.656
820.3300, 3486.755
820.8121, 3631.465
821.2942, 3791.171
821.7763, 3993.702
822.2584, 4226.253
822.7405, 4484.430
823.2227, 4766.792
823.7048, 5052.276
824.1869, 5329.567
824.6690, 5612.109
825.1511, 5909.585
825.6332, 6220.806
826.1154, 6543.059
826.5975, 6866.859
827.0796, 7222.693
827.5617, 7637.794
828.0438, 8098.822
828.5259, 8550.320
829.0081, 8988.323
829.4902, 9422.913
829.9723, 9841.301
830.4544, 10260.14
830.9365, 10699.78
831.4186, 11161.98
831.9007, 11626.50
832.3828, 12104.95
832.8649, 12576.16
833.3470, 13029.40
833.8292, 13463.37
834.3113, 13892.91
834.7934, 14322.25
835.2755, 14735.63
835.7576, 15115.25
836.2397, 15469.32
836.7219, 15816.01
837.2040, 16161.09
837.6861, 16454.54
838.1682, 16661.99
838.6503, 16811.36
839.1324, 16929.45
839.6146, 17034.15
840.0967, 17055.63
840.5788, 16990.74
841.0609, 16846.05
841.5430, 16621.10
842.0251, 16319.23
842.5073, 15980.35
842.9894, 15609.67
843.4715, 15185.30
843.9536, 14666.36
844.4357, 14089.24
844.9178, 13504.84
845.4000, 12920.36
845.8821, 12324.56
846.3642, 11697.78
846.8463, 11068.07
847.3284, 10450.69
847.8105, 9842.622
848.2927, 9286.823
848.7748, 8788.136
849.2569, 8325.144
849.7390, 7859.743
850.2211, 7404.713
850.7032, 7000.701
851.1854, 6654.535
851.6675, 6349.259
852.1496, 6079.642
852.6317, 5843.502
853.1138, 5632.354
853.5959, 5447.004
854.0781, 5279.857
854.5602, 5135.338
855.0423, 5009.844
855.5244, 4897.829
856.0065, 4800.657
856.4886, 4725.004
856.9708, 4673.708
857.4529, 4638.050
857.9350, 4612.739
858.4171, 4596.163
858.8992, 4584.391
859.3813, 4569.156
859.8635, 4574.745
860.3456, 4619.233
860.8277, 4679.163
861.3098, 4735.852
861.7919, 4789.083
862.2740, 4836.621
862.7562, 4876.535
863.2383, 4917.552
863.7204, 4986.427
864.2025, 5062.278
864.6846, 5102.270
865.1667, 5093.241
865.6489, 5056.895
866.1310, 4992.762
866.6131, 4913.162
867.0952, 4833.170
867.5773, 4774.535
868.0594, 4670.905
868.5416, 4511.591
869.0237, 4324.152
869.5058, 4140.824
869.9879, 3960.256
870.4700, 3774.590
870.9521, 3578.979
871.4343, 3383.881
871.9164, 3192.131
872.3985, 3005.753
872.8806, 2828.163
873.3627, 2662.467
873.8448, 2497.749
874.3270, 2335.281
874.8091, 2170.574
875.2912, 1991.079
875.7733, 1796.183
876.2554, 1633.604
876.7375, 1509.272
877.2197, 1410.914
877.7018, 1344.322
878.1839, 1288.273
878.6660, 1206.341
879.1481, 1079.994
879.6302, 964.5098
880.1124, 883.9866
880.5945, 819.5608
881.0766, 755.1523
881.5587, 690.3655
882.0408, 626.3904
882.5229, 562.1892
883.0051, 502.0667
883.4872, 448.4473
883.9693, 403.2534
884.4514, 377.1121
884.9335, 376.2153
885.4156, 365.2971
885.8978, 308.3948
886.3799, 240.7361
886.8620, 195.5496
887.3441, 185.3923
887.8262, 167.8108
888.3083, 139.2153
888.7905, 110.1628
889.2726, 90.53809
889.7547, 79.05493
890.2368, 72.87256
890.7189, 72.69995
891.2010, 65.02466
891.6832, 28.49268
892.1653, 13.56812
892.6474, 38.54688
893.1295, 37.20605
893.6116, 42.45947
894.0938, 61.05005
894.5759, 80.67188
895.0580, 92.56299
895.5401, 96.90112
896.0222, 108.4966
896.5043, 128.0115
896.9865, 142.5996
897.4685, 139.6550
897.9506, 127.1274
898.4327, 109.9453
898.9149, 87.77759
899.3970, 76.46802
899.8791, 91.96948
900.3612, 108.2329
900.8433, 111.9531
901.3254, 102.8472
901.8076, 103.5525
902.2897, 114.7424
902.7718, 127.5103
903.2539, 140.9724
903.7360, 149.3364
904.2181, 138.9368
904.7003, 111.5669
905.1824, 90.99097
905.6645, 97.02075
906.1466, 102.9827
906.6287, 95.35278
907.1108, 75.57568
907.5930, 61.08569
908.0751, 52.10425
908.5572, 47.33569
909.0393, 48.56836
909.5214, 52.40869
910.0035, 56.22192
910.4857, 57.73779
910.9678, 46.83838
911.4499, 2.018555
911.9320, 40.09814
912.4141, 57.18701
912.8962, 55.93115
913.3784, 67.35742
913.8605, 93.39502
914.3426, 125.8916
914.8247, 163.1213
915.3068, 204.3074
915.7889, 249.6487
916.2711, 297.5730
916.7532, 340.9976
917.2353, 370.1428
917.7174, 401.2380
918.1995, 442.5935
918.6816, 491.8467
919.1638, 541.7729
919.6459, 588.3767
920.1280, 645.5854
920.6101, 718.0667
921.0922, 798.1755
921.5743, 873.8994
922.0565, 946.2146
922.5386, 1018.414
923.0207, 1089.182
923.5028, 1163.195
923.9849, 1239.630
924.4670, 1322.532
924.9492, 1418.826
925.4313, 1532.255
925.9134, 1653.490
926.3955, 1782.609
926.8776, 1916.019
927.3597, 2041.479
927.8419, 2165.165
928.3240, 2317.058
928.8061, 2504.328
929.2882, 2708.162
929.7703, 2917.506
930.2524, 3131.761
930.7346, 3348.292
931.2167, 3551.629
931.6988, 3788.833
932.1809, 4051.494
932.6630, 4355.214
933.1451, 4733.855
933.6273, 5170.035
934.1094, 5536.479
934.5915, 5822.238
935.0736, 6131.372
935.5557, 6532.575
936.0378, 6989.640
936.5200, 7469.494
937.0021, 7966.055
937.4842, 8500.216
937.9663, 9058.453
938.4484, 9668.872
938.9305, 10351.41
939.4127, 11105.61
939.8948, 11920.62
940.3769, 12804.06
940.8590, 13735.09
941.3411, 14664.18
941.8232, 15668.99
942.3054, 16829.43
942.7875, 18142.97
943.2696, 19446.39
943.7517, 20713.13
944.2338, 22009.24
944.7159, 23365.69
945.1981, 24751.71
945.6802, 26095.76
946.1623, 27403.07
946.6444, 28740.15
947.1265, 30157.85
947.6086, 31574.29
948.0908, 32920.77
948.5729, 34223.29
949.0550, 35538.73
949.5371, 36886.53
950.0192, 38229.03
950.5013, 39585.27
950.9835, 40903.27
951.4656, 42125.02
951.9477, 43250.81
952.4298, 44303.81
952.9119, 45321.97
953.3940, 46170.36
953.8762, 46805.13
954.3583, 47176.00
954.8404, 47219.06
955.3225, 46906.33
955.8046, 46334.14
956.2867, 45500.22
956.7689, 44410.79
957.2510, 43018.35
957.7331, 41356.62
958.2152, 39555.31
958.6973, 37632.00
959.1794, 35659.68
959.6616, 33645.41
960.1437, 31627.42
960.6258, 29642.79
961.1079, 27677.69
961.5900, 25792.51
962.0721, 24013.43
962.5543, 22339.68
963.0364, 20779.99
963.5184, 19333.27
964.0005, 17946.38
964.4827, 16637.00
964.9648, 15430.99
965.4469, 14396.67
965.9290, 13435.82
966.4111, 12494.78
966.8932, 11583.84
967.3754, 10711.60
967.8575, 9874.182
968.3396, 9111.481
968.8217, 8435.362
969.3038, 7829.006
969.7859, 7252.889
970.2681, 6714.176
970.7502, 6224.166
971.2323, 5800.661
971.7144, 5416.608
972.1965, 5068.279
972.6786, 4748.820
973.1608, 4446.706
973.6429, 4160.826
974.1250, 3897.338
974.6071, 3657.356
975.0892, 3440.103
975.5714, 3257.020
976.0535, 3096.102
976.5356, 2937.235
977.0177, 2775.717
977.4998, 2623.730
977.9819, 2478.604
978.4641, 2352.239
978.9462, 2254.834
979.4283, 2187.035
979.9104, 2110.441
980.3925, 2024.213
980.8746, 1953.744
981.3568, 1923.769
981.8389, 1910.929
982.3210, 1885.873
982.8031, 1852.012
983.2852, 1833.790
983.7673, 1840.558
984.2495, 1858.958
984.7316, 1885.538
985.2137, 1922.444
985.6958, 1979.402
986.1779, 2054.176
986.6600, 2123.326
987.1422, 2171.915
987.6243, 2222.852
988.1064, 2288.173
988.5885, 2370.052
989.0706, 2473.858
989.5527, 2621.443
990.0349, 2759.080
990.5170, 2874.995
990.9991, 2997.757
991.4812, 3169.313
991.9633, 3381.125
992.4454, 3582.534
992.9276, 3766.015
993.4097, 3968.905
993.8918, 4228.927
994.3739, 4509.963
994.8560, 4784.209
995.3381, 5048.978
995.8203, 5328.132
996.3024, 5620.006
996.7845, 5942.178
997.2666, 6316.616
997.7487, 6722.774
998.2308, 7116.665
998.7130, 7497.171
999.1951, 7867.194
999.6772, 8206.658
1000.159, 8557.861
1000.641, 8947.348
1001.124, 9357.720
1001.606, 9755.292
1002.088, 10135.29
1002.570, 10525.67
1003.052, 10944.38
1003.534, 11345.71
1004.016, 11657.39
1004.498, 11914.16
1004.980, 12177.90
1005.463, 12499.58
1005.945, 12758.80
1006.427, 12930.64
1006.909, 13048.45
1007.391, 13157.98
1007.873, 13253.05
1008.355, 13244.29
1008.837, 13125.92
1009.320, 12919.40
1009.802, 12629.38
1010.284, 12266.34
1010.766, 11832.83
1011.248, 11325.16
1011.730, 10810.36
1012.212, 10300.46
1012.694, 9765.856
1013.176, 9191.720
1013.659, 8592.587
1014.141, 7993.812
1014.623, 7405.162
1015.105, 6844.546
1015.587, 6305.580
1016.069, 5806.151
1016.551, 5363.167
1017.033, 4962.081
1017.516, 4577.646
1017.998, 4207.133
1018.480, 3860.724
1018.962, 3536.833
1019.444, 3239.623
1019.926, 2987.698
1020.408, 2759.640
1020.890, 2519.969
1021.372, 2254.615
1021.855, 2016.244
1022.337, 1816.917
1022.819, 1645.041
1023.301, 1506.266
1023.783, 1395.496
1024.265, 1243.189
1024.747, 1053.741
1025.229, 914.8774
1025.711, 958.6926
1026.194, 1001.914
1026.676, 863.7822
1027.158, 602.2751
1027.640, 443.9985
1028.122, 452.9692
1028.604, 440.5308
1029.086, 364.3198
1029.568, 262.8745
1030.051, 195.4436
1030.533, 153.7544
1031.015, 115.7190
1031.497, 75.40674
1031.979, 39.12817
1032.461, 9.089111
1032.943, 15.55078
1033.425, 36.39795
1033.907, 53.51538
1034.390, 66.63086
1034.872, 75.64844
1035.354, 84.51807
1035.836, 100.1782
1036.318, 114.9626
1036.800, 116.5767
1037.282, 107.3318
1037.764, 106.3745
1038.246, 126.9180
1038.729, 141.1025
1039.211, 140.1008
1039.693, 130.9026
1040.175, 133.0381
1040.657, 142.1128
1041.139, 139.2676
1041.621, 112.8335
1042.103, 86.21338
1042.586, 73.72095
1043.068, 67.97388
1043.550, 60.34814
1044.032, 49.08887
1044.514, 43.37085
1044.996, 45.15381
1045.478, 42.30225
1045.960, 20.32422
1046.443, 10.78564
1046.925, 37.02368
1047.407, 57.89600
1047.889, 78.04077
1048.371, 96.27881
1048.853, 117.2720
1049.335, 142.0706
1049.817, 170.6953
1050.299, 208.1445
1050.781, 251.7539
1051.264, 280.5188
1051.746, 277.9478
1052.228, 278.0559
1052.710, 307.7607
1053.192, 353.2290
1053.674, 397.3904
1054.156, 440.9490
1054.638, 476.6445
1055.121, 502.4568
1055.603, 528.0134
1056.085, 558.2993
1056.567, 595.9260
1057.049, 648.4275
1057.531, 715.1123
1058.013, 782.3582
1058.495, 849.1641
1058.978, 911.1003
1059.460, 965.2004
1059.942, 1014.757
1060.424, 1066.188
1060.906, 1121.243
1061.388, 1189.629
1061.870, 1281.528
1062.352, 1377.477
1062.834, 1460.598
1063.317, 1539.255
1063.799, 1620.014
1064.281, 1700.760
1064.763, 1789.807
1065.245, 1889.125
1065.727, 1990.434
1066.209, 2086.506
1066.691, 2178.310
1067.173, 2261.297
1067.656, 2338.446
1068.138, 2433.446
1068.620, 2582.638
1069.102, 2716.634
1069.584, 2804.467
1070.066, 2868.309
1070.548, 2980.642
1071.030, 3133.838
1071.512, 3267.422
1071.995, 3359.537
1072.477, 3437.425
1072.959, 3512.723
1073.441, 3588.504
1073.923, 3668.402
1074.405, 3754.006
1074.887, 3844.930
1075.369, 3943.870
1075.852, 4032.876
1076.334, 4094.440
1076.816, 4139.609
1077.298, 4187.847
1077.780, 4237.451
1078.262, 4269.657
1078.744, 4262.288
1079.226, 4258.177
1079.708, 4270.444
1080.191, 4287.208
1080.673, 4284.449
1081.155, 4263.204
1081.637, 4228.812
1082.119, 4183.006
1082.601, 4123.587
1083.083, 4038.521
1083.565, 3946.745
1084.047, 3866.931
1084.530, 3801.133
1085.012, 3722.900
1085.494, 3631.913
1085.976, 3528.146
1086.458, 3402.210
1086.940, 3270.134
1087.422, 3150.089
1087.904, 3039.499
1088.387, 2930.613
1088.869, 2828.708
1089.351, 2711.476
1089.833, 2569.865
1090.315, 2422.967
1090.797, 2299.698
1091.279, 2193.670
1091.761, 2088.903
1092.244, 1983.020
1092.726, 1880.655
1093.208, 1785.302
1093.690, 1690.973
1094.172, 1592.910
1094.654, 1492.857
1095.136, 1407.013
1095.618, 1334.608
1096.100, 1261.086
1096.583, 1173.904
1097.065, 1088.771
1097.547, 1017.388
1098.029, 956.8171
1098.511, 902.7869
1098.993, 856.1515
1099.475, 816.6311
1099.957, 786.4397
1100.439, 753.9431
1100.922, 703.3823
1101.404, 644.8833
1101.886, 596.4086
1102.368, 559.1010
1102.850, 515.2057
1103.332, 444.8076
1103.814, 393.6470
1104.296, 383.1865
1104.779, 396.6033
1105.261, 392.5950
1105.743, 373.7988
1106.225, 350.6558
1106.707, 325.7887
1107.189, 298.6079
1107.671, 264.0165
1108.153, 229.7209
1108.635, 200.9280
1109.118, 177.0647
1109.600, 170.1089
1110.082, 180.8582
1110.564, 187.9275
1111.046, 175.9098
1111.528, 153.0862
1112.010, 116.1354
1112.492, 73.04932
1112.974, 59.51587
1113.457, 90.11609
1113.939, 109.4980
1114.421, 105.7892
1114.903, 89.58728
1115.385, 68.91504
1115.867, 48.60193
1116.349, 38.71069
1116.831, 44.85242
1117.314, 42.64502
1117.796, 14.76184
1118.278, 2.489136
1118.760, 18.80457
1119.242, 62.75452
1119.724, 59.69348
1120.206, 19.95312
1120.688, 10.86206
1121.171, 2.054565
1121.653, 9.864258
1122.135, 11.90552
1122.617, 8.672729
1123.099, 3.656494
1123.581, 3.313965
1124.063, 2.765625
1124.545, 6.537354
1125.027, 14.07507
1125.510, 12.24805
1125.992, 4.297485
1126.474, 12.58118
1126.956, 35.81921
1127.438, 40.10168
1127.920, 19.58850
1128.402, 6.726563
1128.884, 12.98059
1129.366, 26.50159
1129.849, 36.77307
1130.331, 41.53162
1130.813, 35.33960
1131.295, 8.254883
1131.777, 4.284546
1132.259, 4.927490
1132.741, 17.19824
1133.223, 21.55603
1133.705, 19.58923
1134.188, 13.84790
1134.670, 5.456909
1135.152, 1.156006
1135.634, 1.706543
1136.116, 3.415039
1136.598, 10.38464
1137.080, 16.88477
1137.562, 11.52466
1138.045, 2.853516
1138.527, 7.394409
1139.009, 0.4252930
1139.491, 13.08582
1139.973, 32.08154
1140.455, 47.95508
1140.937, 51.66833
1141.419, 46.74963
1141.901, 54.24292
1142.384, 74.50513
1142.866, 85.60510
1143.348, 76.20984
1143.830, 63.47729
1144.312, 67.02405
1144.794, 74.71448
1145.276, 67.94739
1145.758, 35.55103
1146.240, 32.40479
1146.723, 63.53198
1147.205, 97.90417
1147.687, 114.1382
1148.169, 120.3190
1148.651, 125.3264
1149.133, 129.1074
1149.615, 130.3461
1150.097, 120.3315
1150.580, 125.0120
1151.062, 152.7198
1151.544, 184.0408
1152.026, 192.4813
1152.508, 187.2716
1152.990, 185.1174
1153.472, 187.9413
1153.954, 197.4893
1154.437, 225.5427
1154.919, 246.6580
1155.401, 250.9966
1155.883, 244.8951
1156.365, 243.6801
1156.847, 246.9937
1157.329, 253.1801
1157.811, 261.0304
1158.293, 273.3938
1158.776, 297.1986
1159.258, 321.2609
1159.740, 336.7991
1160.222, 344.2865
1160.704, 352.6479
1161.186, 362.3284
1161.668, 378.7045
1162.150, 416.0416
1162.632, 448.8521
1163.115, 455.7350
1163.597, 450.4948
1164.079, 459.3401
1164.561, 486.0763
1165.043, 494.3169
1165.525, 477.5950
1166.007, 458.7954
1166.489, 453.7462
1166.972, 459.1575
1167.454, 478.6635
1167.936, 509.1584
1168.418, 521.3346
1168.900, 511.8927
1169.382, 500.7993
1169.864, 493.0378
1170.346, 489.5651
1170.828, 494.0865
1171.311, 501.5769
1171.793, 504.9923
1172.275, 503.4714
1172.757, 493.6606
1173.239, 472.9342
1173.721, 454.0571
1174.203, 446.5426
1174.685, 443.7006
1175.167, 432.8079
1175.650, 415.9448
1176.132, 398.8227
1176.614, 382.9404
1177.096, 372.7347
1177.578, 370.1348
1178.060, 367.2927
1178.542, 351.5181
1179.024, 333.0042
1179.507, 339.4845
1179.989, 365.8559
1180.471, 372.0236
1180.953, 311.6024
1181.435, 272.4005
1181.917, 283.6856
1182.399, 312.5836
1182.881, 295.9565
1183.364, 250.0415
1183.846, 232.6843
1184.328, 255.0838
1184.810, 268.1648
1185.292, 246.2617
1185.774, 217.0142
1186.256, 185.3521
1186.738, 156.3000
1187.220, 161.5940
1187.703, 192.0734
1188.185, 203.4554
1188.667, 172.7048
1189.149, 142.8777
1189.631, 131.7083
1190.113, 129.0536
1190.595, 129.0643
1191.077, 132.1349
1191.559, 138.2610
1192.042, 146.6171
1192.524, 146.5187
1193.006, 122.8177
1193.488, 98.35461
1193.970, 79.77020
1194.452, 71.56006
1194.934, 85.30280
1195.416, 122.3480
1195.898, 132.9092
1196.381, 114.0669
1196.863, 91.34637
1197.345, 79.06592
1197.827, 73.19135
1198.309, 73.73938
1198.791, 78.14276
1199.273, 80.03784
1199.755, 79.51086
1200.238, 76.82892
1200.720, 71.33612
1201.202, 66.83228
1201.684, 67.44598
1202.166, 70.37097
1202.648, 73.45605
1203.130, 76.41803
1203.612, 78.71814
1204.094, 80.57971
1204.577, 82.33258
1205.059, 83.15295
1205.541, 85.13062
1206.023, 93.93683
1206.505, 103.5201
1206.987, 105.3520
1207.469, 97.59113
1207.951, 90.47430
1208.433, 83.64081
1208.916, 80.05536
1209.398, 82.88678
1209.880, 88.70850
1210.362, 97.29523
1210.844, 105.5408
1211.326, 105.7267
1211.808, 94.12415
1212.290, 87.49805
1212.773, 88.06561
1213.255, 85.96759
1213.737, 66.49512
1214.219, 44.14001
1214.701, 36.12103
1215.183, 40.86053
1215.665, 46.81238
1216.147, 54.41974
1216.630, 58.70917
1217.112, 58.93604
1217.594, 55.22064
1218.076, 44.46472
1218.558, 31.85010
1219.040, 20.84509
1219.522, 12.36664
1220.004, 22.15302
1220.486, 62.20166
1220.969, 76.41882
1221.451, 38.87988
1221.933, 11.19299
1222.415, 23.70746
1222.897, 14.09314
1223.379, 1.830444
1223.861, 11.63049
1224.343, 17.72461
1224.825, 14.39874
1225.308, 11.60638
1225.790, 17.34393
1226.272, 22.84656
1226.754, 8.328552
1227.236, 14.30841
1227.718, 21.57642
1228.200, 2.274841
1228.682, 16.53406
1229.165, 20.52759
1229.647, 17.61633
1230.129, 3.633972
1230.611, 11.26257
1231.093, 9.831787
1231.575, 2.952454
1232.057, 11.78357
1232.539, 10.69189
1233.021, 14.61267
1233.504, 25.65442
1233.986, 38.01550
1234.468, 48.82678
1234.950, 55.42761
1235.432, 48.41229
1235.914, 31.50049
1236.396, 32.39771
1236.878, 53.84235
1237.360, 94.31464
1237.843, 163.1483
1238.325, 218.1168
1238.807, 191.2406
1239.289, 128.2347
1239.771, 80.69757
1240.253, 54.83551
1240.735, 48.28613
1241.217, 66.40289
1241.700, 81.40900
1242.182, 83.76917
1242.664, 82.48138
1243.146, 91.90588
1243.628, 103.6688
1244.110, 105.4844
1244.592, 92.81201
1245.074, 86.28937
1245.557, 86.40045
1246.039, 90.24786
1246.521, 98.54681
1247.003, 106.0613
1247.485, 110.3557
1247.967, 109.1687
1248.449, 96.19928
1248.931, 62.23389
1249.413, 46.16327
1249.896, 51.23303
1250.378, 62.50885
1250.860, 67.02979
1251.342, 72.77075
1251.824, 85.83557
1252.306, 97.24097
1252.788, 90.60101
1253.270, 54.88965
1253.752, 35.75519
1254.235, 41.47424
1254.717, 47.29462
1255.199, 30.26709
1255.681, 11.58673
1256.163, 2.816956
1256.645, 3.308716
1257.127, 8.271790
1257.609, 18.57721
1258.092, 20.11469
1258.574, 10.50177
1259.056, 2.168945
1259.538, 10.59052
1260.020, 21.16156
1260.502, 18.69049
1260.984, 7.984314
1261.466, 11.35461
1261.948, 29.91229
1262.431, 36.72021
1262.913, 25.26733
1263.395, 10.50171
1263.877, 2.782898
1264.359, 1.147095
1264.841, 3.599426
1265.323, 4.252747
1265.805, 4.6875000E-02
1266.287, 8.710205
1266.770, 15.04492
1267.252, 16.25952
1267.734, 16.28125
1268.216, 17.92194
1268.698, 22.60828
1269.180, 32.53180
1269.662, 45.97021
1270.144, 38.27454
1270.626, 13.19812
1271.109, 2.613708
1271.591, 2.825500
1272.073, 9.025208
1272.555, 10.42700
1273.037, 10.86511
1273.519, 7.380981
1274.001, 1.125244
1274.483, 3.202698
1274.966, 11.87341
1275.448, 14.85193
1275.930, 16.05353
1276.412, 16.58972
1276.894, 17.38251
1277.376, 17.90613
1277.858, 17.33911
1278.340, 14.70911
1278.823, 0.0000000E+00
##END=



