##NAMES=Vesuvianite
##RRUFFID=R050056
##IDEAL CHEMISTRY=(Ca,Na)_19_(Al,Mg,Fe)_13_(SiO_4_)_10_(Si_2_O_7_)_4_(OH,F,O)_10_
##LOCALITY=Jeffrey Quarry, Asbestos, Quebec, Canada
##OWNER=RRUFF
##SOURCE=Tony Gordian
##DESCRIPTION=Green prismatic single crystal
##STATUS=The identification of this mineral has been confirmed by X-ray diffraction and chemical analysis
##URL=rruff.info/R050056
##MEASURED CHEMISTRY=Ca_19_(Al_.804_Mg_.149_Fe_.045_Mn_.002_)_13_Si_18_O_68_(OH)_10_
113.5031, 0.0000000E+00
113.9852, 3.672520
114.4673, 8.737389
114.9494, 13.82253
115.4315, 17.88544
115.9136, 22.91389
116.3958, 27.57107
116.8779, 32.20296
117.3600, 41.18238
117.8421, 52.13063
118.3242, 57.55171
118.8063, 57.25604
119.2885, 49.55933
119.7706, 37.99085
120.2527, 25.07378
120.7348, 12.34422
121.2169, 2.602875
121.6990, 1.517792
122.1812, 2.621902
122.6633, 3.347870
123.1454, 4.141571
123.6275, 4.303574
124.1096, 3.812927
124.5917, 2.365555
125.0739, 1.285767
125.5560, 8.358032
126.0381, 18.08722
126.5202, 29.53812
127.0023, 42.73911
127.4844, 57.27252
127.9666, 72.94675
128.4487, 89.74155
128.9308, 106.5866
129.4129, 122.7308
129.8950, 138.2225
130.3772, 151.5568
130.8593, 160.9315
131.3414, 168.0709
131.8235, 179.5633
132.3056, 195.7007
132.7877, 213.8971
133.2699, 229.5707
133.7520, 242.6193
134.2341, 259.9475
134.7162, 286.7206
135.1983, 323.1168
135.6804, 354.4406
136.1626, 380.3336
136.6447, 400.9319
137.1268, 415.4330
137.6089, 422.6202
138.0910, 427.2278
138.5731, 432.2479
139.0553, 439.5283
139.5374, 439.1859
140.0195, 428.5699
140.5016, 410.1877
140.9837, 393.5308
141.4658, 379.0172
141.9480, 365.5109
142.4301, 352.3872
142.9122, 339.9921
143.3943, 327.0706
143.8764, 312.4134
144.3585, 296.1434
144.8407, 283.9732
145.3228, 275.8286
145.8049, 271.8549
146.2870, 272.3594
146.7691, 279.3232
147.2512, 287.9023
147.7334, 297.0316
148.2155, 306.7397
148.6976, 318.0918
149.1797, 329.6238
149.6618, 343.4211
150.1439, 361.8922
150.6261, 389.0228
151.1082, 416.7537
151.5903, 442.0656
152.0724, 461.5081
152.5545, 485.8309
153.0366, 516.4604
153.5188, 552.9707
154.0009, 593.4891
154.4830, 643.0266
154.9651, 693.3475
155.4472, 741.8231
155.9293, 789.7500
156.4115, 835.2736
156.8936, 874.0768
157.3757, 908.9757
157.8578, 952.1040
158.3399, 1010.754
158.8221, 1076.490
159.3042, 1144.556
159.7863, 1224.590
160.2684, 1296.181
160.7505, 1352.211
161.2326, 1393.944
161.7148, 1426.128
162.1969, 1450.935
162.6790, 1467.303
163.1611, 1473.851
163.6432, 1468.587
164.1253, 1454.954
164.6075, 1433.279
165.0896, 1403.523
165.5717, 1370.154
166.0538, 1331.626
166.5359, 1291.734
167.0180, 1255.814
167.5002, 1229.177
167.9823, 1205.176
168.4644, 1177.762
168.9465, 1145.689
169.4286, 1115.818
169.9107, 1091.331
170.3929, 1072.726
170.8750, 1060.731
171.3571, 1064.764
171.8392, 1071.496
172.3213, 1064.672
172.8034, 1039.518
173.2856, 1009.702
173.7677, 988.5171
174.2498, 973.5027
174.7319, 956.3834
175.2140, 928.4347
175.6961, 896.0381
176.1783, 868.9475
176.6604, 849.4121
177.1425, 835.1667
177.6246, 825.8448
178.1067, 820.6213
178.5888, 814.5765
179.0710, 804.8762
179.5531, 791.7244
180.0352, 775.3606
180.5173, 755.4707
180.9994, 732.8500
181.4815, 709.7324
181.9637, 686.2667
182.4458, 661.2744
182.9279, 632.8918
183.4100, 601.8381
183.8921, 569.9465
184.3742, 537.9146
184.8564, 505.3771
185.3385, 471.5015
185.8206, 435.2021
186.3027, 400.0398
186.7848, 371.5874
187.2669, 348.7810
187.7491, 320.6716
188.2312, 279.0072
188.7133, 228.4777
189.1954, 187.8206
189.6775, 158.4832
190.1596, 135.7526
190.6418, 112.0858
191.1239, 87.65649
191.6060, 66.72742
192.0881, 50.80676
192.5702, 39.82385
193.0524, 34.07739
193.5345, 34.52783
194.0166, 37.65173
194.4987, 36.90894
194.9808, 31.87048
195.4629, 29.50439
195.9451, 34.20435
196.4272, 45.99670
196.9093, 56.59180
197.3914, 66.56702
197.8735, 74.03162
198.3556, 73.73206
198.8378, 64.34387
199.3199, 55.40210
199.8020, 50.98682
200.2841, 50.95483
200.7662, 56.74194
201.2483, 68.62183
201.7305, 86.19287
202.2126, 109.7810
202.6947, 140.7974
203.1768, 172.5696
203.6589, 201.4702
204.1410, 226.9543
204.6232, 250.5642
205.1053, 271.3647
205.5874, 290.8240
206.0695, 314.5210
206.5516, 344.0002
207.0337, 373.6543
207.5159, 398.7595
207.9980, 416.7498
208.4801, 439.6287
208.9622, 470.5022
209.4443, 507.3237
209.9264, 539.9119
210.4086, 567.2061
210.8907, 592.5459
211.3728, 619.3850
211.8549, 650.8628
212.3370, 673.6233
212.8191, 683.3127
213.3013, 681.7214
213.7834, 686.6545
214.2655, 702.7266
214.7476, 717.9617
215.2297, 720.7502
215.7118, 706.5813
216.1940, 692.9907
216.6761, 684.4502
217.1582, 680.4629
217.6403, 669.7422
218.1224, 652.1975
218.6045, 628.1064
219.0867, 594.5906
219.5688, 542.6008
220.0509, 503.5227
220.5330, 487.8838
221.0151, 496.2227
221.4972, 497.3684
221.9794, 488.0481
222.4615, 475.3008
222.9436, 467.4487
223.4257, 468.9917
223.9078, 465.9214
224.3899, 453.0706
224.8721, 429.1406
225.3542, 412.1858
225.8363, 404.7834
226.3184, 401.8337
226.8005, 397.7480
227.2827, 393.0808
227.7648, 386.2278
228.2469, 377.6130
228.7290, 367.9377
229.2111, 350.1672
229.6932, 317.9883
230.1754, 282.9358
230.6575, 261.1340
231.1396, 261.7017
231.6217, 259.5271
232.1038, 246.8984
232.5859, 221.4434
233.0681, 198.1470
233.5502, 177.0112
234.0323, 158.0710
234.5144, 141.3311
234.9965, 127.2573
235.4786, 114.7803
235.9608, 104.3762
236.4429, 97.31323
236.9250, 86.58862
237.4071, 71.51904
237.8892, 53.20679
238.3713, 32.55420
238.8535, -7.970885
239.3356, 9.420820
239.8177, 19.36309
240.2998, 22.25622
240.7819, -3.012745
241.2640, 8.083788
241.7462, 4.606753
242.2283, 0.5320507
242.7104, 16.74687
243.1925, -4.425976
243.6746, 11.46709
244.1567, 12.56410
244.6389, 20.43299
245.1210, 13.63815
245.6031, 11.37244
246.0852, 23.77508
246.5673, 28.05573
247.0494, 29.95825
247.5316, 81.37744
248.0137, 145.1108
248.4958, 209.1433
248.9779, 267.2266
249.4600, 328.8394
249.9421, 413.3682
250.4243, 539.2163
250.9064, 655.8416
251.3885, 740.2864
251.8706, 776.7629
252.3527, 837.3491
252.8348, 935.8650
253.3170, 1049.903
253.7991, 1137.220
254.2812, 1193.991
254.7633, 1229.000
255.2454, 1245.613
255.7275, 1244.909
256.2097, 1219.908
256.6918, 1163.164
257.1739, 1087.220
257.6560, 1013.234
258.1381, 940.5217
258.6202, 871.2561
259.1024, 807.4727
259.5845, 753.3369
260.0666, 687.7419
260.5487, 602.4451
261.0308, 512.0889
261.5129, 442.0464
261.9951, 400.0962
262.4772, 361.1250
262.9593, 313.9873
263.4414, 253.9524
263.9235, 206.5088
264.4056, 171.5933
264.8878, 148.9636
265.3699, 139.9170
265.8520, 149.2163
266.3341, 158.3433
266.8162, 156.9773
267.2983, 140.8157
267.7805, 143.9209
268.2626, 173.9641
268.7447, 214.6973
269.2268, 234.4258
269.7089, 224.9912
270.1910, 223.8345
270.6732, 250.3667
271.1553, 308.6943
271.6374, 353.4229
272.1195, 383.6672
272.6016, 401.6775
273.0837, 407.7397
273.5659, 399.9268
274.0480, 390.4192
274.5301, 383.9448
275.0122, 380.6599
275.4943, 376.2637
275.9764, 371.0730
276.4586, 364.1716
276.9407, 353.0327
277.4228, 337.0852
277.9049, 322.3508
278.3870, 309.1479
278.8691, 297.8408
279.3513, 296.9368
279.8334, 306.8623
280.3155, 326.1001
280.7976, 354.1655
281.2798, 390.9812
281.7619, 431.9722
282.2440, 479.1177
282.7261, 530.4700
283.2082, 570.6169
283.6903, 598.5930
284.1725, 618.9150
284.6546, 634.4360
285.1367, 645.2668
285.6188, 659.1035
286.1009, 682.6184
286.5830, 711.7036
287.0652, 729.1548
287.5473, 734.5225
288.0294, 729.8081
288.5115, 717.1204
288.9936, 696.2031
289.4757, 665.5015
289.9579, 619.7954
290.4400, 565.0183
290.9221, 517.9924
291.4042, 479.4263
291.8863, 439.7622
292.3684, 384.0935
292.8506, 317.3469
293.3327, 260.4502
293.8148, 223.8374
294.2969, 198.5459
294.7790, 162.1331
295.2611, 114.4573
295.7433, 75.75293
296.2254, 71.51880
296.7075, 90.09863
297.1896, 99.80566
297.6717, 87.03003
298.1538, 66.39136
298.6360, 60.40674
299.1181, 67.33057
299.6002, 72.65991
300.0823, 63.07983
300.5644, 44.82788
301.0465, 29.87964
301.5287, 21.31128
302.0108, 20.04565
302.4929, 29.30591
302.9750, 46.78149
303.4571, 61.64233
303.9392, 66.83887
304.4214, 66.57861
304.9035, 65.24780
305.3856, 61.16113
305.8677, 57.21338
306.3498, 59.51123
306.8319, 65.17114
307.3141, 63.98999
307.7962, 41.40454
308.2783, 13.03369
308.7604, 4.900146
309.2425, 4.493408
309.7246, 2.738770
310.2068, 13.68433
310.6889, 32.17212
311.1710, 44.92285
311.6531, 40.84351
312.1352, 31.45581
312.6173, 26.68188
313.0995, 31.85815
313.5816, 30.84790
314.0637, 8.421143
314.5458, 25.05493
315.0279, 50.23218
315.5100, 49.61621
315.9922, 46.36816
316.4743, 53.40234
316.9564, 74.38696
317.4385, 96.62329
317.9206, 119.3696
318.4027, 140.0830
318.8849, 155.2195
319.3670, 161.6182
319.8491, 164.2371
320.3312, 162.0178
320.8133, 152.7095
321.2954, 152.2351
321.7776, 168.2932
322.2597, 192.8494
322.7418, 217.3457
323.2239, 242.1318
323.7060, 265.1775
324.1881, 285.5144
324.6703, 302.9009
325.1524, 320.4568
325.6345, 338.0671
326.1166, 355.8999
326.5987, 374.1902
327.0808, 388.9277
327.5630, 408.8960
328.0451, 438.5896
328.5272, 477.2505
329.0093, 508.2859
329.4914, 525.4761
329.9735, 540.0298
330.4557, 558.7532
330.9378, 581.5791
331.4199, 609.6299
331.9020, 649.7068
332.3841, 696.3101
332.8662, 721.0500
333.3484, 713.8457
333.8305, 699.7229
334.3126, 693.5317
334.7947, 701.5010
335.2768, 697.8638
335.7589, 678.2366
336.2411, 648.0371
336.7232, 619.7451
337.2053, 593.7822
337.6874, 569.1287
338.1695, 546.9744
338.6516, 528.7847
339.1338, 500.3420
339.6159, 458.0054
340.0980, 411.1802
340.5801, 376.3408
341.0622, 353.7026
341.5443, 337.3035
342.0265, 323.5129
342.5086, 313.0298
342.9907, 311.5632
343.4728, 319.6951
343.9549, 334.7427
344.4370, 356.0208
344.9192, 382.6936
345.4013, 407.5488
345.8834, 425.8071
346.3655, 440.7861
346.8476, 459.1846
347.3297, 480.8047
347.8119, 508.7026
348.2940, 552.2363
348.7761, 605.2153
349.2582, 647.1035
349.7403, 665.6917
350.2225, 678.1094
350.7046, 711.7319
351.1867, 764.3044
351.6688, 816.3384
352.1509, 849.9570
352.6331, 875.1533
353.1152, 907.6050
353.5973, 953.6870
354.0794, 1002.370
354.5615, 1045.191
355.0436, 1082.815
355.5258, 1117.270
356.0079, 1142.513
356.4900, 1169.038
356.9721, 1207.844
357.4542, 1264.243
357.9363, 1320.651
358.4185, 1367.160
358.9006, 1407.016
359.3827, 1445.828
359.8648, 1481.365
360.3469, 1519.907
360.8290, 1569.433
361.3112, 1634.007
361.7933, 1684.963
362.2754, 1700.735
362.7575, 1703.267
363.2396, 1716.446
363.7217, 1757.346
364.2039, 1797.612
364.6860, 1826.450
365.1681, 1843.635
365.6502, 1870.678
366.1323, 1920.175
366.6144, 1974.230
367.0966, 2020.763
367.5787, 2055.573
368.0608, 2086.765
368.5429, 2110.792
369.0250, 2130.321
369.5071, 2159.126
369.9893, 2204.860
370.4714, 2251.543
370.9535, 2292.589
371.4356, 2330.793
371.9177, 2356.798
372.3998, 2367.670
372.8820, 2368.331
373.3641, 2368.056
373.8462, 2365.611
374.3283, 2362.960
374.8104, 2362.399
375.2925, 2364.259
375.7747, 2358.102
376.2568, 2344.482
376.7389, 2325.718
377.2210, 2302.885
377.7031, 2274.583
378.1852, 2242.233
378.6674, 2204.753
379.1495, 2163.446
379.6316, 2124.833
380.1137, 2091.138
380.5958, 2052.446
381.0779, 1996.633
381.5601, 1925.891
382.0422, 1856.712
382.5243, 1789.617
383.0064, 1726.390
383.4885, 1672.615
383.9706, 1627.117
384.4528, 1581.958
384.9349, 1527.731
385.4170, 1470.338
385.8991, 1417.889
386.3812, 1370.420
386.8633, 1331.534
387.3455, 1304.370
387.8276, 1287.848
388.3097, 1279.673
388.7918, 1284.084
389.2739, 1293.367
389.7560, 1300.842
390.2382, 1305.637
390.7203, 1313.151
391.2024, 1324.225
391.6845, 1340.331
392.1666, 1363.270
392.6487, 1396.646
393.1309, 1434.188
393.6130, 1471.813
394.0951, 1510.169
394.5772, 1555.920
395.0593, 1613.408
395.5414, 1677.204
396.0236, 1743.472
396.5057, 1815.434
396.9878, 1885.694
397.4699, 1950.234
397.9520, 2011.899
398.4341, 2079.070
398.9163, 2156.886
399.3984, 2234.907
399.8805, 2311.083
400.3626, 2389.641
400.8447, 2453.286
401.3268, 2497.971
401.8090, 2530.652
402.2911, 2561.910
402.7732, 2593.222
403.2553, 2618.767
403.7374, 2637.588
404.2195, 2649.570
404.7017, 2651.829
405.1838, 2642.974
405.6659, 2627.936
406.1480, 2611.873
406.6301, 2594.799
407.1122, 2571.291
407.5944, 2540.785
408.0765, 2502.655
408.5586, 2455.983
409.0407, 2400.616
409.5228, 2337.748
410.0049, 2264.420
410.4871, 2184.849
410.9692, 2112.696
411.4513, 2052.121
411.9334, 1986.699
412.4155, 1884.689
412.8976, 1758.887
413.3798, 1650.399
413.8619, 1594.033
414.3440, 1552.806
414.8261, 1486.321
415.3082, 1393.342
415.7903, 1295.173
416.2725, 1196.166
416.7546, 1102.518
417.2367, 1019.292
417.7188, 957.2644
418.2009, 898.4099
418.6830, 833.8716
419.1652, 765.6523
419.6473, 703.8855
420.1294, 653.8792
420.6115, 609.1521
421.0937, 565.8196
421.5758, 525.6943
422.0579, 484.1023
422.5400, 438.2302
423.0221, 390.9033
423.5042, 345.5559
423.9864, 298.7051
424.4685, 258.5542
424.9506, 229.4741
425.4327, 213.4482
425.9148, 188.0046
426.3969, 146.7947
426.8791, 103.4314
427.3612, 70.37231
427.8433, 50.25488
428.3254, 32.74243
428.8075, 17.72559
429.2896, 3.947998
429.7718, 0.1360850
430.2539, 16.80774
430.7360, 26.02998
431.2181, 28.20306
431.7002, 2.214069
432.1823, 12.59055
432.6645, 8.393353
433.1466, 3.598600
433.6287, 19.09339
434.1108, -2.799505
434.5929, 12.37353
435.0750, 12.75051
435.5572, 19.89922
436.0393, 12.38433
436.5214, 9.398589
437.0035, 21.08118
437.4856, 24.64181
437.9677, 15.43890
438.4499, 23.01806
438.9320, 0.6129293
439.4141, 4.519496
439.8962, 19.77834
440.3783, 11.31274
440.8604, 19.16005
441.3426, 13.63916
441.8247, 22.81641
442.3068, 40.61206
442.7889, 70.92090
443.2710, 94.74243
443.7531, 99.72485
444.2353, 98.43823
444.7174, 104.8083
445.1995, 130.2092
445.6816, 153.0400
446.1637, 168.5986
446.6458, 177.5469
447.1280, 187.8750
447.6101, 199.1580
448.0922, 212.3403
448.5743, 229.1467
449.0564, 254.6990
449.5385, 269.7615
450.0207, 270.5667
450.5028, 263.6792
450.9849, 260.9211
451.4670, 262.7334
451.9491, 266.7798
452.4312, 273.1313
452.9134, 281.2937
453.3955, 288.7327
453.8776, 295.9998
454.3597, 298.6765
454.8418, 288.3833
455.3239, 268.6204
455.8061, 254.6772
456.2882, 250.8628
456.7703, 252.7266
457.2524, 255.5623
457.7345, 259.0076
458.2166, 261.5659
458.6988, 254.3713
459.1809, 249.8503
459.6630, 265.5437
460.1451, 306.2493
460.6272, 345.3789
461.1093, 364.9858
461.5915, 373.4690
462.0736, 380.8582
462.5557, 386.4436
463.0378, 395.4766
463.5199, 408.6904
464.0020, 426.4502
464.4842, 451.4138
464.9663, 490.4111
465.4484, 531.9563
465.9305, 570.0122
466.4126, 601.4604
466.8947, 635.3381
467.3769, 671.6411
467.8590, 710.6516
468.3411, 753.6099
468.8232, 802.6018
469.3053, 848.8140
469.7874, 887.4863
470.2696, 920.0522
470.7517, 969.2891
471.2338, 1040.104
471.7159, 1112.258
472.1980, 1166.230
472.6801, 1202.598
473.1623, 1239.763
473.6444, 1281.330
474.1265, 1323.508
474.6086, 1363.796
475.0907, 1400.781
475.5728, 1425.329
476.0550, 1419.702
476.5371, 1403.045
477.0192, 1411.035
477.5013, 1445.210
477.9834, 1476.880
478.4655, 1488.379
478.9477, 1482.659
479.4298, 1462.731
479.9119, 1418.496
480.3940, 1373.919
480.8761, 1349.342
481.3582, 1335.560
481.8404, 1306.321
482.3225, 1233.292
482.8046, 1159.193
483.2867, 1105.098
483.7688, 1080.382
484.2509, 1049.354
484.7331, 1006.039
485.2152, 956.3301
485.6973, 903.8633
486.1794, 840.5188
486.6615, 788.4064
487.1436, 753.8992
487.6258, 732.3110
488.1079, 701.5825
488.5900, 658.1255
489.0721, 617.1677
489.5542, 588.3926
490.0363, 572.0405
490.5185, 557.7383
491.0006, 545.9893
491.4827, 532.2803
491.9648, 507.6726
492.4470, 475.8474
492.9291, 454.2258
493.4112, 454.6597
493.8933, 462.7529
494.3754, 452.4253
494.8575, 427.4441
495.3397, 410.6948
495.8218, 425.6128
496.3039, 451.1016
496.7860, 463.6841
497.2681, 457.8850
497.7502, 450.9224
498.2324, 451.6980
498.7145, 456.8315
499.1966, 461.4563
499.6787, 465.8523
500.1608, 469.0210
500.6429, 467.7100
501.1251, 460.6509
501.6072, 458.2915
502.0893, 468.9285
502.5714, 480.5151
503.0535, 485.7583
503.5356, 476.6042
504.0178, 477.6377
504.4999, 495.1909
504.9820, 517.1431
505.4641, 524.5176
505.9462, 515.0361
506.4283, 502.3838
506.9105, 488.0588
507.3926, 474.1338
507.8747, 472.4124
508.3568, 483.7295
508.8389, 491.4971
509.3210, 478.5388
509.8032, 452.5544
510.2853, 435.7993
510.7674, 432.6372
511.2495, 431.9053
511.7316, 422.6533
512.2137, 407.2927
512.6959, 390.9392
513.1780, 374.0374
513.6601, 358.1064
514.1422, 345.9922
514.6243, 336.7224
515.1064, 323.7273
515.5886, 301.2507
516.0707, 276.4028
516.5528, 252.9968
517.0349, 228.4546
517.5170, 211.3286
517.9991, 211.6482
518.4813, 216.3584
518.9634, 208.6008
519.4455, 181.4824
519.9276, 153.2798
520.4097, 124.8357
520.8918, 97.95435
521.3740, 82.66016
521.8561, 81.19849
522.3382, 83.89648
522.8203, 87.23657
523.3024, 90.74731
523.7845, 85.25098
524.2667, 68.64209
524.7488, 48.87891
525.2309, 31.65723
525.7130, 18.36963
526.1951, 14.51489
526.6772, 26.98975
527.1594, 44.96045
527.6415, 57.48047
528.1236, 64.79810
528.6057, 68.21826
529.0878, 64.04395
529.5699, 59.08398
530.0521, 59.14600
530.5342, 66.27661
531.0163, 72.46118
531.4984, 71.39478
531.9805, 69.73926
532.4626, 74.56055
532.9448, 96.98193
533.4269, 113.4749
533.9090, 116.1655
534.3911, 110.4453
534.8732, 118.7258
535.3553, 150.4473
535.8375, 178.6038
536.3196, 188.0813
536.8017, 177.5535
537.2838, 181.7334
537.7659, 204.4861
538.2480, 229.3523
538.7302, 237.8999
539.2123, 232.1035
539.6944, 224.7991
540.1765, 218.4207
540.6586, 212.3848
541.1407, 207.3337
541.6229, 202.1951
542.1050, 193.1060
542.5871, 175.5918
543.0692, 154.7654
543.5513, 134.6140
544.0334, 115.5442
544.5156, 97.76245
544.9977, 81.58057
545.4798, 66.62183
545.9619, 52.57642
546.4440, 36.43872
546.9261, 25.59912
547.4083, 25.69946
547.8904, 30.82837
548.3725, 30.57837
548.8546, 24.51367
549.3367, -0.2090240
549.8188, 16.65252
550.3010, 26.06458
550.7831, 28.42756
551.2652, 2.628431
551.7473, 13.19480
552.2294, 9.187544
552.7115, 4.582674
553.1937, 20.26729
553.6758, -1.435706
554.1579, 13.92719
554.6400, 14.49405
555.1221, 21.83270
555.6042, 14.50770
556.0864, 11.71178
556.5685, 23.58427
557.0506, 27.33476
557.5327, 18.32173
558.0148, 26.09084
558.4969, 3.875591
558.9791, 7.971979
559.4612, 23.42072
559.9433, 15.14498
560.4254, 23.18217
560.9075, 25.00651
561.3896, -1.404039
561.8718, 21.28865
562.3539, 22.74584
562.8360, 2.398723
563.3181, 23.40897
563.8002, 4.614990
564.2823, 4.785156
564.7645, 9.673096
565.2466, 18.77026
565.7287, 34.13037
566.2108, 53.66724
566.6929, 65.29517
567.1750, 68.56763
567.6572, 71.96436
568.1393, 81.98193
568.6214, 97.23242
569.1035, 115.6428
569.5856, 138.1013
570.0677, 159.3545
570.5499, 171.2485
571.0320, 180.0732
571.5141, 195.8442
571.9962, 230.1499
572.4783, 264.2012
572.9604, 289.0129
573.4426, 306.2583
573.9247, 325.8088
574.4068, 348.3081
574.8889, 374.1829
575.3710, 404.1328
575.8531, 438.7214
576.3353, 473.2246
576.8174, 510.0247
577.2995, 542.7109
577.7816, 561.4080
578.2637, 563.6255
578.7458, 578.8613
579.2280, 613.7046
579.7101, 659.0618
580.1922, 698.8618
580.6743, 734.3748
581.1564, 772.7961
581.6385, 818.5928
582.1207, 868.5151
582.6028, 917.6584
583.0849, 965.7112
583.5670, 1015.291
584.0491, 1073.843
584.5313, 1132.004
585.0134, 1180.619
585.4955, 1214.139
585.9776, 1249.711
586.4597, 1297.015
586.9418, 1346.081
587.4240, 1384.590
587.9061, 1400.332
588.3882, 1424.960
588.8703, 1465.647
589.3524, 1516.301
589.8345, 1559.165
590.3167, 1593.210
590.7988, 1623.369
591.2809, 1647.757
591.7630, 1669.194
592.2451, 1706.405
592.7272, 1760.283
593.2094, 1808.162
593.6915, 1821.967
594.1736, 1818.226
594.6557, 1830.462
595.1378, 1867.031
595.6199, 1906.032
596.1021, 1930.913
596.5842, 1947.817
597.0663, 1965.579
597.5485, 1990.802
598.0306, 2013.233
598.5127, 2025.424
598.9948, 2030.951
599.4769, 2045.927
599.9590, 2084.231
600.4412, 2116.530
600.9233, 2130.352
601.4054, 2123.972
601.8875, 2128.571
602.3696, 2147.541
602.8517, 2169.133
603.3339, 2182.617
603.8160, 2188.749
604.2981, 2194.166
604.7802, 2197.855
605.2623, 2207.076
605.7444, 2239.452
606.2266, 2285.606
606.7087, 2318.763
607.1908, 2322.439
607.6729, 2316.535
608.1550, 2312.092
608.6371, 2310.551
609.1193, 2315.557
609.6014, 2331.617
610.0835, 2351.560
610.5656, 2371.859
611.0477, 2392.628
611.5298, 2415.211
612.0120, 2434.167
612.4941, 2460.119
612.9762, 2499.736
613.4583, 2553.835
613.9404, 2618.898
614.4225, 2696.553
614.9047, 2781.320
615.3868, 2861.223
615.8689, 2939.297
616.3510, 3041.444
616.8331, 3176.252
617.3152, 3334.535
617.7974, 3506.910
618.2795, 3692.302
618.7616, 3894.729
619.2437, 4111.024
619.7258, 4345.249
620.2079, 4600.203
620.6901, 4875.300
621.1722, 5180.512
621.6543, 5521.179
622.1364, 5893.273
622.6185, 6290.653
623.1006, 6713.038
623.5828, 7165.123
624.0649, 7646.137
624.5470, 8157.579
625.0291, 8703.397
625.5112, 9286.281
625.9933, 9889.561
626.4755, 10499.53
626.9576, 11132.79
627.4397, 11826.73
627.9218, 12576.24
628.4039, 13342.26
628.8860, 14117.61
629.3682, 14895.23
629.8503, 15663.64
630.3324, 16423.03
630.8145, 17154.66
631.2966, 17877.59
631.7787, 18539.05
632.2609, 19119.11
632.7430, 19642.46
633.2251, 19975.77
633.7072, 20070.88
634.1893, 19969.97
634.6714, 19702.47
635.1536, 19230.92
635.6357, 18671.27
636.1178, 18034.53
636.5999, 17318.24
637.0820, 16498.18
637.5641, 15573.65
638.0463, 14645.63
638.5284, 13728.30
639.0105, 12835.40
639.4926, 11977.99
639.9747, 11150.60
640.4568, 10348.02
640.9390, 9525.640
641.4211, 8741.521
641.9032, 8054.438
642.3853, 7470.966
642.8674, 6924.828
643.3495, 6386.805
643.8317, 5880.762
644.3138, 5417.415
644.7959, 5014.696
645.2780, 4630.366
645.7601, 4261.765
646.2422, 3915.240
646.7244, 3594.914
647.2065, 3305.169
647.6886, 3032.440
648.1707, 2775.676
648.6528, 2537.607
649.1349, 2321.290
649.6171, 2126.972
650.0992, 1948.886
650.5813, 1785.476
651.0634, 1635.124
651.5455, 1497.354
652.0276, 1371.405
652.5098, 1257.749
652.9919, 1164.183
653.4740, 1075.378
653.9561, 978.6573
654.4382, 868.7888
654.9203, 776.9464
655.4025, 717.1123
655.8846, 668.0457
656.3667, 616.8513
656.8488, 561.6788
657.3309, 511.0106
657.8130, 464.3542
658.2952, 422.3530
658.7773, 386.3394
659.2594, 355.5518
659.7415, 329.1531
660.2236, 309.1101
660.7057, 289.4269
661.1879, 258.3193
661.6700, 220.6650
662.1521, 189.9839
662.6342, 177.2030
663.1163, 169.3594
663.5984, 161.5551
664.0806, 153.0516
664.5627, 138.6821
665.0448, 104.7808
665.5269, 76.12537
666.0090, 65.60486
666.4911, 76.99512
666.9733, 78.47021
667.4554, 66.41772
667.9375, 52.06165
668.4196, 44.42798
668.9017, 43.15662
669.3839, 42.29736
669.8660, 41.88342
670.3481, 40.05627
670.8302, 32.62878
671.3123, 22.61633
671.7944, 16.19263
672.2766, 16.29395
672.7587, 18.27209
673.2408, 21.67297
673.7229, 24.58496
674.2050, 23.13843
674.6871, 7.088867
675.1693, 3.562866
675.6514, 0.5200200
676.1335, 15.64197
676.6156, 21.59399
677.0977, 13.57690
677.5798, 7.280396
678.0620, 10.20874
678.5441, 21.35913
679.0262, 31.84241
679.5083, 41.82593
679.9904, 50.09668
680.4725, 52.28430
680.9547, 53.18005
681.4368, 62.65784
681.9189, 82.67151
682.4010, 103.2135
682.8831, 113.0228
683.3652, 121.7815
683.8474, 139.5806
684.3295, 175.7368
684.8116, 209.8949
685.2937, 241.1857
685.7758, 268.0886
686.2579, 286.6586
686.7401, 291.9067
687.2222, 302.3378
687.7043, 321.3479
688.1864, 347.2275
688.6685, 378.2760
689.1506, 414.0314
689.6328, 446.7549
690.1149, 471.9039
690.5970, 493.0229
691.0791, 515.3367
691.5612, 538.5782
692.0433, 560.8718
692.5255, 580.2051
693.0076, 599.5138
693.4897, 623.4407
693.9718, 653.4548
694.4539, 672.5864
694.9360, 678.2759
695.4182, 672.8318
695.9003, 655.6072
696.3824, 624.0848
696.8645, 592.9805
697.3466, 562.9532
697.8287, 531.6437
698.3109, 494.5005
698.7930, 453.1615
699.2751, 417.5183
699.7572, 391.3452
700.2393, 364.4642
700.7214, 321.9960
701.2036, 272.6648
701.6857, 230.9045
702.1678, 209.8484
702.6499, 188.2379
703.1320, 154.5062
703.6141, 114.4143
704.0963, 82.39551
704.5784, 60.59961
705.0605, 43.96521
705.5426, 33.79895
706.0247, 28.10120
706.5068, 16.04895
706.9890, 3.779175
707.4711, 19.19568
707.9532, 19.83508
708.4353, 12.42554
708.9174, 16.21045
709.3995, 29.70459
709.8817, 40.03406
710.3638, 36.35815
710.8459, 27.37756
711.3280, 19.90466
711.8101, 14.49036
712.2922, 10.55591
712.7744, 7.166870
713.2565, 6.430420
713.7386, 9.946289
714.2207, 19.96460
714.7028, 26.67493
715.1849, 30.64136
715.6671, 31.10205
716.1492, 26.76624
716.6313, 18.17139
717.1134, 8.563599
717.5955, 2.340332
718.0776, 11.99084
718.5598, 14.63843
719.0419, 14.35999
719.5240, 18.96240
720.0061, 37.87842
720.4882, 52.90442
720.9703, 52.71057
721.4525, 43.89478
721.9346, 40.00879
722.4167, 43.72424
722.8988, 47.55383
723.3809, 52.21619
723.8630, 57.59888
724.3452, 57.81311
724.8273, 50.73120
725.3094, 48.12720
725.7915, 59.72827
726.2736, 79.15552
726.7557, 90.55933
727.2379, 94.22046
727.7200, 91.58826
728.2021, 76.25732
728.6842, 60.27271
729.1663, 54.57227
729.6484, 60.38538
730.1306, 65.96716
730.6127, 65.90125
731.0948, 66.50366
731.5769, 71.97498
732.0590, 84.75513
732.5411, 92.10315
733.0233, 92.87109
733.5054, 90.73596
733.9875, 86.82214
734.4696, 82.05676
734.9517, 84.65210
735.4338, 96.46997
735.9160, 109.8986
736.3981, 119.2252
736.8802, 124.5361
737.3623, 125.7795
737.8444, 122.0106
738.3266, 115.9739
738.8087, 103.9916
739.2908, 91.91309
739.7729, 88.71252
740.2551, 99.54321
740.7372, 110.2419
741.2193, 119.9031
741.7014, 128.0078
742.1835, 133.1732
742.6656, 135.3433
743.1478, 136.2804
743.6299, 135.7290
744.1120, 135.3257
744.5941, 138.3127
745.0762, 143.7122
745.5583, 148.6472
746.0405, 152.7228
746.5226, 154.9099
747.0047, 153.7747
747.4868, 149.8823
747.9689, 146.3265
748.4510, 142.1401
748.9332, 140.1129
749.4153, 141.9070
749.8974, 147.0594
750.3795, 149.9395
750.8616, 150.2078
751.3438, 150.6914
751.8259, 155.4553
752.3080, 161.2542
752.7901, 159.5741
753.2722, 150.5093
753.7543, 140.0916
754.2365, 131.2953
754.7186, 123.5209
755.2007, 116.5317
755.6828, 110.3834
756.1649, 104.2170
756.6470, 93.82739
757.1292, 86.95837
757.6113, 90.28137
758.0934, 108.3442
758.5755, 115.6488
759.0576, 110.9829
759.5397, 99.86279
760.0219, 83.91528
760.5040, 66.04065
760.9861, 56.62378
761.4682, 58.26660
761.9503, 63.12878
762.4324, 70.43323
762.9146, 75.16919
763.3967, 70.91284
763.8788, 47.45215
764.3609, 29.00049
764.8430, 21.64087
765.3251, 19.69531
765.8073, 18.58508
766.2894, 19.81763
766.7715, 16.01721
767.2536, 3.892944
767.7357, 10.57239
768.2178, 15.46289
768.7000, 12.63623
769.1821, 11.33704
769.6642, 16.15552
770.1463, 21.16394
770.6284, 18.78149
771.1105, 13.31665
771.5927, 13.12329
772.0748, 27.37122
772.5569, 40.35876
773.0390, 48.93372
773.5211, 53.31995
774.0032, 53.20862
774.4854, 46.82410
774.9675, 41.11340
775.4496, 37.71265
775.9317, 36.71875
776.4138, 40.36328
776.8959, 47.64075
777.3781, 52.01013
777.8602, 44.71448
778.3423, 37.05005
778.8244, 43.58289
779.3065, 59.61768
779.7886, 64.33154
780.2708, 35.57837
780.7529, 10.78931
781.2350, 4.716919
781.7171, 14.59827
782.1992, 13.88538
782.6813, 0.3879390
783.1635, 13.84033
783.6456, 23.80103
784.1277, 30.04492
784.6098, 31.81885
785.0919, 29.80969
785.5740, 32.32373
786.0562, 49.10889
786.5383, 69.25659
787.0204, 83.81311
787.5025, 92.73157
787.9846, 101.0096
788.4667, 111.2797
788.9489, 119.3062
789.4310, 122.3098
789.9131, 119.7660
790.3952, 123.4316
790.8773, 134.0962
791.3594, 146.1200
791.8416, 151.2354
792.3237, 154.7778
792.8058, 176.3456
793.2879, 216.8494
793.7700, 250.2786
794.2521, 254.8159
794.7343, 247.1409
795.2164, 238.2573
795.6985, 227.5563
796.1806, 226.2598
796.6627, 249.1781
797.1448, 266.3314
797.6270, 251.7565
798.1091, 197.9384
798.5912, 179.9198
799.0733, 202.8287
799.5554, 235.9808
800.0375, 252.7996
800.5197, 257.4224
801.0018, 255.3079
801.4839, 245.9297
801.9660, 240.2252
802.4481, 250.0469
802.9302, 263.2780
803.4124, 269.2732
803.8945, 261.7404
804.3766, 257.9635
804.8587, 260.8524
805.3408, 263.5618
805.8229, 256.2589
806.3051, 239.0884
806.7872, 238.9690
807.2693, 260.7991
807.7514, 284.2336
808.2335, 284.3677
808.7156, 273.9690
809.1978, 274.6904
809.6799, 296.8093
810.1620, 310.6536
810.6441, 293.7429
811.1262, 268.3628
811.6083, 257.1619
812.0905, 270.6980
812.5726, 274.1270
813.0547, 262.7791
813.5368, 248.7483
814.0189, 249.1821
814.5010, 260.6726
814.9832, 262.3250
815.4653, 249.1755
815.9474, 235.0234
816.4295, 235.7786
816.9116, 240.9829
817.3937, 236.7732
817.8759, 211.8152
818.3580, 192.4441
818.8401, 190.4844
819.3222, 192.9238
819.8043, 186.3584
820.2864, 167.4370
820.7686, 156.7090
821.2507, 158.1221
821.7328, 159.8960
822.2149, 143.3135
822.6970, 116.3381
823.1791, 98.99707
823.6613, 97.87305
824.1434, 100.2024
824.6255, 97.77979
825.1076, 93.13599
825.5897, 89.23438
826.0718, 89.81128
826.5540, 88.57935
827.0361, 84.92334
827.5182, 79.73535
828.0003, 73.04614
828.4824, 65.34375
828.9645, 65.91797
829.4467, 77.30005
829.9288, 89.35229
830.4109, 86.81592
830.8930, 79.81592
831.3751, 85.62671
831.8572, 116.4033
832.3394, 143.2695
832.8215, 152.5771
833.3036, 154.7039
833.7857, 162.3413
834.2678, 179.0449
834.7499, 187.1021
835.2321, 181.8574
835.7142, 177.2075
836.1963, 192.7129
836.6784, 222.4717
837.1605, 246.2886
837.6426, 260.0137
838.1248, 274.3550
838.6069, 295.0464
839.0890, 318.9163
839.5711, 342.7012
840.0532, 368.5691
840.5353, 390.4229
841.0175, 403.9233
841.4996, 417.5583
841.9817, 439.4165
842.4638, 469.6248
842.9459, 505.0212
843.4280, 545.4922
843.9102, 590.1853
844.3923, 645.1467
844.8744, 701.6458
845.3565, 742.5325
845.8386, 759.8672
846.3207, 780.1816
846.8029, 817.7275
847.2850, 860.7000
847.7671, 898.1987
848.2492, 925.3977
848.7313, 962.3147
849.2134, 1014.149
849.6956, 1061.598
850.1777, 1078.226
850.6598, 1074.231
851.1419, 1088.400
851.6240, 1127.286
852.1061, 1164.873
852.5883, 1176.334
853.0704, 1180.765
853.5525, 1198.757
854.0346, 1243.388
854.5167, 1267.537
854.9988, 1256.364
855.4810, 1240.632
855.9631, 1246.724
856.4452, 1275.300
856.9273, 1279.580
857.4094, 1257.146
857.8915, 1228.641
858.3737, 1212.504
858.8558, 1200.994
859.3379, 1185.597
859.8200, 1165.552
860.3021, 1138.703
860.7842, 1094.843
861.2664, 1052.600
861.7485, 1024.052
862.2306, 1010.911
862.7127, 992.1724
863.1948, 967.0139
863.6769, 939.4570
864.1591, 913.2729
864.6412, 886.4492
865.1233, 849.5986
865.6054, 803.5671
866.0875, 765.6758
866.5696, 757.6570
867.0518, 751.0923
867.5339, 725.8972
868.0160, 679.4019
868.4981, 638.9512
868.9802, 604.4492
869.4623, 576.3423
869.9445, 557.7900
870.4266, 545.8481
870.9087, 524.2261
871.3908, 494.0547
871.8729, 469.3843
872.3550, 465.0107
872.8372, 464.3979
873.3193, 452.6062
873.8014, 431.3921
874.2835, 413.0796
874.7656, 404.3018
875.2477, 393.8850
875.7299, 377.1521
876.2120, 357.1296
876.6941, 346.1738
877.1762, 344.2720
877.6583, 343.8577
878.1404, 345.6504
878.6226, 342.9895
879.1047, 318.8623
879.5869, 283.0999
880.0690, 260.5120
880.5511, 279.6597
881.0332, 291.1213
881.5153, 274.3235
881.9974, 242.5532
882.4796, 222.8848
882.9617, 217.9873
883.4438, 208.8049
883.9259, 187.8865
884.4080, 166.8860
884.8901, 164.1885
885.3723, 176.0046
885.8544, 195.3535
886.3365, 234.4170
886.8186, 256.2500
887.3007, 231.5908
887.7828, 184.9092
888.2650, 150.6443
888.7471, 133.9805
889.2292, 117.9644
889.7113, 100.5271
890.1934, 84.96216
890.6755, 75.86597
891.1577, 72.05640
891.6398, 70.38989
892.1219, 70.98071
892.6040, 70.04761
893.0861, 68.21240
893.5682, 61.71118
894.0504, 45.01855
894.5325, 7.596191
895.0146, 13.08862
895.4967, 10.18848
895.9788, 3.201660
896.4609, 14.08105
896.9431, 37.34814
897.4252, 32.78857
897.9073, 2.070068
898.3894, 34.00195
898.8715, 34.39087
899.3536, 23.91064
899.8358, 18.94824
900.3179, 21.40649
900.8000, 26.74927
901.2821, 32.34912
901.7642, 43.41455
902.2463, 63.37231
902.7285, 91.01392
903.2106, 122.1692
903.6927, 156.4148
904.1748, 186.0623
904.6569, 201.0120
905.1390, 213.4509
905.6212, 233.6067
906.1033, 261.5330
906.5854, 297.4832
907.0675, 352.3159
907.5496, 401.5947
908.0317, 435.9675
908.5139, 462.0984
908.9960, 502.4849
909.4781, 557.0498
909.9602, 611.0388
910.4423, 656.6636
910.9244, 702.5435
911.4066, 761.9893
911.8887, 828.2935
912.3708, 889.9624
912.8529, 933.1421
913.3350, 984.0437
913.8171, 1054.456
914.2993, 1129.043
914.7814, 1182.563
915.2635, 1212.114
915.7456, 1262.776
916.2277, 1345.110
916.7098, 1431.657
917.1920, 1488.191
917.6741, 1528.462
918.1562, 1571.885
918.6383, 1622.414
919.1204, 1674.782
919.6025, 1724.658
920.0847, 1778.346
920.5668, 1846.580
921.0489, 1937.403
921.5310, 1978.122
922.0131, 1963.301
922.4952, 1943.092
922.9774, 1960.599
923.4595, 1997.228
923.9416, 2029.974
924.4237, 2056.574
924.9058, 2071.381
925.3879, 2069.858
925.8701, 2057.752
926.3522, 2035.003
926.8343, 2003.359
927.3164, 1980.317
927.7985, 1967.608
928.2806, 1945.681
928.7628, 1896.875
929.2449, 1842.351
929.7270, 1818.567
930.2091, 1816.401
930.6912, 1810.347
931.1733, 1789.121
931.6555, 1765.430
932.1376, 1745.967
932.6197, 1725.134
933.1018, 1691.352
933.5839, 1640.800
934.0660, 1597.125
934.5482, 1564.766
935.0303, 1537.910
935.5124, 1507.437
935.9945, 1475.585
936.4766, 1447.925
936.9587, 1429.001
937.4409, 1406.072
937.9230, 1371.294
938.4051, 1333.318
938.8872, 1297.749
939.3693, 1263.752
939.8514, 1236.137
940.3336, 1215.064
940.8157, 1197.087
941.2978, 1189.070
941.7799, 1179.062
942.2620, 1140.758
942.7441, 1075.276
943.2263, 1022.531
943.7084, 1009.385
944.1905, 1002.065
944.6726, 987.9907
945.1547, 968.0347
945.6368, 945.2100
946.1190, 918.6228
946.6011, 901.2346
947.0832, 905.7559
947.5653, 914.9060
948.0474, 903.4880
948.5295, 878.4995
949.0117, 856.2144
949.4938, 838.4636
949.9759, 829.3220
950.4580, 831.5190
950.9401, 840.4893
951.4222, 849.1738
951.9044, 857.4832
952.3865, 870.5942
952.8686, 889.4458
953.3507, 912.3218
953.8328, 943.3401
954.3149, 974.2854
954.7971, 992.5083
955.2792, 990.1736
955.7613, 997.1943
956.2434, 1023.540
956.7255, 1053.124
957.2076, 1076.709
957.6898, 1094.497
958.1719, 1110.931
958.6540, 1126.132
959.1361, 1143.387
959.6182, 1169.400
960.1003, 1195.149
960.5825, 1211.674
961.0646, 1220.062
961.5467, 1228.186
962.0288, 1233.972
962.5109, 1246.313
962.9930, 1273.313
963.4752, 1302.963
963.9573, 1298.690
964.4394, 1266.377
964.9215, 1242.439
965.4036, 1243.009
965.8857, 1247.246
966.3679, 1241.221
966.8500, 1227.604
967.3321, 1209.425
967.8142, 1186.440
968.2963, 1160.116
968.7784, 1129.410
969.2606, 1098.018
969.7427, 1067.864
970.2248, 1040.473
970.7069, 1023.600
971.1890, 1017.774
971.6711, 1011.383
972.1533, 998.4629
972.6354, 981.2629
973.1175, 959.0369
973.5996, 932.2263
974.0817, 913.6082
974.5638, 906.9377
975.0460, 895.0510
975.5281, 868.8411
976.0102, 834.3838
976.4923, 806.6050
976.9744, 781.5173
977.4565, 747.4072
977.9387, 679.2981
978.4208, 624.5588
978.9029, 616.2693
979.3850, 623.0945
979.8671, 599.6565
980.3492, 538.8992
980.8314, 491.0193
981.3135, 462.9768
981.7956, 440.9060
982.2777, 408.3381
982.7598, 371.9294
983.2419, 342.7139
983.7241, 323.6482
984.2062, 300.1648
984.6883, 268.8223
985.1704, 230.3508
985.6525, 179.8799
986.1346, 120.1387
986.6168, 83.67432
987.0989, 69.79541
987.5810, 56.87793
988.0631, 28.74341
988.5452, -12.58483
989.0273, 5.313157
989.5095, 15.76204
989.9916, 19.16145
990.4737, -5.601110
990.9558, 6.001823
991.4379, 3.031119
991.9200, -0.5372901
992.4022, 16.18416
992.8843, -4.482387
993.3664, 11.91709
993.8485, 13.52053
994.3306, 21.89575
994.8127, 15.60722
995.2949, 13.84816
995.7770, 26.75711
996.2591, 31.54420
996.7412, 23.56776
997.2233, 32.37346
997.7054, 11.19469
998.1876, 16.32795
998.6697, 19.44043
999.1518, 39.29761
999.6339, 44.61841
1000.116, 49.98730
1000.598, 54.40015
1001.080, 68.38843
1001.562, 103.3687
1002.044, 146.4189
1002.527, 171.3792
1003.009, 175.7490
1003.491, 196.5063
1003.973, 243.6619
1004.455, 294.3542
1004.937, 323.2021
1005.419, 340.2285
1005.901, 355.7542
1006.384, 369.5732
1006.866, 389.7067
1007.348, 424.1755
1007.830, 455.0448
1008.312, 467.8311
1008.794, 467.3846
1009.276, 487.1384
1009.758, 524.4893
1010.240, 557.9993
1010.723, 571.1450
1011.205, 580.5751
1011.687, 599.0333
1012.169, 621.3468
1012.651, 632.9313
1013.133, 628.9421
1013.615, 628.3752
1014.097, 635.4429
1014.580, 643.6188
1015.062, 642.1959
1015.544, 635.5671
1016.026, 632.1541
1016.508, 633.9167
1016.990, 637.4700
1017.472, 651.4669
1017.954, 656.6665
1018.436, 637.6968
1018.919, 596.5829
1019.401, 574.1855
1019.883, 570.4800
1020.365, 574.0547
1020.847, 582.7479
1021.329, 592.0720
1021.811, 599.1135
1022.293, 603.1647
1022.776, 602.1558
1023.258, 589.3499
1023.740, 582.1863
1024.222, 583.8342
1024.704, 589.1323
1025.186, 590.8677
1025.668, 590.3574
1026.150, 592.9985
1026.632, 599.8535
1027.115, 605.4570
1027.597, 602.9816
1028.079, 600.9519
1028.561, 605.2719
1029.043, 615.6975
1029.525, 628.0526
1030.007, 642.5571
1030.489, 656.7557
1030.972, 670.6151
1031.454, 682.2808
1031.936, 690.7932
1032.418, 694.9526
1032.900, 692.2816
1033.382, 669.6002
1033.864, 658.8938
1034.346, 671.6528
1034.828, 686.0237
1035.311, 671.7490
1035.793, 634.6790
1036.275, 617.5447
1036.757, 623.6826
1037.239, 630.2917
1037.721, 625.7715
1038.203, 612.0232
1038.685, 586.9484
1039.167, 552.2456
1039.650, 521.3896
1040.132, 495.1121
1040.614, 470.8014
1041.096, 448.6718
1041.578, 427.5110
1042.060, 408.6417
1042.542, 389.3667
1043.024, 363.1543
1043.507, 319.9633
1043.989, 287.0752
1044.471, 271.5500
1044.953, 264.3171
1045.435, 260.5795
1045.917, 259.8008
1046.399, 253.3628
1046.881, 241.3428
1047.364, 224.7120
1047.846, 198.4058
1048.328, 170.8440
1048.810, 150.2472
1049.292, 136.2753
1049.774, 120.1460
1050.256, 98.47498
1050.738, 83.38684
1051.220, 80.09033
1051.703, 81.44958
1052.185, 76.71338
1052.667, 66.54016
1053.149, 52.17957
1053.631, 32.23572
1054.113, 18.38538
1054.595, 17.14087
1055.077, 18.29480
1055.559, 18.57874
1056.042, 18.73779
1056.524, 14.78442
1057.006, 6.278198
1057.488, 1.722412
1057.970, 6.499023
1058.452, 9.580078
1058.934, 12.05505
1059.416, 13.53430
1059.899, 13.00854
1060.381, 9.470703
1060.863, 7.637939
1061.345, 8.097778
1061.827, 9.427612
1062.309, 13.13977
1062.791, 15.44910
1063.273, 7.703979
1063.755, 10.36658
1064.238, 21.93176
1064.720, 16.67078
1065.202, 11.53101
1065.684, 11.43542
1066.166, 14.92224
1066.648, 18.81458
1067.130, 22.72681
1067.612, 24.92444
1068.094, 23.67273
1068.577, 23.71301
1069.059, 27.76038
1069.541, 34.65283
1070.023, 44.19604
1070.505, 58.06567
1070.987, 62.90271
1071.469, 57.66199
1071.951, 53.42224
1072.434, 60.77905
1072.916, 71.23218
1073.398, 74.23108
1073.880, 71.53308
1074.362, 69.95569
1074.844, 72.29175
1075.326, 73.01196
1075.808, 69.99402
1076.291, 67.73425
1076.773, 75.36389
1077.255, 88.55493
1077.737, 94.54651
1078.219, 91.31409
1078.701, 85.98096
1079.183, 78.16028
1079.665, 73.41516
1080.147, 74.62488
1080.630, 81.01062
1081.112, 88.13159
1081.594, 95.98706
1082.076, 105.1844
1082.558, 118.6803
1083.040, 128.4019
1083.522, 122.3645
1084.004, 110.1353
1084.486, 105.0980
1084.969, 111.5533
1085.451, 116.7314
1085.933, 120.4802
1086.415, 123.4353
1086.897, 126.2527
1087.379, 128.5438
1087.861, 128.9175
1088.343, 127.8882
1088.826, 127.8250
1089.308, 128.0724
1089.790, 132.1549
1090.272, 143.0903
1090.754, 155.0575
1091.236, 157.7443
1091.718, 153.1617
1092.200, 150.9263
1092.682, 152.7051
1093.165, 153.6896
1093.647, 147.9076
1094.129, 143.1613
1094.611, 145.9183
1095.093, 154.5491
1095.575, 156.1726
1096.057, 150.4026
1096.539, 148.3229
1097.022, 156.1826
1097.504, 165.0792
1097.986, 167.6107
1098.468, 164.7598
1098.950, 156.6891
1099.432, 137.3110
1099.914, 130.6016
1100.396, 139.7952
1100.879, 151.6323
1101.361, 155.4352
1101.843, 155.7258
1102.325, 162.8018
1102.807, 174.6107
1103.289, 183.1013
1103.771, 185.0860
1104.253, 183.0162
1104.735, 174.3082
1105.218, 165.7988
1105.700, 170.3056
1106.182, 184.0598
1106.664, 187.2544
1107.146, 177.4996
1107.628, 168.4946
1108.110, 172.1558
1108.592, 175.1813
1109.074, 168.2662
1109.557, 154.8202
1110.039, 149.3024
1110.521, 151.6486
1111.003, 151.8375
1111.485, 145.4003
1111.967, 139.8990
1112.449, 143.4125
1112.931, 152.0453
1113.414, 163.3771
1113.896, 179.5522
1114.378, 182.1104
1114.860, 167.8414
1115.342, 152.2853
1115.824, 143.1531
1116.306, 139.3992
1116.788, 142.0688
1117.271, 148.4206
1117.753, 152.4058
1118.235, 155.6598
1118.717, 149.8407
1119.199, 129.8953
1119.681, 109.2314
1120.163, 102.0129
1120.645, 104.5529
1121.127, 107.0535
1121.609, 109.6156
1122.092, 112.8087
1122.574, 121.7697
1123.056, 123.7347
1123.538, 109.1805
1124.020, 90.23035
1124.502, 95.70154
1124.984, 121.6390
1125.466, 132.4042
1125.949, 119.7697
1126.431, 105.5770
1126.913, 107.9443
1127.395, 112.1101
1127.877, 104.8971
1128.359, 88.54883
1128.841, 83.00305
1129.323, 88.70898
1129.806, 93.53430
1130.288, 92.54773
1130.770, 90.78992
1131.252, 95.30811
1131.734, 100.8489
1132.216, 99.99463
1132.698, 89.82556
1133.180, 81.00977
1133.662, 72.74451
1134.145, 69.20886
1134.627, 77.56091
1135.109, 89.57458
1135.591, 90.96631
1136.073, 85.13989
1136.555, 80.91003
1137.037, 82.25830
1137.519, 82.98950
1138.001, 82.34290
1138.484, 82.21191
1138.966, 88.31396
1139.448, 95.39929
1139.930, 85.56958
1140.412, 60.61475
1140.894, 45.19287
1141.376, 56.62012
1141.858, 69.97437
1142.341, 81.09424
1142.823, 88.05200
1143.305, 85.30408
1143.787, 74.81958
1144.269, 64.41772
1144.751, 55.00391
1145.233, 50.25635
1145.715, 55.99792
1146.198, 63.33459
1146.680, 67.87476
1147.162, 69.82776
1147.644, 69.00696
1148.126, 66.55933
1148.608, 66.88220
1149.090, 73.72827
1149.572, 77.62952
1150.054, 67.54895
1150.536, 53.59326
1151.019, 45.24646
1151.501, 42.98340
1151.983, 42.68127
1152.465, 44.52173
1152.947, 45.28992
1153.429, 40.86182
1153.911, 37.19458
1154.393, 42.10974
1154.876, 51.29614
1155.358, 56.70972
1155.840, 56.77759
1156.322, 56.73792
1156.804, 56.97827
1157.286, 55.21082
1157.768, 45.09631
1158.250, 35.31738
1158.733, 41.08813
1159.215, 57.26074
1159.697, 63.19568
1160.179, 50.53845
1160.661, 38.72290
1161.143, 28.39343
1161.625, 23.85303
1162.107, 37.63220
1162.589, 57.04395
1163.072, 58.13159
1163.554, 40.48474
1164.036, 26.04028
1164.518, 15.84387
1165.000, 17.96277
1165.482, 39.56238
1165.964, 66.38574
1166.446, 71.11877
1166.928, 61.02588
1167.411, 51.88770
1167.893, 46.74390
1168.375, 41.93921
1168.857, 32.94434
1169.339, 29.11401
1169.821, 37.09436
1170.303, 49.88574
1170.785, 46.58154
1171.268, 32.21899
1171.750, 22.93433
1172.232, 25.83569
1172.714, 29.41187
1173.196, 29.18848
1173.678, 27.94031
1174.160, 27.64136
1174.642, 27.90247
1175.125, 23.87476
1175.607, 17.00342
1176.089, 15.68152
1176.571, 31.88025
1177.053, 43.81372
1177.535, 38.03638
1178.017, 26.31323
1178.499, 18.09570
1178.981, 13.34058
1179.464, 15.33691
1179.946, 23.53613
1180.428, 29.40027
1180.910, 24.03235
1181.392, 18.62415
1181.874, 20.92517
1182.356, 26.17578
1182.838, 26.38171
1183.320, 21.28882
1183.803, 21.37305
1184.285, 27.64185
1184.767, 32.30713
1185.249, 25.28430
1185.731, 19.24561
1186.213, 26.79309
1186.695, 39.91309
1187.177, 37.05603
1187.660, 16.42053
1188.142, 10.48743
1188.624, 26.71411
1189.106, 40.65149
1189.588, 20.70129
1190.070, 2.437988
1190.552, 2.054077
1191.034, 29.38147
1191.516, 36.00635
1191.999, 18.52710
1192.481, 9.881104
1192.963, 21.24219
1193.445, 34.12122
1193.927, 25.30457
1194.409, 11.77917
1194.891, 12.39197
1195.373, 28.67542
1195.855, 41.13232
1196.338, 50.33350
1196.820, 50.47021
1197.302, 35.42053
1197.784, 18.45203
1198.266, 15.03613
1198.748, 18.01453
1199.230, 17.52991
1199.712, 10.22302
1200.195, 9.929321
1200.677, 17.55383
1201.159, 26.03235
1201.641, 33.48889
1202.123, 37.47510
1202.605, 30.44983
1203.087, 19.58411
1203.569, 18.38037
1204.052, 37.84607
1204.534, 33.39966
1205.016, 0.1354980
1205.498, 27.85291
1205.980, 21.40405
1206.462, 1.743530
1206.944, 9.219116
1207.426, 13.67908
1207.908, 17.69263
1208.391, 23.97559
1208.873, 23.18738
1209.355, 13.45264
1209.837, 4.799438
1210.319, 9.823853
1210.801, 17.47583
1211.283, 13.00940
1211.765, 4.8218001E-02
1212.247, 6.974487
1212.730, 4.863037
1213.212, 3.979248
1213.694, 5.697876
1214.176, 7.183960
1214.658, 6.331665
1215.140, 3.273315
1215.622, 4.363525
1216.104, 14.78223
1216.587, 16.86401
1217.069, 5.922729
1217.551, 2.614624
1218.033, 12.25122
1218.515, 21.92310
1218.997, 11.90100
1219.479, 2.880493
1219.961, 3.755615
1220.443, 9.467407
1220.926, 16.35254
1221.408, 14.58899
1221.890, 12.08337
1222.372, 10.18201
1222.854, 9.919312
1223.336, 15.28247
1223.818, 21.17761
1224.300, 21.28760
1224.782, 14.56018
1225.265, 8.868652
1225.747, 4.624390
1226.229, 1.178711
1226.711, 11.25745
1227.193, 18.13538
1227.675, 7.189453
1228.157, 8.619751
1228.639, 12.19653
1229.122, 0.2757570
1229.604, 6.179199
1230.086, 6.918213
1230.568, 3.441895
1231.050, 5.521729
1231.532, 14.52686
1232.014, 17.24951
1232.496, 16.35864
1232.979, 14.53137
1233.461, 11.68066
1233.943, 12.48145
1234.425, 17.42896
1234.907, 20.48145
1235.389, 17.57263
1235.871, 13.59204
1236.353, 13.17383
1236.835, 14.67517
1237.318, 16.83557
1237.800, 20.46814
1238.282, 16.11536
1238.764, 3.653809
1239.246, 5.283203
1239.728, 3.902710
1240.210, 2.006470
1240.692, 11.80261
1241.175, 20.67944
1241.657, 22.01111
1242.139, 14.89209
1242.621, 2.787598
1243.103, 14.52771
1243.585, 20.65796
1244.067, 8.666016
1244.549, 36.96277
1245.031, 37.08813
1245.514, 22.10571
1245.996, 9.824219
1246.478, 0.2430420
1246.960, 0.9210210
1247.442, 12.69275
1247.924, 19.52344
1248.406, 3.752930
1248.888, 11.02283
1249.370, 10.82654
1249.853, 2.240723
1250.335, 7.773071
1250.817, 19.11804
1251.299, 25.23560
1251.781, 26.00964
1252.263, 24.52588
1252.745, 20.20850
1253.227, 16.99768
1253.710, 17.58875
1254.192, 19.45996
1254.674, 20.58118
1255.156, 20.47888
1255.638, 11.69080
1256.120, 4.636230
1256.602, 10.78455
1257.084, 15.82971
1257.567, 37.47668
1258.049, 39.02625
1258.531, 29.41125
1259.013, 16.22058
1259.495, 2.497437
1259.977, 2.284058
1260.459, 14.92712
1260.941, 24.23608
1261.423, 17.58203
1261.906, 14.09277
1262.388, 20.09583
1262.870, 26.96167
1263.352, 18.74817
1263.834, 2.928711
1264.316, 1.908081
1264.798, 5.226685
1265.280, 11.88733
1265.762, 14.20654
1266.245, 15.79956
1266.727, 16.72681
1267.209, 18.47021
1267.691, 25.50159
1268.173, 34.08496
1268.655, 30.93799
1269.137, 15.36267
1269.619, 8.355713
1270.102, 13.89441
1270.584, 21.77234
1271.066, 30.69470
1271.548, 38.54480
1272.030, 42.75525
1272.512, 44.08557
1272.994, 43.34033
1273.476, 40.39868
1273.958, 33.80469
1274.441, 23.76782
1274.923, 14.31238
1275.405, 5.619019
1275.887, 0.9719240
1276.369, 8.449707
1276.851, 20.50891
1277.333, 24.52734
1277.815, 21.17261
1278.297, 16.21594
1278.780, 7.677368
1279.262, 5.905518
1279.744, 12.11523
1280.226, 18.99536
1280.708, 20.68750
1281.190, 21.06750
1281.672, 23.72815
1282.154, 26.75964
1282.637, 24.42224
1283.119, 18.99695
1283.601, 12.05078
1284.083, 2.932007
1284.565, 0.2843020
1285.047, 19.27039
1285.529, 33.92859
1286.011, 28.95813
1286.494, 12.57422
1286.976, 9.124756
1287.458, 15.65881
1287.940, 26.11865
1288.422, 40.48523
1288.904, 48.24097
1289.386, 42.46240
1289.868, 32.40759
1290.350, 18.62207
1290.833, 5.649048
1291.315, 3.146729
1291.797, 8.139526
1292.279, 16.63074
1292.761, 30.43127
1293.243, 34.77979
1293.725, 24.21191
1294.207, 16.52307
1294.689, 19.03955
1295.172, 23.15759
1295.654, 12.66003
1296.136, 2.081909
1296.618, 6.803467
1297.100, 2.730713
1297.582, 12.60413
1298.064, 23.49194
1298.546, 30.68042
1299.029, 32.52808
1299.511, 30.59180
1299.993, 23.29150
1300.475, 16.15588
1300.957, 13.39136
1301.439, 14.66455
1301.921, 18.83484
1302.403, 14.63098
1302.885, 16.24817
1303.368, 14.19165
1303.850, 11.32043
1304.332, 8.841309
1304.814, 7.942383
1305.296, 12.89502
1305.778, 20.98999
1306.260, 19.52393
1306.742, 11.16418
1307.224, 3.746216
1307.707, 0.0000000E+00
##END=



