##NAMES=Vesuvianite
##RRUFFID=R050489
##IDEAL CHEMISTRY=(Ca,Na)_19_(Al,Mg,Fe)_13_(SiO_4_)_10_(Si_2_O_7_)_4_(OH,F,O)_10_
##LOCALITY=Crestmore Quarry, Riverside County, California, USA
##OWNER=RRUFF
##SOURCE=California Institute of Technology
##DESCRIPTION=Green prismatic crystal
##STATUS=The identification of this mineral has been confirmed by X-ray diffraction and chemical analysis
##URL=rruff.info/R050489
##MEASURED CHEMISTRY=Ca_19.00_(Al_9.56_Mg_2.36_Fe^2+^_0.86_Ti_0.22_)_Σ=13_Si_18.00_O_68_((OH)_9.59_F_0.41_)_Σ=10_ ; B not measured
127.0493, 0.5498050
127.5314, 1.162842
128.0135, 1.535889
128.4956, 1.882080
128.9777, 4.985596
129.4599, 16.25220
129.9420, 24.79663
130.4241, 28.07129
130.9062, 28.10791
131.3883, 27.71460
131.8704, 27.60034
132.3526, 27.77051
132.8347, 28.65967
133.3168, 29.91162
133.7989, 32.04932
134.2810, 36.51050
134.7632, 42.54199
135.2453, 46.61377
135.7274, 46.42944
136.2095, 42.87769
136.6916, 39.59766
137.1737, 36.38086
137.6559, 34.01660
138.1380, 32.73193
138.6201, 32.43164
139.1022, 31.89551
139.5843, 30.44092
140.0664, 28.68726
140.5486, 27.18506
141.0307, 25.98022
141.5128, 24.36108
141.9949, 21.58691
142.4770, 17.58887
142.9591, 14.31860
143.4413, 13.44214
143.9234, 13.56201
144.4055, 12.28052
144.8876, 10.86296
145.3697, 9.318101
145.8518, 6.900635
146.3340, 5.218018
146.8161, 2.464844
147.2982, 0.5546880
147.7803, 0.1511230
148.2624, 0.2446290
148.7445, 0.4526370
149.2267, 0.8161620
149.7088, 0.8967290
150.1909, 0.5251460
150.6730, 0.3449710
151.1551, 7.612061
151.6372, 13.22949
152.1194, 17.53003
152.6015, 21.21973
153.0836, 24.61670
153.5657, 27.38208
154.0478, 29.54858
154.5299, 31.27905
155.0121, 33.05103
155.4942, 35.09937
155.9763, 36.42822
156.4584, 34.75024
156.9405, 29.73779
157.4226, 25.89185
157.9048, 25.85596
158.3869, 27.82056
158.8690, 27.69531
159.3511, 23.70239
159.8332, 18.43188
160.3153, 15.33154
160.7975, 14.47485
161.2796, 13.27637
161.7617, 9.375977
162.2438, 3.058350
162.7259, 1.600586
163.2081, 2.258301
163.6902, 1.987549
164.1723, 3.047852
164.6544, 5.665283
165.1365, 8.865723
165.6186, 11.98804
166.1008, 15.31909
166.5829, 17.18774
167.0650, 14.92017
167.5471, 12.68994
168.0292, 13.63086
168.5113, 18.40137
168.9935, 24.61523
169.4756, 28.22363
169.9577, 27.73560
170.4398, 27.31885
170.9219, 26.96826
171.4040, 26.98633
171.8862, 27.78101
172.3683, 29.47241
172.8504, 31.65234
173.3325, 33.32300
173.8146, 34.04517
174.2967, 34.68213
174.7789, 35.77441
175.2610, 36.62817
175.7431, 36.13892
176.2252, 33.73291
176.7073, 30.25366
177.1894, 28.55420
177.6716, 29.82764
178.1537, 31.19897
178.6358, 32.54321
179.1179, 33.56177
179.6000, 33.36597
180.0821, 31.09033
180.5643, 27.90112
181.0464, 27.48486
181.5285, 31.54907
182.0106, 35.40454
182.4927, 36.75049
182.9748, 35.98413
183.4570, 34.68140
183.9391, 33.06250
184.4212, 31.70923
184.9033, 31.70776
185.3854, 33.54199
185.8675, 35.81860
186.3497, 37.97046
186.8318, 40.01099
187.3139, 40.40527
187.7960, 37.95947
188.2781, 33.79248
188.7602, 28.74951
189.2424, 22.40723
189.7245, 16.26147
190.2066, 12.43921
190.6887, 11.37817
191.1708, 11.15552
191.6530, 11.57227
192.1351, 12.14258
192.6172, 12.51904
193.0993, 12.69507
193.5814, 12.66895
194.0635, 12.09961
194.5457, 10.25708
195.0278, 9.332275
195.5099, 10.54517
195.9920, 12.37329
196.4741, 13.21606
196.9562, 12.34180
197.4384, 10.45264
197.9205, 9.462646
198.4026, 9.360596
198.8847, 10.36597
199.3668, 13.57861
199.8489, 17.48926
200.3311, 20.35791
200.8132, 21.28198
201.2953, 20.72510
201.7774, 20.70801
202.2595, 20.72437
202.7416, 22.11841
203.2238, 25.55688
203.7059, 30.28662
204.1880, 35.61060
204.6701, 41.18555
205.1522, 46.77783
205.6343, 51.68945
206.1165, 56.59692
206.5986, 60.46216
207.0807, 61.53906
207.5628, 61.41553
208.0449, 63.30078
208.5270, 69.14282
209.0092, 77.73242
209.4913, 84.60034
209.9734, 89.28662
210.4555, 93.12646
210.9376, 96.78369
211.4197, 100.1121
211.9019, 102.3394
212.3840, 102.6179
212.8661, 101.7312
213.3482, 102.0146
213.8303, 103.7061
214.3124, 106.3770
214.7946, 110.6001
215.2767, 115.8306
215.7588, 119.6157
216.2409, 120.5542
216.7230, 119.7854
217.2052, 119.5798
217.6873, 120.1196
218.1694, 120.7200
218.6515, 120.6726
219.1336, 120.0134
219.6157, 119.9099
220.0979, 121.5408
220.5800, 123.5178
221.0621, 124.1814
221.5442, 123.1750
222.0263, 121.6082
222.5084, 120.6345
222.9906, 120.3491
223.4727, 119.7034
223.9548, 117.6287
224.4369, 115.5046
224.9190, 114.5464
225.4011, 115.0181
225.8833, 115.7122
226.3654, 115.0549
226.8475, 112.7241
227.3296, 110.5693
227.8117, 108.9973
228.2938, 107.6299
228.7760, 106.5625
229.2581, 105.7410
229.7402, 104.5121
230.2223, 101.7401
230.7044, 96.67786
231.1865, 92.45081
231.6687, 90.01587
232.1508, 87.99817
232.6329, 85.51819
233.1150, 82.42493
233.5971, 79.27063
234.0792, 76.88440
234.5614, 75.71118
235.0435, 74.15710
235.5256, 71.42236
236.0077, 68.99194
236.4898, 67.87256
236.9719, 68.19775
237.4541, 69.33398
237.9362, 70.55054
238.4183, 72.25293
238.9004, 72.93018
239.3825, 72.69238
239.8646, 71.72693
240.3468, 69.65955
240.8289, 66.62427
241.3110, 63.51855
241.7931, 61.31458
242.2752, 59.88647
242.7573, 60.20044
243.2395, 63.27576
243.7216, 67.10938
244.2037, 70.94312
244.6858, 74.42371
245.1679, 76.86377
245.6501, 77.20166
246.1322, 74.40820
246.6143, 73.68152
247.0964, 76.63647
247.5785, 80.04517
248.0606, 81.65869
248.5428, 81.50720
249.0249, 81.34766
249.5070, 82.99719
249.9891, 86.88184
250.4712, 89.72693
250.9533, 90.52124
251.4355, 91.13892
251.9176, 93.04639
252.3997, 96.15869
252.8818, 99.21692
253.3639, 101.1354
253.8460, 101.9138
254.3282, 103.2040
254.8103, 106.4806
255.2924, 108.9647
255.7745, 108.6239
256.2566, 105.5496
256.7387, 101.2308
257.2209, 96.47876
257.7030, 91.36719
258.1851, 86.43982
258.6672, 81.97021
259.1493, 77.28137
259.6314, 71.82019
260.1136, 65.65320
260.5957, 59.39050
261.0778, 52.89441
261.5599, 46.88953
262.0420, 42.98682
262.5241, 43.04224
263.0063, 42.98401
263.4884, 39.20642
263.9705, 32.18396
264.4526, 26.02124
264.9347, 22.59766
265.4168, 21.31543
265.8990, 20.58105
266.3811, 20.30518
266.8632, 20.93896
267.3453, 23.48792
267.8274, 27.57886
268.3095, 30.27441
268.7917, 29.49109
269.2738, 27.74414
269.7559, 28.68896
270.2380, 32.90625
270.7201, 36.95972
271.2022, 37.49170
271.6844, 35.24353
272.1665, 35.62793
272.6486, 42.31165
273.1307, 49.56995
273.6128, 51.22327
274.0949, 47.31445
274.5771, 43.35083
275.0592, 42.73169
275.5413, 45.11743
276.0234, 48.67688
276.5055, 53.78088
276.9876, 59.18225
277.4698, 63.89246
277.9519, 67.99719
278.4340, 72.02014
278.9161, 76.51941
279.3982, 81.27087
279.8803, 85.21790
280.3625, 87.72778
280.8446, 90.27832
281.3267, 93.96765
281.8088, 98.34717
282.2909, 102.3861
282.7730, 105.0310
283.2552, 106.9442
283.7373, 110.6404
284.2194, 117.4398
284.7015, 123.2682
285.1836, 125.7363
285.6658, 126.3241
286.1479, 127.2646
286.6300, 129.8822
287.1121, 133.0962
287.5942, 134.1620
288.0764, 131.7184
288.5585, 130.4453
289.0406, 133.4462
289.5227, 137.8451
290.0048, 140.8274
290.4869, 141.4994
290.9691, 140.0796
291.4512, 136.3242
291.9333, 129.1251
292.4154, 123.2239
292.8975, 120.4469
293.3796, 119.0735
293.8618, 118.2306
294.3439, 117.7241
294.8260, 117.1637
295.3081, 115.9314
295.7902, 113.8518
296.2723, 111.8724
296.7545, 109.5251
297.2366, 107.7610
297.7187, 107.9333
298.2008, 109.7855
298.6829, 110.9630
299.1650, 108.4325
299.6472, 101.6599
300.1293, 96.25610
300.6114, 92.14734
301.0935, 90.12231
301.5756, 92.01550
302.0577, 96.68689
302.5399, 100.6417
303.0220, 100.7207
303.5041, 97.09253
303.9862, 94.10278
304.4683, 91.94336
304.9504, 90.48071
305.4326, 90.04248
305.9147, 90.18347
306.3968, 90.11084
306.8789, 89.29089
307.3610, 87.97949
307.8431, 87.34155
308.3253, 88.40881
308.8074, 88.41711
309.2895, 86.16553
309.7716, 82.76257
310.2537, 79.33752
310.7358, 76.26404
311.2180, 73.85010
311.7001, 73.09680
312.1822, 75.14954
312.6643, 76.21655
313.1464, 74.92175
313.6285, 72.83789
314.1107, 71.02515
314.5928, 69.79968
315.0749, 69.11377
315.5570, 69.08740
316.0391, 69.99951
316.5212, 70.39600
317.0034, 69.70959
317.4855, 68.78125
317.9676, 68.04822
318.4497, 67.53357
318.9318, 66.98755
319.4139, 65.93726
319.8961, 64.25659
320.3782, 63.70581
320.8603, 67.00940
321.3424, 68.76831
321.8245, 65.34766
322.3066, 58.49915
322.7888, 52.73987
323.2709, 51.78223
323.7530, 54.87939
324.2351, 56.51990
324.7172, 56.69202
325.1993, 55.28613
325.6815, 51.25720
326.1636, 46.09546
326.6457, 41.66016
327.1278, 38.83240
327.6099, 37.47485
328.0920, 37.61475
328.5742, 40.76648
329.0563, 41.93176
329.5384, 38.20898
330.0205, 33.18433
330.5026, 30.16089
330.9847, 30.04102
331.4669, 30.90710
331.9490, 30.27808
332.4311, 28.04895
332.9132, 24.85706
333.3953, 18.91553
333.8774, 13.50891
334.3596, 10.81067
334.8417, 10.76379
335.3238, 11.52368
335.8059, 11.79919
336.2880, 11.60364
336.7701, 10.04114
337.2523, 5.427612
337.7344, 1.303467
338.2165, 0.6450200
338.6986, 0.8953860
339.1807, 0.6480710
339.6628, 0.2867430
340.1450, 7.5195000E-02
340.6271, 1.405640
341.1092, 6.015137
341.5913, 8.726563
342.0735, 5.833130
342.5556, 0.7692870
343.0377, 1.972656
343.5198, 0.2325440
344.0019, 2.953247
344.4840, 2.143921
344.9662, 3.868652
345.4483, 8.548218
345.9304, 8.631592
346.4125, 7.357544
346.8946, 6.731689
347.3767, 7.077026
347.8589, 7.920776
348.3410, 8.667969
348.8231, 9.343262
349.3052, 10.96912
349.7873, 14.33276
350.2694, 17.99146
350.7516, 21.38184
351.2337, 24.33020
351.7158, 26.18799
352.1979, 25.18530
352.6800, 22.69336
353.1621, 23.92383
353.6443, 30.91663
354.1264, 37.12708
354.6085, 37.66101
355.0906, 35.13647
355.5727, 33.50562
356.0548, 34.31567
356.5370, 36.28577
357.0191, 37.82239
357.5012, 38.89966
357.9833, 39.87268
358.4654, 40.82739
358.9475, 41.79553
359.4297, 42.83765
359.9118, 43.98743
360.3939, 45.09082
360.8760, 46.10046
361.3581, 46.98535
361.8402, 47.60376
362.3224, 47.90564
362.8045, 47.92480
363.2866, 47.45178
363.7687, 46.55945
364.2508, 46.18066
364.7329, 46.97449
365.2151, 48.40784
365.6972, 49.48511
366.1793, 50.01624
366.6614, 50.86536
367.1435, 53.51208
367.6256, 57.01636
368.1078, 58.44214
368.5899, 56.40479
369.0720, 53.00488
369.5541, 48.93872
370.0362, 44.54382
370.5183, 42.33350
371.0005, 44.14221
371.4826, 48.34546
371.9647, 51.38135
372.4468, 53.55029
372.9289, 54.09863
373.4110, 50.50537
373.8932, 45.46924
374.3753, 44.67053
374.8574, 49.98804
375.3395, 57.20215
375.8216, 61.09473
376.3037, 61.33691
376.7859, 60.94824
377.2680, 59.28162
377.7501, 57.63892
378.2322, 57.66003
378.7143, 59.15955
379.1964, 59.87695
379.6786, 57.79614
380.1607, 53.34937
380.6428, 51.17200
381.1249, 52.47046
381.6070, 54.61072
382.0891, 58.00757
382.5713, 61.42273
383.0534, 61.66125
383.5355, 57.21704
384.0176, 51.20264
384.4997, 50.30188
384.9818, 60.03577
385.4640, 66.08069
385.9461, 64.63123
386.4282, 61.17163
386.9103, 60.26404
387.3924, 62.66138
387.8745, 66.51892
388.3567, 69.85547
388.8388, 72.62952
389.3209, 75.30371
389.8030, 78.19226
390.2851, 80.72180
390.7672, 82.35901
391.2494, 83.49255
391.7315, 84.92688
392.2136, 87.15320
392.6957, 89.89697
393.1778, 92.07410
393.6599, 92.26599
394.1421, 94.10876
394.6242, 98.78076
395.1063, 104.5825
395.5884, 110.0547
396.0706, 114.8438
396.5527, 119.3800
397.0348, 124.1790
397.5169, 129.1755
397.9990, 134.5695
398.4811, 140.8091
398.9633, 146.9058
399.4454, 152.6387
399.9275, 158.0927
400.4096, 163.3743
400.8917, 168.5526
401.3738, 173.4363
401.8560, 177.3351
402.3381, 180.1005
402.8202, 182.3856
403.3023, 183.9305
403.7844, 185.3029
404.2665, 187.2877
404.7487, 190.1882
405.2308, 193.0719
405.7129, 194.5243
406.1950, 194.4415
406.6771, 195.1715
407.1592, 198.9967
407.6414, 201.7485
408.1235, 199.3429
408.6056, 192.7140
409.0877, 187.2202
409.5698, 187.3334
410.0519, 190.5416
410.5341, 190.7202
411.0162, 187.1503
411.4983, 182.8832
411.9804, 180.1261
412.4625, 177.7159
412.9446, 173.5505
413.4268, 166.3340
413.9089, 158.9160
414.3910, 154.0323
414.8731, 151.1125
415.3552, 147.3666
415.8373, 141.7537
416.3195, 135.2035
416.8016, 128.8727
417.2837, 122.7052
417.7658, 117.0527
418.2479, 112.1504
418.7300, 107.7466
419.2122, 103.8763
419.6943, 100.4691
420.1764, 96.29944
420.6585, 89.98547
421.1406, 81.87866
421.6227, 76.12512
422.1049, 74.14734
422.5870, 72.60974
423.0691, 70.97864
423.5512, 68.75098
424.0333, 64.79065
424.5154, 58.61292
424.9976, 51.30505
425.4797, 44.93970
425.9618, 39.98840
426.4439, 35.18433
426.9260, 30.04395
427.4081, 25.40930
427.8903, 22.32214
428.3724, 20.48608
428.8545, 18.39099
429.3366, 14.62756
429.8187, 9.317261
430.3008, 5.577759
430.7830, 4.927002
431.2651, 4.268799
431.7472, 3.148071
432.2293, 1.754761
432.7114, 0.2467040
433.1935, 1.300293
433.6757, 2.604248
434.1578, 3.114014
434.6399, 2.622314
435.1220, 2.115234
435.6041, 1.877563
436.0862, 1.481689
436.5684, 0.1619870
437.0505, 1.598389
437.5326, 2.291382
438.0147, 0.6013180
438.4968, 2.868652
438.9789, 6.368774
439.4611, 10.74023
439.9432, 12.97412
440.4253, 8.863892
440.9074, 3.320313
441.3895, 2.051147
441.8716, 6.835083
442.3538, 12.39502
442.8359, 14.29175
443.3180, 12.89844
443.8001, 9.924561
444.2822, 4.684570
444.7643, 0.2436520
445.2465, 1.735596
445.7286, 0.5554200
446.2107, 0.1254880
446.6928, 1.378296
447.1749, 3.218506
447.6570, 3.300659
448.1392, 1.763672
448.6213, 0.1823730
449.1034, 0.8083500
449.5855, 1.110718
450.0677, 0.2694090
450.5498, 2.525391
451.0319, 4.550415
451.5140, 4.090698
451.9961, 2.953125
452.4782, 3.528564
452.9604, 6.203369
453.4425, 9.497925
453.9246, 11.90295
454.4067, 13.30115
454.8888, 15.05017
455.3709, 18.75415
455.8531, 21.04114
456.3352, 19.01819
456.8173, 15.09766
457.2994, 13.39868
457.7815, 15.84717
458.2636, 20.84619
458.7458, 25.23315
459.2279, 29.42786
459.7100, 32.03174
460.1921, 31.65637
460.6742, 31.04358
461.1563, 31.86316
461.6385, 33.98486
462.1206, 36.26501
462.6027, 37.84094
463.0848, 38.82397
463.5669, 39.69238
464.0490, 40.12915
464.5312, 41.08618
465.0133, 42.76343
465.4954, 45.13684
465.9775, 48.50256
466.4596, 53.00989
466.9417, 57.33948
467.4239, 60.76697
467.9060, 63.13928
468.3881, 63.00598
468.8702, 58.83362
469.3523, 54.69617
469.8344, 54.02136
470.3166, 56.21643
470.7987, 59.80273
471.2808, 66.06653
471.7629, 72.05884
472.2450, 74.86157
472.7271, 74.98572
473.2093, 74.74292
473.6914, 75.06323
474.1735, 75.70508
474.6556, 76.02502
475.1377, 75.88623
475.6198, 75.67358
476.1020, 75.24927
476.5841, 74.91797
477.0662, 75.11462
477.5483, 75.88586
478.0304, 76.44006
478.5125, 75.97388
478.9947, 74.73328
479.4768, 74.67456
479.9589, 77.70288
480.4410, 79.57324
480.9231, 78.51880
481.4052, 76.67883
481.8874, 76.75977
482.3695, 79.16736
482.8516, 81.48669
483.3337, 80.32983
483.8158, 75.05139
484.2979, 71.90979
484.7801, 73.22754
485.2622, 74.08630
485.7443, 72.33154
486.2264, 69.13428
486.7085, 66.52808
487.1906, 65.51245
487.6728, 64.90247
488.1549, 62.13684
488.6370, 56.91907
489.1191, 54.70312
489.6012, 58.80957
490.0833, 63.95044
490.5655, 65.51489
491.0476, 63.83655
491.5297, 61.26904
492.0118, 58.52026
492.4939, 55.58484
492.9760, 52.05432
493.4582, 48.05969
493.9403, 45.21948
494.4224, 44.50537
494.9045, 45.23657
495.3866, 45.98474
495.8687, 47.08362
496.3509, 47.17163
496.8330, 44.77319
497.3151, 41.78967
497.7972, 40.78662
498.2793, 42.19763
498.7614, 44.08032
499.2436, 44.53247
499.7257, 43.38000
500.2078, 42.23108
500.6899, 41.21289
501.1720, 40.73328
501.6541, 42.25403
502.1363, 43.84680
502.6184, 42.59595
503.1005, 37.96875
503.5826, 32.79382
504.0647, 30.90698
504.5468, 32.80066
505.0290, 33.69592
505.5111, 32.53467
505.9932, 31.66431
506.4753, 32.47644
506.9575, 34.01843
507.4396, 34.76721
507.9217, 34.14355
508.4038, 32.85107
508.8859, 31.33972
509.3680, 29.64404
509.8502, 28.78259
510.3323, 29.24866
510.8144, 30.17920
511.2965, 31.09167
511.7786, 31.87122
512.2607, 31.62366
512.7429, 29.12183
513.2250, 26.31445
513.7071, 24.90173
514.1892, 24.65674
514.6713, 24.52637
515.1534, 24.13403
515.6356, 23.40588
516.1177, 22.11206
516.5998, 19.79822
517.0819, 17.86328
517.5640, 16.73242
518.0461, 15.69055
518.5283, 13.77051
519.0104, 11.42249
519.4925, 10.34546
519.9746, 11.84131
520.4567, 14.91211
520.9388, 15.75476
521.4210, 13.16443
521.9031, 10.50415
522.3852, 7.511719
522.8673, 5.057861
523.3494, 4.008789
523.8315, 4.231079
524.3137, 4.714111
524.7958, 4.645508
525.2779, 4.229370
525.7600, 4.449951
526.2421, 5.697876
526.7242, 6.056641
527.2064, 3.609985
527.6885, 0.3868410
528.1706, 1.010742
528.6527, 0.1684570
529.1348, 1.253052
529.6169, 3.177368
530.0991, 4.876343
530.5812, 4.746826
531.0633, 2.635132
531.5454, 0.5646970
532.0275, 5.1270002E-03
532.5096, 0.7709960
532.9918, 1.596802
533.4739, 1.284017
533.9560, 4.184326
534.4381, 1.515625
534.9202, 1.766968
535.4023, 2.335815
535.8845, 0.1976320
536.3666, 3.457153
536.8487, 5.093018
537.3308, 5.111816
537.8129, 4.818726
538.2950, 3.282227
538.7772, 2.695679
539.2593, 4.739868
539.7414, 7.322632
540.2235, 7.910767
540.7056, 5.909912
541.1877, 3.498169
541.6699, 2.760254
542.1520, 3.545166
542.6341, 5.130005
543.1162, 8.229980
543.5983, 10.24304
544.0804, 8.322632
544.5626, 4.368530
545.0447, 1.890503
545.5268, 1.701538
546.0089, 2.375610
546.4910, 3.849976
546.9731, 5.439697
547.4553, 5.505127
547.9374, 3.678955
548.4195, 1.706787
548.9016, 1.431885
549.3837, 0.4534957
549.8658, 0.4004410
550.3480, 0.8160400
550.8301, 1.435913
551.3122, 3.638916
551.7943, 5.335083
552.2764, 5.805908
552.7585, 4.955811
553.2407, 3.614258
553.7228, 2.707275
554.2049, 2.247070
554.6870, 2.056885
555.1691, 2.365234
555.6512, 2.622803
556.1334, 2.726685
556.6155, 2.636108
557.0976, 2.212158
557.5797, 1.362671
558.0618, 0.5988770
558.5439, 0.7047120
559.0261, 1.322754
559.5082, 1.024902
559.9903, 2.118808
560.4724, 2.373291
560.9545, 4.024658
561.4366, 5.387085
561.9188, 6.230347
562.4009, 6.039307
562.8830, 5.971802
563.3651, 6.936279
563.8472, 8.084961
564.3293, 7.969971
564.8115, 6.409912
565.2936, 4.729248
565.7757, 4.239014
566.2578, 4.939087
566.7399, 5.968506
567.2220, 7.767212
567.7042, 9.379028
568.1863, 10.86731
568.6684, 11.96753
569.1505, 11.95032
569.6326, 10.85815
570.1147, 10.29199
570.5969, 12.42419
571.0790, 16.68445
571.5611, 19.34888
572.0432, 19.92126
572.5253, 20.17102
573.0074, 20.92896
573.4896, 21.93408
573.9717, 22.73340
574.4538, 23.14978
574.9359, 23.88538
575.4180, 25.18921
575.9001, 27.05225
576.3823, 29.58545
576.8644, 32.75708
577.3465, 36.21912
577.8286, 39.86084
578.3107, 43.50806
578.7928, 46.31555
579.2750, 47.35229
579.7571, 48.75208
580.2392, 50.62219
580.7213, 52.84839
581.2034, 55.59546
581.6855, 58.68115
582.1677, 61.56738
582.6498, 63.86084
583.1319, 65.59351
583.6140, 66.48779
584.0961, 65.80725
584.5782, 66.91357
585.0604, 72.84033
585.5425, 79.15088
586.0246, 81.88916
586.5067, 81.34778
586.9889, 80.86584
587.4710, 81.79138
587.9531, 83.53931
588.4352, 85.70715
588.9174, 88.17053
589.3995, 90.56030
589.8816, 92.94788
590.3637, 94.81921
590.8458, 94.96619
591.3279, 92.21570
591.8101, 91.12402
592.2922, 92.32629
592.7743, 94.26099
593.2564, 97.23425
593.7385, 100.5251
594.2206, 102.4272
594.7028, 102.0754
595.1849, 100.5681
595.6670, 99.70715
596.1491, 99.56384
596.6312, 99.39404
597.1133, 98.78711
597.5955, 98.71448
598.0776, 99.59631
598.5597, 101.2985
599.0418, 103.8433
599.5239, 107.9747
600.0060, 111.3536
600.4882, 111.6198
600.9703, 109.7826
601.4524, 107.8638
601.9345, 106.1923
602.4166, 105.8525
602.8987, 108.3986
603.3809, 113.4891
603.8630, 115.6018
604.3451, 111.3988
604.8272, 108.9142
605.3093, 111.2825
605.7914, 114.9779
606.2736, 116.3783
606.7557, 115.1886
607.2378, 113.6674
607.7199, 113.7571
608.2020, 115.0851
608.6841, 116.1017
609.1663, 116.9019
609.6484, 116.9849
610.1305, 115.9337
610.6126, 114.6084
611.0947, 113.4766
611.5768, 112.5824
612.0590, 112.4202
612.5411, 113.9186
613.0232, 115.7301
613.5053, 116.0477
613.9874, 115.2246
614.4695, 114.9701
614.9517, 115.9681
615.4338, 118.0876
615.9159, 121.2579
616.3980, 126.0603
616.8801, 129.5999
617.3622, 130.7264
617.8444, 132.1360
618.3265, 135.4497
618.8086, 139.5345
619.2907, 142.3964
619.7728, 143.3315
620.2549, 143.7123
620.7371, 144.9747
621.2192, 147.1337
621.7013, 150.9482
622.1834, 157.2985
622.6655, 163.3633
623.1476, 167.0074
623.6298, 169.4543
624.1119, 172.6122
624.5940, 176.7053
625.0761, 181.3361
625.5582, 186.8033
626.0403, 192.4333
626.5225, 196.8667
627.0046, 200.3297
627.4867, 204.8973
627.9688, 212.1514
628.4509, 221.0251
628.9330, 228.1215
629.4152, 232.5583
629.8973, 236.7378
630.3794, 240.2488
630.8615, 244.0333
631.3436, 248.8824
631.8257, 254.4509
632.3079, 259.9521
632.7900, 265.2188
633.2721, 269.7482
633.7542, 272.0789
634.2363, 272.5912
634.7184, 275.0490
635.2006, 280.7216
635.6827, 286.8496
636.1648, 291.3530
636.6469, 294.1650
637.1290, 295.6586
637.6111, 294.8207
638.0933, 293.8823
638.5754, 294.7067
639.0575, 295.1749
639.5396, 292.3549
640.0217, 286.2063
640.5038, 279.3956
640.9860, 274.1127
641.4681, 269.8666
641.9502, 264.1527
642.4323, 256.6548
642.9144, 248.4685
643.3965, 239.5433
643.8787, 230.1317
644.3608, 220.0815
644.8429, 209.5902
645.3250, 199.5477
645.8071, 190.7627
646.2892, 182.1152
646.7714, 172.1718
647.2535, 161.4103
647.7356, 151.4618
648.2177, 142.8875
648.6998, 134.9929
649.1819, 127.3151
649.6641, 119.8928
650.1462, 111.4043
650.6283, 99.83667
651.1104, 89.72278
651.5925, 83.25623
652.0746, 77.92102
652.5568, 71.11084
653.0389, 62.55298
653.5210, 54.01160
654.0031, 46.73779
654.4852, 40.59546
654.9673, 35.26868
655.4495, 30.77844
655.9316, 26.97998
656.4137, 24.09961
656.8958, 21.61646
657.3779, 18.52539
657.8600, 14.78833
658.3422, 12.10083
658.8243, 11.63000
659.3064, 11.46790
659.7885, 10.64771
660.2706, 9.098145
660.7527, 6.870728
661.2349, 4.369385
661.7170, 2.391602
662.1991, 1.682129
662.6812, 2.005371
663.1633, 2.277588
663.6454, 3.319092
664.1276, 3.097778
664.6097, 0.7977290
665.0918, 5.063354
665.5739, 6.794189
666.0560, 5.805176
666.5381, 3.850708
667.0203, 0.7727050
667.5024, 1.986206
667.9845, 2.189941
668.4666, 0.6978760
668.9487, 0.7994380
669.4308, 3.815308
669.9130, 7.477295
670.3951, 8.724487
670.8772, 7.266479
671.3593, 5.787842
671.8414, 2.433228
672.3235, 1.363770
672.8057, 5.251099
673.2878, 10.80969
673.7699, 14.87476
674.2520, 16.84680
674.7341, 17.73242
675.2162, 17.73572
675.6984, 17.36353
676.1805, 17.56885
676.6626, 18.35791
677.1447, 19.64111
677.6268, 21.28162
678.1089, 23.65881
678.5911, 27.64417
679.0732, 33.83069
679.5553, 38.09253
680.0374, 38.84058
680.5195, 39.55994
681.0016, 41.22388
681.4838, 43.76270
681.9659, 47.52258
682.4480, 52.29041
682.9301, 56.38098
683.4122, 57.54492
683.8943, 56.86023
684.3765, 58.86060
684.8586, 63.86877
685.3407, 69.75574
685.8228, 76.41943
686.3049, 82.94202
686.7870, 87.66028
687.2692, 90.63037
687.7513, 94.89111
688.2334, 102.9515
688.7155, 110.2296
689.1976, 113.0424
689.6797, 113.8939
690.1619, 117.0157
690.6440, 123.2594
691.1261, 130.0325
691.6082, 134.8221
692.0903, 137.8344
692.5724, 140.3301
693.0546, 141.9242
693.5367, 144.1997
694.0188, 148.9478
694.5009, 153.3662
694.9830, 154.4701
695.4651, 152.6693
695.9473, 151.4199
696.4294, 153.5848
696.9116, 154.7640
697.3937, 151.6205
697.8758, 145.4403
698.3579, 138.2192
698.8400, 130.5836
699.3221, 122.8450
699.8043, 115.2406
700.2864, 107.8654
700.7685, 101.6941
701.2506, 97.86536
701.7327, 92.78455
702.2148, 84.62732
702.6970, 75.94861
703.1791, 67.87610
703.6612, 60.66309
704.1433, 54.70251
704.6254, 50.88306
705.1075, 47.47571
705.5897, 43.15051
706.0718, 38.20825
706.5539, 33.02173
707.0360, 27.73718
707.5181, 23.37488
708.0002, 20.90430
708.4824, 19.86865
708.9645, 17.81042
709.4466, 13.55090
709.9287, 10.41382
710.4108, 9.415039
710.8929, 8.931152
711.3751, 8.376831
711.8572, 7.615967
712.3393, 6.443970
712.8214, 4.646851
713.3035, 2.777710
713.7856, 1.083984
714.2678, 0.2130130
714.7499, 0.4083250
715.2320, 0.4705810
715.7141, 0.9670410
716.1962, 0.1094970
716.6783, 1.433716
717.1605, 1.729980
717.6426, 0.8543700
718.1247, 1.315552
718.6068, 3.400757
719.0889, 6.977661
719.5710, 5.709229
720.0532, 1.541504
720.5353, 2.274170
721.0174, 4.865723
721.4995, 6.194336
721.9816, 5.564697
722.4637, 3.708496
722.9459, 1.564819
723.4280, 0.5307620
723.9101, 0.6591800
724.3922, 2.130005
724.8743, 6.306152
725.3564, 9.347534
725.8386, 11.25281
726.3207, 12.12524
726.8028, 10.87537
727.2849, 10.39246
727.7670, 12.16443
728.2491, 14.49805
728.7313, 15.22681
729.2134, 14.06287
729.6955, 12.96863
730.1776, 13.55188
730.6597, 15.10266
731.1418, 16.47705
731.6240, 17.64844
732.1061, 18.69153
732.5882, 19.68445
733.0703, 20.16516
733.5524, 19.40796
734.0345, 17.32629
734.5167, 16.14465
734.9988, 16.06458
735.4809, 16.68823
735.9630, 18.56653
736.4451, 20.66663
736.9272, 22.01562
737.4094, 22.71228
737.8915, 23.72888
738.3736, 25.97852
738.8557, 28.20605
739.3378, 28.62671
739.8199, 27.88123
740.3021, 28.27661
740.7842, 30.25989
741.2663, 31.49329
741.7484, 29.78064
742.2305, 26.02478
742.7126, 24.71680
743.1948, 27.19092
743.6769, 29.71863
744.1590, 32.40051
744.6411, 34.77649
745.1232, 37.00293
745.6053, 38.65137
746.0875, 38.65002
746.5696, 36.28540
747.0517, 33.88660
747.5338, 33.29370
748.0159, 33.83667
748.4980, 34.39453
748.9802, 34.92932
749.4623, 36.03430
749.9444, 38.08984
750.4265, 40.50330
750.9086, 42.35071
751.3907, 43.91577
751.8729, 43.51184
752.3550, 39.05994
752.8371, 35.36572
753.3192, 34.61462
753.8013, 34.95117
754.2834, 34.33789
754.7656, 32.53455
755.2477, 30.66956
755.7298, 28.63000
756.2119, 27.29028
756.6940, 28.26953
757.1761, 30.51050
757.6583, 31.48853
758.1404, 30.51782
758.6225, 28.46204
759.1046, 25.95105
759.5867, 23.20862
760.0688, 21.76160
760.5510, 22.13586
761.0331, 22.41565
761.5152, 22.18713
761.9973, 21.81018
762.4794, 21.68237
762.9615, 21.64099
763.4437, 21.14197
763.9258, 20.04517
764.4079, 18.57849
764.8900, 16.82739
765.3721, 14.77051
765.8542, 11.70715
766.3364, 8.201782
766.8185, 6.496582
767.3006, 7.924194
767.7827, 10.50879
768.2648, 10.46680
768.7469, 7.651367
769.2291, 5.909180
769.7112, 5.707520
770.1933, 5.744873
770.6754, 5.738647
771.1575, 5.366211
771.6396, 3.783569
772.1218, 0.6093750
772.6039, 1.339966
773.0860, 0.5037840
773.5681, 0.5566410
774.0502, 0.3078610
774.5323, 0.5815430
775.0145, 0.9121090
775.4966, 0.2978520
775.9787, 0.6145020
776.4608, 1.333008
776.9429, 1.618408
777.4250, 0.9821780
777.9072, 0.3723140
778.3893, 1.899048
778.8714, 3.802246
779.3535, 5.204834
779.8356, 5.075195
780.3177, 3.769531
780.7999, 3.542603
781.2820, 6.221802
781.7641, 7.332153
782.2462, 5.271606
782.7283, 2.643311
783.2104, 0.3159180
783.6926, 1.051514
784.1747, 1.3550000E-02
784.6568, 4.372192
785.1389, 8.279419
785.6210, 8.048340
786.1031, 5.166748
786.5853, 2.364868
787.0674, 0.2103270
787.5495, 3.410034
788.0316, 7.756714
788.5137, 11.56616
788.9958, 12.19336
789.4780, 9.362549
789.9601, 7.205444
790.4422, 5.216797
790.9243, 4.765625
791.4064, 7.158813
791.8885, 10.37561
792.3707, 13.28687
792.8528, 15.67932
793.3349, 17.03406
793.8170, 16.80835
794.2991, 16.04016
794.7813, 14.30627
795.2634, 12.97302
795.7455, 14.60486
796.2276, 18.84509
796.7097, 22.79199
797.1918, 24.71179
797.6740, 25.25830
798.1561, 25.29578
798.6382, 24.75305
799.1203, 25.83923
799.6024, 29.47546
800.0845, 32.44751
800.5667, 33.27466
801.0488, 32.41870
801.5309, 30.28491
802.0130, 26.51221
802.4951, 23.77173
802.9772, 23.08850
803.4594, 22.54517
803.9415, 20.89062
804.4236, 19.16479
804.9057, 19.05164
805.3878, 20.47571
805.8699, 21.48621
806.3521, 20.68225
806.8342, 18.90674
807.3163, 17.15161
807.7985, 15.51904
808.2806, 14.74292
808.7627, 14.99048
809.2448, 14.41479
809.7269, 11.42261
810.2090, 7.079346
810.6912, 4.791626
811.1733, 5.939941
811.6554, 5.823730
812.1375, 2.490601
812.6196, 0.1363530
813.1017, 1.465210
813.5839, 4.118896
814.0660, 4.877563
814.5481, 3.256348
815.0302, 1.396118
815.5123, 3.1005999E-02
815.9944, 1.073975
816.4766, 2.136841
816.9587, 3.072998
817.4408, 3.711548
817.9229, 4.011353
818.4050, 4.009766
818.8871, 3.712524
819.3693, 3.166748
819.8514, 2.495972
820.3335, 1.706177
820.8156, 0.5139160
821.2977, 1.443726
821.7798, 2.787231
822.2620, 2.345337
822.7441, 0.7246090
823.2262, 0.2551270
823.7083, 0.1523440
824.1904, 0.5169680
824.6725, 2.254150
825.1547, 3.410400
825.6368, 2.714111
826.1189, 1.175293
826.6010, 0.1864010
827.0831, 4.2847000E-02
827.5652, 0.3880620
828.0474, 1.405884
828.5295, 2.831543
829.0116, 4.396729
829.4937, 6.047363
829.9758, 7.746216
830.4579, 9.513916
830.9401, 11.32874
831.4222, 13.15515
831.9043, 14.61963
832.3864, 14.55603
832.8685, 12.54199
833.3506, 11.38757
833.8328, 11.42346
834.3149, 12.15210
834.7970, 13.60205
835.2791, 15.36646
835.7612, 16.69885
836.2433, 17.48035
836.7255, 18.28833
837.2076, 19.15369
837.6897, 20.27917
838.1718, 22.37500
838.6539, 24.42822
839.1360, 24.44714
839.6182, 22.84290
840.1003, 22.76868
840.5824, 26.67615
841.0645, 32.15479
841.5466, 35.84241
842.0287, 38.17883
842.5109, 40.70532
842.9930, 43.70166
843.4751, 47.00330
843.9572, 50.57336
844.4393, 54.14966
844.9214, 56.99548
845.4036, 58.81323
845.8857, 61.02002
846.3678, 63.49146
846.8499, 66.60291
847.3320, 71.53503
847.8141, 76.41003
848.2963, 78.68665
848.7784, 78.52539
849.2605, 79.83496
849.7426, 84.14844
850.2247, 89.04407
850.7068, 94.39258
851.1890, 99.27527
851.6711, 102.3071
852.1532, 104.0081
852.6353, 106.3250
853.1174, 110.3011
853.5995, 114.4823
854.0817, 116.7944
854.5638, 118.1361
855.0459, 121.0879
855.5280, 125.6198
856.0101, 129.7040
856.4922, 132.5094
856.9744, 134.9302
857.4565, 138.4104
857.9386, 142.8090
858.4207, 143.5870
858.9028, 138.4164
859.3849, 135.2740
859.8671, 136.9827
860.3492, 139.7335
860.8313, 141.4070
861.3134, 141.8881
861.7955, 140.6488
862.2776, 136.7621
862.7598, 133.2131
863.2419, 131.8916
863.7240, 130.0901
864.2061, 124.6302
864.6882, 117.9093
865.1703, 114.4562
865.6525, 115.1527
866.1346, 116.0623
866.6167, 114.0277
867.0988, 110.4030
867.5809, 107.2194
868.0630, 104.2795
868.5452, 100.6857
869.0273, 96.31799
869.5094, 92.70227
869.9915, 91.09766
870.4736, 90.50330
870.9557, 87.97278
871.4379, 82.77856
871.9200, 79.84155
872.4021, 80.19446
872.8842, 80.89893
873.3663, 81.05603
873.8484, 80.55969
874.3306, 79.02869
874.8127, 76.42139
875.2948, 74.15540
875.7769, 72.51770
876.2590, 71.01990
876.7411, 69.09094
877.2233, 67.63025
877.7054, 68.04407
878.1875, 69.59937
878.6696, 69.98523
879.1517, 68.00330
879.6339, 65.93860
880.1160, 66.28552
880.5981, 67.24341
881.0802, 65.77942
881.5623, 62.57361
882.0444, 60.44214
882.5266, 60.29602
883.0087, 60.76208
883.4908, 60.53381
883.9729, 59.73047
884.4550, 58.65955
884.9371, 57.28406
885.4193, 56.12183
885.9014, 55.17310
886.3835, 54.91455
886.8656, 56.27917
887.3477, 58.08582
887.8298, 56.89893
888.3120, 51.06335
888.7941, 46.68506
889.2762, 43.93884
889.7583, 42.42407
890.2404, 42.82422
890.7225, 43.86707
891.2047, 44.57324
891.6868, 44.76440
892.1689, 44.00671
892.6510, 41.94434
893.1331, 39.20984
893.6152, 34.94763
894.0974, 31.02014
894.5795, 29.94775
895.0616, 31.00085
895.5437, 31.72852
896.0258, 31.11401
896.5079, 29.85254
896.9901, 28.42358
897.4722, 26.98950
897.9543, 26.13171
898.4364, 25.70337
898.9185, 24.68396
899.4006, 22.78906
899.8828, 21.02979
900.3649, 20.36646
900.8470, 20.39514
901.3291, 19.41541
901.8112, 16.97375
902.2933, 15.83032
902.7755, 16.48633
903.2576, 17.82520
903.7397, 19.68091
904.2218, 21.61340
904.7039, 22.94873
905.1860, 23.67200
905.6682, 23.91492
906.1503, 22.29883
906.6324, 22.05554
907.1145, 25.44287
907.5966, 29.26221
908.0787, 30.31812
908.5609, 29.59802
909.0430, 30.39856
909.5251, 33.86206
910.0072, 38.37805
910.4893, 44.30396
910.9714, 49.74658
911.4536, 52.06091
911.9357, 52.59216
912.4178, 54.36194
912.8999, 58.02734
913.3820, 61.86841
913.8641, 64.45325
914.3463, 66.39673
914.8284, 68.44983
915.3105, 70.82056
915.7926, 75.09021
916.2748, 81.35413
916.7569, 86.31677
917.2390, 87.98511
917.7211, 88.40100
918.2032, 91.12341
918.6854, 96.26746
919.1675, 100.2831
919.6496, 102.3361
920.1317, 105.9288
920.6138, 112.7869
921.0959, 120.3245
921.5781, 126.7076
922.0602, 131.9161
922.5423, 135.7662
923.0244, 137.4817
923.5065, 139.3745
923.9886, 140.9348
924.4708, 143.3654
924.9529, 147.4514
925.4350, 152.5629
925.9171, 158.7115
926.3992, 165.5175
926.8813, 170.0187
927.3635, 169.2002
927.8456, 167.9872
928.3277, 168.9972
928.8098, 171.2455
929.2919, 173.7939
929.7740, 176.5426
930.2562, 180.0865
930.7383, 184.6394
931.2204, 188.2120
931.7025, 188.6149
932.1846, 186.7803
932.6667, 184.2130
933.1489, 181.2113
933.6310, 179.0201
934.1131, 177.9475
934.5952, 177.0299
935.0773, 175.3676
935.5594, 174.9771
936.0416, 172.8912
936.5237, 173.6215
937.0058, 173.4127
937.4879, 172.2056
937.9700, 170.5276
938.4521, 168.7152
938.9343, 166.1892
939.4164, 161.8126
939.8985, 155.6815
940.3806, 151.2722
940.8627, 149.5304
941.3448, 147.7831
941.8270, 146.1162
942.3091, 143.8539
942.7912, 140.0092
943.2733, 135.9319
943.7554, 133.9199
944.2375, 134.3790
944.7197, 133.6008
945.2018, 130.0063
945.6839, 126.1320
946.1660, 122.7753
946.6481, 119.9541
947.1302, 117.5927
947.6124, 115.6141
948.0945, 114.1150
948.5766, 113.2938
949.0587, 111.7550
949.5408, 107.8618
950.0229, 103.5420
950.5051, 100.5668
950.9872, 98.65466
951.4693, 97.26379
951.9514, 96.10779
952.4335, 94.72095
952.9156, 92.66345
953.3978, 90.30640
953.8799, 88.05078
954.3620, 85.90735
954.8441, 83.37036
955.3262, 80.73645
955.8083, 80.42896
956.2905, 83.41663
956.7726, 86.65344
957.2547, 86.57153
957.7368, 83.92395
958.2189, 81.98267
958.7010, 80.77966
959.1832, 79.49695
959.6653, 78.01099
960.1474, 76.13586
960.6295, 73.30249
961.1116, 70.90955
961.5938, 71.97559
962.0759, 77.16907
962.5580, 79.10620
963.0401, 76.17383
963.5222, 73.31702
964.0043, 71.48865
964.4865, 70.15088
964.9686, 69.20673
965.4507, 68.41608
965.9328, 66.93079
966.4149, 64.10687
966.8970, 62.33618
967.3792, 62.57166
967.8613, 62.92413
968.3434, 63.23663
968.8255, 62.94244
969.3076, 61.02020
969.7897, 57.88483
970.2719, 55.59167
970.7540, 55.10938
971.2361, 54.61115
971.7182, 53.03882
972.2003, 51.43738
972.6824, 50.68365
973.1646, 50.46472
973.6467, 50.03766
974.1288, 49.37067
974.6109, 49.41541
975.0930, 51.48615
975.5751, 53.21362
976.0573, 52.11292
976.5394, 49.42175
977.0215, 46.95721
977.5036, 44.65033
977.9857, 41.15204
978.4678, 36.12219
978.9500, 32.22382
979.4321, 33.03888
979.9142, 35.77332
980.3963, 34.34686
980.8784, 29.97571
981.3605, 27.05280
981.8427, 26.15601
982.3248, 26.01044
982.8069, 26.00110
983.2890, 25.46375
983.7711, 23.20056
984.2532, 19.47937
984.7354, 16.05396
985.2175, 12.91510
985.6996, 10.45673
986.1817, 8.759705
986.6638, 7.888916
987.1459, 8.255310
987.6281, 8.664307
988.1102, 5.948547
988.5923, 5.972463
989.0744, 4.185181
989.5565, 3.487610
990.0386, 2.172546
990.5208, 0.5942990
991.0029, 0.1922610
991.4850, 1.150574
991.9671, 3.932068
992.4492, 5.494141
992.9313, 5.509338
993.4135, 5.051270
993.8956, 3.221436
994.3777, 2.128174
994.8598, 2.742737
995.3419, 4.137939
995.8240, 5.907593
996.3062, 7.817566
996.7883, 8.665039
997.2704, 7.748962
997.7525, 6.813965
998.2346, 6.343994
998.7167, 5.607483
999.1989, 3.457031
999.6810, 1.273743
1000.163, 1.152039
1000.645, 3.039551
1001.127, 4.388489
1001.609, 4.361755
1002.092, 3.603882
1002.574, 1.344055
1003.056, 0.6098020
1003.538, 0.4714360
1004.020, 0.8150630
1004.502, 1.729553
1004.984, 1.931824
1005.466, 1.586243
1005.948, 0.4352420
1006.431, 0.8494870
1006.913, 1.615845
1007.395, 2.480103
1007.877, 4.773193
1008.359, 7.434937
1008.841, 7.864319
1009.323, 5.728882
1009.805, 4.359131
1010.288, 7.263428
1010.770, 11.13568
1011.252, 11.88794
1011.734, 10.73047
1012.216, 9.453369
1012.698, 8.483887
1013.180, 8.129578
1013.662, 8.516846
1014.144, 9.501160
1014.627, 11.04138
1015.109, 13.03558
1015.591, 15.76581
1016.073, 18.65295
1016.555, 19.62402
1017.037, 18.60138
1017.519, 17.02991
1018.001, 15.63428
1018.484, 15.21216
1018.966, 17.16101
1019.448, 20.71490
1019.930, 23.19128
1020.412, 24.70245
1020.894, 26.49542
1021.376, 28.78027
1021.858, 30.54309
1022.340, 31.13953
1022.823, 31.06091
1023.305, 31.21423
1023.787, 31.50452
1024.269, 30.57190
1024.751, 28.29523
1025.233, 27.13586
1025.715, 27.69501
1026.197, 28.75110
1026.680, 29.55530
1027.162, 30.28961
1027.644, 31.35626
1028.126, 32.78540
1028.608, 34.11243
1029.090, 35.29572
1029.572, 36.42645
1030.054, 37.58691
1030.536, 38.57635
1031.019, 39.35199
1031.501, 39.80414
1031.983, 39.40186
1032.465, 37.63373
1032.947, 37.52100
1033.429, 39.91626
1033.911, 41.83099
1034.393, 42.72510
1034.875, 42.76733
1035.358, 41.40436
1035.840, 39.69183
1036.322, 40.37982
1036.804, 44.19574
1037.286, 46.98444
1037.768, 49.24506
1038.250, 49.45325
1038.732, 45.06769
1039.215, 41.26825
1039.697, 43.01147
1040.179, 47.69696
1040.661, 48.39917
1041.143, 43.37122
1041.625, 40.89154
1042.107, 43.59033
1042.589, 45.19543
1043.072, 43.55072
1043.554, 41.36243
1044.036, 41.25842
1044.518, 41.88635
1045.000, 39.43762
1045.482, 32.34949
1045.964, 28.09021
1046.446, 29.38373
1046.928, 30.35284
1047.411, 29.95172
1047.893, 28.77319
1048.375, 26.63379
1048.857, 24.16016
1049.339, 22.90753
1049.821, 23.31067
1050.303, 22.97552
1050.785, 20.80676
1051.267, 19.01038
1051.750, 18.85211
1052.232, 18.90411
1052.714, 17.51569
1053.196, 15.45361
1053.678, 14.99841
1054.160, 16.94128
1054.642, 17.17780
1055.124, 13.29156
1055.607, 9.670105
1056.089, 8.410706
1056.571, 7.601074
1057.053, 4.867126
1057.535, 1.645691
1058.017, 1.260925
1058.499, 4.434387
1058.981, 7.828796
1059.464, 11.82642
1059.946, 14.25977
1060.428, 13.85992
1060.910, 12.02277
1061.392, 8.671753
1061.874, 5.023254
1062.356, 3.580872
1062.838, 4.963379
1063.320, 6.111938
1063.802, 6.707581
1064.285, 5.923523
1064.767, 1.148071
1065.249, 3.209229
1065.731, 2.608215
1066.213, 1.027954
1066.695, 3.750488
1067.177, 4.759338
1067.659, 5.088684
1068.142, 4.736633
1068.624, 4.429749
1069.106, 4.741150
1069.588, 5.051147
1070.070, 4.733765
1070.552, 4.064819
1071.034, 3.661011
1071.516, 3.619263
1071.999, 3.335693
1072.481, 2.023132
1072.963, 1.148621
1073.445, 1.289001
1073.927, 2.197021
1074.409, 4.519348
1074.891, 7.063477
1075.373, 7.624023
1075.855, 6.092346
1076.338, 5.112732
1076.820, 6.166138
1077.302, 7.254456
1077.784, 7.789490
1078.266, 7.606628
1078.748, 5.769592
1079.230, 3.581604
1079.712, 3.095154
1080.194, 4.394775
1080.677, 5.855713
1081.159, 6.785461
1081.641, 7.954529
1082.123, 10.85699
1082.605, 12.95306
1083.087, 11.37616
1083.569, 8.453979
1084.052, 7.600891
1084.534, 8.716919
1085.016, 8.950806
1085.498, 6.763916
1085.980, 5.333740
1086.462, 6.974609
1086.944, 8.807617
1087.426, 9.570374
1087.908, 8.998413
1088.391, 5.859192
1088.873, 1.279114
1089.355, 0.9026490
1089.837, 0.8505860
1090.319, 3.085632
1090.801, 5.261536
1091.283, 6.555176
1091.765, 5.686340
1092.247, 4.363281
1092.730, 4.340881
1093.212, 5.368164
1093.694, 6.347168
1094.176, 7.028992
1094.658, 7.721741
1095.140, 9.124084
1095.622, 9.771729
1096.104, 8.178833
1096.587, 6.385193
1097.069, 6.361450
1097.551, 7.419189
1098.033, 7.688416
1098.515, 6.794739
1098.997, 7.051575
1099.479, 10.82458
1099.961, 13.49426
1100.443, 12.65338
1100.926, 11.04901
1101.408, 10.41803
1101.890, 10.49005
1102.372, 10.68030
1102.854, 10.76984
1103.336, 10.94427
1103.818, 11.60663
1104.300, 12.00696
1104.782, 12.04486
1105.265, 11.61090
1105.747, 9.480103
1106.229, 7.755188
1106.711, 10.10455
1107.193, 15.81000
1107.675, 18.46356
1108.157, 14.85992
1108.639, 12.84882
1109.122, 14.64166
1109.604, 16.64771
1110.086, 17.59088
1110.568, 18.01807
1111.050, 18.59174
1111.532, 19.12329
1112.014, 18.73163
1112.496, 16.68158
1112.979, 15.60754
1113.461, 16.23553
1113.943, 16.99292
1114.425, 17.70105
1114.907, 18.18488
1115.389, 18.58722
1115.871, 18.64740
1116.353, 17.60846
1116.835, 15.21771
1117.318, 12.90277
1117.800, 9.371582
1118.282, 8.201477
1118.764, 12.11700
1119.246, 15.11267
1119.728, 13.11334
1120.210, 8.961304
1120.692, 7.018311
1121.174, 7.228760
1121.657, 7.408264
1122.139, 7.685913
1122.621, 7.404541
1123.103, 6.341919
1123.585, 4.820923
1124.067, 2.570435
1124.549, 0.8125000
1125.031, 1.139709
1125.514, 3.115662
1125.996, 4.840271
1126.478, 6.366211
1126.960, 7.123901
1127.442, 6.758301
1127.924, 7.450195
1128.406, 10.41583
1128.888, 12.09076
1129.370, 9.172363
1129.853, 4.043945
1130.335, 2.338623
1130.817, 4.050171
1131.299, 6.114014
1131.781, 8.675110
1132.263, 8.724731
1132.745, 5.489563
1133.227, 2.287415
1133.709, 1.064697
1134.192, 1.077759
1134.674, 1.134277
1135.156, 1.509949
1135.638, 3.674377
1136.120, 2.904169
1136.602, 6.923645
1137.084, 2.946899
1137.566, 0.2186280
1138.049, 0.7429200
1138.531, 2.874451
1139.013, 5.441040
1139.495, 7.524719
1139.977, 6.626526
1140.459, 3.950195
1140.941, 2.824890
1141.423, 3.266113
1141.906, 4.486206
1142.388, 5.959167
1142.870, 6.571655
1143.352, 5.569458
1143.834, 3.830139
1144.316, 1.438354
1144.798, 0.2500610
1145.280, 1.740906
1145.762, 5.514648
1146.245, 7.256958
1146.727, 6.789185
1147.209, 5.924622
1147.691, 5.579102
1148.173, 5.204346
1148.655, 4.146057
1149.137, 3.139954
1149.619, 2.719788
1150.101, 2.788208
1150.584, 3.998474
1151.066, 5.367737
1151.548, 4.453857
1152.030, 1.201782
1152.512, 0.7937010
1152.994, 0.7807620
1153.476, 2.368774
1153.958, 1.573669
1154.441, 0.9112550
1154.923, 3.067505
1155.405, 5.646729
1155.887, 5.250977
1156.369, 2.503601
1156.851, 0.7818600
1157.333, 0.9872440
1157.815, 1.223938
1158.297, 1.409973
1158.780, 1.103638
1159.262, 0.7457280
1159.744, 0.9045731
1160.226, 1.223572
1160.708, 0.8297120
1161.190, 1.064941
1161.672, 0.7363280
1162.154, 1.321228
1162.636, 0.2885130
1163.119, 1.240784
1163.601, 0.8715820
1164.083, 0.6320800
1164.565, 1.266602
1165.047, 2.087708
1165.529, 2.320496
1166.011, 2.138000
1166.493, 2.337708
1166.976, 3.161499
1167.458, 2.944458
1167.940, 1.310303
1168.422, 0.6354370
1168.904, 1.670959
1169.386, 2.814026
1169.868, 3.039673
1170.350, 2.596375
1170.833, 1.725586
1171.315, 0.6021120
1171.797, 0.3637700
1172.279, 0.9318240
1172.761, 1.564758
1173.243, 2.115234
1173.725, 1.719116
1174.207, 8.9111000E-02
1174.689, 0.9287720
1175.172, 0.6213990
1175.654, 0.4450349
1176.136, 2.419861
1176.618, 0.4680790
1177.100, 0.3988650
1177.582, 4.4250000E-02
1178.064, 2.089905
1178.546, 5.483765
1179.028, 7.434204
1179.511, 6.559937
1179.993, 5.039307
1180.475, 4.267090
1180.957, 4.233398
1181.439, 5.812317
1181.921, 7.434753
1182.403, 6.332642
1182.885, 3.938965
1183.368, 4.087341
1183.850, 7.257019
1184.332, 9.240234
1184.814, 7.635010
1185.296, 5.765259
1185.778, 4.486328
1186.260, 3.931335
1186.742, 5.104736
1187.224, 6.311340
1187.707, 5.058777
1188.189, 5.739336
1188.671, 5.840763
1189.153, 4.329529
1189.635, 5.345398
1190.117, 2.951782
1190.599, 0.7058110
1191.081, 1.642212
1191.564, 2.516174
1192.046, 1.5442000E-02
1192.528, 3.237122
1193.010, 3.140930
1193.492, 0.2648930
1193.974, 0.8375850
1194.456, 0.2804570
1194.938, 0.6107790
1195.421, 0.2011720
1195.903, 0.4781490
1196.385, 0.3363040
1196.867, 1.494446
1197.349, 2.577515
1197.831, 3.028137
1198.313, 3.062961
1198.795, 1.821228
1199.277, 2.420898
1199.760, 1.043518
1200.242, 0.7900390
1200.724, 1.779297
1201.206, 1.756592
1201.688, 3.2593001E-02
1202.170, 1.714417
1202.652, 1.591003
1203.134, 1.038086
1203.616, 1.745605
1204.099, 3.055786
1204.581, 4.551270
1205.063, 5.674927
1205.545, 4.925842
1206.027, 2.881775
1206.509, 2.375854
1206.991, 4.585388
1207.473, 6.317505
1207.956, 5.259766
1208.438, 4.110474
1208.920, 4.226868
1209.402, 4.826355
1209.884, 5.466125
1210.366, 6.020264
1210.848, 6.599548
1211.330, 7.119446
1211.813, 7.052429
1212.295, 5.772217
1212.777, 5.066406
1213.259, 4.725220
1213.741, 5.406433
1214.223, 7.895996
1214.705, 10.49664
1215.187, 12.25604
1215.669, 13.12830
1216.151, 12.96417
1216.634, 11.79761
1217.116, 9.931030
1217.598, 7.184998
1218.080, 5.564880
1218.562, 5.272766
1219.044, 5.714050
1219.526, 6.689453
1220.008, 7.576599
1220.491, 7.903748
1220.973, 8.209167
1221.455, 9.991455
1221.937, 12.32947
1222.419, 12.58124
1222.901, 11.45233
1223.383, 10.66388
1223.865, 10.53345
1224.348, 11.16364
1224.830, 12.51532
1225.312, 13.57379
1225.794, 13.30066
1226.276, 13.15631
1226.758, 14.79651
1227.240, 16.47540
1227.722, 16.10120
1228.204, 15.14917
1228.687, 15.86072
1229.169, 17.86450
1229.651, 19.06964
1230.133, 18.77625
1230.615, 19.40765
1231.097, 22.85083
1231.579, 25.02802
1232.061, 23.91565
1232.543, 22.81360
1233.026, 23.68463
1233.508, 24.85638
1233.990, 24.39905
1234.472, 22.72229
1234.954, 21.41254
1235.436, 20.37152
1235.918, 20.52069
1236.400, 21.95813
1236.883, 23.74268
1237.365, 25.73035
1237.847, 26.50433
1238.329, 25.23279
1238.811, 23.93488
1239.293, 25.05841
1239.775, 27.23175
1240.257, 27.74872
1240.740, 27.06213
1241.222, 26.62720
1241.704, 26.49213
1242.186, 26.50415
1242.668, 26.78418
1243.150, 28.32452
1243.632, 31.79895
1244.114, 34.20892
1244.596, 32.20563
1245.078, 30.05945
1245.561, 30.78882
1246.043, 31.92639
1246.525, 30.89319
1247.007, 29.11774
1247.489, 29.24939
1247.971, 31.07043
1248.453, 31.54669
1248.935, 29.14685
1249.418, 28.56152
1249.900, 31.41437
1250.382, 32.94208
1250.864, 31.72601
1251.346, 30.03790
1251.828, 29.17969
1252.310, 28.37982
1252.792, 26.40015
1253.275, 23.83112
1253.757, 23.29230
1254.239, 24.61987
1254.721, 25.89111
1255.203, 26.96857
1255.685, 27.57404
1256.167, 27.64893
1256.649, 27.15875
1257.131, 26.07574
1257.614, 25.08368
1258.096, 25.02179
1258.578, 24.32713
1259.060, 24.65820
1259.542, 23.95471
1260.024, 24.13531
1260.506, 22.95456
1260.988, 23.03864
1261.470, 20.27808
1261.953, 17.87946
1262.435, 16.10504
1262.917, 15.68622
1263.399, 18.75482
1263.881, 20.39465
1264.363, 17.70801
1264.845, 15.21149
1265.327, 15.58936
1265.810, 16.83563
1266.292, 16.80212
1266.774, 15.62897
1267.256, 13.59534
1267.738, 10.46130
1268.220, 9.314209
1268.702, 10.23053
1269.184, 10.74567
1269.667, 10.41968
1270.149, 9.870361
1270.631, 9.382690
1271.113, 9.172119
1271.595, 9.738525
1272.077, 9.925476
1272.559, 6.983826
1273.041, 3.361450
1273.523, 3.012329
1274.005, 4.588928
1274.488, 5.901184
1274.970, 6.455872
1275.452, 5.970276
1275.934, 4.371826
1276.416, 3.064209
1276.898, 2.846802
1277.380, 2.585022
1277.862, 1.833374
1278.345, 1.156555
1278.827, 0.7136840
1279.309, 0.6043090
1279.791, 1.206055
1280.273, 0.6826375
1280.755, 1.448914
1281.237, 0.3219600
1281.719, 5.0232001E-02
1282.202, -4.5370542E-02
1282.684, -0.4066846
1283.166, 0.7354740
1283.648, 0.1243290
1284.130, 1.483398
1284.612, 3.098511
1285.094, 3.569153
1285.576, 2.919250
1286.058, 2.108093
1286.541, 1.056702
1287.023, 0.0000000E+00
##END=



