##NAMES=Viitaniemiite
##RRUFFID=R060052
##IDEAL CHEMISTRY=NaCaAlPO_4_F_3_
##LOCALITY=Paprook, Afghanistan
##OWNER=RRUFF
##SOURCE=Marcus Origlieri
##DESCRIPTION=Clear, colorless fragment
##STATUS=The identification of this mineral has been confirmed by X-ray diffraction and chemical analysis
##URL=rruff.info/R060052
##MEASURED CHEMISTRY=Na_1.00_(Ca_0.97_Mn^2+^_0.03_)_Σ=1_Al_1.00_P_1.00_O_4_(F_1.60_(OH)_1.40_)_Σ=3_
134.3243, 0.0000000E+00
134.8064, 374.3906
135.2885, 594.4844
135.7706, 899.6250
136.2527, 1336.406
136.7348, 1822.516
137.2170, 2175.297
137.6991, 2394.000
138.1812, 2452.734
138.6633, 2350.266
139.1454, 1966.859
139.6275, 1646.734
140.1097, 1727.516
140.5918, 1698.391
141.0739, 1382.703
141.5560, 847.8594
142.0381, 336.8906
142.5202, 81.17188
143.0023, 168.9688
143.4845, 250.4688
143.9666, 261.6719
144.4487, 206.1562
144.9308, 112.8438
145.4129, 109.4219
145.8951, 278.5781
146.3772, 171.6094
146.8593, 431.6094
147.3414, 949.8594
147.8235, 1215.875
148.3056, 1159.516
148.7878, 1236.375
149.2699, 1539.031
149.7520, 1941.516
150.2341, 2269.438
150.7162, 2523.734
151.1983, 2719.328
151.6805, 2848.578
152.1626, 2852.344
152.6447, 2891.031
153.1268, 3051.672
153.6089, 3240.000
154.0910, 3299.625
154.5732, 3120.141
155.0553, 2897.438
155.5374, 2683.344
156.0195, 2436.953
156.5016, 2293.547
156.9837, 2371.156
157.4659, 2561.406
157.9480, 2649.625
158.4301, 2565.000
158.9122, 2394.062
159.3943, 2155.578
159.8764, 1750.031
160.3586, 1426.297
160.8407, 1330.297
161.3228, 1392.594
161.8049, 1405.672
162.2870, 1264.531
162.7691, 1081.703
163.2513, 919.3125
163.7334, 763.8594
164.2155, 655.1406
164.6976, 602.9219
165.1797, 608.1875
165.6618, 681.4844
166.1440, 955.2812
166.6261, 1243.359
167.1082, 1376.500
167.5903, 1172.781
168.0724, 943.6094
168.5545, 860.4062
169.0367, 913.2812
169.5188, 1034.516
170.0009, 1290.078
170.4830, 1555.953
170.9651, 1701.125
171.4472, 1593.938
171.9293, 1411.922
172.4115, 1305.531
172.8936, 1281.344
173.3757, 1278.109
173.8578, 1299.031
174.3399, 1340.156
174.8220, 1380.094
175.3042, 1450.312
175.7863, 1508.547
176.2684, 1490.312
176.7505, 1419.219
177.2326, 1402.953
177.7147, 1452.609
178.1969, 1549.234
178.6790, 1667.422
179.1611, 1748.656
179.6432, 1754.141
180.1253, 1850.344
180.6074, 2074.172
181.0896, 2271.797
181.5717, 2270.453
182.0538, 2107.734
182.5359, 1914.578
183.0180, 1719.547
183.5001, 1532.312
183.9823, 1362.859
184.4644, 1204.500
184.9465, 1111.953
185.4286, 1234.906
185.9107, 1521.312
186.3928, 1700.891
186.8750, 1564.562
187.3571, 1223.328
187.8392, 1035.656
188.3213, 1023.500
188.8034, 1084.625
189.2855, 1099.953
189.7677, 1069.688
190.2498, 1009.078
190.7319, 865.2812
191.2140, 675.1562
191.6961, 663.4219
192.1782, 895.3438
192.6604, 1203.500
193.1425, 1393.281
193.6246, 1464.734
194.1067, 1453.203
194.5888, 1305.766
195.0709, 1045.594
195.5531, 953.9062
196.0352, 1072.328
196.5173, 1291.734
196.9994, 1444.031
197.4815, 1525.531
197.9636, 1575.547
198.4458, 1609.094
198.9279, 1624.938
199.4100, 1642.422
199.8921, 1661.750
200.3742, 1678.875
200.8563, 1688.688
201.3385, 1690.047
201.8206, 1692.250
202.3027, 1714.812
202.7848, 1764.250
203.2669, 1737.953
203.7490, 1614.297
204.2311, 1456.312
204.7133, 1381.250
205.1954, 1403.266
205.6775, 1388.234
206.1596, 1255.406
206.6417, 986.3594
207.1238, 748.5156
207.6060, 532.3594
208.0881, 361.5312
208.5702, 319.4688
209.0523, 458.3594
209.5344, 566.9688
210.0165, 506.4844
210.4987, 213.1250
210.9808, 58.92188
211.4629, 97.98438
211.9450, 243.0938
212.4271, 281.9844
212.9092, 172.2656
213.3914, 57.12500
213.8735, 9.609375
214.3556, 43.96875
214.8377, 83.01562
215.3198, 132.1406
215.8019, 185.1250
216.2841, 212.8750
216.7662, 218.2344
217.2483, 199.1406
217.7304, 156.0625
218.2125, 86.81250
218.6946, 10.56250
219.1768, 165.7812
219.6589, 333.8594
220.1410, 382.2188
220.6231, 247.3594
221.1052, 110.7812
221.5873, 49.40625
222.0695, 85.76562
222.5516, 158.1250
223.0337, 317.9062
223.5158, 494.6875
223.9979, 490.0938
224.4800, 231.1562
224.9622, 66.45312
225.4443, 312.3281
225.9264, 512.5781
226.4085, 650.5000
226.8906, 716.8281
227.3727, 725.8125
227.8549, 728.2031
228.3370, 713.4375
228.8191, 706.9062
229.3012, 722.7188
229.7833, 764.0156
230.2654, 809.4375
230.7476, 845.3281
231.2297, 891.0000
231.7118, 998.5312
232.1939, 1221.062
232.6760, 1420.578
233.1581, 1533.188
233.6402, 1494.484
234.1224, 1536.094
234.6045, 1713.406
235.0866, 1951.281
235.5687, 2066.344
236.0508, 1928.875
236.5329, 1875.406
237.0151, 2063.438
237.4972, 2627.922
237.9793, 3011.281
238.4614, 3120.781
238.9435, 3096.344
239.4256, 3227.469
239.9078, 3605.766
240.3899, 3983.828
240.8720, 4255.984
241.3541, 4355.688
241.8362, 4599.453
242.3183, 5086.922
242.8005, 5679.094
243.2826, 6123.844
243.7647, 6289.156
244.2468, 6526.641
244.7289, 7016.641
245.2110, 7919.703
245.6932, 8391.078
246.1753, 8293.016
246.6574, 7865.109
247.1395, 7443.531
247.6216, 7023.797
248.1037, 6596.484
248.5859, 6153.969
249.0680, 5694.000
249.5501, 5216.781
250.0322, 4689.406
250.5143, 4167.344
250.9964, 3729.594
251.4786, 3409.594
251.9607, 3107.000
252.4428, 2778.172
252.9249, 2405.750
253.4070, 2165.922
253.8891, 2113.266
254.3713, 2144.203
254.8534, 2138.656
255.3355, 2078.594
255.8176, 2017.703
256.2997, 1983.234
256.7818, 1976.953
257.2639, 1905.234
257.7461, 1727.094
258.2282, 1528.203
258.7103, 1401.281
259.1924, 1381.938
259.6745, 1353.906
260.1566, 1277.891
260.6388, 1159.266
261.1209, 1076.828
261.6030, 1025.844
262.0851, 1019.406
262.5672, 1101.547
263.0493, 1378.094
263.5315, 1460.984
264.0136, 1202.016
264.4957, 658.0156
264.9778, 368.2344
265.4599, 420.0781
265.9420, 578.4375
266.4242, 647.6094
266.9063, 597.1719
267.3884, 593.5156
267.8705, 671.0938
268.3526, 806.8281
268.8347, 889.1875
269.3169, 893.3906
269.7990, 901.4688
270.2811, 967.4375
270.7632, 1088.969
271.2453, 1254.969
271.7274, 1530.094
272.2096, 1825.375
272.6917, 1818.938
273.1738, 1416.828
273.6559, 988.3438
274.1380, 760.1094
274.6201, 762.2031
275.1023, 789.7031
275.5844, 847.7188
276.0665, 905.1094
276.5486, 891.3438
277.0307, 787.2969
277.5128, 667.9219
277.9950, 583.7344
278.4771, 551.8281
278.9592, 536.2812
279.4413, 550.5781
279.9234, 553.2812
280.4055, 437.4688
280.8877, 175.2656
281.3698, 33.89062
281.8519, 68.82812
282.3340, 84.54688
282.8161, 267.5938
283.2982, 470.4844
283.7804, 674.2812
284.2625, 883.5156
284.7446, 1103.281
285.2267, 1184.234
285.7088, 984.8438
286.1909, 560.8906
286.6731, 324.7656
287.1552, 295.0312
287.6373, 374.0938
288.1194, 474.8594
288.6015, 595.9219
289.0836, 673.9531
289.5658, 658.8125
290.0479, 591.2656
290.5300, 643.7031
291.0121, 827.9062
291.4942, 999.6094
291.9763, 980.6562
292.4585, 802.7969
292.9406, 671.5156
293.4227, 635.7188
293.9048, 677.5625
294.3869, 803.8438
294.8690, 1016.500
295.3512, 1168.391
295.8333, 1102.375
296.3154, 871.2188
296.7975, 654.8438
297.2796, 470.5312
297.7617, 341.7656
298.2439, 356.3438
298.7260, 491.8906
299.2081, 592.9062
299.6902, 535.6719
300.1723, 369.1562
300.6544, 199.0625
301.1366, 28.59375
301.6187, 103.3125
302.1008, 106.9062
302.5829, 18.53125
303.0650, 36.14062
303.5471, 131.1719
304.0293, 340.1250
304.5114, 299.4219
304.9935, 53.45312
305.4756, 459.0156
305.9577, 689.0156
306.4398, 789.5312
306.9220, 875.8906
307.4041, 1006.141
307.8862, 1144.094
308.3683, 1284.141
308.8504, 1421.031
309.3326, 1507.734
309.8147, 1439.422
310.2968, 1304.094
310.7789, 1238.500
311.2610, 1391.297
311.7431, 1565.469
312.2252, 1621.781
312.7073, 1565.688
313.1895, 1462.516
313.6716, 1255.531
314.1537, 1062.234
314.6358, 1004.531
315.1179, 1218.984
315.6000, 1474.203
316.0822, 1659.906
316.5643, 1788.672
317.0464, 1909.781
317.5285, 2055.938
318.0106, 2193.844
318.4927, 2289.000
318.9749, 2295.500
319.4570, 2333.406
319.9391, 2482.688
320.4212, 2690.906
320.9033, 2852.875
321.3854, 2937.281
321.8676, 2958.156
322.3497, 2929.031
322.8318, 2870.188
323.3139, 2704.562
323.7960, 2191.656
324.2781, 1614.219
324.7603, 1377.875
325.2424, 2003.438
325.7245, 2557.500
326.2066, 2730.938
326.6887, 2442.344
327.1708, 2212.031
327.6530, 2095.094
328.1351, 2059.094
328.6172, 2076.125
329.0993, 2282.031
329.5814, 2391.844
330.0635, 2338.406
330.5457, 2126.781
331.0278, 1942.094
331.5099, 1710.688
331.9920, 1569.688
332.4741, 1611.312
332.9562, 2010.781
333.4384, 2302.812
333.9205, 2452.219
334.4026, 2464.969
334.8847, 2376.312
335.3668, 2106.875
335.8489, 1850.094
336.3311, 1698.781
336.8132, 1684.656
337.2953, 1684.312
337.7774, 1682.688
338.2595, 1699.469
338.7416, 1774.562
339.2238, 1933.812
339.7059, 2084.062
340.1880, 2186.562
340.6701, 2238.188
341.1522, 2314.406
341.6343, 2451.719
342.1165, 2552.188
342.5986, 2479.719
343.0807, 2217.719
343.5628, 1979.469
344.0449, 1834.531
344.5270, 1760.375
345.0092, 1648.125
345.4913, 1490.812
345.9734, 1373.281
346.4555, 1409.500
346.9376, 1573.375
347.4197, 1677.688
347.9019, 1668.594
348.3840, 1597.250
348.8661, 1574.688
349.3482, 1592.938
349.8303, 1604.438
350.3124, 1579.094
350.7946, 1523.344
351.2767, 1443.719
351.7588, 1329.781
352.2409, 1255.781
352.7230, 1412.250
353.2051, 1702.688
353.6873, 1850.875
354.1694, 1571.656
354.6515, 1141.094
355.1336, 939.9375
355.6157, 988.0312
356.0978, 1067.812
356.5800, 1043.812
357.0621, 941.1250
357.5442, 792.5312
358.0263, 546.6250
358.5084, 318.2500
358.9905, 221.7812
359.4727, 230.3125
359.9548, 223.6250
360.4369, 95.21875
360.9190, 61.12500
361.4011, 173.5938
361.8832, 231.1250
362.3654, 244.2500
362.8475, 198.7812
363.3296, 117.4062
363.8117, 25.87500
364.2938, 115.1250
364.7759, 218.2500
365.2581, 221.2188
365.7402, 85.43750
366.2223, 9.937500
366.7044, 8.968750
367.1865, 43.37500
367.6686, 104.9375
368.1508, 171.9062
368.6329, 238.8750
369.1150, 318.3750
369.5971, 411.2500
370.0792, 460.6875
370.5613, 418.5938
371.0435, 366.1250
371.5256, 353.4062
372.0077, 445.0000
372.4898, 498.7188
372.9719, 470.6562
373.4540, 382.8125
373.9361, 355.1562
374.4182, 415.2500
374.9004, 487.6250
375.3825, 546.2812
375.8646, 593.1250
376.3467, 586.8438
376.8288, 490.7500
377.3109, 400.1250
377.7931, 457.5625
378.2752, 682.5938
378.7573, 915.0312
379.2394, 1121.344
379.7215, 1308.750
380.2036, 1550.500
380.6858, 1829.531
381.1679, 2043.000
381.6500, 2096.938
382.1321, 2009.906
382.6142, 1898.344
383.0963, 1779.844
383.5785, 1653.594
384.0606, 1554.781
384.5427, 1474.938
385.0248, 1355.844
385.5069, 1059.781
385.9890, 712.2188
386.4712, 629.7188
386.9533, 851.8750
387.4354, 1159.562
387.9175, 1340.094
388.3996, 1408.031
388.8817, 1397.875
389.3639, 1248.500
389.8460, 1063.250
390.3281, 905.0000
390.8102, 781.9688
391.2923, 789.9375
391.7744, 1131.781
392.2566, 1580.719
392.7387, 1908.281
393.2208, 2031.031
393.7029, 2056.375
394.1850, 1971.188
394.6671, 1829.219
395.1493, 1773.500
395.6314, 1971.375
396.1135, 2186.031
396.5956, 2276.531
397.0777, 2185.594
397.5598, 2164.719
398.0420, 2267.562
398.5241, 2471.688
399.0062, 2749.188
399.4883, 3179.062
399.9704, 3592.250
400.4525, 3921.594
400.9347, 4171.969
401.4168, 4476.156
401.8989, 4934.656
402.3810, 5349.500
402.8631, 5598.125
403.3452, 5603.031
403.8274, 5584.344
404.3095, 5520.625
404.7916, 5448.531
405.2737, 5473.938
405.7558, 5674.188
406.2379, 5781.750
406.7201, 5642.938
407.2022, 5241.625
407.6843, 5115.219
408.1664, 5360.344
408.6485, 5634.469
409.1306, 5474.250
409.6128, 4881.344
410.0949, 4390.438
410.5770, 4160.219
411.0591, 4096.844
411.5412, 3960.344
412.0233, 3753.219
412.5055, 3517.812
412.9876, 3230.031
413.4697, 2942.281
413.9518, 2778.656
414.4339, 2750.188
414.9160, 2838.688
415.3982, 3129.219
415.8803, 3520.375
416.3624, 3796.625
416.8445, 3787.125
417.3266, 3651.969
417.8087, 3550.312
418.2909, 3476.000
418.7730, 3370.156
419.2551, 3171.781
419.7372, 2927.656
420.2193, 2680.406
420.7014, 2436.312
421.1836, 2205.656
421.6657, 1987.844
422.1478, 1783.906
422.6299, 1599.875
423.1120, 1433.531
423.5941, 1292.469
424.0763, 1176.094
424.5584, 1095.062
425.0405, 1026.656
425.5226, 951.6562
426.0047, 897.1875
426.4868, 887.8438
426.9690, 1024.531
427.4511, 1063.562
427.9332, 932.9688
428.4153, 661.4688
428.8974, 399.7500
429.3795, 76.65625
429.8617, 126.0625
430.3438, 63.53125
430.8259, 386.2812
431.3080, 629.0312
431.7901, 619.1562
432.2722, 467.6562
432.7544, 349.0938
433.2365, 269.1562
433.7186, 166.0625
434.2007, 3.625000
434.6828, 208.5625
435.1649, 302.9375
435.6470, 281.1250
436.1292, 258.9688
436.6113, 424.2188
437.0934, 680.3438
437.5755, 675.1875
438.0576, 279.9062
438.5397, 189.0625
439.0219, 313.2188
439.5040, 185.3438
439.9861, 77.40625
440.4682, 144.1250
440.9503, 291.6250
441.4324, 487.4688
441.9146, 730.4375
442.3967, 850.6250
442.8788, 549.4688
443.3609, 166.6875
443.8430, 50.65625
444.3251, 500.6875
444.8073, 971.9062
445.2894, 1306.125
445.7715, 1519.062
446.2536, 1652.125
446.7357, 1671.406
447.2178, 1643.844
447.7000, 1560.844
448.1821, 1370.406
448.6642, 1303.781
449.1463, 1426.812
449.6284, 1623.500
450.1105, 1797.719
450.5927, 1945.156
451.0748, 2074.406
451.5569, 2197.875
452.0390, 2303.875
452.5211, 2365.219
453.0032, 2356.219
453.4854, 2380.656
453.9675, 2532.625
454.4496, 2837.938
454.9317, 2957.375
455.4138, 2841.938
455.8959, 2688.719
456.3781, 2773.219
456.8602, 3075.469
457.3423, 3351.500
457.8244, 3500.312
458.3065, 3597.750
458.7886, 3733.750
459.2708, 3921.938
459.7529, 4209.000
460.2350, 4742.500
460.7171, 5357.469
461.1992, 5858.219
461.6813, 6214.844
462.1635, 6414.875
462.6456, 6331.344
463.1277, 6112.469
463.6098, 5989.281
464.0919, 6197.094
464.5740, 6358.844
465.0562, 6280.094
465.5383, 5988.031
466.0204, 5675.625
466.5025, 5367.281
466.9846, 5096.781
467.4667, 4881.344
467.9489, 4735.625
468.4310, 4549.156
468.9131, 4335.906
469.3952, 4082.969
469.8773, 3757.906
470.3594, 3239.938
470.8416, 2859.594
471.3237, 2743.469
471.8058, 2847.656
472.2879, 2775.281
472.7700, 2436.688
473.2521, 2155.906
473.7343, 2213.812
474.2164, 2649.500
474.6985, 2827.406
475.1806, 2657.844
475.6627, 2377.031
476.1448, 2341.156
476.6270, 2523.062
477.1091, 2692.500
477.5912, 2713.469
478.0733, 2701.688
478.5554, 2886.062
479.0375, 3254.812
479.5197, 3677.156
480.0018, 4124.688
480.4839, 4551.750
480.9660, 4911.250
481.4481, 5203.531
481.9302, 5387.500
482.4124, 5330.406
482.8945, 5170.969
483.3766, 5115.875
483.8587, 5445.281
484.3408, 5697.719
484.8229, 5647.656
485.3051, 5329.781
485.7872, 5040.125
486.2693, 4901.500
486.7514, 4755.469
487.2335, 4498.219
487.7156, 4053.406
488.1978, 3650.312
488.6799, 3311.062
489.1620, 3000.531
489.6441, 2685.344
490.1262, 2351.938
490.6083, 2041.906
491.0905, 1734.844
491.5726, 1459.562
492.0547, 1414.812
492.5368, 1648.125
493.0189, 1821.375
493.5010, 1679.906
493.9832, 1277.219
494.4653, 964.5938
494.9474, 770.5312
495.4295, 624.0938
495.9116, 415.5000
496.3937, 197.0000
496.8758, 71.12500
497.3579, 89.84375
497.8401, 191.1875
498.3222, 390.4375
498.8043, 640.7500
499.2864, 791.4375
499.7685, 585.6562
500.2506, 354.4375
500.7328, 386.3438
501.2149, 757.2500
501.6970, 1003.969
502.1791, 849.9688
502.6612, 547.6562
503.1433, 345.0938
503.6255, 417.4688
504.1076, 436.4062
504.5897, 290.6875
505.0718, 69.40625
505.5539, 45.37500
506.0360, 365.0625
506.5182, 704.5000
507.0003, 990.3750
507.4824, 1240.156
507.9645, 1215.188
508.4466, 809.2188
508.9287, 370.5938
509.4109, 252.7188
509.8930, 451.1875
510.3751, 625.2188
510.8572, 735.0312
511.3393, 777.0938
511.8214, 670.6875
512.3036, 465.8438
512.7857, 441.0625
513.2678, 915.7500
513.7499, 1549.625
514.2321, 1884.562
514.7142, 1920.438
515.1963, 1817.062
515.6784, 1605.844
516.1605, 1347.000
516.6426, 1086.625
517.1248, 809.7812
517.6069, 616.2500
518.0890, 668.5312
518.5711, 809.5000
519.0532, 802.4062
519.5353, 460.4062
520.0175, 135.4062
520.4996, 106.9062
520.9817, 267.1562
521.4638, 331.0000
521.9459, 239.8750
522.4280, 128.0938
522.9102, 63.87500
523.3923, 46.78125
523.8744, 109.4062
524.3565, 329.7188
524.8386, 482.8750
525.3207, 184.2188
525.8029, 553.4062
526.2849, 1070.594
526.7670, 1154.531
527.2491, 1011.000
527.7313, 962.8125
528.2134, 1010.531
528.6955, 1152.719
529.1776, 1451.438
529.6597, 1808.000
530.1418, 2144.781
530.6240, 2437.375
531.1061, 2561.062
531.5882, 2298.188
532.0703, 1882.844
532.5524, 1525.969
533.0345, 1247.812
533.5167, 1073.438
533.9988, 1083.000
534.4809, 1195.250
534.9630, 1257.281
535.4451, 1226.594
535.9272, 1167.531
536.4094, 1098.031
536.8915, 1019.750
537.3736, 946.7812
537.8557, 890.2812
538.3378, 834.8125
538.8199, 762.7812
539.3021, 664.7812
539.7842, 631.7188
540.2663, 683.1875
540.7484, 762.0312
541.2305, 826.9688
541.7126, 873.5625
542.1948, 802.6562
542.6769, 539.8125
543.1590, 218.3750
543.6411, 9.187500
544.1232, 95.78125
544.6053, 132.5938
545.0875, 78.87500
545.5696, 22.40625
546.0517, 153.6250
546.5338, 317.3438
547.0159, 427.0000
547.4980, 407.8438
547.9802, 348.8750
548.4623, 307.1562
548.9444, 204.2812
549.4265, 276.6562
549.9086, 678.0000
550.3907, 1229.656
550.8729, 1684.500
551.3550, 1950.094
551.8371, 2246.625
552.3192, 2622.750
552.8013, 3044.875
553.2834, 3456.750
553.7656, 3914.969
554.2477, 4159.031
554.7298, 3901.531
555.2119, 3218.375
555.6940, 2920.312
556.1761, 3041.406
556.6583, 3321.906
557.1404, 3666.062
557.6225, 3969.062
558.1046, 3925.125
558.5867, 3363.000
559.0688, 2728.812
559.5510, 2469.875
560.0331, 2435.812
560.5152, 2330.562
560.9973, 1874.750
561.4794, 1478.812
561.9615, 1410.125
562.4437, 1629.500
562.9258, 1750.500
563.4079, 1663.812
563.8900, 1485.312
564.3721, 1225.250
564.8542, 785.3125
565.3364, 617.1250
565.8185, 829.8750
566.3006, 1157.562
566.7827, 1301.312
567.2648, 1207.312
567.7469, 1275.375
568.2291, 1638.188
568.7112, 2101.562
569.1933, 2232.062
569.6754, 2068.375
570.1575, 2018.250
570.6396, 2379.688
571.1218, 2921.188
571.6039, 3201.500
572.0860, 3254.438
572.5681, 3408.688
573.0502, 4006.250
573.5323, 4702.562
574.0145, 5211.562
574.4966, 5448.375
574.9787, 5601.312
575.4608, 5578.188
575.9429, 5557.500
576.4250, 5705.688
576.9072, 6195.375
577.3893, 6647.500
577.8714, 7015.125
578.3535, 7311.062
578.8356, 7523.875
579.3177, 7608.688
579.7999, 7755.938
580.2820, 8052.750
580.7641, 8476.188
581.2462, 8838.875
581.7283, 9132.875
582.2104, 9582.125
582.6926, 10482.56
583.1747, 11675.88
583.6568, 12701.75
584.1389, 13564.88
584.6210, 14081.25
585.1031, 14027.38
585.5853, 13525.75
586.0674, 12734.56
586.5495, 11650.19
587.0316, 10365.50
587.5137, 8700.500
587.9958, 6890.188
588.4780, 5379.000
588.9601, 4135.125
589.4422, 3349.938
589.9243, 3454.125
590.4064, 4272.188
590.8885, 4150.375
591.3707, 2430.938
591.8528, 821.1250
592.3349, 242.8125
592.8170, 821.3750
593.2991, 1035.062
593.7813, 826.4375
594.2634, 492.5000
594.7455, 301.3125
595.2276, 241.2500
595.7097, 261.0000
596.1918, 379.5000
596.6740, 479.6250
597.1561, 309.2500
597.6382, 22.00000
598.1203, 69.31250
598.6024, 412.0000
599.0845, 905.1250
599.5667, 1064.188
600.0488, 951.6875
600.5309, 803.5000
601.0130, 535.8750
601.4951, 387.8125
601.9772, 538.0000
602.4594, 1052.625
602.9415, 1296.500
603.4236, 1147.938
603.9057, 889.8750
604.3878, 735.8125
604.8699, 708.6250
605.3521, 593.3750
605.8342, 364.5000
606.3163, 116.4375
606.7984, 22.75000
607.2805, 63.43750
607.7626, 41.31250
608.2448, 74.81250
608.7269, 181.9375
609.2090, 17.31250
609.6911, 268.2500
610.1732, 235.8750
610.6553, 704.5625
611.1375, 1699.438
611.6196, 2097.438
612.1017, 1953.125
612.5838, 1966.062
613.0659, 2643.688
613.5480, 3250.625
614.0302, 3311.438
614.5123, 2593.188
614.9944, 2347.312
615.4765, 2860.562
615.9586, 3471.562
616.4407, 3541.312
616.9229, 2966.500
617.4050, 2651.375
617.8871, 2757.625
618.3692, 3003.250
618.8513, 2945.500
619.3334, 2636.125
619.8156, 2327.875
620.2977, 2046.625
620.7798, 1874.312
621.2619, 2057.438
621.7440, 2449.562
622.2261, 2633.562
622.7083, 2126.125
623.1904, 1582.938
623.6725, 1478.875
624.1546, 1823.938
624.6367, 1943.312
625.1188, 1498.438
625.6010, 982.4375
626.0831, 613.4375
626.5652, 388.6250
627.0473, 318.0625
627.5294, 430.6250
628.0115, 639.9375
628.4937, 894.4375
628.9758, 1207.375
629.4579, 1384.875
629.9400, 1341.125
630.4221, 1202.875
630.9042, 1145.312
631.3864, 1156.500
631.8685, 1212.312
632.3506, 1394.750
632.8327, 1543.875
633.3148, 1455.438
633.7969, 1192.062
634.2791, 967.5000
634.7612, 884.5625
635.2433, 872.0000
635.7254, 945.3750
636.2075, 1106.438
636.6896, 1182.000
637.1718, 1213.875
637.6539, 1127.812
638.1360, 849.8750
638.6181, 330.0000
639.1002, 68.06250
639.5823, 343.2500
640.0645, 470.1250
640.5466, 366.2500
641.0287, 74.37500
641.5108, 171.0000
641.9929, 320.3750
642.4750, 424.2500
642.9572, 444.8125
643.4393, 453.3125
643.9214, 605.6875
644.4035, 1119.312
644.8856, 1573.875
645.3677, 1656.125
645.8499, 1504.812
646.3320, 1434.062
646.8141, 1582.375
647.2962, 1753.312
647.7783, 1916.625
648.2604, 2063.438
648.7426, 2144.688
649.2247, 2120.625
649.7068, 2106.312
650.1888, 2197.250
650.6710, 2380.250
651.1531, 2557.500
651.6352, 2737.375
652.1173, 2682.812
652.5994, 1902.750
653.0815, 816.7500
653.5637, 285.8750
654.0458, 480.8750
654.5279, 905.5000
655.0100, 1295.938
655.4921, 1673.688
655.9742, 2065.500
656.4564, 2540.812
656.9385, 2947.875
657.4206, 3261.312
657.9027, 3480.938
658.3848, 3587.000
658.8669, 3534.562
659.3491, 3432.688
659.8312, 3265.625
660.3133, 3073.562
660.7954, 3001.125
661.2775, 3043.438
661.7596, 3120.375
662.2418, 3270.938
662.7239, 3403.688
663.2060, 3254.500
663.6881, 2861.812
664.1702, 2436.250
664.6523, 2068.438
665.1345, 1772.312
665.6166, 1577.062
666.0987, 1496.812
666.5808, 1463.812
667.0629, 1526.188
667.5450, 1572.062
668.0272, 1544.938
668.5093, 1464.875
668.9914, 1280.688
669.4735, 855.0000
669.9556, 486.9375
670.4377, 527.3750
670.9199, 988.4375
671.4020, 1526.625
671.8841, 2101.938
672.3662, 2686.188
672.8483, 3271.875
673.3304, 3828.625
673.8126, 4245.500
674.2947, 4468.250
674.7768, 4536.938
675.2589, 4385.875
675.7410, 4125.875
676.2231, 4019.625
676.7053, 4315.312
677.1874, 4598.375
677.6695, 4747.312
678.1516, 4756.000
678.6337, 4650.938
679.1158, 4382.875
679.5980, 4115.250
680.0801, 3974.438
680.5622, 3928.000
681.0443, 3524.875
681.5264, 2727.875
682.0085, 1971.938
682.4907, 1582.000
682.9728, 1472.000
683.4549, 1533.438
683.9370, 1764.562
684.4191, 1910.562
684.9012, 1802.812
685.3834, 1504.625
685.8655, 1019.062
686.3476, 202.7500
686.8297, 397.3750
687.3118, 554.6875
687.7939, 475.1875
688.2761, 377.4375
688.7582, 229.1250
689.2403, 160.7500
689.7224, 248.1875
690.2045, 360.1250
690.6866, 273.1250
691.1688, 6.187500
691.6509, 379.3750
692.1330, 843.5000
692.6151, 1332.875
693.0972, 1818.125
693.5793, 2240.562
694.0615, 2406.188
694.5436, 1943.625
695.0257, 1486.438
695.5078, 1576.062
695.9899, 2063.000
696.4720, 2268.750
696.9542, 1591.062
697.4363, 1007.625
697.9184, 871.6250
698.4005, 1180.812
698.8826, 1569.750
699.3647, 2059.000
699.8469, 2540.500
700.3290, 2951.250
700.8111, 3281.500
701.2932, 3525.875
701.7753, 3670.688
702.2574, 3811.062
702.7396, 4004.875
703.2217, 4206.938
703.7038, 4419.938
704.1859, 4698.500
704.6680, 4808.000
705.1501, 4556.562
705.6323, 4133.625
706.1144, 3691.562
706.5965, 3105.062
707.0786, 2820.875
707.5607, 2996.500
708.0428, 3314.500
708.5250, 3435.062
709.0071, 3333.938
709.4892, 3263.562
709.9713, 3260.375
710.4534, 3301.938
710.9355, 3351.125
711.4177, 3417.000
711.8998, 3519.250
712.3819, 3650.625
712.8640, 3842.438
713.3461, 4175.625
713.8282, 4560.688
714.3104, 4820.625
714.7925, 4811.375
715.2746, 4749.500
715.7567, 4685.062
716.2388, 4615.562
716.7209, 4544.500
717.2031, 4454.000
717.6852, 4386.125
718.1673, 4355.250
718.6494, 4369.812
719.1315, 4533.188
719.6136, 4830.312
720.0958, 5036.250
720.5779, 4833.938
721.0600, 4529.812
721.5421, 4621.688
722.0242, 5044.750
722.5063, 5289.312
722.9885, 4927.250
723.4706, 4419.312
723.9527, 3987.312
724.4348, 3649.688
724.9169, 3465.125
725.3990, 3559.062
725.8812, 3647.375
726.3633, 3598.938
726.8454, 3424.062
727.3275, 3003.438
727.8096, 2298.625
728.2917, 1607.875
728.7739, 1233.000
729.2560, 1092.688
729.7381, 921.1250
730.2202, 672.7500
730.7023, 647.3750
731.1844, 1338.625
731.6666, 2224.125
732.1487, 2775.438
732.6308, 2774.750
733.1129, 2625.875
733.5950, 2054.500
734.0771, 1545.375
734.5593, 1597.188
735.0414, 2406.000
735.5235, 3087.000
736.0056, 3584.875
736.4877, 3879.938
736.9698, 3879.812
737.4520, 3637.875
737.9341, 3474.125
738.4162, 3552.312
738.8983, 3558.375
739.3804, 2982.750
739.8625, 2163.625
740.3447, 1671.875
740.8268, 2036.938
741.3089, 2402.750
741.7910, 2605.438
742.2731, 2630.688
742.7552, 2444.750
743.2374, 1935.875
743.7195, 1414.000
744.2016, 866.0625
744.6837, 369.4375
745.1658, 333.1250
745.6479, 741.8125
746.1301, 968.3125
746.6122, 610.2500
747.0943, 85.68750
747.5764, 46.68750
748.0585, 124.7500
748.5406, 360.8125
749.0228, 684.9375
749.5049, 936.6875
749.9870, 961.3750
750.4691, 793.0625
750.9512, 728.1875
751.4333, 888.0625
751.9155, 930.0625
752.3976, 681.5000
752.8797, 197.5000
753.3618, 135.3125
753.8439, 327.7500
754.3260, 270.5000
754.8082, 426.9375
755.2903, 1269.000
755.7724, 1276.625
756.2545, 559.8750
756.7366, 88.12500
757.2188, 206.6250
757.7009, 124.2500
758.1830, 73.00000
758.6651, 398.1875
759.1472, 399.4375
759.6293, 269.1875
760.1115, 814.7500
760.5936, 783.8125
761.0757, 174.6250
761.5578, 193.0625
762.0399, 292.1875
762.5220, 260.0000
763.0042, 142.6875
763.4863, 18.75000
763.9684, 154.3750
764.4505, 254.2500
764.9326, 195.5625
765.4147, 264.3750
765.8969, 800.0625
766.3790, 1200.688
766.8611, 1412.438
767.3432, 1510.750
767.8253, 1449.562
768.3074, 1365.500
768.7896, 1314.750
769.2717, 1287.938
769.7538, 1472.375
770.2359, 1911.500
770.7180, 2366.562
771.2001, 2590.188
771.6823, 2642.250
772.1644, 2596.438
772.6465, 2449.562
773.1285, 2335.812
773.6107, 2195.938
774.0928, 2205.188
774.5749, 2563.500
775.0570, 3628.188
775.5391, 4267.688
776.0212, 4257.500
776.5034, 4005.875
776.9855, 3915.938
777.4676, 4020.250
777.9497, 3786.312
778.4318, 3108.438
778.9139, 2429.688
779.3961, 2283.875
779.8782, 2496.438
780.3603, 2755.625
780.8424, 3057.562
781.3245, 3193.562
781.8066, 2920.375
782.2888, 2502.438
782.7709, 2210.938
783.2530, 2148.125
783.7351, 2126.438
784.2172, 2173.125
784.6993, 2231.812
785.1815, 2230.812
785.6636, 2177.188
786.1457, 2099.812
786.6278, 2021.812
787.1099, 1891.562
787.5920, 1434.062
788.0742, 941.7500
788.5563, 1100.312
789.0384, 2494.125
789.5205, 3467.062
790.0026, 2697.688
790.4847, 1287.875
790.9669, 482.5625
791.4490, 580.1250
791.9311, 967.9375
792.4132, 1842.125
792.8953, 2731.062
793.3774, 2888.125
793.8596, 2341.312
794.3417, 2245.375
794.8238, 2866.312
795.3059, 3652.375
795.7880, 4141.938
796.2701, 4380.562
796.7523, 4462.938
797.2344, 4382.812
797.7165, 4231.375
798.1986, 4108.688
798.6807, 3952.125
799.1628, 3619.812
799.6450, 2915.875
800.1271, 2580.750
800.6092, 2818.125
801.0913, 3173.250
801.5734, 2857.188
802.0555, 2022.375
802.5377, 1483.250
803.0198, 1426.188
803.5019, 1659.562
803.9840, 2255.375
804.4661, 2934.500
804.9482, 3286.500
805.4304, 3091.688
805.9125, 2807.000
806.3946, 2293.938
806.8767, 1855.875
807.3588, 1818.688
807.8409, 2258.625
808.3231, 2788.125
808.8052, 3399.062
809.2873, 3995.500
809.7694, 4423.312
810.2515, 4735.062
810.7336, 5175.125
811.2158, 5868.312
811.6979, 6306.438
812.1800, 6087.375
812.6621, 5448.750
813.1442, 4608.125
813.6263, 3131.562
814.1085, 2279.500
814.5906, 2476.500
815.0727, 2942.625
815.5548, 2795.188
816.0369, 1994.062
816.5190, 1584.500
817.0012, 1753.875
817.4833, 2032.562
817.9654, 1949.562
818.4475, 1638.688
818.9296, 1243.000
819.4117, 704.6250
819.8939, 293.1250
820.3760, 189.6875
820.8581, 232.6250
821.3402, 270.7500
821.8223, 230.4375
822.3044, 281.4375
822.7866, 408.0625
823.2687, 685.2500
823.7508, 1269.250
824.2329, 2067.688
824.7150, 2590.312
825.1971, 2760.438
825.6793, 2854.625
826.1614, 3111.750
826.6435, 3258.750
827.1256, 2968.125
827.6077, 2048.688
828.0898, 1491.750
828.5720, 1718.062
829.0541, 2236.375
829.5362, 2813.250
830.0183, 3548.250
830.5004, 3811.438
830.9825, 3513.188
831.4647, 3142.812
831.9468, 3164.812
832.4289, 3421.438
832.9110, 3537.625
833.3931, 3473.125
833.8752, 3406.812
834.3574, 3625.562
834.8395, 3756.812
835.3216, 3525.562
835.8037, 2849.812
836.2858, 2064.938
836.7679, 936.7500
837.2501, 144.8750
837.7322, 287.3750
838.2143, 1249.312
838.6964, 1746.125
839.1785, 1776.375
839.6606, 1620.500
840.1428, 1244.938
840.6249, 936.2500
841.1070, 1065.750
841.5891, 1615.625
842.0712, 2188.250
842.5533, 2639.750
843.0355, 3070.625
843.5176, 3566.000
843.9997, 4091.625
844.4818, 4337.500
844.9639, 4271.625
845.4460, 4048.250
845.9282, 3755.500
846.4103, 3362.000
846.8924, 2634.000
847.3745, 1688.625
847.8566, 1016.625
848.3387, 1170.250
848.8209, 1412.000
849.3030, 1378.625
849.7851, 1108.500
850.2672, 857.5000
850.7493, 652.8750
851.2314, 410.2500
851.7136, 30.87500
852.1957, 339.3750
852.6778, 128.7500
853.1599, 547.8750
853.6420, 832.0000
854.1241, 89.50000
854.6063, 1038.625
855.0884, 732.7500
855.5705, 310.3750
856.0526, 1035.000
856.5347, 780.1250
857.0168, 642.6250
857.4990, 882.3750
857.9811, 1300.250
858.4632, 1480.500
858.9453, 1426.875
859.4274, 1317.500
859.9095, 1175.125
860.3917, 1002.250
860.8738, 665.6250
861.3559, 322.5000
861.8380, 300.3750
862.3201, 883.7500
862.8022, 1402.125
863.2844, 1446.250
863.7665, 1360.000
864.2486, 1519.000
864.7307, 2017.875
865.2128, 2522.125
865.6949, 3073.750
866.1771, 3518.250
866.6592, 3791.875
867.1413, 3850.250
867.6234, 3474.000
868.1055, 2568.500
868.5876, 1872.500
869.0698, 2166.250
869.5519, 2708.750
870.0340, 2868.875
870.5161, 2355.625
870.9982, 2216.875
871.4803, 2600.250
871.9625, 3090.625
872.4446, 3472.625
872.9267, 3730.000
873.4088, 3621.750
873.8909, 3146.875
874.3730, 2614.000
874.8552, 2146.250
875.3373, 1790.625
875.8194, 1670.625
876.3015, 1763.375
876.7836, 1754.250
877.2657, 1460.500
877.7479, 1183.875
878.2300, 1027.500
878.7121, 984.6250
879.1942, 953.5000
879.6763, 946.7500
880.1584, 869.0000
880.6406, 656.3750
881.1227, 372.7500
881.6048, 78.87500
882.0869, 225.2500
882.5690, 557.8750
883.0511, 1379.750
883.5333, 1711.125
884.0154, 891.0000
884.4975, 486.3750
884.9796, 1219.250
885.4617, 1187.750
885.9438, 1220.625
886.4260, 1560.000
886.9081, 1901.875
887.3902, 1560.125
887.8723, 802.8750
888.3544, 269.2500
888.8365, 165.3750
889.3187, 320.7500
889.8008, 705.8750
890.2829, 1273.125
890.7650, 1970.875
891.2471, 2974.250
891.7292, 3640.875
892.2114, 3942.875
892.6935, 3963.750
893.1756, 3523.625
893.6577, 2884.500
894.1398, 2933.625
894.6219, 3734.625
895.1041, 4255.250
895.5862, 3471.250
896.0683, 2447.875
896.5504, 1866.000
897.0325, 1781.875
897.5146, 2354.375
897.9967, 4060.875
898.4788, 5333.750
898.9609, 5126.875
899.4431, 3888.125
899.9252, 3419.500
900.4073, 3633.750
900.8894, 3995.125
901.3715, 4217.625
901.8536, 4433.250
902.3358, 4673.625
902.8179, 4977.125
903.3000, 5456.375
903.7821, 6442.375
904.2642, 6969.750
904.7463, 6682.375
905.2285, 5970.375
905.7106, 5758.500
906.1927, 5956.625
906.6748, 5899.375
907.1569, 5238.625
907.6390, 4621.500
908.1212, 4734.875
908.6033, 5184.375
909.0854, 5443.000
909.5675, 5307.875
910.0496, 5046.250
910.5317, 4521.375
911.0139, 4117.875
911.4960, 4313.500
911.9781, 5045.125
912.4602, 5622.625
912.9423, 6075.500
913.4244, 6414.750
913.9066, 6561.375
914.3887, 6604.625
914.8708, 6595.875
915.3529, 6541.875
915.8350, 6533.125
916.3171, 6712.875
916.7993, 6742.875
917.2814, 6385.000
917.7635, 5730.250
918.2456, 5436.500
918.7277, 5481.750
919.2098, 5688.500
919.6920, 6090.625
920.1741, 6503.000
920.6562, 6807.875
921.1383, 6975.875
921.6204, 6932.875
922.1025, 6495.250
922.5847, 6048.500
923.0668, 5662.500
923.5489, 5314.375
924.0310, 4856.875
924.5131, 4325.000
924.9952, 4326.875
925.4774, 5184.250
925.9595, 5905.250
926.4416, 5171.875
926.9237, 3885.250
927.4058, 3178.875
927.8879, 3471.250
928.3701, 3850.625
928.8522, 4391.375
929.3343, 4724.500
929.8164, 4354.250
930.2985, 3293.750
930.7806, 3199.875
931.2628, 4092.625
931.7449, 4960.000
932.2270, 5022.125
932.7091, 4728.875
933.1912, 4558.875
933.6733, 4489.875
934.1555, 4228.125
934.6376, 3261.875
935.1197, 2696.000
935.6018, 2971.625
936.0839, 3782.250
936.5660, 4292.375
937.0482, 4497.125
937.5303, 4321.375
938.0124, 3610.875
938.4945, 2785.250
938.9766, 2135.000
939.4587, 1680.250
939.9409, 1441.250
940.4230, 1696.125
940.9051, 1722.000
941.3872, 1380.625
941.8693, 1081.125
942.3514, 1358.375
942.8336, 2041.250
943.3157, 1841.625
943.7978, 619.7500
944.2799, 530.1250
944.7620, 562.3750
945.2441, 235.1250
945.7263, 313.6250
946.2084, 890.2500
946.6905, 933.5000
947.1726, 90.25000
947.6547, 757.0000
948.1368, 1260.125
948.6190, 1482.875
949.1011, 1789.250
949.5832, 2104.250
950.0653, 2029.875
950.5474, 997.5000
951.0295, 38.75000
951.5117, 435.2500
951.9938, 369.0000
952.4759, 165.8750
952.9580, 257.3750
953.4401, 575.5000
953.9222, 746.5000
954.4044, 983.1250
954.8865, 1497.000
955.3686, 2138.875
955.8507, 2878.500
956.3328, 3844.000
956.8149, 4374.750
957.2971, 3522.375
957.7792, 2455.750
958.2613, 2090.750
958.7434, 2514.500
959.2255, 2836.250
959.7076, 3051.750
960.1898, 3170.875
960.6719, 3180.500
961.1540, 3106.750
961.6361, 2941.875
962.1182, 2759.875
962.6003, 2853.375
963.0825, 3721.625
963.5646, 4460.500
964.0467, 4675.125
964.5288, 4527.375
965.0109, 4323.125
965.4930, 4090.125
965.9752, 3705.000
966.4573, 3096.500
966.9394, 2593.750
967.4215, 2710.875
967.9036, 3176.875
968.3857, 3610.375
968.8679, 4034.750
969.3500, 3962.375
969.8321, 2073.875
970.3142, 810.5000
970.7963, 1791.375
971.2784, 4795.500
971.7606, 6313.125
972.2427, 6285.125
972.7248, 5955.875
973.2069, 5725.250
973.6890, 5740.250
974.1711, 6298.000
974.6533, 7193.375
975.1354, 8033.500
975.6175, 8514.250
976.0996, 9148.500
976.5817, 10215.50
977.0638, 11192.50
977.5460, 11089.00
978.0281, 10060.12
978.5102, 9710.125
978.9923, 10272.38
979.4744, 11287.75
979.9565, 12610.75
980.4387, 14024.38
980.9208, 15319.50
981.4029, 16449.38
981.8850, 17741.00
982.3671, 19444.12
982.8492, 20722.38
983.3314, 21111.75
983.8135, 20836.25
984.2956, 20253.12
984.7777, 19577.00
985.2598, 19536.38
985.7419, 21091.50
986.2241, 22575.38
986.7062, 22685.75
987.1883, 22407.25
987.6704, 23364.75
988.1525, 26027.50
988.6346, 28399.00
989.1168, 30377.00
989.5989, 31813.62
990.0810, 32391.75
990.5631, 32341.62
991.0452, 31992.12
991.5273, 31372.12
992.0095, 30605.88
992.4916, 30161.25
992.9737, 29066.62
993.4558, 26710.00
993.9379, 23357.38
994.4200, 20537.25
994.9022, 18234.88
995.3843, 16155.88
995.8664, 13934.75
996.3485, 12270.12
996.8306, 12766.50
997.3127, 14110.62
997.7949, 14207.50
998.2770, 10805.38
998.7591, 8818.625
999.2412, 8968.875
999.7233, 9579.000
1000.205, 8758.000
1000.688, 6894.500
1001.170, 6111.375
1001.652, 6458.125
1002.134, 7017.750
1002.616, 7312.750
1003.098, 7575.250
1003.580, 8103.125
1004.062, 8714.000
1004.544, 8394.125
1005.027, 7020.500
1005.509, 5368.500
1005.991, 3434.625
1006.473, 1779.250
1006.955, 1635.500
1007.437, 2364.500
1007.919, 2703.625
1008.401, 2123.125
1008.884, 1600.375
1009.366, 1699.125
1009.848, 1755.625
1010.330, 1314.500
1010.812, 370.7500
1011.294, 721.2500
1011.776, 1954.875
1012.258, 2495.875
1012.740, 1171.375
1013.223, 594.1250
1013.705, 1544.250
1014.187, 1797.750
1014.669, 1797.750
1015.151, 1158.375
1015.633, 1156.000
1016.115, 2153.500
1016.597, 3469.625
1017.080, 4117.625
1017.562, 4218.500
1018.044, 4009.750
1018.526, 3459.000
1019.008, 3170.250
1019.490, 3732.875
1019.972, 4406.000
1020.454, 4814.750
1020.936, 4982.875
1021.419, 4826.875
1021.901, 4348.500
1022.383, 3607.750
1022.865, 2328.750
1023.347, 1217.500
1023.829, 1537.375
1024.311, 2703.250
1024.793, 3579.750
1025.276, 4003.375
1025.758, 3850.625
1026.240, 2838.375
1026.722, 1710.375
1027.204, 1121.000
1027.686, 1042.250
1028.168, 1412.750
1028.650, 2204.875
1029.132, 3215.875
1029.615, 4085.625
1030.097, 5256.000
1030.579, 7450.125
1031.061, 10220.88
1031.543, 11566.38
1032.025, 11154.50
1032.507, 10451.38
1032.989, 9741.500
1033.471, 9016.375
1033.954, 8288.125
1034.436, 7546.625
1034.918, 6754.750
1035.400, 5841.625
1035.882, 5315.375
1036.364, 5453.875
1036.846, 5835.250
1037.328, 6589.875
1037.811, 7672.125
1038.293, 7346.875
1038.775, 5791.500
1039.257, 4249.625
1039.739, 3407.500
1040.221, 2840.125
1040.703, 2456.375
1041.185, 2092.250
1041.667, 1381.750
1042.150, 1.125000
1042.632, 849.6250
1043.114, 1090.500
1043.596, 810.6250
1044.078, 391.0000
1044.560, 1837.250
1045.042, 2191.000
1045.524, 1405.500
1046.006, 1089.625
1046.489, 2692.375
1046.971, 3746.625
1047.453, 3139.625
1047.935, 1679.500
1048.417, 1858.750
1048.899, 3444.875
1049.381, 4431.500
1049.863, 4125.125
1050.346, 3656.250
1050.828, 3926.125
1051.310, 4432.875
1051.792, 4611.125
1052.274, 4327.000
1052.756, 4618.625
1053.238, 5726.125
1053.720, 6317.375
1054.203, 5016.250
1054.685, 3117.750
1055.167, 2963.000
1055.649, 4027.125
1056.131, 4921.000
1056.613, 5217.750
1057.095, 5116.125
1057.577, 4295.250
1058.059, 3565.375
1058.542, 4238.375
1059.024, 5853.375
1059.506, 6829.500
1059.988, 7095.500
1060.470, 6792.125
1060.952, 5282.500
1061.434, 3721.125
1061.916, 2938.375
1062.398, 2785.125
1062.881, 2567.625
1063.363, 2236.875
1063.845, 2253.875
1064.327, 2708.625
1064.809, 3539.625
1065.291, 4997.375
1065.773, 6631.250
1066.255, 7940.500
1066.738, 8922.375
1067.220, 8862.750
1067.702, 7246.250
1068.184, 5487.000
1068.666, 4125.250
1069.148, 3179.000
1069.630, 3262.000
1070.112, 4052.625
1070.594, 4330.375
1071.077, 2626.875
1071.559, 1455.000
1072.041, 2590.125
1072.523, 4255.125
1073.005, 4623.500
1073.487, 3577.875
1073.969, 2641.750
1074.451, 1861.875
1074.933, 1256.875
1075.416, 922.5000
1075.898, 710.8750
1076.380, 218.0000
1076.862, 308.3750
1077.344, 262.7500
1077.826, 2765.500
1078.308, 4227.875
1078.790, 3933.250
1079.273, 3061.375
1079.755, 3234.250
1080.237, 3890.875
1080.719, 3973.875
1081.201, 3278.625
1081.683, 2716.000
1082.165, 2474.125
1082.647, 2587.875
1083.129, 3293.375
1083.612, 4227.875
1084.094, 3921.250
1084.576, 2665.500
1085.058, 2149.375
1085.540, 3233.125
1086.022, 4435.000
1086.504, 5297.125
1086.986, 5578.375
1087.469, 4921.500
1087.951, 3158.625
1088.433, 2434.500
1088.915, 2837.000
1089.397, 3094.625
1089.879, 1957.000
1090.361, 650.2500
1090.843, 656.2500
1091.325, 1435.250
1091.807, 1823.000
1092.290, 1635.625
1092.772, 917.1250
1093.254, 649.3750
1093.736, 1853.750
1094.218, 973.5000
1094.700, 976.1250
1095.182, 1818.500
1095.664, 1578.750
1096.147, 1462.875
1096.629, 2371.875
1097.111, 2905.750
1097.593, 2413.625
1098.075, 1601.875
1098.557, 1789.500
1099.039, 2863.750
1099.521, 4530.875
1100.004, 6773.750
1100.486, 8320.500
1100.968, 7563.000
1101.450, 6498.375
1101.932, 6518.875
1102.414, 7427.875
1102.896, 8461.375
1103.378, 9645.625
1103.860, 9693.000
1104.343, 7705.750
1104.825, 5483.500
1105.307, 5011.125
1105.789, 5367.750
1106.271, 5482.125
1106.753, 5240.750
1107.235, 4636.250
1107.717, 3454.875
1108.199, 2782.375
1108.682, 3735.750
1109.164, 5237.375
1109.646, 5241.875
1110.128, 4245.250
1110.610, 3500.750
1111.092, 3828.125
1111.574, 3724.625
1112.056, 2773.875
1112.539, 1758.500
1113.021, 1432.875
1113.503, 1659.250
1113.985, 2344.750
1114.467, 3309.250
1114.949, 3281.625
1115.431, 84.75000
1115.913, 2463.250
1116.396, 1318.125
1116.878, 1109.625
1117.360, 909.3750
1117.842, 1713.875
1118.324, 3049.875
1118.806, 2603.375
1119.288, 1566.000
1119.770, 448.3750
1120.252, 549.6250
1120.734, 1102.000
1121.217, 1336.875
1121.699, 2121.125
1122.181, 3548.250
1122.663, 4299.125
1123.145, 3840.125
1123.627, 3081.125
1124.109, 2663.250
1124.591, 2713.375
1125.074, 3813.625
1125.556, 6420.000
1126.038, 6577.375
1126.520, 3380.125
1127.002, 595.1250
1127.484, 66.00000
1127.966, 432.7500
1128.448, 457.1250
1128.931, 408.5000
1129.413, 1114.000
1129.895, 3466.750
1130.377, 4919.750
1130.859, 5012.750
1131.341, 4683.875
1131.823, 4398.250
1132.305, 4173.750
1132.787, 4230.375
1133.270, 4431.625
1133.752, 4370.500
1134.234, 3009.125
1134.716, 2493.250
1135.198, 4089.000
1135.680, 5995.375
1136.162, 6361.875
1136.644, 5393.500
1137.126, 4922.125
1137.609, 4978.000
1138.091, 5067.125
1138.573, 4910.250
1139.055, 4762.500
1139.537, 4827.000
1140.019, 4954.625
1140.501, 4844.500
1140.983, 4474.625
1141.466, 4408.750
1141.948, 4696.000
1142.430, 4970.500
1142.912, 4815.250
1143.394, 4596.125
1143.876, 4523.250
1144.358, 4614.375
1144.840, 4967.000
1145.323, 5714.625
1145.805, 5778.625
1146.287, 4868.625
1146.769, 3770.875
1147.251, 2923.125
1147.733, 2610.750
1148.215, 3480.750
1148.697, 5600.000
1149.179, 6714.125
1149.661, 6672.750
1150.144, 5881.375
1150.626, 4059.250
1151.108, 2379.000
1151.590, 3288.125
1152.072, 5293.000
1152.554, 5864.750
1153.036, 3909.750
1153.518, 3292.000
1154.001, 4594.625
1154.483, 6310.875
1154.965, 8006.000
1155.447, 9390.625
1155.929, 9556.000
1156.411, 8930.750
1156.893, 8337.625
1157.375, 7765.750
1157.858, 7963.375
1158.340, 9638.750
1158.822, 10927.88
1159.304, 10385.62
1159.786, 8650.875
1160.268, 7633.375
1160.750, 7200.250
1161.232, 6907.375
1161.714, 6682.625
1162.197, 6438.500
1162.679, 6169.500
1163.161, 5860.625
1163.643, 5265.250
1164.125, 5620.125
1164.607, 5018.250
1165.089, 6447.625
1165.571, 7746.250
1166.053, 8642.375
1166.536, 8902.625
1167.018, 8146.125
1167.500, 6965.125
1167.982, 5885.250
1168.464, 4933.750
1168.946, 4493.625
1169.428, 4545.875
1169.910, 4572.125
1170.393, 4347.875
1170.875, 3903.000
1171.357, 2882.375
1171.839, 1848.000
1172.321, 1783.000
1172.803, 2650.500
1173.285, 3728.625
1173.767, 4812.125
1174.250, 5703.750
1174.732, 6221.250
1175.214, 6290.125
1175.696, 5434.625
1176.178, 4117.375
1176.660, 3797.250
1177.142, 4530.875
1177.624, 4642.375
1178.106, 3684.250
1178.589, 2854.500
1179.071, 3561.125
1179.553, 4466.125
1180.035, 4289.500
1180.517, 3315.250
1180.999, 3393.250
1181.481, 4647.625
1181.963, 4854.375
1182.445, 3112.500
1182.928, 1871.000
1183.410, 4517.000
1183.892, 8022.250
1184.374, 9533.875
1184.856, 8967.750
1185.338, 7485.500
1185.820, 4901.125
1186.302, 3393.125
1186.785, 3909.625
1187.267, 5096.500
1187.749, 5978.875
1188.231, 6528.125
1188.713, 6471.625
1189.195, 5729.125
1189.677, 6106.000
1190.159, 7816.250
1190.641, 8868.875
1191.124, 8265.875
1191.606, 7010.250
1192.088, 6036.125
1192.570, 5243.500
1193.052, 4487.500
1193.534, 3698.750
1194.016, 3341.375
1194.498, 3515.375
1194.980, 3616.750
1195.463, 3329.500
1195.945, 2874.750
1196.427, 2503.250
1196.909, 2184.875
1197.391, 1824.250
1197.873, 1226.875
1198.355, 1487.875
1198.837, 2826.375
1199.320, 3841.125
1199.802, 3152.375
1200.284, 2152.125
1200.766, 2632.125
1201.248, 3977.375
1201.730, 5102.250
1202.212, 5673.375
1202.694, 6424.875
1203.177, 7439.000
1203.659, 8157.250
1204.141, 7883.875
1204.623, 7335.125
1205.105, 7553.625
1205.587, 7260.500
1206.069, 7016.000
1206.551, 7281.125
1207.033, 6889.375
1207.516, 7165.875
1207.998, 7842.750
1208.480, 9352.125
1208.962, 10642.25
1209.444, 9863.125
1209.926, 7817.125
1210.408, 6771.375
1210.890, 7600.375
1211.372, 7376.125
1211.854, 5674.625
1212.337, 4035.500
1212.819, 4188.875
1213.301, 4777.875
1213.783, 3994.125
1214.265, 2353.750
1214.747, 1471.625
1215.229, 1706.125
1215.711, 2114.000
1216.194, 2745.375
1216.676, 2992.125
1217.158, 1785.250
1217.640, 314.3750
1218.122, 16.25000
1218.604, 638.5000
1219.086, 914.2500
1219.568, 566.3750
1220.051, 591.8750
1220.533, 1087.875
1221.015, 1880.375
1221.497, 2891.250
1221.979, 3953.500
1222.461, 4814.375
1222.943, 5533.625
1223.425, 6590.250
1223.907, 8161.500
1224.390, 9122.125
1224.872, 9265.375
1225.354, 9086.875
1225.836, 8835.000
1226.318, 8697.625
1226.800, 8998.625
1227.282, 9620.250
1227.764, 9926.125
1228.246, 9889.500
1228.729, 9887.375
1229.211, 10061.75
1229.693, 9647.625
1230.175, 7014.000
1230.657, 4268.000
1231.139, 3596.000
1231.621, 4554.000
1232.103, 4430.500
1232.586, 3055.375
1233.068, 2577.500
1233.550, 3464.375
1234.032, 4383.250
1234.514, 4011.125
1234.996, 3326.625
1235.478, 3033.625
1235.960, 3100.875
1236.443, 3482.500
1236.925, 4207.125
1237.407, 3704.000
1237.889, 1511.125
1238.371, 175.5000
1238.853, 929.8750
1239.335, 2684.500
1239.817, 3800.500
1240.299, 4252.875
1240.781, 3813.750
1241.264, 2544.250
1241.746, 1704.000
1242.228, 1544.375
1242.710, 1730.250
1243.192, 2777.625
1243.674, 3315.875
1244.156, 2273.000
1244.638, 364.7500
1245.121, 582.3750
1245.603, 626.5000
1246.085, 131.3750
1246.567, 924.7500
1247.049, 1829.125
1247.531, 2394.625
1248.013, 2426.000
1248.495, 1520.500
1248.978, 375.7500
1249.460, 1159.750
1249.942, 3330.250
1250.424, 4464.500
1250.906, 4061.250
1251.388, 3790.750
1251.870, 4688.250
1252.352, 5469.250
1252.834, 5525.750
1253.317, 5390.250
1253.799, 6544.250
1254.281, 8344.750
1254.763, 9073.500
1255.245, 8403.500
1255.727, 7512.500
1256.209, 6490.750
1256.691, 5733.250
1257.173, 5458.000
1257.656, 5310.500
1258.138, 4410.000
1258.620, 3261.500
1259.102, 2928.500
1259.584, 3624.500
1260.066, 4015.750
1260.548, 3869.250
1261.030, 3615.000
1261.513, 3408.750
1261.995, 3080.250
1262.477, 2183.250
1262.959, 1120.000
1263.441, 204.5000
1263.923, 473.5000
1264.405, 472.0000
1264.887, 3902.500
1265.370, 5629.500
1265.852, 4220.750
1266.334, 2032.750
1266.816, 1980.500
1267.298, 2526.500
1267.780, 1872.500
1268.262, 26.00000
1268.744, 1215.750
1269.226, 1661.500
1269.708, 1912.000
1270.191, 2162.250
1270.673, 1824.250
1271.155, 614.7500
1271.637, 3113.500
1272.119, 3734.500
1272.601, 2924.500
1273.083, 2380.500
1273.565, 2110.500
1274.048, 1584.000
1274.530, 650.5000
1275.012, 67.75000
1275.494, 489.2500
1275.976, 1316.000
1276.458, 2378.250
1276.940, 3477.750
1277.422, 4245.750
1277.905, 4700.500
1278.387, 4978.500
1278.869, 5047.500
1279.351, 5484.250
1279.833, 6930.500
1280.315, 8340.500
1280.797, 9555.500
1281.279, 10213.75
1281.761, 9249.000
1282.244, 7312.500
1282.726, 5959.000
1283.208, 5424.000
1283.690, 5492.000
1284.172, 6596.250
1284.654, 7591.000
1285.136, 8280.750
1285.618, 8650.750
1286.100, 8362.750
1286.583, 7719.250
1287.065, 7063.000
1287.547, 6042.750
1288.029, 5167.500
1288.511, 5168.000
1288.993, 5441.000
1289.475, 5495.500
1289.957, 5706.000
1290.440, 6849.750
1290.922, 8009.500
1291.404, 7929.250
1291.886, 6913.000
1292.368, 6886.000
1292.850, 8014.250
1293.332, 8435.000
1293.814, 7836.500
1294.297, 7069.750
1294.779, 6422.500
1295.261, 6289.500
1295.743, 7787.750
1296.225, 9597.500
1296.707, 8995.250
1297.189, 6343.500
1297.671, 4419.250
1298.153, 3491.750
1298.635, 3433.500
1299.118, 5103.750
1299.600, 6355.750
1300.082, 6290.250
1300.564, 5488.750
1301.046, 5154.500
1301.528, 5343.250
1302.010, 6023.750
1302.492, 6954.000
1302.975, 6535.750
1303.457, 2311.250
1303.939, 101.5000
1304.421, 717.0000
1304.903, 1059.750
1305.385, 0.0000000E+00
##END=



