##NAMES=Viitaniemiite
##RRUFFID=R060052
##IDEAL CHEMISTRY=NaCaAlPO_4_F_3_
##LOCALITY=Paprook, Afghanistan
##OWNER=RRUFF
##SOURCE=Marcus Origlieri
##DESCRIPTION=Clear, colorless fragment
##STATUS=The identification of this mineral has been confirmed by X-ray diffraction and chemical analysis
##URL=rruff.info/R060052
##MEASURED CHEMISTRY=Na_1.00_(Ca_0.97_Mn^2+^_0.03_)_Σ=1_Al_1.00_P_1.00_O_4_(F_1.60_(OH)_1.40_)_Σ=3_
117.7236, 0.0000000E+00
118.2057, 0.3404690
118.6879, 3.1569999E-02
119.1700, 0.1343080
119.6521, 9.2101999E-02
120.1342, 0.4015500
120.6163, 0.5498050
121.0984, 0.9149930
121.5806, 1.935516
122.0627, 3.263535
122.5448, 4.176132
123.0269, 3.960556
123.5090, 2.336685
123.9911, 1.205795
124.4732, 0.4237520
124.9554, 0.1621090
125.4375, 0.6294250
125.9196, 1.765854
126.4017, 3.201233
126.8838, 4.498505
127.3659, 5.516617
127.8481, 6.846512
128.3302, 8.676880
128.8123, 10.74690
129.2944, 12.86171
129.7765, 15.07727
130.2586, 17.29727
130.7408, 19.11412
131.2229, 20.46367
131.7050, 22.03807
132.1871, 24.14970
132.6692, 26.70308
133.1513, 29.38091
133.6335, 32.03766
134.1156, 34.90331
134.5977, 38.23351
135.0798, 42.09042
135.5619, 46.03293
136.0440, 49.54527
136.5262, 52.53360
137.0083, 55.79576
137.4904, 59.83990
137.9725, 64.07851
138.4546, 68.15622
138.9367, 71.95078
139.4189, 75.55963
139.9010, 79.04791
140.3831, 81.80518
140.8652, 85.89186
141.3473, 92.57985
141.8294, 101.1361
142.3116, 109.2853
142.7937, 116.2434
143.2758, 122.8099
143.7579, 131.1450
144.2400, 142.1268
144.7221, 151.8543
145.2043, 159.9012
145.6864, 166.8726
146.1685, 173.3380
146.6506, 179.5338
147.1327, 185.4364
147.6148, 190.5579
148.0970, 195.6031
148.5791, 199.5245
149.0612, 201.9533
149.5433, 202.8714
150.0254, 202.4250
150.5075, 200.8971
150.9896, 197.8755
151.4718, 192.5446
151.9539, 183.6738
152.4360, 173.1680
152.9181, 162.6142
153.4002, 152.1761
153.8823, 141.4234
154.3645, 129.4814
154.8466, 116.8871
155.3287, 105.1756
155.8108, 95.04868
156.2929, 86.08900
156.7750, 77.23952
157.2572, 68.12372
157.7393, 59.76235
158.2214, 52.85751
158.7035, 47.06590
159.1856, 41.63313
159.6677, 35.98030
160.1499, 30.16455
160.6320, 24.99261
161.1141, 20.55212
161.5962, 16.82207
162.0783, 14.13670
162.5604, 12.22254
163.0426, 10.39209
163.5247, 7.911903
164.0068, 4.579765
164.4889, 1.713417
164.9710, 0.9621350
165.4531, 3.004494
165.9353, 3.961853
166.4174, 3.930374
166.8995, 3.479553
167.3816, 3.269218
167.8637, 3.302094
168.3458, 3.642654
168.8280, 4.858749
169.3101, 5.971848
169.7922, 6.232162
170.2743, 5.494789
170.7564, 4.191811
171.2385, 2.892982
171.7207, 1.562347
172.2028, 0.3522720
172.6849, 0.7125320
173.1670, 1.654671
173.6491, 2.364342
174.1312, 2.754807
174.6133, 3.247910
175.0955, 4.753456
175.5776, 7.537903
176.0597, 10.19789
176.5418, 12.17719
177.0239, 13.77692
177.5060, 15.66283
177.9882, 17.98666
178.4703, 20.77077
178.9524, 24.11657
179.4345, 28.07562
179.9166, 32.00557
180.3987, 35.49377
180.8809, 38.59186
181.3630, 41.62428
181.8451, 44.80255
182.3272, 47.80559
182.8093, 50.14581
183.2914, 51.73904
183.7736, 53.54045
184.2557, 56.52037
184.7378, 60.78073
185.2199, 65.35271
185.7020, 70.20993
186.1841, 75.20373
186.6663, 80.22585
187.1484, 85.25897
187.6305, 90.42023
188.1126, 95.84131
188.5947, 101.3261
189.0768, 107.5584
189.5590, 114.9269
190.0411, 122.7451
190.5232, 130.5042
191.0053, 138.0685
191.4874, 145.8436
191.9695, 154.6969
192.4517, 165.0189
192.9338, 175.8600
193.4159, 187.4503
193.8980, 199.3884
194.3801, 211.4685
194.8622, 223.6478
195.3443, 235.7282
195.8265, 247.2867
196.3086, 258.1013
196.7907, 268.6385
197.2728, 279.5740
197.7549, 290.0011
198.2370, 298.9108
198.7192, 305.8686
199.2013, 311.1358
199.6834, 315.2201
200.1655, 318.6733
200.6476, 320.3223
201.1297, 320.4817
201.6119, 318.6310
202.0940, 313.7515
202.5761, 305.2964
203.0582, 293.8829
203.5403, 280.8377
204.0224, 266.0005
204.5046, 250.4184
204.9867, 233.9343
205.4688, 216.9942
205.9509, 200.5363
206.4330, 184.8621
206.9151, 170.2206
207.3973, 156.8680
207.8794, 144.9073
208.3615, 133.8396
208.8436, 123.1750
209.3257, 113.0699
209.8078, 104.3196
210.2900, 97.43573
210.7721, 92.12514
211.2542, 87.81853
211.7363, 84.66016
212.2184, 81.89898
212.7005, 78.77774
213.1827, 75.28671
213.6648, 72.53919
214.1469, 71.03481
214.6290, 70.38695
215.1111, 70.23481
215.5932, 70.52638
216.0754, 71.44566
216.5575, 73.31654
217.0396, 76.23935
217.5217, 79.37792
218.0038, 81.97346
218.4859, 85.11255
218.9680, 89.44928
219.4502, 95.12693
219.9323, 101.9721
220.4144, 109.7314
220.8965, 118.2396
221.3786, 128.3603
221.8607, 140.4148
222.3429, 153.8275
222.8250, 168.7095
223.3071, 185.0480
223.7892, 201.9133
224.2713, 217.9624
224.7534, 233.2568
225.2356, 247.2531
225.7177, 259.6165
226.1998, 271.2192
226.6819, 282.3226
227.1640, 293.0308
227.6461, 303.6494
228.1283, 314.4896
228.6104, 325.2732
229.0925, 337.0923
229.5746, 349.5993
230.0567, 363.2306
230.5388, 378.3664
231.0210, 394.9934
231.5031, 412.7771
231.9852, 431.3633
232.4673, 449.5404
232.9494, 471.1551
233.4315, 497.2005
233.9137, 525.7372
234.3958, 554.9716
234.8779, 584.5424
235.3600, 616.0659
235.8421, 651.7208
236.3242, 692.1606
236.8064, 736.5800
237.2885, 783.7861
237.7706, 835.7459
238.2527, 892.9667
238.7348, 955.8895
239.2169, 1026.308
239.6991, 1105.440
240.1812, 1194.336
240.6633, 1295.954
241.1454, 1412.629
241.6275, 1541.032
242.1096, 1685.087
242.5918, 1844.173
243.0739, 2003.322
243.5560, 2150.460
244.0381, 2287.089
244.5202, 2376.686
245.0023, 2419.371
245.4845, 2411.956
245.9666, 2343.532
246.4487, 2211.317
246.9308, 2041.857
247.4129, 1847.151
247.8950, 1629.906
248.3772, 1426.869
248.8593, 1240.386
249.3414, 1072.131
249.8235, 926.1672
250.3056, 803.1599
250.7877, 697.2858
251.2699, 608.6292
251.7520, 535.0109
252.2341, 470.6366
252.7162, 416.5152
253.1983, 370.2434
253.6804, 330.5421
254.1626, 297.6537
254.6447, 268.7636
255.1268, 242.4423
255.6089, 218.7575
256.0910, 198.2552
256.5731, 181.9405
257.0552, 168.2988
257.5374, 155.4646
258.0195, 143.4606
258.5016, 132.1682
258.9837, 121.5435
259.4658, 111.5732
259.9479, 102.3238
260.4301, 93.70927
260.9122, 85.96279
261.3943, 79.67266
261.8764, 75.10132
262.3585, 70.60733
262.8406, 65.30053
263.3228, 59.81029
263.8049, 54.59784
264.2870, 49.68347
264.7691, 45.38039
265.2512, 42.40860
265.7333, 41.08972
266.2155, 39.47861
266.6976, 36.62697
267.1797, 33.40445
267.6618, 30.40921
268.1439, 27.79476
268.6260, 25.29930
269.1082, 22.47335
269.5903, 19.13889
270.0724, 16.36542
270.5545, 14.65564
271.0366, 13.43197
271.5187, 12.52939
272.0009, 11.88332
272.4830, 11.25295
272.9651, 10.31200
273.4472, 8.978455
273.9293, 7.810066
274.4114, 7.071426
274.8936, 6.360191
275.3757, 5.409554
275.8578, 4.249985
276.3399, 3.156586
276.8220, 2.420319
277.3041, 2.083672
277.7863, 1.810074
278.2684, 1.792702
278.7505, 1.671776
279.2326, 1.365326
279.7147, 0.8410640
280.1968, 2.9975999E-02
280.6790, 1.278839
281.1611, 3.124931
281.6432, 4.292130
282.1253, 4.102661
282.6074, 3.833565
283.0895, 3.909737
283.5717, 4.207146
284.0538, 4.397385
284.5359, 4.226250
285.0180, 3.728279
285.5001, 3.295372
285.9822, 2.766373
286.4644, 2.517273
286.9465, 2.890884
287.4286, 3.552711
287.9107, 4.037170
288.3928, 4.093323
288.8749, 3.738075
289.3571, 3.004761
289.8392, 1.245819
290.3213, 3.2554999E-02
290.8034, 0.1921160
291.2855, 7.2662003E-02
291.7676, 6.1714001E-02
292.2498, 0.9753110
292.7319, 2.366379
293.2140, 3.446075
293.6961, 3.898788
294.1782, 4.535950
294.6603, 5.364403
295.1425, 6.413994
295.6246, 7.776222
296.1067, 9.459702
296.5888, 11.28803
297.0709, 12.98055
297.5530, 14.51173
298.0351, 15.92332
298.5172, 17.19871
298.9994, 18.39709
299.4815, 19.65380
299.9636, 20.93499
300.4457, 22.00401
300.9278, 22.56018
301.4099, 22.45850
301.8921, 22.37778
302.3742, 22.35760
302.8563, 22.30160
303.3384, 22.03217
303.8205, 21.64499
304.3026, 21.46474
304.7848, 21.80857
305.2669, 22.71635
305.7490, 23.47390
306.2311, 23.89144
306.7132, 24.42541
307.1953, 25.24463
307.6775, 26.30640
308.1596, 27.46645
308.6417, 28.61169
309.1238, 29.76939
309.6059, 31.23651
310.0880, 33.35023
310.5702, 35.42198
311.0523, 37.28125
311.5344, 39.02889
312.0165, 40.79147
312.4986, 42.62821
312.9807, 44.58572
313.4629, 46.86752
313.9450, 49.52892
314.4271, 52.47762
314.9092, 55.70185
315.3913, 59.18578
315.8734, 62.87348
316.3556, 66.76280
316.8377, 70.94302
317.3198, 75.63139
317.8019, 81.26041
318.2840, 86.60680
318.7661, 91.61620
319.2483, 96.42738
319.7304, 101.0008
320.2125, 105.4094
320.6946, 109.9381
321.1767, 114.9179
321.6588, 120.4597
322.1410, 126.1604
322.6231, 132.4369
323.1052, 138.4948
323.5873, 144.2699
324.0694, 149.5684
324.5515, 153.8935
325.0337, 156.8342
325.5158, 158.3808
325.9979, 159.4644
326.4800, 160.6961
326.9621, 160.8011
327.4442, 158.8953
327.9264, 155.7006
328.4085, 152.4836
328.8906, 150.0095
329.3727, 147.9003
329.8548, 144.6012
330.3369, 138.9880
330.8191, 133.5437
331.3012, 128.3448
331.7833, 123.5068
332.2654, 119.2577
332.7475, 115.6647
333.2296, 112.3082
333.7118, 108.3082
334.1939, 102.8636
334.6760, 98.34690
335.1581, 94.86738
335.6402, 92.14326
336.1223, 90.32194
336.6045, 89.21915
337.0866, 88.08376
337.5687, 85.86688
338.0508, 82.08423
338.5329, 79.44122
339.0150, 78.91594
339.4972, 78.53918
339.9793, 77.80759
340.4614, 76.65531
340.9435, 75.10717
341.4256, 73.11621
341.9077, 70.74679
342.3898, 68.75343
342.8719, 67.91660
343.3541, 66.56985
343.8362, 64.06927
344.3183, 60.93729
344.8004, 57.95477
345.2825, 55.53299
345.7646, 53.26057
346.2468, 49.99103
346.7289, 45.07568
347.2110, 40.44608
347.6931, 36.33202
348.1752, 32.64925
348.6573, 29.33572
349.1395, 26.34297
349.6216, 23.58614
350.1037, 20.89415
350.5858, 18.17525
351.0679, 15.83661
351.5500, 14.46861
352.0322, 13.02422
352.5143, 10.67448
352.9964, 7.688042
353.4785, 5.135117
353.9606, 4.133339
354.4427, 4.581078
354.9249, 4.240875
355.4070, 2.377930
355.8891, 0.6400530
356.3712, 0.5190510
356.8533, 1.166809
357.3354, 1.366165
357.8176, 1.034653
358.2997, 0.4805830
358.7818, 0.5428390
359.2639, 1.563217
359.7460, 2.351151
360.2281, 2.425056
360.7103, 2.218544
361.1924, 2.163834
361.6745, 2.377510
362.1566, 2.442940
362.6387, 1.755005
363.1208, 0.2344280
363.6030, 1.169670
364.0851, 2.604378
364.5672, 3.577400
365.0493, 3.383545
365.5314, 2.259529
366.0135, 1.521240
366.4957, 2.456619
366.9778, 4.640244
367.4599, 6.032524
367.9420, 6.133972
368.4241, 6.270103
368.9063, 7.509308
369.3884, 9.262291
369.8705, 10.48288
370.3526, 10.58215
370.8347, 10.16236
371.3168, 10.08655
371.7990, 10.39099
372.2811, 10.73914
372.7632, 10.85401
373.2453, 11.03212
373.7274, 11.67838
374.2095, 12.94419
374.6917, 14.33943
375.1738, 15.20170
375.6559, 15.72404
376.1380, 16.95482
376.6201, 19.33321
377.1022, 22.17785
377.5844, 24.74411
378.0665, 27.04702
378.5486, 29.53000
379.0307, 32.25261
379.5128, 35.28220
379.9949, 38.67260
380.4771, 42.43607
380.9592, 46.71874
381.4413, 51.60510
381.9234, 57.15581
382.4055, 63.33713
382.8876, 70.61110
383.3698, 78.13139
383.8519, 85.16973
384.3340, 91.90871
384.8161, 99.31675
385.2982, 107.9412
385.7803, 117.2037
386.2624, 125.5722
386.7445, 132.8082
387.2267, 140.1847
387.7088, 148.2933
388.1909, 156.6800
388.6730, 164.6398
389.1551, 172.0573
389.6372, 179.3139
390.1194, 186.8228
390.6015, 194.6113
391.0836, 202.4526
391.5657, 209.6358
392.0478, 217.4478
392.5299, 226.5153
393.0121, 236.8790
393.4942, 248.4471
393.9763, 261.2494
394.4584, 275.2148
394.9405, 290.1820
395.4226, 305.6937
395.9048, 322.5645
396.3869, 341.1093
396.8690, 361.0523
397.3511, 381.8941
397.8332, 403.4579
398.3153, 426.9096
398.7975, 453.8847
399.2796, 485.8163
399.7617, 518.5510
400.2438, 551.1932
400.7259, 585.2401
401.2080, 622.1971
401.6902, 661.4676
402.1723, 701.0654
402.6544, 740.0670
403.1365, 778.0294
403.6186, 809.4590
404.1007, 834.6379
404.5829, 851.8630
405.0650, 861.2823
405.5471, 862.5243
406.0292, 854.9303
406.5113, 838.2135
406.9934, 813.4251
407.4756, 780.9217
407.9577, 738.1654
408.4398, 695.3806
408.9219, 652.1118
409.4040, 610.0220
409.8861, 569.3490
410.3683, 530.4679
410.8504, 494.6725
411.3325, 463.1523
411.8146, 435.5826
412.2967, 410.7042
412.7788, 389.2306
413.2610, 369.2328
413.7431, 349.8867
414.2252, 331.1763
414.7073, 313.1830
415.1894, 296.0220
415.6715, 279.1729
416.1537, 261.7999
416.6358, 243.8484
417.1179, 226.1624
417.6000, 208.6077
418.0821, 191.7497
418.5642, 175.9781
419.0464, 161.2906
419.5285, 147.1084
420.0106, 132.6806
420.4927, 118.6195
420.9748, 106.4576
421.4569, 96.42156
421.9391, 87.45438
422.4212, 78.91777
422.9033, 70.82271
423.3854, 63.19371
423.8675, 55.93416
424.3496, 49.27525
424.8318, 43.53416
425.3139, 38.55969
425.7960, 33.81825
426.2781, 29.06631
426.7602, 24.53328
427.2423, 20.73874
427.7245, 17.75618
428.2066, 15.05581
428.6887, 12.66689
429.1708, 10.46225
429.6529, 8.351845
430.1350, 6.316803
430.6172, 4.251678
431.0992, 1.964890
431.5814, 0.5386810
432.0635, 2.198997
432.5456, 2.516006
433.0277, 2.733818
433.5098, 3.372749
433.9919, 4.149620
434.4741, 4.562752
434.9562, 4.402245
435.4383, 3.889313
435.9204, 3.490593
436.4025, 3.517738
436.8846, 3.033867
437.3668, 1.700905
437.8489, 0.2165990
438.3310, 0.9836270
438.8131, 1.917946
439.2952, 2.822052
439.7773, 3.820229
440.2595, 4.955460
440.7416, 6.703651
441.2237, 9.503990
441.7058, 12.29918
442.1879, 14.57078
442.6700, 16.78621
443.1522, 19.63165
443.6343, 23.35609
444.1164, 27.17413
444.5985, 29.92084
445.0806, 31.45895
445.5627, 33.56201
446.0449, 36.68642
446.5270, 40.23337
447.0091, 43.70829
447.4912, 47.21510
447.9733, 51.21014
448.4554, 56.21469
448.9376, 61.75084
449.4197, 66.78070
449.9018, 71.19472
450.3839, 76.19969
450.8660, 82.43546
451.3481, 89.66936
451.8303, 97.30228
452.3124, 105.2964
452.7945, 113.8551
453.2766, 122.9562
453.7587, 132.7260
454.2408, 143.5192
454.7230, 155.4075
455.2051, 168.1568
455.6872, 181.6527
456.1693, 196.0166
456.6514, 210.5851
457.1335, 225.0425
457.6157, 240.0317
458.0978, 256.5417
458.5799, 273.8900
459.0620, 290.5778
459.5441, 306.0031
460.0262, 319.6429
460.5084, 329.9091
460.9905, 336.3443
461.4726, 339.5147
461.9547, 338.9602
462.4368, 335.5984
462.9189, 329.4876
463.4011, 321.0386
463.8832, 311.2484
464.3653, 300.8150
464.8474, 289.8082
465.3295, 279.2412
465.8116, 268.3903
466.2938, 259.0117
466.7759, 251.6209
467.2580, 245.7646
467.7401, 240.7514
468.2222, 236.4318
468.7043, 233.5522
469.1865, 233.3741
469.6686, 236.0460
470.1507, 239.3223
470.6328, 242.6363
471.1149, 247.1215
471.5970, 253.2283
472.0792, 260.8745
472.5613, 269.7279
473.0434, 279.2977
473.5255, 290.3800
474.0076, 304.3379
474.4897, 321.1973
474.9719, 339.5363
475.4540, 358.4714
475.9361, 379.0883
476.4182, 402.6061
476.9003, 429.1736
477.3824, 457.3390
477.8645, 486.6658
478.3466, 517.4119
478.8288, 550.5342
479.3109, 586.1147
479.7930, 620.7369
480.2751, 652.9702
480.7572, 682.0270
481.2393, 703.9448
481.7215, 721.0353
482.2036, 729.2384
482.6857, 727.6745
483.1678, 716.5311
483.6499, 694.8370
484.1320, 662.6777
484.6142, 623.3543
485.0963, 580.6592
485.5784, 533.8713
486.0605, 487.1069
486.5426, 436.9963
487.0247, 390.0539
487.5069, 348.5992
487.9890, 312.0234
488.4711, 278.9747
488.9532, 249.0218
489.4353, 221.9913
489.9174, 198.0437
490.3996, 177.5875
490.8817, 159.3655
491.3638, 144.2630
491.8459, 130.6225
492.3280, 117.6405
492.8102, 105.4073
493.2923, 94.42225
493.7744, 85.00073
494.2565, 76.96303
494.7386, 70.06387
495.2207, 64.48412
495.7029, 59.22533
496.1850, 53.44939
496.6671, 47.92453
497.1492, 43.85386
497.6313, 41.58820
498.1134, 39.50237
498.5956, 36.88754
499.0777, 33.95335
499.5598, 30.94164
500.0419, 27.89165
500.5240, 25.01350
501.0061, 22.48566
501.4883, 20.31017
501.9704, 18.38114
502.4525, 16.66811
502.9346, 15.21999
503.4167, 14.28193
503.8988, 13.53944
504.3810, 12.52490
504.8631, 11.11378
505.3452, 9.627518
505.8273, 8.508514
506.3094, 7.858299
506.7915, 7.056274
507.2737, 5.784355
507.7558, 4.695625
508.2379, 4.091141
508.7200, 3.793335
509.2021, 3.527763
509.6842, 3.177109
510.1664, 2.747551
510.6485, 2.179176
511.1306, 1.418167
511.6127, 0.9258500
512.0948, 1.025879
512.5769, 1.147606
513.0590, 0.8648990
513.5411, 0.2759930
514.0233, 0.2484130
514.5054, 0.5332260
514.9875, 0.6716690
515.4696, 0.7389140
515.9517, 0.7406080
516.4338, 0.8054050
516.9160, 1.015556
517.3981, 1.273758
517.8802, 1.398201
518.3623, 1.360672
518.8444, 1.384758
519.3265, 1.607033
519.8087, 1.850235
520.2908, 1.932343
520.7729, 1.867424
521.2550, 1.810097
521.7371, 1.868279
522.2192, 1.996368
522.7014, 2.012680
523.1835, 1.842316
523.6656, 1.649506
524.1477, 1.426643
524.6298, 1.192596
525.1119, 0.9736100
525.5941, 0.7623750
526.0762, 0.5132450
526.5583, 0.1630860
527.0404, 0.2575910
527.5225, 0.4677810
528.0046, 0.1001590
528.4868, 0.2605740
528.9689, 2.035736
529.4510, 4.022392
529.9331, 4.784004
530.4152, 4.083328
530.8973, 3.128250
531.3795, 2.815346
531.8616, 2.971207
532.3437, 3.109718
532.8258, 3.200165
533.3079, 3.235374
533.7900, 3.187214
534.2722, 3.080887
534.7543, 2.967865
535.2364, 2.611252
535.7185, 2.651218
536.2006, 3.614391
536.6827, 5.035530
537.1649, 6.257000
537.6470, 7.149014
538.1291, 7.892208
538.6112, 8.658432
539.0933, 9.448826
539.5754, 10.17570
540.0576, 10.71121
540.5397, 11.33814
541.0218, 12.21740
541.5039, 13.17424
541.9860, 13.97437
542.4681, 14.57063
542.9503, 15.14346
543.4324, 15.81800
543.9145, 16.58325
544.3966, 17.85418
544.8787, 19.82213
545.3608, 22.03111
545.8430, 24.56634
546.3251, 27.11043
546.8072, 29.08552
547.2893, 30.18115
547.7714, 31.38543
548.2535, 33.77501
548.7357, 36.98580
549.2178, 39.78094
549.6999, 41.86647
550.1820, 43.84018
550.6641, 46.22854
551.1462, 48.97707
551.6284, 51.57409
552.1105, 53.76291
552.5926, 56.09134
553.0747, 59.15314
553.5568, 62.36390
554.0389, 64.72162
554.5211, 66.01955
555.0032, 67.00120
555.4853, 68.51838
555.9674, 70.61804
556.4495, 72.69486
556.9316, 74.85666
557.4138, 76.88641
557.8959, 78.06315
558.3780, 79.37196
558.8601, 82.06367
559.3422, 86.48345
559.8243, 91.78622
560.3065, 96.84968
560.7886, 101.7751
561.2707, 107.7544
561.7528, 114.6938
562.2349, 123.0553
562.7170, 132.9779
563.1992, 144.5599
563.6813, 158.0007
564.1634, 172.8379
564.6455, 190.5640
565.1276, 212.6359
565.6097, 238.0959
566.0919, 265.7581
566.5740, 295.3930
567.0561, 325.0787
567.5382, 353.6097
568.0203, 380.8392
568.5024, 405.1724
568.9846, 426.4403
569.4667, 445.4879
569.9488, 462.4894
570.4309, 477.5831
570.9130, 490.5598
571.3951, 501.5897
571.8773, 511.3287
572.3594, 520.3672
572.8415, 528.7574
573.3236, 536.9625
573.8057, 544.1139
574.2878, 552.6363
574.7700, 561.1896
575.2521, 572.5765
575.7342, 589.1538
576.2163, 611.3346
576.6984, 639.6243
577.1805, 672.9174
577.6627, 712.8196
578.1448, 761.6046
578.6269, 819.1417
579.1090, 890.3922
579.5911, 976.7841
580.0732, 1079.680
580.5554, 1206.639
581.0375, 1358.960
581.5196, 1526.996
582.0017, 1726.820
582.4838, 1928.779
582.9659, 2123.066
583.4481, 2296.157
583.9302, 2414.951
584.4123, 2459.170
584.8944, 2427.577
585.3765, 2309.391
585.8586, 2068.594
586.3408, 1815.322
586.8229, 1535.499
587.3050, 1271.504
587.7871, 1045.088
588.2692, 857.8786
588.7513, 703.7751
589.2334, 583.9079
589.7155, 490.8220
590.1976, 415.2148
590.6797, 356.6539
591.1619, 308.4631
591.6440, 270.3413
592.1261, 239.1513
592.6082, 211.7579
593.0903, 187.9231
593.5724, 167.5792
594.0546, 151.6658
594.5367, 138.3715
595.0188, 127.3046
595.5009, 117.7948
595.9830, 108.6299
596.4651, 99.29762
596.9473, 90.49037
597.4294, 83.32592
597.9115, 78.14462
598.3936, 73.02387
598.8757, 67.67904
599.3578, 62.76515
599.8400, 58.64850
600.3221, 55.03370
600.8042, 51.42520
601.2863, 47.66180
601.7684, 44.17401
602.2505, 41.69301
602.7327, 39.93721
603.2148, 37.51975
603.6969, 34.08787
604.1790, 30.83288
604.6611, 28.54567
605.1432, 27.04753
605.6254, 25.59667
606.1075, 24.24605
606.5896, 22.84307
607.0717, 21.27037
607.5538, 19.66698
608.0359, 18.19262
608.5181, 16.86028
609.0002, 15.56220
609.4823, 14.19032
609.9644, 12.84257
610.4465, 11.99829
610.9286, 12.18729
611.4108, 11.83975
611.8929, 10.19158
612.3750, 8.493538
612.8571, 7.679298
613.3392, 7.574543
613.8214, 7.271690
614.3035, 6.075573
614.7856, 4.655346
615.2677, 4.180912
615.7498, 4.564056
616.2319, 4.694550
616.7141, 4.199486
617.1962, 3.476410
617.6783, 2.969841
618.1604, 2.686642
618.6425, 2.376343
619.1246, 2.192574
619.6068, 1.802235
620.0889, 0.7146190
620.5710, 0.5611380
621.0531, 1.314117
621.5352, 1.330257
622.0173, 0.6965830
622.4995, 0.7626530
622.9816, 3.049202
623.4637, 3.596535
623.9458, 1.080322
624.4279, 1.025379
624.9100, 1.552902
625.3922, 1.284752
625.8743, 0.8918760
626.3564, 0.4794040
626.8385, 3.1090001E-02
627.3206, 0.6388780
627.8027, 1.276051
628.2849, 1.407639
628.7670, 1.043686
629.2491, 0.5273440
629.7312, 4.2736001E-02
630.2133, 0.5433010
630.6954, 0.7469830
631.1776, 0.6473500
631.6597, 0.1950840
632.1418, 1.065380
632.6239, 2.245995
633.1060, 2.762672
633.5881, 2.821808
634.0703, 2.949806
634.5524, 3.365471
635.0345, 3.914158
635.5166, 4.278347
635.9987, 4.488197
636.4808, 5.337097
636.9630, 7.096649
637.4451, 8.869076
637.9272, 10.34044
638.4093, 11.53928
638.8914, 12.28446
639.3735, 12.26476
639.8557, 12.86063
640.3378, 15.14405
640.8199, 18.17325
641.3020, 20.82500
641.7841, 23.02803
642.2662, 25.04357
642.7484, 26.97593
643.2305, 28.90839
643.7126, 31.10145
644.1947, 33.55483
644.6768, 36.34249
645.1589, 40.03421
645.6411, 43.41473
646.1232, 45.49547
646.6053, 46.84464
647.0874, 48.75465
647.5695, 51.88977
648.0516, 55.49465
648.5338, 58.55070
649.0159, 61.13826
649.4980, 64.00011
649.9801, 67.30529
650.4622, 70.94828
650.9443, 74.60362
651.4265, 78.55939
651.9086, 84.08012
652.3907, 92.25674
652.8728, 100.1760
653.3549, 106.5570
653.8370, 112.8906
654.3192, 120.5879
654.8013, 129.6442
655.2834, 139.1238
655.7655, 148.3694
656.2476, 159.2104
656.7297, 168.9486
657.2119, 182.0648
657.6940, 195.0258
658.1761, 208.1514
658.6582, 220.2502
659.1403, 231.3291
659.6224, 240.8358
660.1046, 247.4556
660.5867, 251.0847
661.0688, 251.2061
661.5509, 247.3576
662.0330, 239.7713
662.5151, 228.1544
662.9973, 212.6816
663.4794, 195.8765
663.9615, 179.5744
664.4436, 163.7493
664.9257, 147.7698
665.4078, 130.3727
665.8900, 115.1656
666.3721, 102.7206
666.8542, 92.03410
667.3363, 82.68365
667.8184, 74.51820
668.3005, 67.34860
668.7827, 61.21345
669.2648, 55.72978
669.7469, 50.49836
670.2290, 45.50665
670.7111, 40.77369
671.1932, 36.22688
671.6754, 32.33303
672.1575, 29.63044
672.6396, 27.93755
673.1217, 25.89832
673.6038, 22.94551
674.0859, 20.47208
674.5681, 18.87752
675.0502, 17.69005
675.5323, 16.65576
676.0144, 15.65996
676.4965, 14.53041
676.9786, 13.10954
677.4608, 11.65869
677.9428, 10.80164
678.4249, 10.58616
678.9070, 10.09901
679.3892, 9.059544
679.8713, 8.047241
680.3534, 7.511753
680.8355, 7.324844
681.3176, 7.192532
681.7997, 7.289330
682.2819, 7.086895
682.7640, 6.098034
683.2461, 4.904861
683.7282, 4.178776
684.2103, 3.925838
684.6924, 3.760674
685.1746, 3.435249
685.6567, 2.978409
686.1388, 2.438995
686.6209, 1.731995
687.1030, 1.259243
687.5851, 1.225117
688.0673, 1.235325
688.5494, 1.101791
689.0315, 0.8611980
689.5136, 0.5421100
689.9957, 2.9877000E-02
690.4778, 0.2618480
690.9600, 0.1956630
691.4421, 0.9304470
691.9242, 1.264091
692.4063, 1.114239
692.8884, 0.5256610
693.3705, 0.5534740
693.8527, 1.810333
694.3348, 2.333065
694.8169, 1.699348
695.2990, 1.285301
695.7811, 1.210560
696.2632, 1.248898
696.7454, 1.473110
697.2275, 1.699978
697.7096, 1.575333
698.1917, 0.9417110
698.6738, 0.2912220
699.1559, 5.9154999E-02
699.6381, 8.7902002E-02
700.1202, 3.1082001E-02
700.6023, 0.1311150
701.0844, 0.1654360
701.5665, 9.0617999E-02
702.0486, 0.4726330
702.5308, 0.6134720
703.0129, 0.3904150
703.4950, 0.2344780
703.9771, 3.2814000E-02
704.4592, 1.1478000E-02
704.9413, 0.5778850
705.4235, 1.262218
705.9056, 1.275826
706.3877, 0.4087870
706.8698, 0.5298730
707.3519, 0.5867500
707.8340, 0.2151070
708.3162, 0.7846910
708.7983, 2.346588
709.2804, 3.489258
709.7625, 3.490269
710.2446, 2.984493
710.7267, 2.991882
711.2089, 3.680439
711.6910, 4.187435
712.1731, 4.324875
712.6552, 4.505608
713.1373, 4.844212
713.6194, 5.329430
714.1016, 5.993187
714.5837, 6.812050
715.0658, 7.608459
715.5479, 8.159756
716.0300, 8.604431
716.5121, 9.246906
716.9943, 10.08852
717.4764, 11.30110
717.9585, 13.12035
718.4406, 14.93086
718.9227, 15.95521
719.4048, 16.14709
719.8870, 16.51972
720.3691, 17.17754
720.8512, 17.87865
721.3333, 18.29707
721.8154, 18.89191
722.2975, 20.28025
722.7797, 22.37746
723.2618, 24.49545
723.7439, 26.13352
724.2260, 27.52412
724.7081, 29.22191
725.1902, 31.20478
725.6724, 32.81342
726.1545, 33.84088
726.6366, 34.69487
727.1187, 35.59017
727.6008, 36.59400
728.0829, 38.07888
728.5651, 40.43724
729.0472, 42.59727
729.5293, 44.28132
730.0114, 45.77549
730.4935, 47.16060
730.9756, 48.56806
731.4578, 50.30702
731.9399, 52.55025
732.4220, 54.86955
732.9041, 56.53551
733.3862, 57.65716
733.8683, 59.30090
734.3505, 61.66800
734.8326, 64.02499
735.3147, 65.92609
735.7968, 67.56486
736.2789, 69.49427
736.7610, 71.99571
737.2432, 73.85452
737.7253, 74.31588
738.2074, 74.77844
738.6895, 76.25598
739.1716, 78.17606
739.6537, 79.53776
740.1359, 80.05335
740.6180, 80.21494
741.1001, 80.58399
741.5822, 81.00016
742.0643, 80.79368
742.5464, 79.92682
743.0286, 79.00257
743.5107, 78.28388
743.9928, 77.48080
744.4749, 76.19575
744.9570, 74.37910
745.4391, 72.62009
745.9213, 71.00479
746.4034, 69.31952
746.8855, 67.69344
747.3676, 65.83644
747.8497, 63.31865
748.3318, 60.21642
748.8140, 57.15812
749.2961, 54.44925
749.7782, 52.01486
750.2603, 49.78986
750.7424, 47.75279
751.2245, 45.61040
751.7067, 43.32452
752.1888, 40.82823
752.6709, 38.03946
753.1530, 35.05965
753.6351, 32.35440
754.1172, 29.98541
754.5994, 27.77914
755.0815, 25.57658
755.5636, 23.71292
756.0457, 22.64460
756.5278, 22.00906
757.0099, 21.08569
757.4921, 19.61003
757.9742, 18.03441
758.4563, 16.73444
758.9384, 15.65689
759.4205, 14.73208
759.9026, 13.93328
760.3848, 12.87347
760.8669, 11.29319
761.3490, 9.839802
761.8311, 9.654945
762.3132, 11.03697
762.7953, 11.41020
763.2775, 9.701996
763.7596, 8.335548
764.2417, 8.346916
764.7238, 8.602825
765.2059, 7.755539
765.6880, 5.931995
766.1702, 4.576874
766.6523, 4.638206
767.1344, 5.235783
767.6165, 5.556244
768.0986, 5.647026
768.5807, 5.614143
769.0628, 5.481487
769.5449, 5.266624
770.0270, 4.971878
770.5092, 4.623840
770.9913, 4.311272
771.4734, 4.036549
771.9555, 3.788597
772.4376, 3.467579
772.9197, 3.289207
773.4019, 3.448883
773.8840, 3.777538
774.3661, 3.985405
774.8482, 3.995895
775.3303, 4.027950
775.8124, 4.271595
776.2946, 4.530434
776.7767, 4.622791
777.2588, 4.549282
777.7409, 4.308559
778.2230, 3.909687
778.7051, 3.505802
779.1873, 3.302715
779.6694, 3.274048
780.1515, 3.058746
780.6336, 2.573883
781.1157, 2.161972
781.5978, 1.905678
782.0800, 1.760983
782.5621, 1.790577
783.0442, 1.926556
783.5263, 1.802551
784.0084, 1.195717
784.4905, 0.5419390
784.9727, 0.3995170
785.4548, 1.034679
785.9369, 0.3603710
786.4190, 1.223362
786.9011, 2.261742
787.3832, 1.964767
787.8654, 0.9878080
788.3475, 7.7518001E-02
788.8296, 0.7107960
789.3117, 0.7455860
789.7938, 0.1357770
790.2759, 0.9335140
790.7581, 1.148617
791.2402, 1.019745
791.7223, 0.9210740
792.2044, 0.8241650
792.6865, 0.9045030
793.1686, 1.549427
793.6508, 1.895607
794.1329, 1.401379
794.6150, 0.6430510
795.0971, 0.1677970
795.5792, 5.7564002E-02
796.0613, 0.1692660
796.5435, 0.4417460
797.0256, 0.8661610
797.5077, 1.558868
797.9898, 2.389820
798.4719, 3.047161
798.9540, 3.463383
799.4362, 3.408882
799.9183, 2.627117
800.4004, 1.486053
800.8825, 1.047821
801.3646, 1.489899
801.8467, 2.134678
802.3289, 3.090023
802.8110, 4.101532
803.2931, 5.302990
803.7752, 6.383404
804.2573, 6.797104
804.7394, 6.433949
805.2216, 6.298584
805.7037, 6.953854
806.1858, 7.799919
806.6679, 8.257961
807.1500, 8.624645
807.6321, 9.594574
808.1143, 11.21198
808.5964, 12.69849
809.0785, 13.43478
809.5606, 13.53732
810.0427, 13.16333
810.5248, 12.27116
811.0070, 11.87623
811.4891, 12.32507
811.9712, 12.77057
812.4533, 12.62350
812.9354, 12.03621
813.4175, 11.51562
813.8997, 11.33376
814.3818, 10.58363
814.8639, 8.325207
815.3460, 6.432396
815.8281, 6.123379
816.3102, 6.620625
816.7924, 6.861603
817.2745, 6.578602
817.7566, 5.975189
818.2387, 4.920258
818.7208, 3.830135
819.2029, 3.303570
819.6851, 3.259899
820.1672, 3.508850
820.6493, 3.987526
821.1314, 4.405102
821.6135, 4.517082
822.0956, 4.451191
822.5778, 4.610996
823.0599, 4.958916
823.5420, 5.351074
824.0241, 6.046310
824.5062, 6.492554
824.9883, 6.204754
825.4705, 5.568684
825.9526, 5.129025
826.4347, 4.919701
826.9168, 4.954018
827.3989, 5.415730
827.8810, 5.918221
828.3632, 6.345688
828.8453, 6.596561
829.3274, 6.360210
829.8095, 5.705505
830.2916, 5.379406
830.7737, 6.094482
831.2559, 7.196472
831.7380, 7.330124
832.2201, 6.646667
832.7022, 6.359505
833.1843, 6.711102
833.6664, 7.074966
834.1486, 7.038639
834.6307, 6.694523
835.1128, 6.226383
835.5949, 5.298805
836.0770, 5.139187
836.5591, 6.832706
837.0413, 7.995823
837.5234, 7.329388
838.0055, 6.116123
838.4876, 5.856831
838.9697, 6.647663
839.4518, 7.395874
839.9340, 7.811272
840.4161, 7.900459
840.8982, 7.400928
841.3803, 6.702015
841.8624, 6.424297
842.3445, 6.596104
842.8267, 6.795280
843.3088, 6.722157
843.7909, 6.617294
844.2730, 7.022976
844.7551, 7.898380
845.2372, 8.247143
845.7194, 7.918663
846.2015, 7.292881
846.6836, 6.400352
847.1657, 5.632904
847.6478, 5.558479
848.1299, 6.207115
848.6121, 6.685532
849.0942, 6.972240
849.5763, 7.217602
850.0584, 7.609596
850.5405, 7.853001
851.0226, 7.526646
851.5048, 6.799816
851.9869, 6.309456
852.4690, 6.304062
852.9511, 6.507675
853.4332, 6.951950
853.9153, 7.356991
854.3975, 7.233883
854.8796, 6.735054
855.3617, 6.455299
855.8438, 6.625126
856.3259, 6.930557
856.8080, 6.985100
857.2901, 6.835331
857.7722, 6.692509
858.2543, 6.553074
858.7365, 6.868744
859.2186, 7.968487
859.7007, 8.812210
860.1828, 8.392048
860.6649, 6.958405
861.1470, 6.076988
861.6292, 5.890717
862.1113, 6.071899
862.5934, 7.375629
863.0755, 8.335999
863.5576, 7.903114
864.0397, 6.834942
864.5219, 6.234818
865.0040, 6.294239
865.4861, 6.468597
865.9682, 6.585739
866.4503, 6.626583
866.9324, 6.447788
867.4146, 6.215294
867.8967, 6.318714
868.3788, 6.746792
868.8609, 7.009285
869.3430, 6.742241
869.8251, 6.228008
870.3073, 6.023247
870.7894, 6.090576
871.2715, 5.937649
871.7536, 5.471203
872.2357, 5.205307
872.7178, 5.460953
873.2000, 5.858147
873.6821, 5.780479
874.1642, 5.161350
874.6463, 5.021816
875.1284, 5.806419
875.6105, 6.403259
876.0927, 6.747459
876.5748, 6.773167
877.0569, 6.166191
877.5390, 5.226894
878.0211, 4.838688
878.5032, 5.552662
878.9854, 5.709068
879.4675, 3.635731
879.9496, 1.585148
880.4317, 1.728683
880.9138, 3.245686
881.3959, 4.515694
881.8781, 5.059956
882.3602, 5.135723
882.8423, 4.837639
883.3244, 4.352711
883.8065, 3.957344
884.2886, 3.683285
884.7708, 3.740993
885.2529, 4.162098
885.7350, 4.674484
886.2171, 5.167007
886.6992, 5.424725
887.1813, 4.837337
887.6635, 3.110531
888.1456, 2.418438
888.6277, 3.350178
889.1098, 4.122135
889.5919, 4.095619
890.0740, 3.699448
890.5562, 3.332371
891.0383, 2.988922
891.5204, 2.622372
892.0025, 2.175972
892.4846, 1.781090
892.9667, 1.363461
893.4489, 1.097557
893.9310, 1.217857
894.4131, 1.550407
894.8952, 1.731838
895.3773, 1.663548
895.8594, 1.665382
896.3416, 2.120071
896.8237, 2.640125
897.3058, 2.750698
897.7879, 2.568279
898.2700, 2.358292
898.7521, 2.179283
899.2343, 1.964497
899.7164, 1.652237
900.1985, 1.344055
900.6806, 1.348148
901.1627, 1.635857
901.6448, 1.446815
902.1270, 0.6463890
902.6091, 7.8975998E-02
903.0912, 0.1782190
903.5733, 0.4891850
904.0554, 0.3621060
904.5375, 0.2028850
905.0197, 0.2438050
905.5018, 0.8352200
905.9839, 1.437889
906.4660, 1.113594
906.9481, 0.5284810
907.4302, 0.1150630
907.9124, 0.7153320
908.3945, 1.073696
908.8766, 1.126751
909.3587, 1.146515
909.8408, 1.207581
910.3229, 1.265289
910.8051, 1.312756
911.2872, 1.329090
911.7693, 1.273899
912.2514, 1.157433
912.7335, 1.053417
913.2156, 1.017872
913.6978, 0.9676670
914.1799, 0.6918030
914.6620, 0.3838080
915.1441, 0.5627750
915.6262, 1.131031
916.1083, 1.403561
916.5905, 1.117451
917.0726, 0.8325160
917.5547, 1.314636
918.0368, 0.9593510
918.5189, 0.7353520
919.0010, 0.9776880
919.4832, 0.3265270
919.9653, 0.6663670
920.4474, 1.207970
920.9295, 1.475132
921.4116, 1.534588
921.8937, 1.532116
922.3759, 1.453045
922.8580, 1.379211
923.3401, 1.428673
923.8222, 1.313099
924.3043, 0.6884500
924.7864, 9.6084997E-02
925.2686, 0.1065180
925.7507, 0.5742950
926.2328, 0.7962300
926.7149, 0.3897400
927.1970, 0.2564660
927.6791, 1.085705
928.1613, 1.875423
928.6434, 1.809757
929.1255, 1.259644
929.6076, 0.8482860
930.0897, 0.7170830
930.5718, 0.6664850
931.0540, 0.6279870
931.5361, 0.5486680
932.0182, 0.3547820
932.5003, 8.6975001E-02
932.9824, 0.1268010
933.4645, 0.3229900
933.9467, 0.7808910
934.4288, 1.635078
934.9109, 2.582069
935.3930, 3.287849
935.8751, 3.734833
936.3572, 3.689369
936.8394, 3.170349
937.3215, 2.974701
937.8036, 3.293610
938.2857, 3.851067
938.7678, 4.497238
939.2499, 5.068710
939.7321, 4.988274
940.2142, 3.832474
940.6963, 3.758911
941.1784, 5.253258
941.6605, 6.793289
942.1426, 7.882378
942.6248, 8.717880
943.1069, 9.399193
943.5890, 9.961334
944.0711, 10.83994
944.5532, 12.71574
945.0353, 13.87386
945.5175, 13.26781
945.9996, 12.81087
946.4817, 13.75689
946.9637, 15.44798
947.4459, 16.91122
947.9280, 17.98534
948.4101, 18.94208
948.8922, 19.54751
949.3743, 20.46989
949.8564, 22.53363
950.3386, 24.80304
950.8207, 26.14500
951.3028, 26.74014
951.7849, 27.29060
952.2670, 28.06550
952.7491, 29.31456
953.2313, 31.45042
953.7134, 34.05885
954.1955, 36.70221
954.6776, 39.26300
955.1597, 41.17939
955.6418, 42.52166
956.1240, 44.52856
956.6061, 48.08229
957.0882, 52.31323
957.5703, 55.69464
958.0524, 58.36139
958.5345, 61.23756
959.0167, 64.36166
959.4988, 67.58049
959.9809, 70.78453
960.4630, 74.30772
960.9451, 78.43288
961.4272, 83.29185
961.9094, 89.55080
962.3915, 97.62208
962.8736, 105.0754
963.3557, 111.3687
963.8378, 118.2028
964.3199, 125.9096
964.8021, 134.8638
965.2842, 145.7218
965.7663, 158.4481
966.2484, 171.5973
966.7305, 184.6199
967.2126, 198.9129
967.6948, 214.4277
968.1769, 231.3403
968.6590, 250.3609
969.1411, 270.6100
969.6232, 290.6450
970.1053, 310.2999
970.5875, 331.8368
971.0696, 355.1727
971.5517, 381.5617
972.0338, 411.2514
972.5159, 444.6341
972.9980, 482.0815
973.4802, 523.5681
973.9623, 568.0566
974.4444, 615.2407
974.9265, 667.0352
975.4086, 726.5026
975.8907, 789.5602
976.3729, 852.6509
976.8550, 916.7985
977.3371, 982.9962
977.8192, 1052.105
978.3013, 1124.713
978.7834, 1200.991
979.2656, 1283.650
979.7477, 1375.028
980.2298, 1474.795
980.7119, 1582.688
981.1940, 1697.263
981.6761, 1817.393
982.1583, 1941.636
982.6404, 2063.761
983.1225, 2180.793
983.6046, 2291.941
984.0867, 2394.123
984.5688, 2489.305
985.0510, 2586.110
985.5331, 2685.287
986.0152, 2795.848
986.4973, 2920.424
986.9794, 3061.587
987.4615, 3224.137
987.9437, 3400.903
988.4258, 3571.567
988.9079, 3742.154
989.3900, 3865.269
989.8721, 3946.973
990.3542, 3952.267
990.8364, 3864.645
991.3185, 3698.097
991.8006, 3458.942
992.2827, 3153.958
992.7648, 2841.948
993.2469, 2508.496
993.7291, 2201.599
994.2112, 1921.935
994.6933, 1673.141
995.1754, 1458.945
995.6575, 1274.096
996.1396, 1114.726
996.6218, 980.4875
997.1039, 861.2097
997.5860, 757.2936
998.0681, 666.2524
998.5502, 590.3771
999.0323, 523.9932
999.5145, 465.6319
999.9966, 413.8625
1000.479, 368.1718
1000.961, 328.2005
1001.443, 292.2500
1001.925, 259.7683
1002.407, 231.1276
1002.889, 207.1547
1003.371, 186.4461
1003.854, 168.5015
1004.336, 152.6337
1004.818, 137.5916
1005.300, 123.1829
1005.782, 110.5442
1006.264, 101.1592
1006.746, 92.70063
1007.228, 83.43932
1007.710, 74.43172
1008.193, 67.03999
1008.675, 60.95422
1009.157, 55.03986
1009.639, 48.92049
1010.121, 43.45378
1010.603, 39.73245
1011.085, 36.52193
1011.567, 32.34978
1012.049, 27.76432
1012.532, 23.56625
1013.014, 19.94819
1013.496, 17.21754
1013.978, 15.46734
1014.460, 14.06189
1014.942, 12.33112
1015.424, 10.98502
1015.906, 9.246780
1016.389, 8.292274
1016.871, 7.158379
1017.353, 5.819511
1017.835, 4.626472
1018.317, 3.753899
1018.799, 3.020515
1019.281, 2.135902
1019.763, 1.232811
1020.245, 0.8315200
1020.728, 0.8501590
1021.210, 0.6867520
1021.692, 0.2579190
1022.174, 6.6872001E-02
1022.656, 0.4088820
1023.138, 0.9711690
1023.620, 1.225899
1024.102, 1.276093
1024.584, 1.858711
1025.067, 2.980347
1025.549, 4.276634
1026.031, 5.690460
1026.513, 7.147034
1026.995, 8.568916
1027.477, 10.15797
1027.959, 12.40646
1028.441, 13.61585
1028.924, 14.92098
1029.406, 16.70114
1029.888, 17.26144
1030.370, 19.07726
1030.852, 20.95328
1031.334, 22.15686
1031.816, 23.00998
1032.298, 24.07975
1032.781, 25.36267
1033.263, 26.87035
1033.745, 28.63959
1034.227, 30.47839
1034.709, 32.10280
1035.191, 34.30087
1035.673, 37.57612
1036.155, 41.69720
1036.637, 46.22932
1037.120, 51.13898
1037.602, 56.78667
1038.084, 63.61294
1038.566, 70.23946
1039.048, 75.66501
1039.530, 81.96989
1040.012, 90.64498
1040.494, 100.8343
1040.976, 110.9198
1041.459, 120.7464
1041.941, 131.9196
1042.423, 146.4199
1042.905, 159.2773
1043.387, 169.7777
1043.869, 178.7769
1044.351, 187.1453
1044.833, 194.1167
1045.316, 197.8400
1045.798, 197.9445
1046.280, 199.6076
1046.762, 204.4113
1047.244, 208.8855
1047.726, 210.7654
1048.208, 213.9778
1048.690, 221.3636
1049.172, 231.2133
1049.655, 240.7266
1050.137, 249.6881
1050.619, 260.1201
1051.101, 273.0524
1051.583, 286.4041
1052.065, 299.7700
1052.547, 313.3117
1053.029, 327.1825
1053.511, 341.0902
1053.994, 355.0656
1054.476, 368.9926
1054.958, 380.5443
1055.440, 390.2584
1055.922, 395.9424
1056.404, 395.9983
1056.886, 392.9503
1057.368, 388.3885
1057.851, 381.6779
1058.333, 371.4252
1058.815, 357.7474
1059.297, 342.8438
1059.779, 326.4503
1060.261, 310.2096
1060.743, 294.3222
1061.225, 279.2194
1061.708, 265.4511
1062.190, 252.4551
1062.672, 238.8506
1063.154, 225.0941
1063.636, 213.9561
1064.118, 207.1444
1064.600, 201.2630
1065.082, 195.4364
1065.564, 189.6596
1066.047, 183.4588
1066.529, 177.6156
1067.011, 172.8571
1067.493, 169.3238
1067.975, 167.1204
1068.457, 166.6508
1068.939, 166.5264
1069.421, 165.8567
1069.903, 165.7141
1070.386, 166.8171
1070.868, 168.7808
1071.350, 171.2407
1071.832, 174.1060
1072.314, 177.3675
1072.796, 181.0743
1073.278, 184.8411
1073.760, 189.0845
1074.243, 192.6362
1074.725, 195.1012
1075.207, 196.2199
1075.689, 196.1028
1076.171, 194.3833
1076.653, 189.9942
1077.135, 182.5123
1077.617, 173.9152
1078.099, 164.8342
1078.582, 155.2323
1079.064, 144.5498
1079.546, 133.7277
1080.028, 123.5974
1080.510, 114.0235
1080.992, 104.4645
1081.474, 94.79790
1081.956, 85.57961
1082.438, 76.73352
1082.921, 68.86436
1083.403, 62.53051
1083.885, 57.12342
1084.367, 52.35342
1084.849, 48.10029
1085.331, 44.40363
1085.813, 41.20290
1086.295, 37.70736
1086.777, 32.99378
1087.260, 28.88107
1087.742, 26.71670
1088.224, 24.94638
1088.706, 22.22152
1089.188, 19.21052
1089.670, 17.09353
1090.152, 15.89131
1090.634, 14.55073
1091.117, 12.48882
1091.599, 10.78739
1092.081, 10.16101
1092.563, 9.732178
1093.045, 8.950356
1093.527, 8.028061
1094.009, 7.201599
1094.491, 6.507679
1094.974, 5.987610
1095.456, 5.774361
1095.938, 5.233799
1096.420, 3.661110
1096.902, 2.278805
1097.384, 1.891586
1097.866, 1.848682
1098.348, 1.562759
1098.830, 1.063919
1099.313, 0.5968890
1099.795, 0.2272190
1100.277, 0.2343940
1100.759, 1.143780
1101.241, 1.753647
1101.723, 1.572174
1102.205, 1.177525
1102.687, 0.8987270
1103.169, 0.7758260
1103.652, 0.8940620
1104.134, 1.256401
1104.616, 1.417564
1105.098, 1.028362
1105.580, 0.7952120
1106.062, 1.148605
1106.544, 1.415031
1107.026, 0.8852960
1107.509, 0.2459140
1107.991, 0.5249180
1108.473, 1.655071
1108.955, 2.555412
1109.437, 3.179073
1109.919, 3.391079
1110.401, 2.774254
1110.883, 2.234653
1111.365, 2.196659
1111.848, 2.340969
1112.330, 2.483330
1112.812, 2.545212
1113.294, 2.238468
1113.776, 1.324196
1114.258, 0.7194290
1114.740, 0.7045820
1115.222, 0.6613620
1115.704, 0.4482350
1116.187, 0.1673050
1116.669, 0.2548680
1117.151, 0.6392020
1117.633, 0.5739900
1118.115, 1.1040000E-02
1118.597, 0.4390140
1119.079, 0.8505520
1119.561, 0.8019790
1120.044, 0.2429010
1120.526, 0.9860270
1121.008, 0.6007120
1121.490, 0.2211800
1121.972, 0.6705630
1122.454, 0.7425880
1122.936, 0.3432730
1123.418, 0.9501500
1123.901, 1.399258
1124.383, 0.4025120
1124.865, 4.9178999E-02
1125.347, 1.012283
1125.829, 2.250759
1126.311, 2.411762
1126.793, 1.853020
1127.275, 1.671116
1127.757, 1.931423
1128.240, 2.066986
1128.722, 2.035164
1129.204, 2.078182
1129.686, 2.242271
1130.168, 2.530586
1130.650, 2.958153
1131.132, 3.467094
1131.614, 3.952705
1132.096, 4.425415
1132.579, 5.041462
1133.061, 5.815552
1133.543, 6.140751
1134.025, 5.911396
1134.507, 5.912640
1134.989, 6.510883
1135.471, 7.097492
1135.953, 6.973408
1136.436, 7.368179
1136.918, 7.497616
1137.400, 7.496468
1137.882, 7.832573
1138.364, 7.747192
1138.846, 8.115196
1139.328, 9.119099
1139.810, 9.803352
1140.292, 9.474117
1140.775, 8.839451
1141.257, 8.879078
1141.739, 9.465801
1142.221, 10.43426
1142.703, 11.63714
1143.185, 12.64531
1143.667, 13.42926
1144.149, 14.27198
1144.631, 15.27948
1145.114, 16.13239
1145.596, 16.37892
1146.078, 16.54198
1146.560, 17.41045
1147.042, 18.61374
1147.524, 19.58647
1148.006, 20.36467
1148.488, 21.17659
1148.971, 22.07293
1149.453, 22.95245
1149.935, 23.74914
1150.417, 24.54805
1150.899, 25.39042
1151.381, 26.29877
1151.863, 27.30178
1152.345, 28.38423
1152.828, 29.60225
1153.310, 30.86580
1153.792, 31.89956
1154.274, 32.61100
1154.756, 33.42208
1155.238, 34.82254
1155.720, 35.97193
1156.202, 36.00140
1156.684, 36.08512
1157.167, 37.51886
1157.649, 39.43118
1158.131, 40.34230
1158.613, 40.16850
1159.095, 39.97827
1159.577, 40.08868
1160.059, 40.10612
1160.541, 40.08834
1161.023, 39.78870
1161.506, 38.78173
1161.988, 37.70549
1162.470, 37.45550
1162.952, 37.57458
1163.434, 36.50970
1163.916, 33.77045
1164.398, 32.25648
1164.880, 32.96119
1165.363, 32.98135
1165.845, 31.61848
1166.327, 29.79053
1166.809, 27.72760
1167.291, 25.98576
1167.773, 25.40464
1168.255, 25.78875
1168.737, 25.79433
1169.219, 25.38889
1169.702, 24.53174
1170.184, 23.13588
1170.666, 21.92492
1171.148, 21.13499
1171.630, 20.61337
1172.112, 20.21229
1172.594, 19.90080
1173.076, 19.79040
1173.558, 19.78193
1174.041, 19.09743
1174.523, 17.89232
1175.005, 17.26998
1175.487, 17.29515
1175.969, 17.29178
1176.451, 17.00999
1176.933, 16.81500
1177.415, 17.21650
1177.897, 17.58149
1178.380, 16.36864
1178.862, 14.48294
1179.344, 13.80548
1179.826, 14.02666
1180.308, 14.28505
1180.790, 14.33530
1181.272, 13.99145
1181.754, 13.06454
1182.237, 12.11976
1182.719, 11.52842
1183.201, 11.35692
1183.683, 12.00294
1184.165, 12.65913
1184.647, 12.16923
1185.129, 11.12131
1185.611, 10.95316
1186.094, 11.73988
1186.576, 11.91755
1187.058, 10.50391
1187.540, 9.406563
1188.022, 9.464226
1188.504, 9.720406
1188.986, 9.953247
1189.468, 9.951691
1189.950, 9.201393
1190.432, 8.146358
1190.915, 8.042202
1191.397, 9.163216
1191.879, 9.843880
1192.361, 9.971016
1192.843, 9.877552
1193.325, 9.495770
1193.807, 9.074730
1194.289, 8.700233
1194.772, 8.375702
1195.254, 8.064125
1195.736, 7.839554
1196.218, 8.115589
1196.700, 7.833881
1197.182, 7.477524
1197.664, 7.661930
1198.146, 6.770927
1198.629, 6.564606
1199.111, 6.756023
1199.593, 7.238956
1200.075, 7.434845
1200.557, 6.399475
1201.039, 4.728519
1201.521, 3.884281
1202.003, 3.768974
1202.485, 4.370342
1202.968, 5.380680
1203.450, 5.681717
1203.932, 5.113953
1204.414, 4.646660
1204.896, 4.865067
1205.378, 5.050854
1205.860, 4.299694
1206.342, 3.391949
1206.824, 3.043594
1207.307, 3.131962
1207.789, 3.806866
1208.271, 4.649849
1208.753, 4.718102
1209.235, 3.923454
1209.717, 3.387100
1210.199, 3.778015
1210.681, 3.946121
1211.164, 3.205341
1211.646, 2.501579
1212.128, 2.327324
1212.610, 2.385410
1213.092, 2.460957
1213.574, 2.525742
1214.056, 2.469845
1214.538, 2.238209
1215.021, 2.516327
1215.503, 3.876652
1215.985, 4.363945
1216.467, 3.374104
1216.949, 2.585876
1217.431, 2.737484
1217.913, 3.084427
1218.395, 2.922722
1218.877, 2.963276
1219.359, 2.366993
1219.842, 2.557362
1220.324, 2.353920
1220.806, 1.795513
1221.288, 1.529018
1221.770, 1.624020
1222.252, 1.735821
1222.734, 1.709560
1223.216, 1.390320
1223.699, 0.5271950
1224.181, 0.3818240
1224.663, 0.6494030
1225.145, 0.4482540
1225.627, 0.1224210
1226.109, 0.8447270
1226.591, 1.380035
1227.073, 1.683437
1227.556, 1.791580
1228.038, 1.718811
1228.520, 1.651138
1229.002, 1.756981
1229.484, 1.797985
1229.966, 1.539200
1230.448, 1.320461
1230.930, 1.464134
1231.412, 1.726654
1231.895, 1.756344
1232.377, 1.624664
1232.859, 1.703304
1233.341, 2.072498
1233.823, 2.459457
1234.305, 3.115734
1234.787, 3.230171
1235.269, 2.405758
1235.751, 1.653984
1236.234, 1.411148
1236.716, 1.564030
1237.198, 2.089447
1237.680, 2.751476
1238.162, 2.761780
1238.644, 2.157867
1239.126, 1.571098
1239.608, 1.046925
1240.091, 1.111168
1240.573, 1.754307
1241.055, 1.974762
1241.537, 1.337925
1242.019, 0.7369460
1242.501, 1.066986
1242.983, 0.7852550
1243.465, 1.569260
1243.948, 1.324409
1244.430, 2.005222
1244.912, 2.977196
1245.394, 2.899658
1245.876, 2.012360
1246.358, 1.732433
1246.840, 2.484955
1247.322, 3.124664
1247.804, 3.289593
1248.286, 3.197079
1248.769, 2.668255
1249.251, 2.193859
1249.733, 2.091698
1250.215, 2.114193
1250.697, 1.986919
1251.179, 1.745152
1251.661, 1.506447
1252.143, 1.215008
1252.626, 1.166367
1253.108, 1.422298
1253.590, 1.676117
1254.072, 1.917992
1254.554, 1.919052
1255.036, 1.579647
1255.518, 1.259560
1256.000, 1.208153
1256.483, 1.295425
1256.965, 0.6147690
1257.447, 0.4310460
1257.929, 0.3398480
1258.411, 0.5367320
1258.893, 1.434177
1259.375, 2.114697
1259.857, 2.094387
1260.339, 1.342342
1260.822, 0.6814040
1261.304, 0.4945950
1261.786, 0.6766360
1262.268, 1.735287
1262.750, 2.519066
1263.232, 1.902554
1263.714, 0.9354670
1264.196, 0.5541800
1264.678, 0.6465640
1265.161, 1.042168
1265.643, 1.733326
1266.125, 2.173420
1266.607, 2.304810
1267.089, 2.235653
1267.571, 1.800316
1268.053, 1.660435
1268.535, 2.086998
1269.017, 2.460480
1269.500, 2.345417
1269.982, 2.163246
1270.464, 2.631466
1270.946, 3.394577
1271.428, 3.296913
1271.910, 2.521973
1272.392, 1.392738
1272.874, 0.2819100
1273.357, 0.2686920
1273.839, 1.221062
1274.321, 1.728836
1274.803, 1.206528
1275.285, 0.7425080
1275.767, 1.406384
1276.249, 2.047180
1276.731, 1.816242
1277.214, 1.268791
1277.696, 0.6628000
1278.178, 0.1531910
1278.660, 0.1094930
1279.142, 0.1477200
1279.624, 9.5585003E-02
1280.106, 1.1189000E-02
1280.588, 0.4468080
1281.070, 0.5979190
1281.552, 0.6789970
1282.035, 1.360550
1282.517, 0.9936680
1282.999, 1.573532
1283.481, 2.019245
1283.963, 1.855701
1284.445, 1.291950
1284.927, 0.8751530
1285.409, 0.6136700
1285.892, 0.2664260
1286.374, 8.0500002E-04
1286.856, 0.0000000E+00
##END=



