##NAMES=Violarite
##RRUFFID=R060846
##IDEAL CHEMISTRY=Fe^2+^Ni^3+^_2_S_4_
##LOCALITY=Perseverance mine, Agnew, Western Australia
##OWNER=RRUFF
##SOURCE=Michael Scott
##DESCRIPTION=Violet metallic massive
##STATUS=The identification of this mineral has been confirmed only by chemical analysis
##URL=rruff.info/R060846
##MEASURED CHEMISTRY=lighter phase: (Fe^2+^_0.99_Co_0.01_)_Σ=1_Ni^3+^_2.00_S_4.00_   ; trace amounts of Cu ; darker phase: (Fe_0.98_Co_0.01_Ni_0.01_)_Σ=1_S_2.00_
120.0764, 0.0000000E+00
120.5585, 3.141235
121.0406, 0.9160160
121.5227, 18.64343
122.0049, 56.12787
122.4870, 91.86237
122.9691, 120.4969
123.4512, 138.9003
123.9333, 142.1540
124.4154, 120.3677
124.8976, 90.18127
125.3797, 69.00897
125.8618, 56.65729
126.3439, 48.22961
126.8260, 39.50110
127.3081, 31.37250
127.7903, 26.29999
128.2724, 25.01459
128.7545, 27.48169
129.2366, 35.78241
129.7187, 51.30981
130.2008, 66.29370
130.6830, 69.15784
131.1651, 60.81543
131.6472, 51.46814
132.1293, 45.23389
132.6114, 42.23419
133.0935, 44.46924
133.5757, 53.86914
134.0578, 66.39252
134.5399, 71.25488
135.0220, 67.30145
135.5041, 64.07990
135.9862, 68.88446
136.4683, 81.99957
136.9505, 97.60071
137.4326, 115.5958
137.9147, 135.2970
138.3968, 154.9583
138.8789, 177.1720
139.3610, 194.2241
139.8432, 197.4658
140.3253, 183.4042
140.8074, 166.7820
141.2895, 150.0349
141.7716, 132.8563
142.2537, 119.6747
142.7359, 110.8586
143.2180, 105.8830
143.7001, 104.4391
144.1822, 108.9494
144.6643, 112.9883
145.1464, 113.5945
145.6286, 106.7986
146.1107, 105.3956
146.5928, 113.6793
147.0749, 127.5612
147.5570, 132.9045
148.0391, 125.4255
148.5213, 113.4504
149.0034, 100.6110
149.4855, 78.87170
149.9676, 66.36963
150.4497, 69.73737
150.9318, 87.64050
151.4140, 96.86365
151.8961, 87.95654
152.3782, 75.96783
152.8603, 71.45911
153.3424, 83.76678
153.8245, 94.81519
154.3067, 102.1040
154.7888, 105.6799
155.2709, 105.0499
155.7530, 97.06409
156.2351, 85.88324
156.7172, 76.06030
157.1993, 70.12134
157.6815, 64.18640
158.1636, 55.41040
158.6457, 41.04504
159.1278, 32.27039
159.6099, 33.40173
160.0920, 41.58997
160.5742, 53.62396
161.0563, 70.43243
161.5384, 85.21936
162.0205, 94.34485
162.5026, 93.47009
162.9847, 93.05212
163.4669, 102.4573
163.9490, 117.0485
164.4311, 122.2593
164.9132, 99.47119
165.3953, 70.16010
165.8774, 52.66040
166.3596, 61.25702
166.8417, 73.46106
167.3238, 76.51111
167.8059, 71.21100
168.2880, 63.88165
168.7701, 54.76965
169.2523, 46.66742
169.7344, 43.05127
170.2165, 49.66162
170.6986, 58.55493
171.1807, 64.19336
171.6628, 66.45605
172.1450, 64.97229
172.6271, 54.78986
173.1092, 40.71381
173.5913, 31.68671
174.0734, 37.10663
174.5555, 47.60437
175.0377, 51.07635
175.5198, 45.79041
176.0019, 38.96246
176.4840, 37.98431
176.9661, 41.28485
177.4482, 44.03052
177.9303, 41.23035
178.4125, 36.38440
178.8946, 36.10742
179.3767, 43.58435
179.8588, 50.12451
180.3409, 40.99023
180.8230, 18.73120
181.3052, 3.9306998E-02
181.7873, 2.629761
182.2694, 6.731567
182.7515, 17.71704
183.2336, 29.85339
183.7157, 40.70410
184.1979, 43.76038
184.6800, 39.26086
185.1621, 35.40088
185.6442, 44.05640
186.1263, 60.76086
186.6084, 65.13977
187.0906, 45.31030
187.5727, 12.83911
188.0548, 0.9914550
188.5369, 4.958984
189.0190, 17.90222
189.5011, 27.89893
189.9833, 34.87061
190.4654, 36.79797
190.9475, 30.66650
191.4296, 18.71021
191.9117, 11.49060
192.3938, 9.720459
192.8760, 9.971558
193.3581, 7.820557
193.8402, 3.282227
194.3223, 0.3573000
194.8044, 1.674683
195.2865, 0.7730710
195.7687, 1.446655
196.2508, 5.860107
196.7329, 9.863281
197.2150, 8.101196
197.6971, 0.1767580
198.1792, 6.937378
198.6613, 6.551147
199.1435, 1.374146
199.6256, 3.271973
200.1077, 3.475708
200.5898, 13.69116
201.0719, 17.15149
201.5540, 13.36340
202.0362, 5.204346
202.5183, 8.750122
203.0004, 30.10254
203.4825, 41.50256
203.9646, 38.69629
204.4467, 26.87012
204.9289, 23.45520
205.4110, 27.74329
205.8931, 31.89197
206.3752, 29.81116
206.8573, 21.19922
207.3394, 15.24878
207.8216, 14.59509
208.3037, 18.43359
208.7858, 21.23621
209.2679, 24.31128
209.7500, 9.932617
210.2321, 34.78894
210.7143, 49.59473
211.1964, 55.00513
211.6785, 22.91687
212.1606, 39.38672
212.6427, 36.26086
213.1248, 32.33643
213.6070, 55.51917
214.0891, 28.75012
214.5712, 51.60022
215.0533, 55.08386
215.5354, 68.02515
216.0175, 61.53076
216.4997, 60.97241
216.9818, 79.70325
217.4639, 87.03540
217.9460, 77.20813
218.4281, 89.79358
218.9102, 62.31409
219.3923, 70.04651
219.8745, 93.40723
220.3566, 68.98364
220.8387, 68.22314
221.3208, 68.53137
221.8029, 62.78223
222.2850, 47.20349
222.7672, 35.23291
223.2493, 30.75073
223.7314, 34.40979
224.2135, 44.44214
224.6956, 65.12415
225.1777, 86.89270
225.6599, 95.40552
226.1420, 84.93042
226.6241, 74.42432
227.1062, 71.37109
227.5883, 80.52954
228.0704, 80.41663
228.5526, 59.01099
229.0347, 31.28772
229.5168, 25.30493
229.9989, 54.85303
230.4810, 84.75146
230.9632, 103.9974
231.4453, 111.0956
231.9274, 110.5115
232.4095, 99.13049
232.8916, 81.46436
233.3737, 72.36804
233.8559, 75.14844
234.3380, 81.50098
234.8201, 88.41541
235.3022, 96.51367
235.7843, 104.1125
236.2664, 113.3884
236.7486, 121.8640
237.2307, 120.8148
237.7128, 102.6545
238.1949, 85.77637
238.6770, 79.73218
239.1591, 91.51575
239.6412, 99.02698
240.1234, 100.4679
240.6055, 97.33508
241.0876, 95.04077
241.5697, 93.81592
242.0518, 93.09424
242.5339, 92.13721
243.0161, 88.67615
243.4982, 90.07642
243.9803, 99.52393
244.4624, 114.3234
244.9445, 122.9310
245.4266, 123.7118
245.9088, 120.2272
246.3909, 113.8380
246.8730, 101.9551
247.3551, 92.46692
247.8372, 85.90088
248.3193, 82.13599
248.8015, 81.05005
249.2836, 84.93311
249.7657, 88.42810
250.2478, 87.75500
250.7299, 80.21301
251.2120, 74.90784
251.6942, 74.88184
252.1763, 78.45032
252.6584, 73.47961
253.1405, 52.79285
253.6226, 33.81470
254.1047, 30.13464
254.5869, 51.69360
255.0690, 64.88147
255.5511, 63.46399
256.0332, 49.71021
256.5153, 40.49377
256.9974, 37.76306
257.4796, 36.98340
257.9617, 34.94751
258.4438, 30.69458
258.9259, 26.57874
259.4080, 23.13855
259.8901, 20.46545
260.3723, 18.18994
260.8544, 16.09656
261.3365, 14.30396
261.8186, 9.583618
262.3007, 21.23132
262.7828, 4.775269
263.2650, 4.559814
263.7471, 7.162842
264.2292, 17.11560
264.7113, 6.707642
265.1934, 10.21814
265.6755, 14.31177
266.1577, 0.9427490
266.6398, 19.49011
267.1219, 4.568237
267.6040, 10.45471
268.0861, 17.55640
268.5682, 13.59277
269.0503, 7.693726
269.5324, 8.381714
270.0146, 18.17822
270.4967, 23.83594
270.9788, 22.56726
271.4609, 15.38379
271.9430, 7.750610
272.4251, 1.193848
272.9073, 8.440063
273.3894, 11.32532
273.8715, 9.605103
274.3536, 4.605469
274.8357, 5.744629
275.3178, 19.13171
275.8000, 23.30139
276.2821, 16.44739
276.7642, 5.933228
277.2463, 3.841187
277.7284, 13.17310
278.2105, 17.29492
278.6927, 13.19043
279.1748, 3.888184
279.6569, 1.685791
280.1390, 7.468872
280.6211, 16.66528
281.1032, 29.21802
281.5854, 45.31677
282.0675, 49.74585
282.5496, 36.02893
283.0317, 10.56592
283.5138, 5.463989
283.9959, 11.03943
284.4781, 13.90283
284.9602, 5.723999
285.4423, 25.78186
285.9244, 5.801147
286.4065, 5.880859
286.8886, 9.714966
287.3708, 17.80469
287.8529, 4.845947
288.3350, 8.114258
288.8171, 12.05237
289.2992, 6.594360
289.7813, 16.38440
290.2635, 1.898438
290.7456, 3.707764
291.2277, 13.05811
291.7098, 6.082275
292.1919, 4.151489
292.6740, 18.55188
293.1562, 23.91150
293.6383, 15.06226
294.1204, 4.662598
294.6025, 5.675415
295.0846, 8.603638
295.5667, 13.25439
296.0489, 17.28589
296.5310, 17.97412
297.0131, 16.77527
297.4952, 16.63330
297.9773, 16.71826
298.4594, 20.68530
298.9416, 38.60352
299.4237, 67.57654
299.9058, 91.14722
300.3879, 91.21387
300.8700, 79.37305
301.3521, 77.89160
301.8343, 92.51270
302.3164, 112.1084
302.7985, 122.7198
303.2806, 127.2029
303.7627, 136.5271
304.2448, 162.4752
304.7270, 195.2181
305.2091, 219.1824
305.6912, 228.5667
306.1733, 240.5233
306.6554, 273.6483
307.1375, 321.9458
307.6197, 369.7417
308.1018, 401.9684
308.5839, 433.7418
309.0660, 480.4210
309.5481, 545.1761
310.0302, 619.3260
310.5123, 698.2223
310.9944, 782.4868
311.4766, 871.6873
311.9587, 966.3972
312.4408, 1065.736
312.9229, 1167.508
313.4050, 1271.425
313.8871, 1380.004
314.3693, 1502.738
314.8514, 1631.304
315.3335, 1753.755
315.8156, 1858.865
316.2977, 1961.479
316.7798, 2068.973
317.2620, 2181.680
317.7441, 2300.908
318.2262, 2428.989
318.7083, 2564.283
319.1904, 2704.847
319.6725, 2879.317
320.1547, 3030.977
320.6368, 3147.038
321.1189, 3226.799
321.6010, 3263.392
322.0831, 3247.998
322.5652, 3192.468
323.0474, 3105.046
323.5295, 2995.809
324.0116, 2846.992
324.4937, 2635.505
324.9758, 2362.683
325.4579, 2104.224
325.9401, 1857.150
326.4222, 1634.911
326.9043, 1447.933
327.3864, 1309.355
327.8685, 1192.699
328.3506, 1098.161
328.8328, 1025.572
329.3149, 963.9104
329.7970, 913.0203
330.2791, 873.3583
330.7612, 846.2290
331.2433, 841.0835
331.7255, 834.6693
332.2076, 824.1077
332.6897, 811.3242
333.1718, 804.1621
333.6539, 805.6837
334.1360, 808.6555
334.6182, 808.2607
335.1003, 799.6311
335.5824, 799.2462
336.0645, 811.0959
336.5466, 831.0969
337.0287, 848.9016
337.5109, 865.5498
337.9930, 875.6826
338.4751, 875.5835
338.9572, 863.1648
339.4393, 851.4353
339.9214, 843.0967
340.4036, 834.8831
340.8857, 819.8323
341.3678, 796.8309
341.8499, 767.5559
342.3320, 731.4980
342.8141, 688.6498
343.2963, 644.8962
343.7784, 602.2878
344.2605, 561.6353
344.7426, 524.7229
345.2247, 490.6696
345.7068, 457.1221
346.1890, 418.0325
346.6711, 377.5597
347.1532, 352.5750
347.6353, 343.0073
348.1174, 339.1504
348.5995, 328.2036
349.0817, 312.0630
349.5638, 298.2173
350.0459, 287.9481
350.5280, 282.0070
351.0101, 283.9747
351.4922, 293.3352
351.9743, 302.5447
352.4565, 306.3452
352.9386, 305.5527
353.4207, 300.8870
353.9028, 288.8781
354.3849, 278.0861
354.8670, 279.8665
355.3492, 291.7457
355.8313, 302.6514
356.3134, 303.3667
356.7955, 300.7129
357.2776, 301.4058
357.7597, 305.9459
358.2419, 315.9983
358.7240, 336.6364
359.2061, 363.8982
359.6882, 388.3855
360.1703, 403.4768
360.6524, 415.9827
361.1346, 430.4857
361.6167, 448.1509
362.0988, 465.1239
362.5809, 469.2229
363.0630, 473.8767
363.5451, 498.8528
364.0273, 574.2928
364.5094, 649.0526
364.9915, 700.3730
365.4736, 722.1638
365.9557, 753.1082
366.4378, 806.8523
366.9200, 869.7815
367.4021, 929.1986
367.8842, 986.7888
368.3663, 1037.896
368.8484, 1078.023
369.3305, 1107.514
369.8127, 1143.652
370.2948, 1191.096
370.7769, 1241.869
371.2590, 1290.890
371.7411, 1337.079
372.2232, 1382.435
372.7054, 1427.029
373.1875, 1470.998
373.6696, 1516.416
374.1517, 1571.207
374.6338, 1613.019
375.1159, 1626.034
375.5981, 1602.918
376.0802, 1582.316
376.5623, 1568.962
377.0444, 1555.755
377.5265, 1525.678
378.0086, 1475.874
378.4908, 1426.251
378.9729, 1389.373
379.4550, 1364.260
379.9371, 1325.989
380.4192, 1270.888
380.9013, 1213.746
381.3835, 1171.313
381.8656, 1143.413
382.3477, 1111.940
382.8298, 1094.790
383.3119, 1069.363
383.7940, 1036.096
384.2762, 971.4783
384.7583, 947.3695
385.2404, 907.0483
385.7225, 866.0706
386.2046, 847.6958
386.6867, 787.7052
387.1689, 768.9856
387.6510, 733.8140
388.1331, 706.2904
388.6152, 662.6355
389.0973, 591.3174
389.5794, 556.0737
390.0616, 527.0702
390.5437, 501.3948
391.0258, 476.7115
391.5079, 452.0308
391.9900, 427.3469
392.4721, 402.1544
392.9542, 372.7273
393.4363, 345.6312
393.9185, 327.0165
394.4006, 319.6626
394.8827, 309.3625
395.3648, 289.7808
395.8469, 264.4054
396.3290, 238.0001
396.8112, 204.9365
397.2933, 177.1632
397.7754, 158.8719
398.2575, 150.2162
398.7396, 144.7081
399.2217, 143.2393
399.7039, 143.5519
400.1860, 144.9073
400.6681, 156.5798
401.1502, 155.9567
401.6323, 134.6609
402.1144, 99.56311
402.5966, 77.35156
403.0787, 73.06152
403.5608, 72.14551
404.0429, 67.14368
404.5250, 56.24084
405.0071, 50.23193
405.4893, 50.37390
405.9714, 55.38086
406.4535, 61.24316
406.9356, 66.22070
407.4177, 68.81323
407.8998, 67.74841
408.3820, 64.36938
408.8641, 61.36841
409.3462, 57.05554
409.8283, 52.38660
410.3104, 49.20508
410.7925, 47.75928
411.2747, 45.81873
411.7568, 41.35181
412.2389, 36.84265
412.7210, 35.07886
413.2031, 36.13354
413.6852, 40.68933
414.1674, 54.92456
414.6495, 71.60486
415.1316, 77.46362
415.6137, 66.69739
416.0958, 54.01477
416.5779, 51.28638
417.0601, 55.97180
417.5422, 62.52380
418.0243, 71.27954
418.5064, 79.74756
418.9885, 83.69324
419.4706, 82.32300
419.9528, 82.62244
420.4349, 90.17126
420.9170, 101.0016
421.3991, 108.9058
421.8812, 110.4434
422.3633, 108.4521
422.8455, 100.5571
423.3276, 87.82910
423.8097, 83.06006
424.2918, 103.0626
424.7739, 120.7090
425.2560, 119.9839
425.7382, 74.04150
426.2203, 49.90051
426.7024, 60.70935
427.1845, 91.61414
427.6666, 103.2482
428.1487, 82.84705
428.6309, 65.63354
429.1130, 68.10693
429.5951, 94.80005
430.0772, 103.0629
430.5593, 86.86926
431.0414, 63.28430
431.5236, 55.53906
432.0057, 65.39514
432.4878, 71.42090
432.9699, 65.72217
433.4520, 52.73218
433.9341, 48.65576
434.4162, 53.24170
434.8983, 57.74939
435.3805, 53.78101
435.8626, 44.15161
436.3447, 35.86450
436.8268, 29.56543
437.3089, 27.23706
437.7910, 33.75671
438.2732, 47.00171
438.7553, 58.09521
439.2374, 61.66272
439.7195, 61.82690
440.2016, 62.85364
440.6837, 65.13171
441.1659, 66.44043
441.6480, 65.86768
442.1301, 63.49280
442.6122, 59.40735
443.0943, 54.52148
443.5764, 47.14758
444.0586, 34.68176
444.5407, 18.35645
445.0228, 4.824951
445.5049, 5.344971
445.9870, 11.04590
446.4691, 11.77710
446.9513, 2.271729
447.4334, 4.116455
447.9155, 5.485718
448.3976, 4.023926
448.8797, 3.408813
449.3618, 3.019775
449.8440, 4.816650
450.3261, 11.81360
450.8082, 24.78760
451.2903, 24.13159
451.7724, 4.385376
452.2545, 19.24158
452.7367, 32.50720
453.2188, 34.46460
453.7009, 33.84692
454.1830, 31.55823
454.6651, 28.14978
455.1472, 25.15588
455.6294, 22.58618
456.1115, 19.06445
456.5936, 12.90955
457.0757, 5.091553
457.5578, 2.134033
458.0399, 9.115479
458.5221, 12.96851
459.0042, 7.426147
459.4863, 3.392944
459.9684, 10.70508
460.4505, 10.18030
460.9326, 4.955078
461.4148, 7.140869
461.8969, 24.20215
462.3790, 32.32935
462.8611, 11.22095
463.3432, 14.78357
463.8253, 24.26331
464.3075, 0.1187740
464.7896, 18.05640
465.2717, 10.94031
465.7538, 9.552734
466.2359, 20.32996
466.7180, 6.825195
467.2002, 6.182495
467.6823, 9.190308
468.1644, 0.4560550
468.6465, 1.195679
469.1286, 14.47021
469.6107, 32.26868
470.0929, 39.83411
470.5750, 33.45947
471.0571, 26.75269
471.5392, 21.16931
472.0213, 16.50964
472.5034, 11.73938
472.9856, 6.433716
473.4677, 3.101563
473.9498, 5.296753
474.4319, 11.88403
474.9140, 10.00317
475.3961, 2.806152
475.8782, 13.86243
476.3604, 0.2492680
476.8425, 29.71655
477.3246, 45.03027
477.8067, 24.90259
478.2888, 6.108032
478.7709, 17.20129
479.2531, 10.70312
479.7352, 0.2976070
480.2173, 7.873657
480.6994, 14.49622
481.1815, 20.02515
481.6636, 24.37573
482.1458, 28.16528
482.6279, 33.35217
483.1100, 37.71045
483.5921, 37.87244
484.0742, 26.16052
484.5563, 16.55212
485.0385, 13.98413
485.5206, 18.61731
486.0027, 24.82385
486.4848, 35.48035
486.9669, 45.05188
487.4490, 50.27563
487.9312, 50.75757
488.4133, 47.27039
488.8954, 36.91516
489.3775, 24.68506
489.8596, 21.83057
490.3417, 30.57117
490.8239, 38.88684
491.3060, 19.41919
491.7881, 38.70728
492.2702, 49.69299
492.7523, 52.82361
493.2344, 24.59155
493.7166, 36.83838
494.1987, 32.85132
494.6808, 28.19189
495.1629, 46.11145
495.6450, 22.39844
496.1271, 39.94226
496.6093, 41.00610
497.0914, 49.60022
497.5735, 41.86157
498.0556, 39.15698
498.5377, 52.77527
499.0198, 57.34387
499.5020, 47.69385
499.9841, 56.73230
500.4662, 32.36768
500.9483, 37.28870
501.4304, 54.84021
501.9125, 45.96985
502.3947, 55.25427
502.8768, 57.61292
503.3589, 28.49255
503.8410, 44.97119
504.3231, 50.30872
504.8052, 54.70044
505.2874, 58.32092
505.7695, 58.33240
506.2516, 52.82288
506.7337, 46.38440
507.2158, 43.94177
507.6979, 45.78552
508.1801, 49.40369
508.6622, 39.40381
509.1443, 59.99866
509.6264, 72.29138
510.1085, 75.81909
510.5906, 47.13660
511.0728, 58.78491
511.5549, 54.21033
512.0370, 49.08276
512.5191, 66.72363
513.0012, 42.89282
513.4833, 60.46021
513.9655, 61.74304
514.4476, 70.92053
514.9297, 64.20300
515.4118, 62.81238
515.8939, 77.74646
516.3760, 83.75305
516.8582, 76.07373
517.3403, 86.74622
517.8224, 63.05872
518.3045, 68.55493
518.7866, 86.98816
519.2687, 79.43848
519.7509, 90.04468
520.2330, 93.76807
520.7151, 66.45618
521.1972, 90.14380
521.6793, 98.90869
522.1614, 105.0420
522.6436, 107.6532
523.1257, 107.4890
523.6078, 103.5780
524.0899, 95.66040
524.5720, 80.97083
525.0541, 61.70251
525.5363, 55.71191
526.0184, 64.20374
526.5005, 76.41602
526.9826, 80.29358
527.4647, 77.80432
527.9468, 76.52551
528.4290, 80.80603
528.9111, 83.97034
529.3932, 74.01147
529.8753, 56.29395
530.3574, 47.29053
530.8395, 69.34436
531.3217, 91.71680
531.8038, 96.35034
532.2859, 79.42688
532.7680, 64.66162
533.2501, 51.47339
533.7322, 43.72290
534.2144, 45.38403
534.6965, 67.22168
535.1786, 82.66565
535.6607, 83.96143
536.1428, 76.10388
536.6249, 73.36401
537.1070, 79.81714
537.5891, 85.79333
538.0712, 87.30029
538.5533, 84.33252
539.0355, 77.76062
539.5176, 66.47253
539.9997, 56.71436
540.4818, 55.99231
540.9639, 62.37366
541.4460, 67.98206
541.9282, 71.63599
542.4103, 75.61365
542.8924, 79.45300
543.3745, 82.94189
543.8566, 87.35645
544.3387, 97.26318
544.8209, 104.5846
545.3030, 101.2964
545.7851, 87.76245
546.2672, 75.94177
546.7493, 69.68201
547.2314, 66.87122
547.7136, 66.34216
548.1957, 72.01587
548.6778, 74.63916
549.1599, 70.83862
549.6420, 64.62610
550.1241, 60.73926
550.6063, 60.97620
551.0884, 59.75305
551.5705, 55.53809
552.0526, 48.89929
552.5347, 45.05664
553.0168, 44.64917
553.4990, 44.97925
553.9811, 45.03174
554.4632, 44.76782
554.9453, 46.82690
555.4274, 52.16516
555.9095, 55.43872
556.3917, 46.79993
556.8738, 31.85132
557.3559, 23.65601
557.8380, 30.98267
558.3201, 41.66101
558.8022, 48.68164
559.2844, 51.62939
559.7665, 49.08569
560.2486, 33.08130
560.7307, 17.52722
561.2128, 9.414429
561.6949, 10.80103
562.1771, 15.65356
562.6592, 25.96716
563.1413, 37.80261
563.6234, 48.50256
564.1055, 61.52454
564.5876, 65.92712
565.0698, 57.85388
565.5519, 42.83740
566.0340, 32.74414
566.5161, 27.92236
566.9982, 25.70911
567.4803, 26.04968
567.9625, 27.92175
568.4446, 26.20117
568.9267, 20.94299
569.4088, 17.64539
569.8909, 24.33813
570.3730, 35.11414
570.8552, 38.83032
571.3373, 32.31958
571.8194, 24.48230
572.3015, 22.92004
572.7836, 23.83301
573.2657, 21.63074
573.7479, 7.365967
574.2300, 3.130127
574.7121, 2.690308
575.1942, 7.049438
575.6763, 16.29333
576.1584, 29.36072
576.6406, 36.25134
577.1227, 30.75305
577.6048, 8.928589
578.0869, 1.024292
578.5690, 5.246094
579.0511, 15.64062
579.5333, 16.77197
580.0154, 8.347290
580.4975, 5.616577
580.9796, 12.81128
581.4617, 23.16187
581.9438, 25.37512
582.4260, 20.61023
582.9081, 14.24475
583.3902, 5.827026
583.8723, 1.055298
584.3544, 0.5177000
584.8365, 6.451904
585.3187, 11.71802
585.8008, 7.713867
586.2829, 2.233765
586.7650, 1.541870
587.2471, 9.054688
587.7292, 14.60632
588.2114, 19.03333
588.6935, 3.756714
589.1756, 16.59448
589.6577, 20.01318
590.1398, 14.19434
590.6219, 0.1735840
591.1041, 4.927856
591.5862, 10.82690
592.0683, 10.37683
592.5504, 18.37317
593.0325, 2.386841
593.5146, 3.376709
593.9968, 13.41772
594.4789, 3.874390
594.9610, 0.3875730
595.4431, 16.49939
595.9252, 21.65808
596.4073, 31.73975
596.8895, 23.52368
597.3716, 13.64795
597.8537, 17.43518
598.3358, 25.66760
598.8179, 24.76184
599.3000, 9.674805
599.7822, 32.19116
600.2643, 20.88281
600.7464, 17.18799
601.2285, 39.15295
601.7106, 37.74072
602.1927, 29.02795
602.6749, 17.36365
603.1570, 2.087769
603.6391, 8.356812
604.1212, 14.10535
604.6033, 14.39685
605.0854, 5.336548
605.5676, 11.42627
606.0497, 23.21326
606.5318, 27.45996
607.0139, 27.96912
607.4960, 29.88318
607.9781, 31.80530
608.4603, 30.36719
608.9424, 16.11047
609.4245, 4.864868
609.9066, 11.32886
610.3887, 31.25488
610.8708, 46.89905
611.3530, 53.63306
611.8351, 53.23755
612.3172, 43.72058
612.7993, 21.23999
613.2814, 8.417114
613.7635, 9.343994
614.2457, 15.73535
614.7278, 21.90063
615.2099, 28.16101
615.6920, 33.14343
616.1741, 37.68628
616.6563, 39.23169
617.1384, 29.11865
617.6205, 9.684814
618.1026, 0.6311040
618.5847, 10.39832
619.0668, 28.83459
619.5489, 35.69812
620.0310, 33.07654
620.5131, 29.16821
620.9952, 24.84338
621.4774, 23.54688
621.9595, 30.09167
622.4416, 45.78296
622.9237, 56.54285
623.4058, 59.03882
623.8879, 54.96204
624.3701, 44.72351
624.8522, 19.16370
625.3343, 4.928589
625.8164, 7.053101
626.2985, 15.84448
626.7806, 15.95068
627.2628, 5.739502
627.7449, 0.7790530
628.2270, 7.168457
628.7091, 18.74670
629.1912, 19.23486
629.6733, 10.49658
630.1555, 6.375488
630.6376, 18.45312
631.1197, 36.94678
631.6018, 53.44446
632.0839, 66.83313
632.5660, 72.18726
633.0482, 61.81763
633.5303, 45.71875
634.0124, 30.84021
634.4945, 15.89783
634.9766, 7.249146
635.4587, 10.07031
635.9409, 16.26526
636.4230, 18.13940
636.9051, 11.68042
637.3872, 11.09521
637.8693, 20.16223
638.3514, 34.14697
638.8336, 42.46191
639.3157, 44.99548
639.7978, 46.73694
640.2799, 50.44995
640.7620, 54.43604
641.2441, 54.80786
641.7263, 51.79199
642.2084, 48.93616
642.6905, 47.21472
643.1726, 47.41455
643.6547, 51.97339
644.1368, 62.16907
644.6190, 68.31323
645.1011, 65.26270
645.5832, 58.05615
646.0653, 49.13184
646.5474, 34.99524
647.0295, 32.15808
647.5117, 47.39111
647.9938, 67.43713
648.4759, 72.60681
648.9580, 58.69702
649.4401, 50.65955
649.9222, 58.97473
650.4044, 72.85815
650.8865, 75.53003
651.3686, 67.05188
651.8507, 56.04150
652.3328, 40.80603
652.8149, 29.36841
653.2971, 35.39880
653.7792, 57.56531
654.2613, 74.46069
654.7434, 76.13000
655.2255, 68.79346
655.7076, 53.56909
656.1898, 22.30273
656.6719, 7.690674
657.1540, 22.26135
657.6361, 42.21680
658.1182, 46.83435
658.6003, 30.35742
659.0825, 22.76599
659.5646, 28.81201
660.0467, 42.70764
660.5288, 59.09094
661.0109, 76.52490
661.4930, 81.66553
661.9752, 61.54822
662.4573, 35.95508
662.9394, 32.85620
663.4215, 46.95874
663.9036, 60.00134
664.3857, 61.76172
664.8679, 60.54663
665.3500, 62.07520
665.8321, 66.84399
666.3142, 67.18579
666.7963, 57.00061
667.2784, 46.06946
667.7606, 38.30347
668.2427, 32.66760
668.7248, 35.08289
669.2069, 48.42737
669.6890, 63.59705
670.1711, 70.68494
670.6533, 70.31213
671.1354, 68.90540
671.6175, 67.54626
672.0996, 65.61060
672.5817, 61.63110
673.0638, 56.58704
673.5460, 52.52344
674.0281, 53.67139
674.5102, 52.93384
674.9923, 41.71252
675.4744, 24.96277
675.9565, 18.17126
676.4387, 39.35681
676.9208, 55.55310
677.4029, 51.89978
677.8850, 29.78247
678.3671, 31.80188
678.8492, 68.97595
679.3314, 101.6996
679.8135, 99.02026
680.2956, 65.12451
680.7777, 50.10339
681.2598, 55.65015
681.7419, 68.33411
682.2241, 83.86157
682.7062, 95.75110
683.1883, 89.33325
683.6704, 53.54602
684.1525, 26.35901
684.6346, 37.99780
685.1168, 67.81958
685.5989, 90.55322
686.0810, 99.57263
686.5631, 102.3091
687.0452, 95.81738
687.5273, 85.01953
688.0095, 82.12488
688.4916, 90.63501
688.9737, 94.33105
689.4558, 85.87610
689.9379, 70.65491
690.4200, 67.16589
690.9022, 74.15515
691.3843, 80.51428
691.8664, 77.02039
692.3485, 70.33203
692.8306, 69.88416
693.3127, 75.42419
693.7949, 78.80334
694.2770, 75.69922
694.7591, 68.99792
695.2412, 58.29175
695.7233, 38.92114
696.2054, 33.11450
696.6876, 53.98584
697.1697, 76.49304
697.6518, 77.31250
698.1339, 49.46594
698.6160, 38.26550
699.0981, 50.96631
699.5803, 70.85779
700.0624, 73.03992
700.5444, 61.99377
701.0266, 55.77783
701.5087, 62.54004
701.9908, 70.07190
702.4729, 61.79565
702.9550, 45.68164
703.4371, 38.22449
703.9193, 55.47131
704.4014, 72.01160
704.8835, 58.26306
705.3656, 7.750854
705.8477, 37.60059
706.3298, 55.01514
706.8120, 60.66577
707.2941, 19.29285
707.7762, 38.65930
708.2583, 33.69800
708.7404, 27.74487
709.2225, 55.68311
709.7047, 21.18811
710.1868, 48.60034
710.6689, 51.30896
711.1510, 65.33276
711.6331, 54.87451
712.1152, 51.98511
712.5974, 73.59888
713.0795, 66.72937
713.5616, 56.84204
714.0437, 49.33252
714.5258, 53.35620
715.0079, 59.30017
715.4901, 58.74829
715.9722, 49.56201
716.4543, 38.85327
716.9364, 24.38855
717.4185, 13.09668
717.9006, 20.42480
718.3828, 43.28955
718.8649, 58.60022
719.3470, 57.02979
719.8291, 48.92627
720.3112, 42.95959
720.7933, 39.92712
721.2755, 41.81726
721.7576, 56.79175
722.2397, 69.82166
722.7218, 71.45068
723.2039, 64.01636
723.6860, 62.55969
724.1682, 76.37769
724.6503, 83.41211
725.1324, 73.80029
725.6145, 49.93652
726.0966, 35.05908
726.5787, 29.42529
727.0609, 31.41284
727.5430, 47.50696
728.0251, 68.85278
728.5072, 72.49219
728.9893, 58.29492
729.4714, 45.46204
729.9536, 49.19434
730.4357, 58.86902
730.9178, 65.97205
731.3999, 69.11340
731.8820, 70.45898
732.3641, 70.95813
732.8463, 69.12402
733.3284, 63.80176
733.8105, 52.48584
734.2926, 46.88306
734.7747, 49.09802
735.2568, 52.95837
735.7390, 49.97742
736.2211, 41.48303
736.7032, 32.68457
737.1853, 23.61169
737.6674, 18.98169
738.1495, 31.83240
738.6317, 52.76099
739.1138, 66.86841
739.5959, 64.92688
740.0780, 58.20898
740.5601, 46.93958
741.0422, 32.98474
741.5244, 23.49231
742.0065, 16.19043
742.4886, 13.84888
742.9707, 19.35571
743.4528, 28.66296
743.9349, 26.35815
744.4171, 12.93188
744.8992, 4.719727
745.3813, 16.50842
745.8634, 34.22290
746.3455, 37.52771
746.8276, 27.93799
747.3098, 18.04285
747.7919, 11.84546
748.2740, 17.36768
748.7561, 34.14453
749.2382, 40.51990
749.7203, 1.500366
750.2025, 17.21472
750.6846, 12.64514
751.1667, 6.030396
751.6488, 34.02686
752.1309, 0.7447510
752.6130, 26.41418
753.0952, 28.78833
753.5773, 42.15686
754.0594, 31.01990
754.5415, 27.44934
755.0236, 48.37976
755.5057, 55.74805
755.9879, 41.80359
756.4700, 55.89014
756.9521, 19.90430
757.4342, 27.86450
757.9163, 27.87085
758.3984, 21.29065
758.8806, 16.05457
759.3627, 17.39429
759.8448, 26.81750
760.3269, 32.36694
760.8090, 32.44885
761.2911, 30.08887
761.7733, 28.58923
762.2554, 27.88538
762.7375, 28.38159
763.2196, 30.87122
763.7017, 31.53064
764.1838, 24.39612
764.6660, 14.94287
765.1481, 11.69226
765.6302, 26.96338
766.1123, 35.00342
766.5944, 27.65710
767.0765, 13.62891
767.5587, 11.75195
768.0408, 24.98804
768.5229, 33.15210
769.0050, 28.44287
769.4871, 19.21948
769.9692, 25.24585
770.4514, 41.85596
770.9335, 51.12146
771.4156, 34.38062
771.8977, 16.01855
772.3798, 16.06250
772.8619, 29.47925
773.3441, 39.65759
773.8262, 42.60010
774.3083, 41.39185
774.7904, 34.89551
775.2725, 24.70325
775.7546, 19.76562
776.2368, 20.70300
776.7189, 24.24158
777.2010, 32.39502
777.6831, 40.77441
778.1652, 34.94470
778.6473, 16.84180
779.1295, 5.0415002E-02
779.6116, 9.996826
780.0937, 13.36731
780.5758, 7.737183
781.0579, 6.424561
781.5400, 17.34900
782.0222, 21.26074
782.5043, 23.27771
782.9863, 23.81921
783.4684, 23.35022
783.9506, 21.59753
784.4327, 18.28174
784.9148, 15.47363
785.3969, 15.15881
785.8790, 17.47449
786.3611, 21.17944
786.8433, 25.70789
787.3254, 29.12085
787.8075, 31.22656
788.2896, 30.11365
788.7717, 21.20947
789.2538, 0.2498780
789.7360, 8.154785
790.2181, 10.59692
790.7002, 32.38403
791.1823, 43.03748
791.6644, 41.33032
792.1465, 34.91064
792.6287, 22.81421
793.1108, 11.35107
793.5929, 8.535400
794.0750, 11.76306
794.5571, 13.22607
795.0392, 14.75525
795.5214, 30.26099
796.0035, 34.01001
796.4856, 9.176147
796.9677, 8.505981
797.4498, 1.878296
797.9319, 5.878784
798.4141, 20.09155
798.8962, 16.38184
799.3783, 9.035889
799.8604, 9.741821
800.3425, 21.75623
800.8246, 9.279297
801.3068, 4.364624
801.7889, 23.94507
802.2710, 29.99658
802.7531, 14.81616
803.2352, 27.69788
803.7173, 9.580811
804.1995, 3.001343
804.6816, 22.53357
805.1637, 8.445679
805.6458, 21.41345
806.1279, 24.20056
806.6100, 20.14221
807.0922, 17.49817
807.5743, 19.63049
808.0564, 14.64197
808.5385, 20.14246
809.0206, 9.123657
809.5027, 3.657349
809.9849, 3.965210
810.4670, 2.531006
810.9491, 4.351196
811.4312, 23.53088
811.9133, 38.67310
812.3954, 44.38293
812.8776, 43.77832
813.3597, 40.77393
813.8418, 35.41675
814.3239, 25.97681
814.8060, 8.645386
815.2881, 5.653076
815.7703, 6.530762
816.2524, 37.93140
816.7345, 59.35510
817.2166, 60.61499
817.6987, 55.91223
818.1808, 59.67651
818.6630, 64.16302
819.1451, 58.60663
819.6272, 22.68646
820.1093, 0.9042970
820.5914, 2.255005
821.0735, 16.02014
821.5557, 27.48816
822.0378, 36.79120
822.5199, 43.35858
823.0020, 46.95282
823.4841, 48.58142
823.9662, 50.99420
824.4484, 52.73779
824.9305, 49.50763
825.4126, 34.90912
825.8947, 23.13934
826.3768, 24.05035
826.8589, 31.60486
827.3411, 36.29266
827.8232, 36.52081
828.3053, 35.40106
828.7874, 32.37982
829.2695, 29.16418
829.7516, 29.39209
830.2338, 32.52966
830.7159, 32.85376
831.1980, 27.82916
831.6801, 22.98175
832.1622, 25.72656
832.6443, 32.70605
833.1265, 37.48358
833.6086, 36.87927
834.0907, 36.36212
834.5728, 36.20386
835.0549, 37.22168
835.5370, 41.10620
836.0192, 48.99573
836.5013, 55.44611
836.9834, 60.44879
837.4655, 61.78662
837.9476, 55.66559
838.4297, 44.14148
838.9119, 30.26300
839.3940, 10.23950
839.8761, 1.952332
840.3582, 12.48889
840.8403, 36.80573
841.3224, 48.07336
841.8046, 33.96985
842.2867, 18.81805
842.7688, 1.561279
843.2509, 17.12518
843.7330, 7.919922
844.2151, 24.63507
844.6973, 42.65759
845.1794, 36.18231
845.6615, 24.29358
846.1436, 28.83563
846.6257, 41.90118
847.1078, 51.99548
847.5900, 56.43768
848.0721, 56.48755
848.5542, 47.74304
849.0363, 36.86194
849.5184, 31.55731
850.0005, 35.15619
850.4827, 28.91229
850.9648, 7.484802
851.4469, 12.37073
851.9290, 2.473328
852.4111, 24.33087
852.8932, 37.80206
853.3754, 28.62640
853.8575, 16.44446
854.3396, 9.325684
854.8217, 8.360168
855.3038, 13.78107
855.7859, 31.42456
856.2681, 43.63110
856.7502, 47.48828
857.2323, 49.26263
857.7144, 53.71851
858.1965, 59.95074
858.6786, 56.23743
859.1608, 40.58356
859.6429, 24.28925
860.1250, 15.47766
860.6071, 13.30164
861.0892, 19.29578
861.5714, 36.03101
862.0535, 47.08362
862.5356, 43.82147
863.0177, 36.62231
863.4998, 30.43878
863.9819, 24.60608
864.4641, 25.10199
864.9462, 35.97845
865.4282, 46.38782
865.9103, 46.78491
866.3925, 42.34821
866.8746, 34.93738
867.3567, 25.87946
867.8388, 20.74268
868.3209, 25.87823
868.8030, 33.53223
869.2852, 39.55188
869.7673, 44.13275
870.2494, 41.86041
870.7315, 30.41632
871.2136, 18.61444
871.6957, 11.40588
872.1779, 8.570862
872.6600, 13.31897
873.1421, 22.88818
873.6242, 29.73096
874.1063, 23.40552
874.5884, 13.59515
875.0706, 5.268311
875.5527, 0.9861450
876.0348, 0.2923580
876.5169, 11.70270
876.9990, 23.76135
877.4811, 32.65729
877.9633, 38.03839
878.4454, 40.36694
878.9275, 39.74750
879.4096, 34.95679
879.8917, 18.68872
880.3738, 3.061218
880.8560, 2.991211
881.3381, 14.22119
881.8202, 23.32367
882.3023, 21.74805
882.7844, 24.04474
883.2665, 34.00269
883.7487, 47.53955
884.2308, 56.34131
884.7129, 60.40216
885.1950, 59.25629
885.6771, 51.31952
886.1592, 40.55853
886.6414, 27.96143
887.1235, 17.54840
887.6056, 17.74213
888.0877, 52.74115
888.5698, 73.96082
889.0519, 52.54413
889.5341, 15.48273
890.0162, 2.260315
890.4983, 18.25439
890.9804, 37.70685
891.4625, 59.57556
891.9446, 77.49750
892.4268, 80.37604
892.9089, 72.51221
893.3910, 62.44110
893.8731, 50.46149
894.3552, 42.61951
894.8373, 44.61267
895.3195, 50.93036
895.8016, 56.48132
896.2837, 62.50970
896.7658, 63.65582
897.2479, 59.19977
897.7300, 50.66736
898.2122, 37.75909
898.6943, 23.03748
899.1764, 18.65869
899.6585, 25.79840
900.1406, 33.52069
900.6227, 36.00171
901.1049, 33.52618
901.5870, 25.50836
902.0691, 9.953857
902.5512, 7.336487
903.0333, 25.65143
903.5154, 41.57129
903.9976, 39.10522
904.4797, 23.08130
904.9618, 22.37170
905.4439, 35.64429
905.9260, 48.85321
906.4081, 54.42450
906.8903, 55.26111
907.3724, 51.58600
907.8545, 44.38367
908.3366, 39.35614
908.8187, 38.36578
909.3008, 35.97980
909.7830, 31.52692
910.2651, 27.48810
910.7472, 32.00012
911.2293, 43.89459
911.7114, 53.04950
912.1935, 54.76550
912.6757, 52.74695
913.1578, 47.67688
913.6399, 42.06140
914.1220, 40.37549
914.6041, 52.59393
915.0862, 55.90424
915.5684, 41.76239
916.0505, 24.04510
916.5326, 28.64075
917.0147, 53.78192
917.4968, 60.62213
917.9789, 39.10803
918.4611, 13.84155
918.9432, 8.559265
919.4253, 14.88910
919.9074, 23.73480
920.3895, 36.16382
920.8716, 42.15961
921.3538, 33.74414
921.8359, 25.81805
922.3180, 29.45563
922.8001, 45.00684
923.2822, 63.55859
923.7643, 85.74304
924.2465, 99.09387
924.7286, 88.62097
925.2107, 67.75055
925.6928, 47.73883
926.1749, 30.15143
926.6570, 21.95715
927.1392, 41.37036
927.6213, 52.10480
928.1034, 37.56744
928.5855, 3.830505
929.0676, 18.30762
929.5497, 28.71320
930.0319, 20.75201
930.5140, 26.28864
930.9961, 76.47919
931.4782, 81.65417
931.9603, 56.23969
932.4424, 36.08282
932.9246, 38.75238
933.4067, 39.62427
933.8888, 32.66620
934.3709, 23.67419
934.8530, 24.18164
935.3351, 34.23224
935.8173, 35.63458
936.2994, 22.38867
936.7815, 9.286133
937.2636, 12.99652
937.7457, 26.52838
938.2278, 42.68829
938.7100, 69.16919
939.1921, 73.89868
939.6742, 29.72144
940.1563, 12.93170
940.6384, 9.797058
941.1205, 40.50214
941.6027, 62.66650
942.0848, 54.90765
942.5669, 40.21826
943.0490, 33.01410
943.5311, 28.56195
944.0132, 22.65552
944.4954, 16.28931
944.9775, 12.84638
945.4596, 12.93054
945.9417, 17.08801
946.4238, 28.11151
946.9059, 42.62964
947.3881, 44.98676
947.8701, 35.83356
948.3522, 27.93713
948.8344, 24.18781
949.3165, 26.25098
949.7986, 44.39380
950.2807, 68.39514
950.7628, 78.06799
951.2449, 48.19318
951.7271, 32.98987
952.2092, 44.71802
952.6913, 63.77887
953.1734, 58.50415
953.6555, 32.45099
954.1376, 21.33246
954.6198, 32.26251
955.1019, 45.50702
955.5840, 41.14819
956.0661, 32.65619
956.5482, 34.35883
957.0303, 52.14215
957.5125, 63.16034
957.9946, 66.09454
958.4767, 62.83905
958.9588, 51.80597
959.4409, 35.48041
959.9230, 28.74878
960.4052, 30.81232
960.8873, 33.76678
961.3694, 31.34479
961.8515, 28.99677
962.3336, 30.84521
962.8157, 36.02808
963.2979, 40.58893
963.7800, 45.01489
964.2621, 46.84698
964.7442, 45.00397
965.2263, 41.11115
965.7084, 35.80945
966.1906, 30.95593
966.6727, 33.70306
967.1548, 50.93353
967.6369, 63.60480
968.1190, 54.61139
968.6011, 39.40533
969.0833, 34.52362
969.5654, 44.33856
970.0475, 52.97009
970.5296, 61.41205
971.0117, 64.73212
971.4938, 51.90759
971.9760, 33.02008
972.4581, 32.76556
972.9402, 50.51923
973.4223, 61.67236
973.9044, 43.68890
974.3865, 26.91492
974.8687, 28.87231
975.3508, 44.28729
975.8329, 19.83337
976.3150, 47.96149
976.7971, 63.60590
977.2792, 67.52582
977.7614, 24.45056
978.2435, 42.12323
978.7256, 35.45752
979.2077, 27.79248
979.6898, 54.00726
980.1719, 17.78680
980.6541, 43.46887
981.1362, 44.43970
981.6183, 56.71912
982.1004, 44.51025
982.5825, 39.86389
983.0646, 59.71448
983.5468, 66.00079
984.0289, 50.97205
984.5110, 63.95215
984.9931, 26.87390
985.4752, 33.73730
985.9573, 59.55963
986.4395, 45.61810
986.9216, 57.65369
987.4037, 58.66351
987.8858, 13.02386
988.3679, 50.94659
988.8500, 53.40466
989.3322, 19.44916
989.8143, 54.56299
990.2964, 25.62866
990.7785, 19.55725
991.2606, 30.69366
991.7427, 23.89807
992.2249, 45.38068
992.7070, 39.62268
993.1891, 36.48706
993.6712, 46.25470
994.1533, 46.88782
994.6354, 40.97406
995.1176, 31.99194
995.5997, 19.98138
996.0818, 15.81219
996.5639, 35.26923
997.0460, 54.18036
997.5281, 59.86304
998.0103, 52.03595
998.4924, 36.28058
998.9745, 12.21954
999.4566, 8.992126
999.9387, 24.58606
1000.421, 31.64032
1000.903, 20.19208
1001.385, 1.947998
1001.867, 17.70288
1002.349, 12.24878
1002.831, 13.77838
1003.314, 30.49841
1003.796, 49.65021
1004.278, 56.46191
1004.760, 51.51721
1005.242, 38.04694
1005.724, 15.70654
1006.206, 1.837646
1006.688, 0.1564330
1007.170, 9.381287
1007.653, 17.49707
1008.135, 23.59265
1008.617, 25.12415
1009.099, 19.20154
1009.581, 16.53577
1010.063, 23.36188
1010.545, 34.56311
1011.027, 37.65320
1011.510, 35.01111
1011.992, 33.72803
1012.474, 38.40601
1012.956, 42.77588
1013.438, 49.12274
1013.920, 51.83301
1014.402, 38.51056
1014.884, 4.145752
1015.366, 6.522827
1015.849, 11.84143
1016.331, 37.27441
1016.813, 54.31842
1017.295, 63.60352
1017.777, 63.90417
1018.259, 55.46753
1018.741, 46.69507
1019.223, 37.61340
1019.706, 30.62378
1020.188, 25.24817
1020.670, 23.34387
1021.152, 37.45044
1021.634, 62.70398
1022.116, 71.80048
1022.598, 43.66614
1023.080, 16.81860
1023.562, 18.28204
1024.045, 35.29547
1024.527, 52.79395
1025.009, 75.73450
1025.491, 79.30688
1025.973, 58.80853
1026.455, 37.28412
1026.937, 38.11273
1027.419, 50.49548
1027.901, 55.51733
1028.384, 52.90436
1028.866, 49.09467
1029.348, 44.97357
1029.830, 42.26581
1030.312, 42.75983
1030.794, 45.45496
1031.276, 49.26288
1031.758, 53.76807
1032.240, 49.18561
1032.723, 28.26721
1033.205, 11.76807
1033.687, 24.02075
1034.169, 48.26965
1034.651, 66.47333
1035.133, 76.78497
1035.615, 78.26886
1036.097, 68.20807
1036.580, 57.09424
1037.062, 24.09631
1037.544, 51.78052
1038.026, 67.02393
1038.508, 70.49622
1038.990, 26.94019
1039.472, 44.11670
1039.954, 36.95618
1040.437, 28.79797
1040.919, 54.52661
1041.401, 17.81653
1041.883, 43.01489
1042.365, 43.50464
1042.847, 55.30432
1043.329, 42.61731
1043.811, 37.49414
1044.293, 56.86975
1044.776, 62.68762
1045.258, 47.20020
1045.740, 59.74768
1046.222, 22.22119
1046.704, 59.17664
1047.186, 55.98157
1047.668, 39.35925
1048.150, 39.05005
1048.632, 50.21289
1049.115, 57.82886
1049.597, 54.15088
1050.079, 47.60583
1050.561, 36.21484
1051.043, 26.53833
1051.525, 26.78589
1052.007, 37.67871
1052.489, 46.91199
1052.972, 53.71436
1053.454, 60.83276
1053.936, 79.25427
1054.418, 92.49268
1054.900, 76.54993
1055.382, 35.18250
1055.864, 15.23047
1056.346, 27.93042
1056.828, 42.99561
1057.311, 55.20520
1057.793, 60.09644
1058.275, 42.64929
1058.757, 14.77747
1059.239, 6.317017
1059.721, 30.85278
1060.203, 51.14294
1060.685, 44.59546
1061.167, 36.01807
1061.650, 42.62720
1062.132, 64.14832
1062.614, 81.05664
1063.096, 93.31128
1063.578, 96.07275
1064.060, 79.98230
1064.542, 59.11694
1065.024, 40.61694
1065.507, 26.30261
1065.989, 21.70862
1066.471, 30.43872
1066.953, 38.78076
1067.435, 45.85010
1067.917, 51.21155
1068.399, 56.46436
1068.881, 58.97021
1069.364, 52.68896
1069.846, 37.01892
1070.328, 20.17896
1070.810, 3.813965
1071.292, 17.47174
1071.774, 12.42322
1072.256, 5.960327
1072.738, 22.54590
1073.220, 36.50476
1073.703, 41.98242
1074.185, 34.52795
1074.667, 23.75964
1075.149, 10.88025
1075.631, 1.681030
1076.113, 4.549683
1076.595, 24.14734
1077.077, 29.90710
1077.559, 19.88879
1078.042, 9.641479
1078.524, 11.99512
1079.006, 18.85986
1079.488, 15.78186
1079.970, 7.567017
1080.452, 9.240479
1080.934, 37.74524
1081.416, 57.28162
1081.898, 64.39575
1082.381, 62.39490
1082.863, 49.49194
1083.345, 31.15967
1083.827, 30.03943
1084.309, 48.75208
1084.791, 60.02734
1085.273, 41.51599
1085.755, 18.34888
1086.238, 0.9671630
1086.720, 13.93298
1087.202, 3.431152
1087.684, 30.00232
1088.166, 48.49182
1088.648, 33.29883
1089.130, 15.01099
1089.612, 28.87915
1090.094, 52.55249
1090.577, 58.69568
1091.059, 38.73364
1091.541, 20.78113
1092.023, 2.529419
1092.505, 6.077515
1092.987, 8.701294
1093.469, 33.23462
1093.951, 43.86450
1094.433, 43.56213
1094.916, 41.03113
1095.398, 34.22449
1095.880, 33.53430
1096.362, 44.54016
1096.844, 55.34521
1097.326, 48.51099
1097.808, 29.55237
1098.290, 25.36914
1098.773, 37.86121
1099.255, 49.50891
1099.737, 42.68140
1100.219, 35.30261
1100.701, 38.98718
1101.183, 48.55408
1101.665, 46.36047
1102.147, 32.02295
1102.630, 21.45703
1103.112, 18.25208
1103.594, 21.02649
1104.076, 32.20398
1104.558, 46.37366
1105.040, 59.25964
1105.522, 71.53162
1106.004, 71.71472
1106.486, 56.16602
1106.969, 42.53040
1107.451, 40.28369
1107.933, 44.40320
1108.415, 48.78882
1108.897, 53.60803
1109.379, 56.58130
1109.861, 51.97290
1110.343, 54.34534
1110.825, 71.02173
1111.308, 83.80823
1111.790, 70.09131
1112.272, 39.29333
1112.754, 27.63403
1113.236, 33.97009
1113.718, 39.91858
1114.200, 37.49524
1114.682, 30.04077
1115.165, 12.19360
1115.647, 5.498901
1116.129, 0.6160890
1116.611, 25.21448
1117.093, 38.99878
1117.575, 35.26367
1118.057, 30.84644
1118.539, 43.96069
1119.021, 57.39197
1119.504, 55.27686
1119.986, 39.84827
1120.468, 31.96057
1120.950, 33.22961
1121.432, 29.89124
1121.914, 15.57263
1122.396, 2.026001
1122.878, 4.955811
1123.360, 15.51086
1123.843, 20.69434
1124.325, 14.83655
1124.807, 16.64331
1125.289, 28.40771
1125.771, 42.06604
1126.253, 56.83618
1126.735, 67.67285
1127.217, 58.00745
1127.700, 36.31909
1128.182, 23.54468
1128.664, 39.54236
1129.146, 45.83862
1129.628, 35.14014
1130.110, 22.03711
1130.592, 19.17810
1131.074, 24.69849
1131.557, 33.62988
1132.039, 44.77356
1132.521, 50.13403
1133.003, 42.00464
1133.485, 31.54114
1133.967, 18.59167
1134.449, 8.878906
1134.931, 15.34033
1135.413, 36.45337
1135.896, 49.95337
1136.378, 53.20605
1136.860, 47.33496
1137.342, 19.51770
1137.824, 4.974487
1138.306, 5.650635
1138.788, 12.90125
1139.270, 35.81689
1139.752, 64.14136
1140.235, 75.43384
1140.717, 60.31995
1141.199, 37.06238
1141.681, 16.59241
1142.163, 2.798218
1142.645, 2.368286
1143.127, 18.07385
1143.609, 30.20813
1144.092, 38.92383
1144.574, 43.77295
1145.056, 47.03320
1145.538, 45.86560
1146.020, 30.48560
1146.502, 9.910522
1146.984, 0.7170410
1147.466, 17.62659
1147.948, 22.70740
1148.431, 10.69714
1148.913, 1.078613
1149.395, 2.240601
1149.877, 14.03906
1150.359, 19.70117
1150.841, 20.72937
1151.323, 21.07520
1151.805, 25.10815
1152.287, 23.43774
1152.770, 11.60071
1153.252, 0.8449710
1153.734, 3.754639
1154.216, 1.549683
1154.698, 15.12146
1155.180, 34.93835
1155.662, 42.22693
1156.144, 3.937622
1156.626, 17.46570
1157.109, 6.136719
1157.591, 48.26099
1158.073, 57.27356
1158.555, 39.75378
1159.037, 31.15930
1159.519, 36.99768
1160.001, 44.49097
1160.483, 48.40820
1160.966, 48.89380
1161.448, 45.65845
1161.930, 39.47156
1162.412, 30.25720
1162.894, 18.74341
1163.376, 17.23340
1163.858, 32.66699
1164.340, 44.46143
1164.823, 33.72754
1165.305, 15.29224
1165.787, 1.586426
1166.269, 16.21509
1166.751, 12.99890
1167.233, 8.337158
1167.715, 26.95618
1168.197, 34.88000
1168.679, 35.61475
1169.161, 28.90051
1169.644, 18.69690
1170.126, 9.078491
1170.608, 1.071899
1171.090, 2.821411
1171.572, 4.383667
1172.054, 14.69373
1172.536, 26.10168
1173.018, 37.16760
1173.501, 49.94727
1173.983, 60.61597
1174.465, 58.64502
1174.947, 33.94751
1175.429, 24.67700
1175.911, 34.15784
1176.393, 47.61218
1176.875, 57.47021
1177.358, 61.27222
1177.840, 53.23242
1178.322, 36.12207
1178.804, 18.88013
1179.286, 3.695435
1179.768, 9.932617
1180.250, 5.963379
1180.732, 26.07361
1181.214, 34.73328
1181.697, 35.06763
1182.179, 25.95825
1182.661, 10.27393
1183.143, 10.24878
1183.625, 44.68481
1184.107, 62.98535
1184.589, 52.49512
1185.071, 31.24084
1185.553, 20.34583
1186.036, 17.97314
1186.518, 24.78735
1187.000, 40.90857
1187.482, 50.01501
1187.964, 46.67468
1188.446, 40.15027
1188.928, 31.62695
1189.410, 23.40491
1189.893, 19.66003
1190.375, 18.89160
1190.857, 19.82947
1191.339, 23.10901
1191.821, 25.48352
1192.303, 27.57080
1192.785, 26.25879
1193.267, 18.60547
1193.750, 8.840454
1194.232, 9.186768
1194.714, 15.48523
1195.196, 16.10938
1195.678, 3.246216
1196.160, 1.490845
1196.642, 28.51526
1197.124, 50.24854
1197.606, 44.67603
1198.089, 22.90662
1198.571, 22.27246
1199.053, 37.32214
1199.535, 49.30408
1200.017, 50.36365
1200.499, 48.44141
1200.981, 38.48010
1201.463, 30.53857
1201.945, 35.05835
1202.428, 46.84851
1202.910, 41.93555
1203.392, 25.29419
1203.874, 15.04871
1204.356, 28.97559
1204.838, 32.27698
1205.320, 18.66858
1205.802, 3.932983
1206.285, 7.108276
1206.767, 22.88928
1207.249, 29.59912
1207.731, 29.82971
1208.213, 32.67371
1208.695, 45.68054
1209.177, 58.65918
1209.659, 74.92871
1210.141, 83.02136
1210.624, 59.97485
1211.106, 16.93054
1211.588, 3.604248
1212.070, 21.27258
1212.552, 39.69592
1213.034, 46.00244
1213.516, 49.22412
1213.998, 52.64233
1214.480, 53.05396
1214.963, 41.97693
1215.445, 24.22083
1215.927, 20.24426
1216.409, 30.43994
1216.891, 36.25952
1217.373, 18.60559
1217.855, 9.444702
1218.337, 20.22119
1218.820, 39.90747
1219.302, 53.92285
1219.784, 61.16614
1220.266, 53.89746
1220.748, 31.05115
1221.230, 14.97498
1221.712, 17.39282
1222.194, 27.82727
1222.677, 48.89478
1223.159, 68.62830
1223.641, 55.76294
1224.123, 23.73438
1224.605, 11.65356
1225.087, 27.51111
1225.569, 40.88965
1226.051, 39.20740
1226.533, 33.07678
1227.016, 23.68848
1227.498, 13.97424
1227.980, 11.17615
1228.462, 13.41272
1228.944, 16.64172
1229.426, 19.97644
1229.908, 25.45947
1230.390, 40.31494
1230.872, 46.90259
1231.355, 34.79968
1231.837, 15.03528
1232.319, 13.03809
1232.801, 22.99475
1233.283, 31.58044
1233.765, 34.58691
1234.247, 42.96655
1234.729, 65.56396
1235.212, 80.87781
1235.694, 79.36353
1236.176, 65.30029
1236.658, 37.25867
1237.140, 5.959473
1237.622, 3.826294
1238.104, 23.72546
1238.586, 39.44238
1239.068, 34.17285
1239.551, 26.34033
1240.033, 22.23621
1240.515, 9.992676
1240.997, 7.407349
1241.479, 2.914917
1241.961, 1.312988
1242.443, 0.0000000E+00
##END=



