##NAMES=Vistepite
##RRUFFID=R070712
##IDEAL CHEMISTRY=Mn_4_SnB_2_O_2_(Si_2_O_7_)_2_(OH)_2_
##LOCALITY=Rhodonite occurrence, Muzeinyi Valley, Inyl'chek Range, Issyk-Kul'skaya Oblast, Kyrgyzstan
##OWNER=RRUFF
##SOURCE=Michael Scott
##DESCRIPTION=Yellow gemmy fragments associated with rhodonite. Portion of type sample.
##STATUS=The identification of this mineral has been confirmed by single-crystal X-ray diffraction.
##URL=rruff.info/R070712
154.7179, 0.0000000E+00
155.2001, 9.2772998E-02
155.6822, 1.471191
156.1643, 15.52246
156.6464, 36.79053
157.1285, 69.01465
157.6106, 94.87891
158.0928, 93.60889
158.5749, 87.57861
159.0570, 109.3301
159.5391, 179.0513
160.0212, 291.5312
160.5033, 394.4180
160.9855, 486.7305
161.4676, 572.1230
161.9497, 649.6060
162.4318, 724.2031
162.9139, 799.3760
163.3960, 885.1484
163.8782, 978.7246
164.3603, 1033.028
164.8424, 1035.635
165.3245, 1013.722
165.8066, 981.4424
166.2887, 940.4609
166.7709, 890.8740
167.2530, 828.7290
167.7351, 756.9111
168.2172, 698.0747
168.6993, 639.9399
169.1814, 609.8896
169.6636, 646.5654
170.1457, 726.9683
170.6278, 774.8057
171.1099, 742.8174
171.5920, 661.1406
172.0741, 601.3286
172.5563, 620.2012
173.0384, 703.4175
173.5205, 755.1362
174.0026, 750.2568
174.4847, 716.5884
174.9668, 678.4707
175.4490, 635.7939
175.9311, 590.7012
176.4132, 546.8770
176.8953, 503.9287
177.3774, 454.4731
177.8595, 386.6377
178.3417, 320.0356
178.8238, 269.0923
179.3059, 234.6816
179.7880, 205.1196
180.2701, 163.9175
180.7522, 103.9077
181.2344, 62.22607
181.7165, 65.41602
182.1986, 74.73584
182.6807, 63.91650
183.1628, 26.32422
183.6449, 21.44238
184.1271, 53.04053
184.6092, 68.44971
185.0913, 64.61768
185.5734, 20.68066
186.0555, 28.42627
186.5376, 49.85840
187.0198, 30.41602
187.5019, 13.89795
187.9840, 42.16797
188.4661, 50.27246
188.9482, 44.04932
189.4303, 8.881348
189.9125, 35.10107
190.3946, 62.60449
190.8767, 60.24805
191.3588, 35.71484
191.8409, 25.25586
192.3230, 42.18896
192.8052, 58.38916
193.2873, 68.58008
193.7694, 74.75342
194.2515, 80.36377
194.7336, 87.14941
195.2157, 95.33057
195.6979, 108.0430
196.1800, 128.3062
196.6621, 148.7827
197.1442, 162.5010
197.6263, 173.1846
198.1084, 192.9556
198.5906, 232.4648
199.0727, 289.7183
199.5548, 335.9146
200.0369, 362.3638
200.5190, 385.9639
201.0011, 417.1797
201.4833, 455.7603
201.9654, 494.0757
202.4475, 525.1753
202.9296, 550.4014
203.4117, 582.7041
203.8938, 631.5552
204.3760, 682.0923
204.8581, 720.9062
205.3402, 747.1714
205.8223, 767.4902
206.3044, 787.9438
206.7865, 806.7705
207.2687, 816.6157
207.7508, 808.5845
208.2329, 793.6133
208.7150, 785.2358
209.1971, 784.0483
209.6792, 789.8857
210.1614, 806.5288
210.6435, 830.3716
211.1256, 853.9087
211.6077, 876.7764
212.0898, 897.2061
212.5719, 910.8843
213.0541, 909.1553
213.5362, 911.7769
214.0183, 936.3975
214.5004, 975.6475
214.9825, 1011.738
215.4646, 1033.768
215.9468, 1044.518
216.4289, 1054.812
216.9110, 1064.066
217.3931, 1074.272
217.8752, 1087.205
218.3573, 1102.059
218.8395, 1116.403
219.3216, 1130.721
219.8037, 1144.475
220.2858, 1150.795
220.7679, 1150.695
221.2500, 1140.451
221.7322, 1111.860
222.2143, 1070.621
222.6964, 1033.411
223.1785, 1018.664
223.6606, 1028.028
224.1427, 1022.437
224.6249, 985.9756
225.1070, 947.3472
225.5891, 915.8496
226.0712, 891.7842
226.5533, 872.0479
227.0354, 854.0024
227.5176, 837.5879
227.9997, 822.8325
228.4818, 815.3203
228.9639, 804.9312
229.4460, 782.2759
229.9281, 750.8604
230.4103, 724.0605
230.8924, 717.9863
231.3745, 739.3071
231.8566, 751.0703
232.3387, 751.4790
232.8208, 744.8257
233.3030, 726.1353
233.7851, 699.3350
234.2672, 677.9951
234.7493, 679.5737
235.2314, 715.0029
235.7135, 733.4268
236.1957, 725.1719
236.6778, 711.2388
237.1599, 700.3682
237.6420, 694.4194
238.1241, 691.8896
238.6062, 690.5146
239.0884, 687.3955
239.5705, 697.1338
240.0526, 732.1646
240.5347, 768.0728
241.0168, 785.4546
241.4989, 783.0029
241.9811, 778.5054
242.4632, 794.1001
242.9453, 840.6387
243.4274, 881.4004
243.9095, 905.4609
244.3916, 930.3335
244.8738, 973.3296
245.3559, 1032.225
245.8380, 1088.482
246.3201, 1120.902
246.8022, 1121.631
247.2843, 1126.293
247.7665, 1132.419
248.2486, 1143.338
248.7307, 1167.157
249.2128, 1200.325
249.6949, 1224.763
250.1770, 1221.829
250.6592, 1184.219
251.1413, 1136.725
251.6234, 1066.666
252.1055, 995.9683
252.5876, 945.0063
253.0697, 915.0381
253.5519, 886.1987
254.0340, 837.0366
254.5161, 761.7134
254.9982, 684.6709
255.4803, 590.2358
255.9624, 504.5322
256.4445, 455.1860
256.9267, 443.8281
257.4088, 440.1870
257.8909, 410.8003
258.3730, 346.7837
258.8551, 304.8452
259.3372, 309.4077
259.8194, 320.4375
260.3015, 299.8765
260.7836, 244.9038
261.2657, 188.0625
261.7478, 161.8369
262.2299, 172.1914
262.7121, 178.2832
263.1942, 175.1416
263.6763, 170.5605
264.1584, 172.8413
264.6405, 182.3247
265.1227, 189.3667
265.6048, 182.0615
266.0869, 159.3159
266.5690, 152.5371
267.0511, 175.3628
267.5332, 205.6660
268.0154, 226.8340
268.4975, 237.4785
268.9796, 241.5979
269.4617, 238.7568
269.9438, 229.9204
270.4259, 234.6802
270.9081, 269.4348
271.3902, 306.7947
271.8723, 323.2053
272.3544, 318.3503
272.8365, 309.6094
273.3186, 309.1162
273.8008, 316.7578
274.2829, 324.4253
274.7650, 328.0479
275.2471, 334.6265
275.7292, 356.0620
276.2113, 390.4309
276.6935, 413.5757
277.1756, 403.5298
277.6577, 366.0510
278.1398, 346.6033
278.6219, 353.8362
279.1040, 372.0342
279.5862, 390.3867
280.0683, 409.4873
280.5504, 436.6111
281.0325, 480.8035
281.5146, 535.7832
281.9967, 575.8242
282.4789, 594.8701
282.9610, 605.1213
283.4431, 613.9917
283.9252, 620.7251
284.4073, 620.8599
284.8894, 611.3022
285.3716, 593.2383
285.8537, 572.6919
286.3358, 551.1880
286.8179, 525.5784
287.3000, 494.3416
287.7821, 457.5615
288.2643, 414.8359
288.7464, 361.8943
289.2285, 305.9282
289.7106, 264.7793
290.1927, 245.8806
290.6748, 227.0657
291.1570, 196.6455
291.6391, 157.7385
292.1212, 119.2449
292.6033, 83.09009
293.0854, 51.44946
293.5675, 28.38403
294.0497, 13.52759
294.5318, 4.961426
295.0139, 7.415771
295.4960, 15.55176
295.9781, 16.28467
296.4602, 4.027588
296.9424, 14.41724
297.4245, 27.65723
297.9066, 35.92871
298.3887, 41.23364
298.8708, 43.94995
299.3529, 44.16406
299.8351, 41.52515
300.3172, 35.53174
300.7993, 28.16089
301.2814, 22.41919
301.7635, 18.67114
302.2456, 13.53638
302.7278, 2.997559
303.2099, 8.170410
303.6920, 13.64893
304.1741, 12.16553
304.6562, 5.228027
305.1383, 9.951172
305.6205, 34.57007
306.1026, 44.79736
306.5847, 28.13086
307.0668, 0.5749510
307.5489, 24.08398
308.0310, 44.09131
308.5132, 57.59888
308.9953, 59.91626
309.4774, 50.67554
309.9595, 50.66260
310.4416, 74.15918
310.9237, 97.66528
311.4059, 98.39429
311.8880, 77.22705
312.3701, 56.07910
312.8522, 50.00708
313.3343, 59.84863
313.8164, 76.99023
314.2986, 115.5083
314.7807, 148.4597
315.2628, 153.5046
315.7449, 136.6960
316.2270, 124.7417
316.7091, 134.4436
317.1913, 162.7275
317.6734, 189.7292
318.1555, 218.0667
318.6376, 242.7463
319.1197, 259.2310
319.6018, 270.5852
320.0840, 285.6216
320.5661, 310.0764
321.0482, 338.2722
321.5303, 349.5728
322.0124, 325.6113
322.4945, 312.4004
322.9767, 326.6282
323.4588, 355.7922
323.9409, 381.8540
324.4230, 398.1106
324.9051, 408.2693
325.3872, 419.7583
325.8694, 433.8257
326.3515, 446.9417
326.8336, 455.3389
327.3157, 464.2495
327.7978, 479.3638
328.2799, 502.0449
328.7621, 529.5779
329.2442, 559.3892
329.7263, 595.0754
330.2084, 622.4766
330.6905, 636.7590
331.1726, 646.6289
331.6548, 658.0276
332.1369, 671.6995
332.6190, 685.2717
333.1011, 696.2495
333.5832, 704.0405
334.0653, 714.5381
334.5475, 734.0974
335.0296, 749.1443
335.5117, 752.1772
335.9938, 744.9355
336.4759, 734.0430
336.9580, 724.3037
337.4402, 714.8901
337.9223, 697.9177
338.4044, 672.0562
338.8865, 642.3315
339.3686, 601.2388
339.8507, 557.8708
340.3329, 529.1001
340.8150, 525.9385
341.2971, 542.2437
341.7792, 549.9402
342.2613, 547.7229
342.7434, 535.9722
343.2256, 504.2922
343.7077, 467.5781
344.1898, 441.2908
344.6719, 431.5046
345.1540, 433.8235
345.6361, 441.6252
346.1183, 464.5508
346.6004, 475.2773
347.0825, 464.6943
347.5646, 448.0518
348.0467, 432.4546
348.5288, 420.3765
349.0110, 415.1157
349.4931, 426.6060
349.9752, 463.6707
350.4573, 484.9121
350.9394, 474.5864
351.4215, 460.5034
351.9037, 452.5562
352.3858, 451.0439
352.8679, 454.7703
353.3500, 465.7351
353.8321, 483.3323
354.3142, 486.7910
354.7964, 462.0493
355.2785, 438.4419
355.7606, 427.3303
356.2427, 426.2131
356.7248, 429.7852
357.2069, 437.1914
357.6891, 446.1968
358.1712, 449.9358
358.6533, 447.3325
359.1354, 441.8550
359.6175, 430.2109
360.0996, 418.2910
360.5818, 412.1228
361.0639, 412.1191
361.5460, 421.0352
362.0281, 448.7368
362.5102, 498.7139
362.9923, 535.7837
363.4745, 536.7810
363.9566, 526.2979
364.4387, 529.0327
364.9208, 548.6284
365.4029, 572.8003
365.8850, 590.6064
366.3672, 604.6394
366.8493, 633.7583
367.3314, 695.3845
367.8135, 752.5710
368.2956, 760.0847
368.7777, 722.0938
369.2599, 690.5481
369.7420, 694.2004
370.2241, 715.7039
370.7062, 721.6660
371.1883, 704.9551
371.6704, 693.9956
372.1526, 720.8770
372.6347, 777.8616
373.1168, 819.3821
373.5989, 829.1765
374.0810, 829.4639
374.5631, 837.3960
375.0453, 852.8276
375.5274, 869.8105
376.0095, 886.0276
376.4916, 900.6050
376.9737, 910.6670
377.4558, 917.9915
377.9380, 919.5540
378.4201, 915.3149
378.9022, 904.4604
379.3843, 885.5205
379.8664, 858.1736
380.3485, 823.0386
380.8307, 780.9390
381.3128, 724.0261
381.7949, 673.4172
382.2770, 634.3818
382.7591, 599.0557
383.2412, 561.6191
383.7234, 521.4343
384.2055, 479.8691
384.6876, 437.9541
385.1697, 394.7522
385.6518, 354.4451
386.1339, 310.7593
386.6161, 275.4160
387.0982, 262.6724
387.5803, 263.7441
388.0624, 255.5808
388.5445, 219.8184
389.0266, 159.6047
389.5088, 110.2317
389.9909, 76.29639
390.4730, 49.51929
390.9551, 28.64893
391.4372, 14.15649
391.9193, 8.382568
392.4015, 12.57446
392.8836, 21.59375
393.3657, 24.18140
393.8478, 15.79395
394.3299, 12.12378
394.8120, 24.58228
395.2942, 35.72412
395.7763, 30.94897
396.2584, 9.174561
396.7405, 15.33472
397.2226, 27.72852
397.7047, 27.87402
398.1869, 30.30957
398.6690, 38.93408
399.1511, 46.25464
399.6332, 48.05859
400.1153, 45.25806
400.5974, 40.64185
401.0796, 34.88818
401.5617, 28.48047
402.0438, 21.73315
402.5259, 13.77563
403.0080, 8.830566
403.4901, 12.16870
403.9723, 19.19629
404.4544, 23.43774
404.9365, 24.77222
405.4186, 21.51709
405.9007, 7.846924
406.3828, 13.51978
406.8650, 26.95947
407.3471, 24.89917
407.8292, 14.82446
408.3113, 7.308838
408.7934, 0.8129880
409.2755, 1.935547
409.7577, 21.48853
410.2398, 46.44775
410.7219, 55.35962
411.2040, 44.37134
411.6861, 33.32422
412.1682, 44.41675
412.6504, 81.79468
413.1325, 103.1355
413.6146, 94.50513
414.0967, 83.37109
414.5788, 85.58447
415.0609, 98.63452
415.5431, 112.1213
416.0252, 119.6973
416.5073, 122.7380
416.9894, 127.8281
417.4715, 134.8865
417.9536, 144.4082
418.4358, 161.6179
418.9179, 178.9724
419.4000, 185.7688
419.8821, 179.6372
420.3642, 171.3357
420.8463, 178.8162
421.3285, 210.6472
421.8106, 234.6372
422.2927, 244.8547
422.7748, 252.7971
423.2569, 267.4321
423.7390, 285.6116
424.2212, 295.1658
424.7033, 282.4062
425.1854, 252.6738
425.6675, 240.8220
426.1496, 259.1025
426.6317, 274.7468
427.1139, 272.6270
427.5960, 261.9255
428.0781, 254.1191
428.5602, 253.3770
429.0423, 255.9875
429.5244, 260.6824
430.0066, 267.7510
430.4887, 263.3120
430.9708, 235.1619
431.4529, 201.4834
431.9350, 187.0720
432.4171, 193.5176
432.8993, 189.5083
433.3814, 147.2378
433.8635, 87.83447
434.3456, 52.30933
434.8277, 48.18213
435.3098, 50.29639
435.7920, 37.72070
436.2741, 11.35400
436.7562, 11.11206
437.2383, 29.57178
437.7204, 43.55762
438.2025, 53.66553
438.6847, 59.21338
439.1668, 56.44800
439.6489, 42.01660
440.1310, 22.34473
440.6131, 15.12012
441.0952, 34.88843
441.5774, 46.66675
442.0595, 42.67114
442.5416, 33.64258
443.0237, 30.39648
443.5058, 34.18652
443.9879, 37.55273
444.4701, 31.20459
444.9522, 12.90527
445.4343, 1.098633
445.9164, 5.826660
446.3985, 6.983398
446.8806, 4.870117
447.3628, 24.54346
447.8449, 42.11816
448.3270, 52.14258
448.8091, 56.27051
449.2912, 59.64404
449.7733, 63.61768
450.2555, 64.58594
450.7376, 56.84082
451.2197, 48.57617
451.7018, 44.91406
452.1839, 46.98828
452.6660, 55.25293
453.1482, 72.33789
453.6303, 95.64209
454.1124, 115.3472
454.5945, 131.9082
455.0766, 140.7783
455.5587, 130.7612
456.0409, 108.7720
456.5230, 95.99121
457.0051, 101.2852
457.4872, 115.1187
457.9693, 131.4546
458.4514, 149.8359
458.9336, 166.8281
459.4157, 179.7510
459.8978, 191.5830
460.3799, 210.3691
460.8620, 235.3164
461.3441, 266.0259
461.8262, 304.9058
462.3083, 348.1553
462.7905, 392.0908
463.2726, 436.1792
463.7547, 480.3389
464.2368, 522.2480
464.7189, 557.9204
465.2010, 617.7598
465.6832, 724.9658
466.1653, 828.8794
466.6474, 906.0288
467.1295, 970.4468
467.6116, 1047.162
468.0938, 1146.697
468.5759, 1264.299
469.0580, 1389.558
469.5401, 1524.893
470.0222, 1662.169
470.5043, 1798.360
470.9865, 1936.681
471.4686, 2083.701
471.9507, 2237.690
472.4328, 2386.601
472.9149, 2525.960
473.3970, 2652.958
473.8792, 2752.944
474.3613, 2817.483
474.8434, 2878.123
475.3255, 2951.190
475.8076, 3035.661
476.2897, 3131.972
476.7719, 3245.555
477.2540, 3364.163
477.7361, 3477.434
478.2182, 3588.714
478.7003, 3703.406
479.1824, 3818.712
479.6646, 3953.395
480.1467, 4141.328
480.6288, 4406.524
481.1109, 4651.736
481.5930, 4835.481
482.0751, 5025.308
482.5573, 5271.040
483.0394, 5571.019
483.5215, 5895.589
484.0036, 6223.933
484.4857, 6558.529
484.9678, 6916.504
485.4500, 7317.144
485.9321, 7716.444
486.4142, 8108.215
486.8963, 8494.679
487.3784, 8893.315
487.8605, 9302.031
488.3427, 9676.130
488.8248, 9978.453
489.3069, 10209.91
489.7890, 10331.10
490.2711, 10323.26
490.7532, 10219.00
491.2354, 10055.63
491.7175, 9822.884
492.1996, 9490.825
492.6817, 9024.669
493.1638, 8480.364
493.6459, 7900.035
494.1281, 7286.188
494.6102, 6687.986
495.0923, 6117.704
495.5744, 5579.167
496.0565, 5080.890
496.5386, 4618.563
497.0208, 4190.238
497.5029, 3799.798
497.9850, 3441.001
498.4671, 3104.325
498.9492, 2790.145
499.4313, 2509.236
499.9135, 2273.957
500.3956, 2082.996
500.8777, 1904.812
501.3598, 1736.141
501.8419, 1584.855
502.3240, 1457.216
502.8062, 1347.102
503.2883, 1247.709
503.7704, 1156.762
504.2525, 1073.033
504.7346, 992.0854
505.2167, 912.4209
505.6989, 848.8105
506.1810, 805.5879
506.6631, 775.4595
507.1452, 758.5171
507.6273, 750.9746
508.1094, 744.1313
508.5916, 730.9253
509.0737, 720.8638
509.5558, 731.8145
510.0379, 762.8135
510.5200, 786.0898
511.0021, 788.4243
511.4843, 782.8423
511.9664, 783.5327
512.4485, 786.0376
512.9306, 817.9312
513.4127, 904.0454
513.8948, 1010.600
514.3770, 1104.607
514.8591, 1185.012
515.3412, 1267.040
515.8233, 1360.426
516.3054, 1464.999
516.7875, 1576.809
517.2697, 1689.051
517.7518, 1817.555
518.2339, 1970.625
518.7160, 2137.604
519.1981, 2303.894
519.6802, 2469.746
520.1624, 2652.605
520.6445, 2879.423
521.1266, 3151.628
521.6087, 3403.818
522.0908, 3606.461
522.5729, 3832.485
523.0551, 4121.520
523.5372, 4448.893
524.0193, 4773.955
524.5014, 5083.256
524.9835, 5395.003
525.4656, 5726.257
525.9478, 6074.065
526.4299, 6434.003
526.9120, 6808.148
527.3941, 7181.452
527.8762, 7539.303
528.3583, 7881.893
528.8405, 8198.543
529.3226, 8527.757
529.8047, 8797.071
530.2868, 8959.422
530.7689, 9023.071
531.2510, 9021.175
531.7332, 8971.580
532.2153, 8860.369
532.6974, 8649.969
533.1795, 8300.344
533.6616, 7918.458
534.1437, 7505.926
534.6259, 7067.423
535.1080, 6598.485
535.5901, 6104.656
536.0722, 5606.981
536.5543, 5113.562
537.0364, 4632.300
537.5186, 4198.049
538.0007, 3816.299
538.4828, 3455.409
538.9649, 3099.987
539.4470, 2764.757
539.9291, 2466.764
540.4113, 2207.761
540.8934, 1983.778
541.3755, 1808.633
541.8576, 1662.151
542.3397, 1511.636
542.8218, 1353.872
543.3040, 1212.302
543.7861, 1106.373
544.2682, 1032.242
544.7503, 958.0278
545.2324, 859.4209
545.7145, 790.5933
546.1967, 792.0669
546.6788, 813.5767
547.1609, 798.6055
547.6430, 736.5708
548.1251, 659.0557
548.6072, 597.8008
549.0894, 552.8428
549.5715, 522.2524
550.0536, 512.0371
550.5357, 508.3145
551.0178, 505.1387
551.4999, 504.6401
551.9821, 510.3589
552.4642, 524.2070
552.9463, 540.7695
553.4284, 552.0923
553.9105, 561.3257
554.3926, 582.0342
554.8748, 618.2070
555.3569, 661.2158
555.8390, 708.6196
556.3211, 759.2656
556.8032, 787.5652
557.2853, 773.8237
557.7675, 757.8813
558.2496, 760.7212
558.7317, 773.4556
559.2138, 782.1968
559.6959, 781.6777
560.1780, 770.7090
560.6602, 745.8770
561.1423, 703.0430
561.6244, 663.4590
562.1065, 637.3906
562.5886, 604.6982
563.0707, 552.1963
563.5529, 489.0806
564.0350, 432.8518
564.5171, 393.3369
564.9992, 357.2686
565.4813, 297.7725
565.9634, 217.8606
566.4456, 171.3848
566.9277, 183.9463
567.4098, 209.0449
567.8919, 194.6604
568.3740, 145.2710
568.8561, 97.44702
569.3383, 51.45117
569.8204, 12.96069
570.3025, 12.42700
570.7846, 27.76929
571.2667, 40.13696
571.7488, 52.44629
572.2310, 63.10767
572.7131, 68.57007
573.1952, 66.16333
573.6773, 65.84180
574.1594, 71.67212
574.6415, 75.45459
575.1237, 69.08643
575.6058, 58.37891
576.0879, 56.98950
576.5700, 74.34399
577.0521, 96.51880
577.5342, 100.8342
578.0164, 87.16138
578.4985, 72.35498
578.9806, 58.81714
579.4627, 47.58618
579.9448, 43.49072
580.4269, 45.19360
580.9091, 37.26367
581.3912, 10.49927
581.8733, 21.11938
582.3554, 47.57715
582.8375, 71.20264
583.3196, 98.06299
583.8018, 130.3857
584.2839, 169.8376
584.7660, 220.9878
585.2481, 291.6465
585.7302, 351.1201
586.2123, 389.9072
586.6945, 427.9478
587.1766, 466.7444
587.6587, 512.1216
588.1408, 574.2957
588.6229, 659.2864
589.1050, 758.6274
589.5872, 862.4111
590.0693, 971.0605
590.5514, 1081.100
591.0335, 1194.957
591.5156, 1305.089
591.9977, 1398.658
592.4799, 1478.782
592.9620, 1569.962
593.4441, 1686.441
593.9262, 1803.633
594.4083, 1910.373
594.8904, 2006.727
595.3726, 2093.310
595.8547, 2170.233
596.3368, 2233.748
596.8189, 2279.824
597.3010, 2311.870
597.7831, 2310.173
598.2653, 2257.178
598.7474, 2186.494
599.2295, 2107.567
599.7116, 2018.379
600.1937, 1909.733
600.6758, 1774.144
601.1580, 1637.439
601.6401, 1525.482
602.1222, 1437.370
602.6043, 1364.667
603.0864, 1308.346
603.5685, 1253.765
604.0507, 1190.076
604.5328, 1118.303
605.0149, 1045.407
605.4970, 963.4292
605.9791, 887.9226
606.4612, 823.8018
606.9434, 771.1611
607.4255, 734.0969
607.9076, 712.2297
608.3897, 690.9883
608.8718, 650.4019
609.3539, 591.2981
609.8361, 557.6875
610.3182, 564.4573
610.8003, 573.6855
611.2824, 576.0020
611.7645, 572.7720
612.2466, 562.1055
612.7288, 542.7671
613.2109, 530.0420
613.6930, 537.6162
614.1751, 557.4453
614.6572, 575.7305
615.1393, 591.2461
615.6215, 605.4709
616.1036, 618.1887
616.5857, 631.3735
617.0678, 652.6011
617.5499, 689.7312
618.0320, 723.8818
618.5142, 751.1326
618.9963, 777.5991
619.4784, 810.8101
619.9605, 848.3232
620.4426, 878.6982
620.9247, 890.6697
621.4069, 894.8198
621.8890, 922.3320
622.3711, 977.9790
622.8532, 1029.837
623.3353, 1077.114
623.8174, 1109.438
624.2996, 1110.459
624.7817, 1082.631
625.2638, 1064.158
625.7459, 1082.458
626.2280, 1098.888
626.7101, 1085.224
627.1923, 1045.063
627.6744, 984.4121
628.1565, 904.5994
628.6386, 822.8098
629.1207, 770.2195
629.6028, 757.8950
630.0850, 730.0583
630.5671, 672.7117
631.0492, 614.8674
631.5313, 565.4443
632.0134, 520.8877
632.4955, 475.5750
632.9777, 428.0762
633.4598, 381.8420
633.9419, 334.6206
634.4240, 289.4287
634.9061, 265.7239
635.3882, 270.6702
635.8704, 271.0842
636.3525, 238.6172
636.8346, 179.3860
637.3167, 133.3457
637.7988, 97.60522
638.2809, 75.79565
638.7631, 76.21680
639.2452, 87.87842
639.7273, 102.5176
640.2094, 116.0918
640.6915, 126.2969
641.1736, 131.3623
641.6558, 131.8335
642.1379, 126.9985
642.6200, 113.3738
643.1021, 110.5686
643.5842, 133.3301
644.0663, 160.7759
644.5485, 169.0464
645.0306, 158.7339
645.5127, 150.7788
645.9948, 159.4248
646.4769, 165.3022
646.9590, 142.7861
647.4412, 105.3970
647.9233, 91.39575
648.4054, 115.8301
648.8875, 153.9617
649.3696, 168.8596
649.8517, 156.5759
650.3339, 140.3301
650.8160, 112.5518
651.2981, 90.09155
651.7802, 82.64551
652.2623, 81.97119
652.7444, 75.37061
653.2266, 58.56323
653.7087, 42.72241
654.1908, 37.73901
654.6729, 39.67456
655.1550, 41.46948
655.6371, 42.26758
656.1193, 37.79932
656.6014, 23.21338
657.0835, 2.919678
657.5656, 6.064697
658.0477, 16.82520
658.5298, 22.60303
659.0120, 7.666992
659.4941, 39.52954
659.9762, 46.94141
660.4583, 34.54736
660.9404, 24.05127
661.4225, 29.32861
661.9047, 39.73022
662.3868, 34.05054
662.8689, 13.00098
663.3510, 0.9472660
663.8331, 3.173828
664.3152, 3.858398
664.7974, 24.78760
665.2795, 57.60156
665.7616, 68.02905
666.2437, 36.39819
666.7258, 4.331543
667.2079, 14.74756
667.6901, 24.86182
668.1722, 30.74243
668.6543, 33.71191
669.1364, 32.96997
669.6185, 24.75708
670.1006, 12.38647
670.5828, 17.97681
671.0649, 47.44604
671.5470, 75.20508
672.0291, 89.51953
672.5112, 101.1533
672.9933, 124.6079
673.4755, 160.4458
673.9576, 190.2957
674.4397, 210.5693
674.9218, 221.4368
675.4039, 209.9795
675.8860, 190.3406
676.3682, 197.1089
676.8503, 243.4397
677.3324, 309.2798
677.8145, 366.7947
678.2966, 415.6353
678.7787, 458.8369
679.2609, 492.6826
679.7430, 526.0281
680.2251, 553.1104
680.7072, 585.6426
681.1893, 641.2175
681.6714, 725.1721
682.1536, 813.9741
682.6357, 891.9758
683.1178, 968.0618
683.5999, 1054.188
684.0820, 1150.313
684.5641, 1247.953
685.0463, 1342.521
685.5284, 1437.600
686.0105, 1540.692
686.4926, 1651.858
686.9747, 1770.646
687.4568, 1907.958
687.9390, 2042.681
688.4211, 2160.168
688.9032, 2269.988
689.3853, 2390.759
689.8674, 2532.105
690.3495, 2675.031
690.8317, 2815.447
691.3138, 2943.395
691.7959, 3031.969
692.2780, 3078.244
692.7601, 3112.867
693.2422, 3161.544
693.7244, 3209.550
694.2065, 3197.956
694.6886, 3095.017
695.1707, 2981.767
695.6528, 2871.181
696.1349, 2742.569
696.6171, 2572.347
697.0992, 2373.106
697.5813, 2182.361
698.0634, 2019.417
698.5455, 1865.856
699.0276, 1693.231
699.5098, 1511.581
699.9919, 1358.180
700.4740, 1241.544
700.9561, 1139.947
701.4382, 1035.489
701.9203, 930.1338
702.4025, 839.5889
702.8846, 776.1086
703.3667, 711.4360
703.8488, 631.6875
704.3309, 559.6853
704.8130, 516.8113
705.2952, 498.2874
705.7773, 479.5020
706.2594, 444.6367
706.7415, 405.9963
707.2236, 382.3635
707.7057, 371.3440
708.1879, 356.5701
708.6700, 332.5244
709.1521, 315.0679
709.6342, 322.1914
710.1163, 352.3630
710.5984, 368.8855
711.0806, 361.0396
711.5627, 354.4141
712.0448, 352.1824
712.5269, 353.0488
713.0090, 353.9790
713.4911, 356.2773
713.9733, 366.8203
714.4554, 395.2185
714.9375, 427.6597
715.4196, 439.5835
715.9017, 434.7927
716.3839, 432.9614
716.8660, 439.3411
717.3481, 444.2756
717.8302, 440.9121
718.3123, 430.6663
718.7944, 419.7878
719.2766, 407.4905
719.7587, 392.7432
720.2408, 375.0962
720.7229, 357.8269
721.2050, 341.9351
721.6871, 327.1931
722.1693, 314.3455
722.6514, 309.0649
723.1335, 301.2488
723.6156, 263.9182
724.0977, 209.0400
724.5798, 190.5608
725.0620, 226.7217
725.5441, 272.4585
726.0262, 279.8499
726.5083, 248.9436
726.9904, 238.5771
727.4725, 276.3918
727.9547, 298.1863
728.4368, 277.3955
728.9189, 248.0786
729.4010, 243.8262
729.8831, 263.0979
730.3652, 277.0798
730.8474, 263.7957
731.3295, 241.6787
731.8116, 240.8909
732.2937, 256.7222
732.7758, 262.5833
733.2579, 250.7874
733.7401, 233.5259
734.2222, 222.3804
734.7043, 217.5793
735.1864, 215.0198
735.6685, 227.7476
736.1506, 224.7854
736.6328, 181.9634
737.1149, 137.2627
737.5970, 124.8933
738.0791, 141.3931
738.5612, 156.1104
739.0433, 150.3987
739.5255, 139.5496
740.0076, 145.2512
740.4897, 159.7876
740.9718, 154.7864
741.4539, 123.8533
741.9360, 96.74194
742.4182, 101.7368
742.9003, 134.2522
743.3824, 154.7463
743.8645, 159.2832
744.3466, 158.4377
744.8287, 150.9749
745.3109, 141.0657
745.7930, 127.8662
746.2751, 114.0732
746.7572, 109.0220
747.2393, 122.9041
747.7214, 136.9285
748.2036, 135.4238
748.6857, 123.1094
749.1678, 105.3931
749.6499, 84.45557
750.1320, 69.87476
750.6141, 69.61841
751.0963, 80.92041
751.5784, 94.41113
752.0605, 115.7104
752.5426, 123.1990
753.0247, 100.2368
753.5068, 76.91479
753.9890, 74.35107
754.4711, 86.42041
754.9532, 95.93066
755.4353, 99.11035
755.9174, 99.50903
756.3995, 98.87207
756.8817, 96.69946
757.3638, 89.90405
757.8459, 80.32910
758.3280, 76.25488
758.8101, 83.35864
759.2922, 95.15430
759.7744, 95.81934
760.2565, 83.50098
760.7386, 81.53687
761.2207, 100.5906
761.7028, 113.1096
762.1849, 96.01416
762.6671, 60.96265
763.1492, 38.26050
763.6313, 32.85864
764.1134, 29.69189
764.5955, 23.81055
765.0776, 20.34692
765.5598, 26.36670
766.0419, 37.28638
766.5240, 42.01636
767.0061, 35.72412
767.4882, 27.53467
767.9703, 31.22827
768.4525, 43.95264
768.9346, 49.72876
769.4167, 47.24487
769.8988, 40.99512
770.3809, 32.03711
770.8630, 22.13794
771.3452, 14.77344
771.8273, 10.57666
772.3094, 7.223633
772.7915, 0.8278810
773.2736, 0.4582520
773.7557, 14.74194
774.2379, 33.31299
774.7200, 34.71997
775.2021, 15.05688
775.6842, 3.346924
776.1663, 3.128418
776.6484, 8.319824
777.1306, 22.75244
777.6127, 38.42090
778.0948, 49.73145
778.5769, 55.02051
779.0590, 49.05444
779.5411, 20.23462
780.0233, 32.69092
780.5054, 48.67432
780.9875, 1.958496
781.4696, 40.76636
781.9517, 39.86987
782.4338, 27.03906
782.9160, 23.50098
783.3981, 29.39941
783.8802, 34.45337
784.3623, 37.08813
784.8444, 35.84253
785.3265, 27.25366
785.8087, 15.21802
786.2908, 4.137695
786.7729, 4.333984
787.2550, 7.239014
787.7371, 0.9228520
788.2192, 10.02100
788.7014, 11.29419
789.1835, 1.702881
789.6656, 5.999023
790.1477, 9.974609
790.6298, 10.91724
791.1119, 7.257813
791.5941, 0.8095700
792.0762, 9.7411998E-02
792.5583, 8.435791
793.0404, 16.12622
793.5225, 23.95850
794.0046, 28.21948
794.4868, 23.60303
794.9689, 13.63599
795.4510, 6.106445
795.9331, 4.248291
796.4152, 5.758057
796.8973, 11.13721
797.3795, 17.46582
797.8616, 15.75488
798.3437, 5.896240
798.8258, 2.872559
799.3079, 5.806885
799.7900, 5.814209
800.2722, 8.433838
800.7543, 14.99243
801.2364, 17.89551
801.7185, 13.53125
802.2006, 10.46118
802.6827, 9.970459
803.1649, 12.75464
803.6470, 22.34180
804.1291, 38.96777
804.6112, 48.52930
805.0933, 41.79712
805.5754, 30.00586
806.0576, 16.79492
806.5397, 6.054443
807.0218, 6.306152
807.5039, 18.04590
807.9860, 30.54980
808.4681, 34.82324
808.9503, 31.99951
809.4324, 22.59204
809.9145, 5.680176
810.3966, 0.4870610
810.8787, 10.85107
811.3608, 26.78174
811.8430, 36.78516
812.3251, 41.60010
812.8072, 47.09912
813.2893, 62.13135
813.7714, 65.15283
814.2535, 42.65820
814.7357, 18.48633
815.2178, 6.126953
815.6999, 4.952148
816.1820, 11.65308
816.6641, 26.73950
817.1462, 41.45435
817.6284, 46.75269
818.1105, 48.07056
818.5926, 55.76660
819.0747, 68.89282
819.5568, 78.40039
820.0389, 79.96094
820.5211, 77.85303
821.0032, 80.66211
821.4853, 89.45264
821.9674, 81.05957
822.4495, 43.20386
822.9316, 19.63599
823.4138, 32.98022
823.8959, 63.50488
824.3780, 89.09302
824.8601, 110.0642
825.3422, 121.8464
825.8243, 118.2178
826.3065, 112.2690
826.7886, 105.9260
827.2707, 101.7861
827.7528, 102.9648
828.2349, 109.1660
828.7170, 117.0391
829.1992, 124.1758
829.6813, 132.6616
830.1633, 148.4729
830.6454, 167.9915
831.1276, 176.9065
831.6097, 173.6633
832.0918, 173.0122
832.5739, 186.1182
833.0560, 205.7795
833.5381, 210.8115
834.0203, 195.2554
834.5024, 186.9897
834.9845, 191.5715
835.4666, 196.4998
835.9487, 197.0166
836.4308, 193.4246
836.9130, 183.4377
837.3951, 163.7754
837.8772, 152.6184
838.3593, 165.5918
838.8414, 183.7461
839.3235, 192.8157
839.8057, 194.0054
840.2878, 190.4014
840.7699, 182.8752
841.2520, 171.0496
841.7341, 151.0813
842.2162, 128.8320
842.6984, 116.6016
843.1805, 114.3843
843.6626, 120.5435
844.1447, 135.0466
844.6268, 143.5017
845.1089, 132.3735
845.5911, 107.5203
846.0732, 92.17017
846.5553, 86.15161
847.0374, 90.28662
847.5195, 117.8687
848.0016, 139.7373
848.4838, 134.3176
848.9659, 113.5566
849.4480, 98.53174
849.9301, 89.23413
850.4122, 86.22583
850.8943, 96.28247
851.3765, 107.8970
851.8586, 114.7632
852.3407, 117.4463
852.8228, 116.4597
853.3049, 112.1052
853.7870, 108.6567
854.2692, 109.2698
854.7513, 111.9373
855.2334, 116.7048
855.7155, 121.8711
856.1976, 120.2861
856.6797, 109.3855
857.1619, 96.59277
857.6440, 89.56299
858.1261, 86.31714
858.6082, 73.52759
859.0903, 42.88770
859.5724, 30.37183
860.0546, 46.46484
860.5367, 72.43628
861.0188, 108.3330
861.5009, 142.4041
861.9830, 142.6426
862.4651, 84.63770
862.9473, 53.29321
863.4294, 94.98926
863.9115, 134.8877
864.3936, 120.7080
864.8757, 78.76685
865.3578, 55.06665
865.8400, 59.49365
866.3221, 70.36206
866.8042, 73.56641
867.2863, 73.66235
867.7684, 77.56079
868.2505, 83.47681
868.7327, 88.62817
869.2148, 90.52344
869.6969, 86.40210
870.1790, 73.57886
870.6611, 56.21802
871.1432, 48.18677
871.6254, 50.21265
872.1075, 51.00122
872.5896, 48.46094
873.0717, 46.17871
873.5538, 43.00635
874.0359, 41.37134
874.5181, 50.46509
875.0002, 81.06616
875.4823, 100.3284
875.9644, 101.3679
876.4465, 98.61401
876.9286, 96.29639
877.4108, 94.37817
877.8929, 92.95361
878.3750, 91.90283
878.8571, 89.25830
879.3392, 84.29248
879.8214, 77.14819
880.3035, 62.53516
880.7856, 47.89648
881.2677, 49.87622
881.7498, 67.37158
882.2319, 79.69092
882.7141, 71.31396
883.1962, 54.88208
883.6783, 54.00903
884.1604, 66.27661
884.6425, 76.87793
885.1246, 84.27563
885.6068, 88.21289
886.0889, 88.47900
886.5710, 85.33667
887.0531, 77.94165
887.5352, 63.62378
888.0173, 61.37622
888.4995, 82.57617
888.9816, 96.34888
889.4637, 86.50586
889.9458, 70.01172
890.4279, 62.13672
890.9100, 62.77612
891.3922, 67.73413
891.8743, 85.95703
892.3564, 96.02490
892.8385, 85.54419
893.3206, 68.77979
893.8027, 56.35693
894.2849, 48.85449
894.7670, 43.25854
895.2491, 37.89990
895.7312, 36.70117
896.2133, 49.27832
896.6954, 64.49097
897.1776, 64.98218
897.6597, 52.12598
898.1418, 30.92822
898.6239, 3.892334
899.1060, 15.95068
899.5881, 12.44409
900.0703, 9.677002
900.5524, 32.21265
901.0345, 55.78296
901.5166, 63.28149
901.9987, 47.15210
902.4808, 28.46069
902.9630, 25.26880
903.4451, 32.87280
903.9272, 31.40381
904.4093, 14.31348
904.8914, 1.846436
905.3735, 2.777100
905.8557, 5.844971
906.3378, 12.04175
906.8199, 17.32935
907.3020, 14.36572
907.7841, 1.442383
908.2662, 7.870850
908.7484, 6.798828
909.2305, 5.571045
909.7126, 14.04663
910.1947, 22.05957
910.6768, 13.49219
911.1589, 8.943359
911.6411, 25.70801
912.1232, 26.96802
912.6053, 17.29468
913.0874, 7.699951
913.5695, 36.44678
914.0516, 47.24219
914.5338, 40.85815
915.0159, 31.22803
915.4980, 24.82935
915.9801, 18.12305
916.4622, 4.471191
916.9443, 14.29883
917.4265, 26.39111
917.9086, 31.61401
918.3907, 30.34351
918.8728, 21.15308
919.3549, 11.84082
919.8370, 10.99390
920.3192, 16.46875
920.8013, 12.81445
921.2834, 8.920654
921.7655, 17.67065
922.2476, 1.930908
922.7297, 18.57544
923.2119, 11.49097
923.6940, 8.741455
924.1761, 26.82837
924.6582, 45.63477
925.1403, 47.43750
925.6224, 10.03564
926.1046, 21.56250
926.5867, 23.21118
927.0688, 12.28247
927.5509, 9.034668
928.0330, 14.14062
928.5151, 14.25513
928.9973, 3.481445
929.4794, 16.52100
929.9615, 0.3840330
930.4436, 25.88477
930.9257, 33.24072
931.4078, 23.21875
931.8900, 5.627686
932.3721, 15.25977
932.8542, 31.03296
933.3363, 27.70117
933.8184, 13.35864
934.3005, 7.465576
934.7827, 10.16992
935.2648, 23.87207
935.7469, 49.25000
936.2290, 70.06909
936.7111, 71.04102
937.1932, 57.34229
937.6754, 45.75391
938.1575, 35.76514
938.6396, 32.43018
939.1217, 36.33374
939.6038, 47.65918
940.0859, 70.23364
940.5681, 95.90137
941.0502, 109.6284
941.5323, 109.8247
942.0144, 106.1501
942.4965, 88.05933
942.9786, 81.32202
943.4608, 104.0884
943.9429, 129.5825
944.4250, 130.5193
944.9071, 113.8813
945.3892, 113.5635
945.8713, 145.9282
946.3535, 175.0603
946.8356, 196.7068
947.3177, 207.2737
947.7998, 191.5244
948.2819, 167.8489
948.7640, 167.8003
949.2462, 198.4580
949.7283, 236.0076
950.2104, 276.0088
950.6925, 307.7561
951.1746, 316.2168
951.6567, 312.4021
952.1389, 309.2725
952.6210, 312.0093
953.1031, 330.8752
953.5852, 374.7278
954.0673, 421.5415
954.5494, 437.0554
955.0316, 433.6855
955.5137, 445.2324
955.9958, 471.5076
956.4779, 495.2793
956.9600, 509.5725
957.4421, 523.6628
957.9243, 546.4473
958.4064, 576.8831
958.8885, 619.1665
959.3706, 674.4751
959.8527, 711.2283
960.3348, 717.2832
960.8170, 739.6987
961.2991, 816.1602
961.7812, 918.6204
962.2633, 977.6841
962.7454, 977.7769
963.2275, 1004.598
963.7097, 1070.324
964.1918, 1139.378
964.6739, 1200.346
965.1560, 1260.994
965.6381, 1325.438
966.1202, 1394.548
966.6024, 1480.065
967.0845, 1603.848
967.5666, 1711.934
968.0487, 1781.777
968.5308, 1851.729
969.0129, 1943.910
969.4951, 2048.375
969.9772, 2150.710
970.4593, 2248.480
970.9414, 2347.490
971.4235, 2453.685
971.9056, 2553.202
972.3878, 2634.735
972.8699, 2708.456
973.3520, 2788.248
973.8341, 2871.976
974.3162, 2949.387
974.7983, 3019.507
975.2805, 3066.819
975.7626, 3074.702
976.2447, 3057.955
976.7268, 3031.881
977.2089, 2996.321
977.6910, 2946.594
978.1732, 2881.705
978.6553, 2808.163
979.1374, 2732.250
979.6195, 2648.305
980.1016, 2546.860
980.5837, 2429.912
981.0659, 2302.291
981.5480, 2167.078
982.0301, 2040.358
982.5122, 1930.186
982.9943, 1831.131
983.4764, 1738.498
983.9586, 1649.792
984.4407, 1551.931
984.9228, 1445.375
985.4049, 1364.161
985.8870, 1318.602
986.3691, 1280.359
986.8513, 1226.923
987.3334, 1162.237
987.8155, 1097.980
988.2976, 1032.659
988.7797, 970.9485
989.2618, 913.9490
989.7440, 860.5732
990.2261, 809.1633
990.7082, 760.4902
991.1903, 714.4004
991.6724, 671.0527
992.1545, 638.5569
992.6367, 625.8181
993.1188, 605.6033
993.6009, 568.0986
994.0830, 530.7954
994.5651, 504.1431
995.0472, 484.7419
995.5294, 465.9487
996.0115, 447.9631
996.4936, 429.8945
996.9757, 409.4998
997.4578, 392.0176
997.9399, 385.3962
998.4221, 376.8809
998.9042, 347.7424
999.3863, 306.8167
999.8684, 287.8403
1000.351, 308.8801
1000.833, 323.3936
1001.315, 313.1521
1001.797, 298.5156
1002.279, 286.3708
1002.761, 280.2346
1003.243, 288.2517
1003.725, 308.4714
1004.207, 319.7783
1004.690, 303.4148
1005.172, 289.6426
1005.654, 296.8828
1006.136, 314.5493
1006.618, 334.7334
1007.100, 355.6416
1007.582, 377.3176
1008.064, 399.5547
1008.547, 417.9878
1009.029, 421.8606
1009.511, 427.1592
1009.993, 456.5464
1010.475, 495.8816
1010.957, 515.6174
1011.439, 519.7200
1011.921, 541.8606
1012.403, 599.9534
1012.886, 669.4888
1013.368, 726.7180
1013.850, 775.1692
1014.332, 817.7729
1014.814, 857.9478
1015.296, 905.2554
1015.778, 961.7737
1016.260, 1025.446
1016.742, 1096.259
1017.225, 1167.082
1017.707, 1224.449
1018.189, 1271.114
1018.671, 1316.480
1019.153, 1361.257
1019.635, 1409.040
1020.117, 1461.167
1020.599, 1506.151
1021.082, 1531.814
1021.564, 1542.162
1022.046, 1552.679
1022.528, 1562.249
1023.010, 1554.408
1023.492, 1526.557
1023.974, 1486.919
1024.456, 1439.557
1024.938, 1389.188
1025.421, 1342.189
1025.903, 1296.497
1026.385, 1232.275
1026.867, 1146.222
1027.349, 1074.174
1027.831, 1024.342
1028.313, 983.2305
1028.795, 943.6130
1029.278, 904.5459
1029.760, 862.0862
1030.242, 814.1177
1030.724, 762.9082
1031.206, 704.5061
1031.688, 662.9131
1032.170, 649.1006
1032.652, 643.0486
1033.135, 629.2239
1033.617, 609.4788
1034.099, 589.2490
1034.581, 565.0540
1035.063, 553.4280
1035.545, 560.8284
1036.027, 566.1184
1036.509, 562.6968
1036.991, 553.5261
1037.474, 537.2368
1037.956, 515.7659
1038.438, 510.9160
1038.920, 532.6140
1039.402, 551.2917
1039.884, 565.9316
1040.366, 577.1802
1040.848, 586.2483
1041.330, 591.4111
1041.813, 587.1826
1042.295, 572.5647
1042.777, 570.2351
1043.259, 590.8113
1043.741, 607.9536
1044.223, 620.2974
1044.705, 627.5417
1045.187, 633.1479
1045.670, 632.0913
1046.152, 611.3418
1046.634, 566.0005
1047.116, 535.7539
1047.598, 532.9856
1048.080, 533.0344
1048.562, 537.8347
1049.044, 536.5581
1049.526, 515.9399
1050.009, 484.7476
1050.491, 465.1355
1050.973, 464.5537
1051.455, 452.1421
1051.937, 407.3591
1052.419, 369.5857
1052.901, 359.6162
1053.383, 356.5828
1053.865, 341.9773
1054.348, 318.1545
1054.830, 295.6714
1055.312, 274.9285
1055.794, 260.4453
1056.276, 261.0608
1056.758, 259.0112
1057.240, 240.6604
1057.722, 219.3113
1058.205, 214.5120
1058.687, 221.0435
1059.169, 210.1907
1059.651, 162.8542
1060.133, 127.0671
1060.615, 126.5630
1061.097, 132.4241
1061.579, 128.2598
1062.062, 120.3093
1062.544, 119.8506
1063.026, 125.6187
1063.508, 123.0142
1063.990, 104.1162
1064.472, 82.58276
1064.954, 50.53564
1065.436, 31.06616
1065.918, 56.03076
1066.401, 95.32422
1066.883, 101.4875
1067.365, 71.73682
1067.847, 47.24292
1068.329, 47.15381
1068.811, 48.61548
1069.293, 41.68213
1069.775, 32.54736
1070.257, 23.32886
1070.740, 16.52930
1071.222, 16.96484
1071.704, 24.74951
1072.186, 30.81030
1072.668, 32.35938
1073.150, 30.09839
1073.632, 19.56226
1074.114, 9.710693
1074.597, 9.059570
1075.079, 14.53735
1075.561, 21.29688
1076.043, 27.94727
1076.525, 29.16138
1077.007, 17.45581
1077.489, 6.291992
1077.971, 4.806641
1078.453, 4.731445
1078.936, 3.044189
1079.418, 14.85498
1079.900, 22.79370
1080.382, 25.00757
1080.864, 22.85010
1081.346, 8.247070
1081.828, 0.1704100
1082.310, 16.72363
1082.792, 37.59985
1083.275, 43.26074
1083.757, 37.54443
1084.239, 31.99951
1084.721, 29.41357
1085.203, 27.49487
1085.685, 23.05103
1086.167, 21.72754
1086.649, 33.89453
1087.131, 44.44312
1087.614, 33.73999
1088.096, 10.65845
1088.578, 0.4584960
1089.060, 7.153564
1089.542, 13.04297
1090.024, 6.745605
1090.506, 0.7172850
1090.988, 6.355469
1091.471, 8.269043
1091.953, 1.245361
1092.435, 10.10913
1092.917, 14.14404
1093.399, 7.242920
1093.881, 1.709229
1094.363, 4.385498
1094.845, 6.608643
1095.328, 6.306641
1095.810, 1.927734
1096.292, 11.15259
1096.774, 28.71436
1097.256, 41.10059
1097.738, 46.35596
1098.220, 46.66040
1098.702, 34.15308
1099.184, 27.82544
1099.667, 44.71240
1100.149, 63.74609
1100.631, 60.74634
1101.113, 45.51050
1101.595, 48.19434
1102.077, 79.71338
1102.559, 95.49097
1103.041, 60.78955
1103.523, 39.31445
1104.006, 67.98096
1104.488, 107.4275
1104.970, 126.0586
1105.452, 128.5234
1105.934, 130.4248
1106.416, 133.3547
1106.898, 137.9807
1107.380, 154.8945
1107.863, 159.5129
1108.345, 128.6963
1108.827, 97.44238
1109.309, 97.76099
1109.791, 117.2063
1110.273, 124.1970
1110.755, 112.2700
1111.237, 104.5845
1111.719, 103.8789
1112.202, 111.0183
1112.684, 135.6409
1113.166, 159.0361
1113.648, 167.9331
1114.130, 166.2273
1114.612, 163.0681
1115.094, 159.4058
1115.576, 150.5610
1116.058, 130.2361
1116.541, 114.2898
1117.023, 106.1580
1117.505, 102.1973
1117.987, 102.2625
1118.469, 103.8892
1118.951, 102.5698
1119.433, 98.45776
1119.915, 89.50854
1120.398, 68.62134
1120.880, 58.05005
1121.362, 65.62280
1121.844, 77.23926
1122.326, 85.02515
1122.808, 90.96167
1123.290, 99.02124
1123.772, 109.4717
1124.255, 116.9536
1124.737, 122.7131
1125.219, 119.3948
1125.701, 98.95142
1126.183, 89.50732
1126.665, 110.9067
1127.147, 143.6582
1127.629, 158.5415
1128.111, 155.9021
1128.594, 143.0405
1129.076, 117.0039
1129.558, 100.9502
1130.040, 99.33325
1130.522, 98.50659
1131.004, 90.81372
1131.486, 84.15747
1131.968, 90.48462
1132.450, 106.9497
1132.933, 120.4758
1133.415, 130.0310
1133.897, 127.6401
1134.379, 112.8757
1134.861, 106.5659
1135.343, 118.3525
1135.825, 130.2244
1136.307, 120.3091
1136.790, 98.28296
1137.272, 91.26172
1137.754, 99.23950
1138.236, 117.1462
1138.718, 138.8774
1139.200, 143.6106
1139.682, 126.0374
1140.164, 108.7842
1140.646, 115.0051
1141.129, 129.8875
1141.611, 122.0012
1142.093, 102.4607
1142.575, 101.0002
1143.057, 114.2405
1143.539, 123.6775
1144.021, 123.9529
1144.503, 120.5808
1144.985, 118.2004
1145.468, 114.9473
1145.950, 103.7244
1146.432, 92.02271
1146.914, 94.06177
1147.396, 103.7876
1147.878, 109.0667
1148.360, 106.8298
1148.842, 96.36719
1149.325, 73.91943
1149.807, 56.86426
1150.289, 67.19238
1150.771, 81.10352
1151.253, 72.36011
1151.735, 55.64917
1152.217, 53.63843
1152.699, 65.36792
1153.182, 76.75977
1153.664, 84.90894
1154.146, 83.42798
1154.628, 54.03540
1155.110, 30.93018
1155.592, 39.31592
1156.074, 58.46069
1156.556, 68.01050
1157.038, 70.65747
1157.521, 80.16138
1158.003, 101.5698
1158.485, 110.7087
1158.967, 94.13037
1159.449, 76.05371
1159.931, 58.17432
1160.413, 46.34351
1160.895, 45.41040
1161.377, 52.74146
1161.860, 65.36816
1162.342, 84.28735
1162.824, 95.63354
1163.306, 97.63281
1163.788, 94.94751
1164.270, 83.47656
1164.752, 75.14771
1165.234, 77.62451
1165.717, 84.08667
1166.199, 88.44824
1166.681, 89.10132
1167.163, 64.97192
1167.645, 0.6911620
1168.127, 13.47192
1168.609, 42.49097
1169.091, 83.99512
1169.573, 77.60864
1170.056, 54.41772
1170.538, 42.83276
1171.020, 41.14917
1171.502, 45.30029
1171.984, 55.03906
1172.466, 70.64209
1172.948, 91.13086
1173.430, 94.39746
1173.912, 75.29663
1174.395, 57.67847
1174.877, 58.63062
1175.359, 68.06714
1175.841, 70.55713
1176.323, 68.79785
1176.805, 70.81812
1177.287, 74.68091
1177.769, 73.78491
1178.252, 67.64771
1178.734, 58.54761
1179.216, 47.36670
1179.698, 40.96240
1180.180, 50.05859
1180.662, 63.08008
1181.144, 69.37109
1181.626, 37.48498
1182.109, 75.66917
1182.591, 96.33672
1183.073, 100.4244
1183.555, 38.27589
1184.037, 61.65822
1184.519, 50.76338
1185.001, 38.46347
1185.483, 73.88338
1185.965, 21.36921
1186.448, 56.02864
1186.930, 55.89200
1187.412, 71.68282
1187.894, 52.98477
1188.376, 44.93955
1188.858, 71.39333
1189.340, 78.74495
1189.822, 56.07673
1190.304, 72.87997
1190.787, 19.15686
1191.269, 27.32164
1191.751, 62.18712
1192.233, 41.25298
1192.715, 58.68677
1193.197, 61.50764
1193.679, -2.078508
1194.161, 49.82416
1194.644, 51.77779
1195.126, 2.452639
1195.608, 46.22998
1196.090, 20.84570
1196.572, 25.51904
1197.054, 38.88696
1197.536, 23.66602
1198.018, 13.15405
1198.500, 7.235107
1198.983, 1.218018
1199.465, 5.332520
1199.947, 9.428467
1200.429, 9.850098
1200.911, 4.868164
1201.393, 8.419189
1201.875, 25.56372
1202.357, 40.33813
1202.839, 51.83887
1203.322, 57.98730
1203.804, 58.91870
1204.286, 51.80347
1204.768, 38.87988
1205.250, 35.84155
1205.732, 54.88208
1206.214, 70.83447
1206.696, 58.65625
1207.179, 39.92676
1207.661, 30.61987
1208.143, 28.46631
1208.625, 33.35376
1209.107, 41.13135
1209.589, 39.45483
1210.071, 22.84790
1210.553, 19.13062
1211.036, 56.38794
1211.518, 79.33740
1212.000, 57.82080
1212.482, 31.04663
1212.964, 22.62500
1213.446, 25.81763
1213.928, 30.53149
1214.410, 36.26294
1214.892, 38.35913
1215.375, 33.47021
1215.857, 34.49072
1216.339, 44.14160
1216.821, 54.26855
1217.303, 63.69727
1217.785, 66.53345
1218.267, 55.11719
1218.749, 38.28198
1219.231, 42.01929
1219.714, 63.93726
1220.196, 65.59619
1220.678, 48.93774
1221.160, 36.83228
1221.642, 34.31787
1222.124, 46.84155
1222.606, 77.77563
1223.088, 103.2073
1223.571, 88.17920
1224.053, 58.90479
1224.535, 59.50073
1225.017, 74.04150
1225.499, 73.43457
1225.981, 61.85791
1226.463, 60.52539
1226.945, 71.35327
1227.427, 81.93823
1227.910, 87.55469
1228.392, 88.46216
1228.874, 77.79053
1229.356, 70.69214
1229.838, 81.84912
1230.320, 98.69287
1230.802, 109.8425
1231.284, 113.3408
1231.766, 104.2639
1232.249, 73.71387
1232.731, 61.39819
1233.213, 84.92700
1233.695, 97.24780
1234.177, 83.61401
1234.659, 69.32959
1235.141, 66.01221
1235.623, 74.13330
1236.106, 98.39795
1236.588, 132.5300
1237.070, 133.1025
1237.552, 99.21997
1238.034, 77.15308
1238.516, 77.46143
1238.998, 98.15674
1239.480, 137.2046
1239.963, 162.0730
1240.445, 139.0681
1240.927, 106.0898
1241.409, 102.9990
1241.891, 111.6174
1242.373, 102.5867
1242.855, 82.96777
1243.337, 68.17236
1243.819, 61.96533
1244.302, 70.56763
1244.784, 96.08521
1245.266, 111.7466
1245.748, 90.69141
1246.230, 71.62134
1246.712, 78.82495
1247.194, 91.02783
1247.676, 92.42554
1248.158, 88.17529
1248.641, 86.30200
1249.123, 86.61548
1249.605, 86.85327
1250.087, 90.38477
1250.569, 42.91889
1251.051, 94.20564
1251.533, 122.9657
1252.015, 130.4093
1252.498, 52.69175
1252.980, 84.94221
1253.462, 73.12258
1253.944, 59.49588
1254.426, 107.2238
1254.908, 41.89304
1255.390, 88.64796
1255.872, 90.66035
1256.354, 113.1503
1256.837, 91.29760
1257.319, 83.14123
1257.801, 119.3413
1258.283, 130.9808
1258.765, 104.0240
1259.247, 127.8156
1259.729, 60.93584
1260.211, 73.62144
1260.693, 120.6360
1261.176, 95.90833
1261.658, 120.5107
1262.140, 126.3255
1262.622, 46.75940
1263.104, 115.6794
1263.586, 120.3840
1264.068, 59.15347
1264.550, 122.9857
1265.033, 70.84473
1265.515, 60.09927
1265.997, 80.50648
1266.479, 68.43815
1266.961, 107.5712
1267.443, 97.37828
1267.925, 82.77833
1268.407, 87.41096
1268.890, 64.88379
1269.372, 48.00415
1269.854, 30.56592
1270.336, 14.32104
1270.818, 0.1967770
1271.300, 6.168457
1271.782, 9.562500
1272.264, 33.77661
1272.746, 40.04321
1273.229, 35.64551
1273.711, 33.06763
1274.193, 32.92554
1274.675, 35.15918
1275.157, 38.14258
1275.639, 33.35913
1276.121, 12.62817
1276.603, 7.7393003E-02
1277.085, 12.41040
1277.568, 28.56616
1278.050, 42.69531
1278.532, 49.91846
1279.014, 43.97876
1279.496, 32.88159
1279.978, 37.77905
1280.460, 58.23022
1280.942, 54.57349
1281.425, 14.46313
1281.907, 1.648682
1282.389, 15.06543
1282.871, 29.55078
1283.353, 31.10986
1283.835, 21.68530
1284.317, 9.647217
1284.799, 0.0000000E+00
##END=



