##NAMES=Vivianite
##RRUFFID=R060025
##IDEAL CHEMISTRY=Fe^2+^_3_(PO_4_)_2_&#183;8H_2_O
##LOCALITY=Gypsy mine, Minas Gerais, Brazil
##OWNER=RRUFF
##SOURCE=Eric Van Valkenburg
##DESCRIPTION=Blue-green fragment
##STATUS=The identification of this mineral has been confirmed by X-ray diffraction.
##URL=rruff.info/R060025
117.8207, 0.0000000E+00
118.3028, 0.4666900
118.7849, 0.4604340
119.2670, 0.1810300
119.7491, 0.1730800
120.2313, 0.3598020
120.7134, 1.4053000E-02
121.1955, 1.152008
121.6776, 2.883270
122.1597, 4.896469
122.6418, 7.192947
123.1240, 9.615967
123.6061, 11.79874
124.0882, 13.65445
124.5703, 16.17802
125.0524, 19.84013
125.5345, 24.66389
126.0167, 30.67337
126.4988, 37.85089
126.9809, 46.22076
127.4630, 56.29442
127.9451, 68.34843
128.4272, 80.66359
128.9093, 92.59467
129.3915, 103.5669
129.8736, 110.7305
130.3557, 111.7589
130.8378, 106.4316
131.3199, 96.41302
131.8020, 82.08203
132.2842, 66.48253
132.7663, 55.31833
133.2484, 48.39696
133.7305, 42.70071
134.2126, 35.91957
134.6947, 28.21187
135.1769, 21.54230
135.6590, 16.18576
136.1411, 12.00298
136.6232, 8.586304
137.1053, 5.902969
137.5874, 4.108215
138.0696, 3.597305
138.5517, 4.495056
139.0338, 5.313705
139.5159, 5.804810
139.9980, 5.956360
140.4801, 5.548233
140.9623, 4.211288
141.4444, 2.959625
141.9265, 3.012634
142.4086, 4.816574
142.8907, 6.601395
143.3728, 7.880585
143.8550, 8.542389
144.3371, 9.524536
144.8192, 10.85181
145.3013, 12.47856
145.7834, 14.32388
146.2655, 16.71315
146.7477, 18.81776
147.2298, 20.44643
147.7119, 21.62691
148.1940, 22.24602
148.6761, 22.17810
149.1582, 21.58640
149.6404, 20.79579
150.1225, 19.78677
150.6046, 18.60826
151.0867, 17.27658
151.5688, 15.65804
152.0509, 14.06551
152.5331, 12.32475
153.0152, 10.56718
153.4973, 9.231796
153.9794, 8.907028
154.4615, 8.579697
154.9436, 7.809906
155.4258, 5.668381
155.9079, 4.124527
156.3900, 3.466187
156.8721, 3.594131
157.3542, 4.025681
157.8363, 4.474426
158.3185, 5.301407
158.8006, 6.737549
159.2827, 8.812424
159.7648, 11.50136
160.2469, 15.01411
160.7290, 19.27354
161.2112, 23.57442
161.6933, 27.91089
162.1754, 32.10359
162.6575, 36.00336
163.1396, 39.96494
163.6217, 43.28693
164.1039, 45.84601
164.5860, 47.63110
165.0681, 48.25751
165.5502, 47.25179
166.0323, 45.09009
166.5145, 42.30945
166.9966, 38.85626
167.4787, 35.02995
167.9608, 30.85971
168.4429, 26.32533
168.9250, 21.92455
169.4071, 17.84236
169.8893, 14.10330
170.3714, 10.73055
170.8535, 7.628784
171.3356, 4.926117
171.8177, 2.697372
172.2998, 0.9355770
172.7820, 0.2742610
173.2641, 0.7850190
173.7462, 0.6890410
174.2283, 0.1951140
174.7104, 0.7788390
175.1925, 2.023712
175.6747, 2.850388
176.1568, 3.492813
176.6389, 4.443466
177.1210, 6.244919
177.6031, 8.764130
178.0852, 11.60060
178.5674, 14.52745
179.0495, 17.64055
179.5316, 21.18347
180.0137, 25.24103
180.4958, 29.61110
180.9779, 33.88243
181.4601, 38.22194
181.9422, 43.32738
182.4243, 50.01428
182.9064, 57.74292
183.3885, 65.33295
183.8706, 72.46742
184.3528, 79.72098
184.8349, 88.35710
185.3170, 98.18169
185.7991, 108.1180
186.2812, 117.4722
186.7633, 126.2582
187.2455, 134.5193
187.7276, 142.3728
188.2097, 149.6520
188.6918, 155.9626
189.1739, 161.2741
189.6560, 166.5602
190.1382, 172.4979
190.6203, 179.0494
191.1024, 186.1158
191.5845, 193.6669
192.0666, 201.7070
192.5487, 210.1917
193.0309, 219.0367
193.5130, 228.9451
193.9951, 241.1346
194.4772, 255.4962
194.9593, 269.5757
195.4414, 283.1095
195.9236, 296.0933
196.4057, 308.4941
196.8878, 320.5614
197.3699, 330.6159
197.8520, 337.6208
198.3341, 341.6680
198.8163, 341.5894
199.2984, 337.0791
199.7805, 328.2981
200.2626, 315.5664
200.7447, 298.6125
201.2268, 278.9661
201.7090, 257.6444
202.1911, 234.4301
202.6732, 211.4730
203.1553, 189.1383
203.6374, 167.5141
204.1195, 147.8457
204.6017, 130.1938
205.0838, 114.3266
205.5659, 100.0687
206.0480, 87.44394
206.5301, 76.24336
207.0122, 66.60179
207.4944, 58.42810
207.9765, 51.38673
208.4586, 45.64651
208.9407, 40.68451
209.4228, 35.89755
209.9049, 31.12874
210.3871, 27.12688
210.8692, 24.09070
211.3513, 22.01765
211.8334, 20.76230
212.3155, 20.44135
212.7976, 20.74565
213.2798, 21.41969
213.7619, 22.57651
214.2440, 23.74472
214.7261, 24.66203
215.2082, 25.30968
215.6903, 26.87367
216.1725, 29.44737
216.6546, 32.77484
217.1367, 36.64238
217.6188, 41.21756
218.1009, 45.91592
218.5830, 50.55449
219.0651, 55.14310
219.5473, 60.18575
220.0294, 65.61920
220.5115, 71.68259
220.9936, 78.62555
221.4757, 86.74149
221.9578, 95.18053
222.4400, 103.8012
222.9221, 112.6689
223.4042, 121.7508
223.8863, 131.2193
224.3684, 140.8690
224.8505, 150.7407
225.3327, 161.0876
225.8148, 170.9715
226.2969, 180.2456
226.7790, 189.1003
227.2611, 196.4688
227.7432, 202.4384
228.2254, 207.0234
228.7075, 210.2138
229.1896, 211.7664
229.6717, 212.5532
230.1538, 212.7330
230.6359, 212.2962
231.1181, 211.2307
231.6002, 209.0167
232.0823, 206.6397
232.5644, 205.1805
233.0465, 204.6945
233.5286, 204.9605
234.0108, 205.7846
234.4929, 207.0817
234.9750, 209.8410
235.4571, 214.5344
235.9392, 220.1925
236.4213, 225.9698
236.9035, 232.3304
237.3856, 237.9089
237.8677, 242.6219
238.3498, 246.5690
238.8319, 248.4792
239.3140, 248.5603
239.7962, 246.5076
240.2783, 241.9021
240.7604, 234.4699
241.2425, 224.8555
241.7246, 212.7578
242.2067, 197.9068
242.6889, 183.5403
243.1710, 169.7771
243.6531, 156.3797
244.1352, 142.8284
244.6173, 128.5062
245.0994, 115.1960
245.5816, 103.2671
246.0637, 92.72812
246.5458, 83.00833
247.0279, 74.07892
247.5100, 65.96786
247.9921, 58.85208
248.4743, 52.92860
248.9564, 47.48517
249.4385, 42.35857
249.9206, 37.55377
250.4027, 33.25871
250.8848, 29.51849
251.3670, 26.22473
251.8491, 23.34860
252.3312, 20.95018
252.8133, 18.77466
253.2954, 16.71410
253.7775, 14.78748
254.2597, 13.37320
254.7418, 12.67744
255.2239, 12.22267
255.7060, 11.59204
256.1881, 10.55977
256.6702, 9.896347
257.1523, 9.893402
257.6345, 10.42352
258.1166, 10.27234
258.5987, 8.932159
259.0808, 7.672394
259.5629, 7.563553
260.0450, 9.203552
260.5272, 10.34361
261.0093, 10.50237
261.4914, 9.916962
261.9735, 9.938889
262.4556, 10.81503
262.9377, 11.89346
263.4199, 12.72333
263.9020, 13.21899
264.3841, 13.71841
264.8662, 14.25607
265.3483, 14.84473
265.8304, 15.49000
266.3126, 16.09506
266.7947, 16.89746
267.2768, 18.08255
267.7589, 19.77554
268.2410, 21.46233
268.7231, 23.15643
269.2053, 24.83105
269.6874, 26.41756
270.1695, 27.91989
270.6516, 29.35112
271.1337, 30.76807
271.6158, 32.26324
272.0980, 33.28255
272.5801, 33.62335
273.0622, 33.65321
273.5443, 34.33949
274.0264, 35.90485
274.5085, 37.25006
274.9907, 37.74286
275.4728, 37.28358
275.9549, 36.83771
276.4370, 36.54720
276.9191, 36.10699
277.4012, 34.87888
277.8834, 32.76041
278.3655, 30.44685
278.8476, 28.19386
279.3297, 25.98262
279.8118, 23.93106
280.2939, 22.11743
280.7761, 20.37035
281.2582, 18.42944
281.7403, 16.28110
282.2224, 14.12512
282.7045, 12.00648
283.1866, 9.930923
283.6688, 7.958130
284.1509, 6.058502
284.6330, 4.322632
285.1151, 2.846146
285.5972, 1.625443
286.0793, 0.5446620
286.5615, 0.4217990
287.0436, 1.283630
287.5257, 2.086136
288.0078, 2.842133
288.4899, 3.492798
288.9720, 3.960480
289.4542, 4.257736
289.9363, 4.524582
290.4184, 4.838989
290.9005, 5.132141
291.3826, 5.188492
291.8647, 4.996506
292.3469, 4.746109
292.8290, 4.622894
293.3111, 4.593536
293.7932, 4.530197
294.2753, 4.465652
294.7574, 4.287109
295.2396, 3.659210
295.7217, 2.605423
296.2038, 1.574829
296.6859, 1.251282
297.1680, 1.246597
297.6501, 0.3864440
298.1323, 1.813538
298.6144, 4.485016
299.0965, 6.431961
299.5786, 7.744827
300.0607, 8.911041
300.5428, 10.03325
301.0250, 11.27684
301.5071, 13.05107
301.9892, 15.54579
302.4713, 18.20282
302.9534, 20.58408
303.4355, 22.65770
303.9177, 24.40062
304.3998, 25.53802
304.8819, 26.39879
305.3640, 27.41902
305.8461, 28.68329
306.3282, 29.85951
306.8104, 30.90276
307.2925, 31.64937
307.7746, 31.73299
308.2567, 30.49257
308.7388, 28.83698
309.2209, 27.68930
309.7031, 27.12895
310.1852, 26.42476
310.6673, 24.95827
311.1494, 23.03531
311.6315, 21.09167
312.1136, 19.03217
312.5958, 17.18253
313.0779, 15.79869
313.5600, 14.86014
314.0421, 14.01854
314.5242, 13.14114
315.0063, 12.24739
315.4885, 11.36008
315.9706, 10.50081
316.4527, 9.629913
316.9348, 8.589172
317.4169, 7.459351
317.8990, 6.616241
318.3812, 6.474152
318.8633, 6.522293
319.3454, 6.395798
319.8275, 5.805267
320.3096, 5.373550
320.7917, 5.488983
321.2739, 5.922333
321.7560, 6.089691
322.2381, 5.371948
322.7202, 4.707977
323.2023, 4.597473
323.6844, 5.393051
324.1666, 6.060318
324.6487, 6.387344
325.1308, 6.465836
325.6129, 6.451782
326.0950, 6.228561
326.5771, 6.057938
327.0593, 5.973999
327.5414, 5.922333
328.0235, 6.156937
328.5056, 7.156326
328.9877, 8.265152
329.4698, 8.787659
329.9520, 7.750565
330.4341, 7.225403
330.9162, 7.687408
331.3983, 9.169464
331.8804, 10.51872
332.3625, 11.88263
332.8447, 12.99860
333.3268, 13.62573
333.8089, 13.33411
334.2910, 13.35252
334.7731, 14.01758
335.2552, 15.14754
335.7374, 15.64185
336.2195, 15.04848
336.7016, 14.60371
337.1837, 15.07355
337.6658, 16.77629
338.1479, 18.22549
338.6301, 19.24829
339.1122, 19.98187
339.5943, 20.81253
340.0764, 21.78859
340.5585, 22.79335
341.0406, 23.66373
341.5227, 24.35811
342.0049, 25.44014
342.4870, 27.13879
342.9691, 28.81824
343.4512, 29.38110
343.9333, 28.73253
344.4154, 28.14731
344.8976, 28.24512
345.3797, 28.79459
345.8618, 28.55377
346.3439, 27.44568
346.8260, 26.12944
347.3081, 25.44975
347.7903, 25.25482
348.2724, 24.42726
348.7545, 22.48016
349.2366, 19.97729
349.7187, 17.96159
350.2008, 16.37216
350.6830, 14.92975
351.1651, 13.40225
351.6472, 11.87167
352.1293, 10.58878
352.6114, 9.667465
353.0935, 8.872696
353.5757, 7.867935
354.0578, 6.734116
354.5399, 5.719299
355.0220, 4.992538
355.5041, 4.488449
355.9862, 4.130203
356.4684, 3.839005
356.9505, 3.633560
357.4326, 3.578171
357.9147, 3.631271
358.3968, 3.726425
358.8789, 4.005981
359.3611, 4.188644
359.8432, 4.037201
360.3253, 3.557144
360.8074, 3.012802
361.2895, 2.382187
361.7716, 1.818848
362.2538, 1.468048
362.7359, 1.517685
363.2180, 1.624802
363.7001, 1.667587
364.1822, 1.670502
364.6643, 1.716064
365.1465, 2.050476
365.6286, 2.279404
366.1107, 2.155045
366.5928, 1.385849
367.0749, 0.7828830
367.5570, 0.4934390
368.0392, 0.4395750
368.5213, 0.4857480
369.0034, 0.6698000
369.4855, 0.8978120
369.9676, 1.152542
370.4497, 1.433014
370.9319, 1.698502
371.4140, 1.909988
371.8961, 2.122040
372.3782, 2.406006
372.8603, 2.928787
373.3424, 3.214020
373.8246, 3.083328
374.3067, 2.606842
374.7888, 2.388901
375.2709, 2.565491
375.7530, 2.781265
376.2351, 2.808060
376.7173, 2.608765
377.1994, 2.398834
377.6815, 2.180267
378.1636, 1.965607
378.6457, 1.773788
379.1278, 1.599640
379.6100, 1.530655
380.0921, 1.673477
380.5742, 2.009674
381.0563, 2.058746
381.5384, 1.770432
382.0205, 1.481674
382.5027, 1.767166
382.9848, 2.537384
383.4669, 2.973297
383.9490, 2.654114
384.4311, 1.901382
384.9132, 1.497421
385.3954, 1.428955
385.8775, 1.341629
386.3596, 0.8045810
386.8417, 5.7204999E-02
387.3238, 0.3884280
387.8059, 0.3802640
388.2881, 0.1559140
388.7702, 0.1341400
389.2523, 0.4657900
389.7344, 0.7248080
390.2165, 0.8015900
390.6986, 0.8135380
391.1808, 0.9223330
391.6629, 1.175369
392.1450, 1.290970
392.6271, 1.041916
393.1092, 0.5610500
393.5913, 2.4124000E-02
394.0735, 0.6880340
394.5556, 1.279831
395.0377, 1.639755
395.5198, 1.763748
396.0019, 1.656021
396.4840, 1.017197
396.9662, 0.3325810
397.4483, 6.6680998E-02
397.9304, 0.1930080
398.4125, 0.3012540
398.8946, 5.8272999E-02
399.3767, 0.4176940
399.8589, 0.8366850
400.3410, 1.355453
400.8231, 1.635635
401.3052, 1.493500
401.7873, 0.7408290
402.2694, 0.2905580
402.7516, 0.2855530
403.2337, 0.4746400
403.7158, 0.5901180
404.1979, 0.6257780
404.6800, 0.6053010
405.1621, 0.5398100
405.6443, 0.4272310
406.1264, 0.1748960
406.6085, 0.3380430
407.0906, 0.6680910
407.5727, 0.3236850
408.0548, 0.7931820
408.5370, 1.268784
409.0191, 0.7624050
409.5012, 6.9733001E-02
409.9833, 0.1482540
410.4654, 1.402863
410.9475, 2.386490
411.4297, 2.239105
411.9118, 1.307068
412.3939, 0.7732850
412.8760, 0.6552730
413.3581, 0.7573090
413.8402, 0.9674990
414.3224, 1.254074
414.8045, 1.550751
415.2866, 1.850815
415.7687, 2.147171
416.2508, 2.510803
416.7329, 2.900787
417.2151, 3.125992
417.6972, 2.939453
418.1793, 2.597595
418.6614, 2.320251
419.1435, 2.115387
419.6256, 2.060486
420.1078, 2.320435
420.5899, 2.751389
421.0720, 3.139648
421.5541, 3.334824
422.0362, 3.530014
422.5183, 3.763031
423.0005, 4.042221
423.4826, 4.506714
423.9647, 5.472168
424.4468, 6.416611
424.9289, 6.997803
425.4110, 6.849716
425.8932, 6.789337
426.3753, 6.811981
426.8574, 6.944138
427.3395, 7.267609
427.8216, 7.942307
428.3037, 8.559769
428.7859, 8.868759
429.2680, 8.754028
429.7501, 9.254929
430.2322, 10.63066
430.7143, 12.25558
431.1964, 13.41153
431.6786, 14.01186
432.1607, 14.52444
432.6428, 14.98003
433.1249, 15.46292
433.6070, 16.26428
434.0891, 17.40823
434.5713, 18.60071
435.0534, 19.60979
435.5355, 20.49333
436.0176, 21.59465
436.4997, 22.98427
436.9818, 24.40738
437.4640, 25.47284
437.9461, 26.32318
438.4282, 27.38794
438.9103, 28.74828
439.3924, 30.45509
439.8745, 32.73662
440.3566, 35.52573
440.8387, 38.34940
441.3209, 40.88448
441.8030, 43.26772
442.2851, 45.56331
442.7672, 47.56923
443.2493, 50.00732
443.7314, 53.51877
444.2136, 57.67188
444.6957, 61.60561
445.1778, 65.09174
445.6599, 68.35503
446.1420, 71.29605
446.6241, 73.86255
447.1063, 76.96609
447.5884, 80.97786
448.0705, 85.45239
448.5526, 90.02335
449.0347, 94.76630
449.5168, 99.54976
449.9990, 104.5392
450.4811, 109.5796
450.9632, 114.1165
451.4453, 118.0179
451.9274, 121.6755
452.4095, 125.3593
452.8917, 129.0694
453.3738, 132.1940
453.8559, 134.6792
454.3380, 136.7199
454.8201, 138.6787
455.3022, 140.5333
455.7844, 141.2327
456.2665, 140.4416
456.7486, 138.5271
457.2307, 136.2275
457.7128, 133.5195
458.1949, 130.0301
458.6771, 125.2320
459.1592, 119.5498
459.6413, 113.8675
460.1234, 108.2446
460.6055, 102.6878
461.0876, 97.19565
461.5698, 91.72534
462.0519, 86.19077
462.5340, 80.42551
463.0161, 74.66061
463.4982, 68.85776
463.9803, 63.07677
464.4625, 57.62308
464.9446, 52.50421
465.4267, 47.75549
465.9088, 43.35956
466.3909, 39.21254
466.8730, 35.53325
467.3552, 32.38963
467.8373, 29.72455
468.3194, 27.47128
468.8015, 26.34103
469.2836, 24.72731
469.7657, 22.09898
470.2479, 18.59602
470.7300, 15.83540
471.2121, 13.98453
471.6942, 12.60635
472.1763, 11.55655
472.6584, 10.95522
473.1406, 10.10280
473.6227, 8.922653
474.1048, 7.604233
474.5869, 6.374481
475.0690, 5.233566
475.5511, 4.306885
476.0333, 3.682800
476.5154, 3.280884
476.9975, 2.958801
477.4796, 2.708923
477.9617, 2.325958
478.4438, 1.498184
478.9260, 0.4681090
479.4081, 0.3397980
479.8902, 0.8708040
480.3723, 1.161865
480.8544, 1.087418
481.3365, 0.8244320
481.8187, 0.6763760
482.3008, 0.8950500
482.7829, 1.156189
483.2650, 1.266663
483.7471, 1.244446
484.2292, 1.246323
484.7114, 1.497971
485.1935, 1.663818
485.6756, 1.496658
486.1577, 0.6502840
486.6398, 0.1165160
487.1219, 0.2518160
487.6041, 0.6413120
488.0862, 0.7593690
488.5683, 0.5224150
489.0504, 0.1435850
489.5325, 0.4097600
490.0146, 1.093643
490.4968, 1.451477
490.9789, 1.270874
491.4610, 1.302277
491.9431, 2.234650
492.4252, 4.075943
492.9073, 5.297134
493.3895, 5.728455
493.8716, 5.818924
494.3537, 6.152542
494.8358, 6.691559
495.3179, 7.217850
495.8000, 7.540298
496.2822, 7.907684
496.7643, 8.761597
497.2464, 10.05083
497.7285, 11.42313
498.2106, 12.76265
498.6927, 14.02306
499.1749, 15.19550
499.6570, 16.28191
500.1391, 17.20061
500.6212, 17.63719
501.1033, 17.96783
501.5854, 18.64369
502.0676, 20.00650
502.5497, 21.48279
503.0318, 22.98816
503.5139, 24.50987
503.9960, 25.97702
504.4781, 27.39694
504.9603, 28.78781
505.4424, 30.12085
505.9245, 31.34491
506.4066, 32.80978
506.8887, 34.60042
507.3708, 36.52415
507.8530, 38.49449
508.3351, 40.56009
508.8172, 42.14865
509.2993, 42.89375
509.7814, 43.37450
510.2635, 45.22090
510.7457, 48.42870
511.2278, 51.53247
511.7099, 53.48387
512.1920, 54.76208
512.6741, 56.64156
513.1563, 59.16328
513.6384, 61.75005
514.1205, 63.87872
514.6026, 65.76956
515.0847, 67.77974
515.5668, 70.12607
516.0490, 72.33890
516.5311, 73.87350
517.0132, 75.07811
517.4953, 76.65373
517.9774, 79.15297
518.4595, 81.79030
518.9417, 84.26425
519.4238, 86.56238
519.9059, 88.85608
520.3880, 91.42691
520.8701, 93.81049
521.3522, 95.71143
521.8344, 96.60687
522.3165, 98.12981
522.7986, 100.5814
523.2807, 103.4349
523.7628, 105.7216
524.2449, 107.3650
524.7271, 108.9835
525.2092, 110.7322
525.6913, 112.5952
526.1734, 114.7009
526.6555, 117.0611
527.1376, 119.1886
527.6198, 120.4923
528.1019, 121.3167
528.5840, 122.5175
529.0661, 124.1966
529.5482, 125.9631
530.0303, 127.4380
530.5125, 128.7597
530.9946, 130.1981
531.4767, 132.1342
531.9588, 133.8161
532.4409, 134.5847
532.9230, 134.7328
533.4052, 135.1436
533.8873, 136.4415
534.3694, 137.7919
534.8515, 138.9221
535.3336, 139.9118
535.8157, 140.0567
536.2979, 138.5834
536.7800, 137.0585
537.2621, 136.6228
537.7442, 137.7275
538.2263, 138.6237
538.7084, 139.2769
539.1906, 139.6517
539.6727, 139.5647
540.1548, 138.9558
540.6369, 138.4103
541.1190, 138.2496
541.6011, 138.2496
542.0833, 137.6759
542.5654, 136.5586
543.0475, 135.3280
543.5296, 134.3325
544.0117, 133.4274
544.4938, 132.4292
544.9760, 131.3730
545.4581, 129.9300
545.9402, 127.5030
546.4223, 124.6439
546.9044, 122.0522
547.3865, 120.2432
547.8687, 118.4254
548.3508, 116.4189
548.8329, 114.2000
549.3150, 111.7082
549.7971, 108.5778
550.2792, 105.5458
550.7614, 102.8884
551.2435, 100.6915
551.7256, 98.31635
552.2077, 95.72345
552.6898, 93.05672
553.1719, 90.39458
553.6541, 87.72366
554.1362, 85.20297
554.6183, 82.85179
555.1004, 80.62796
555.5825, 78.49414
556.0646, 76.44844
556.5468, 74.63138
557.0289, 73.17189
557.5110, 71.89429
557.9931, 70.46979
558.4752, 68.94733
558.9573, 67.63672
559.4395, 66.68329
559.9216, 66.03122
560.4037, 65.63367
560.8858, 65.49007
561.3679, 65.56032
561.8500, 65.77475
562.3322, 66.22762
562.8143, 67.00504
563.2964, 68.12451
563.7785, 69.58130
564.2606, 71.52319
564.7427, 73.74561
565.2249, 75.81694
565.7070, 77.55214
566.1891, 79.50119
566.6712, 81.92174
567.1533, 84.67911
567.6354, 87.11682
568.1176, 89.19650
568.5997, 91.23984
569.0818, 93.95291
569.5639, 96.90338
570.0460, 98.36456
570.5281, 98.14577
571.0103, 96.92789
571.4924, 95.06165
571.9745, 92.71924
572.4566, 90.24208
572.9387, 88.23798
573.4208, 85.34976
573.9030, 80.04156
574.3851, 73.19823
574.8672, 66.72330
575.3493, 61.30853
575.8314, 56.30438
576.3135, 51.63731
576.7957, 47.31952
577.2778, 42.88905
577.7599, 37.87047
578.2420, 33.27313
578.7241, 29.79041
579.2062, 27.71210
579.6884, 25.45862
580.1705, 22.89531
580.6526, 20.37877
581.1347, 18.38492
581.6168, 16.88274
582.0989, 15.41214
582.5811, 13.86830
583.0632, 12.30406
583.5453, 10.75900
584.0274, 9.244827
584.5095, 7.846069
584.9916, 6.424942
585.4738, 5.261719
585.9559, 4.864777
586.4380, 5.124817
586.9201, 5.081406
587.4022, 3.818756
587.8843, 2.460495
588.3664, 1.786743
588.8485, 2.108932
589.3306, 2.280655
589.8127, 2.268951
590.2949, 2.042206
590.7770, 1.498505
591.2591, 0.2899930
591.7412, 0.3754730
592.2233, 0.1185610
592.7054, 0.5186920
593.1876, 0.2019200
593.6697, 1.162369
594.1518, 2.269348
594.6339, 2.501999
595.1160, 2.194656
595.5981, 2.117004
596.0803, 2.245361
596.5624, 2.392044
597.0445, 2.579651
597.5266, 2.627701
598.0087, 2.195831
598.4908, 1.220108
598.9730, 0.3801730
599.4551, 0.1418760
599.9372, 0.1993100
600.4193, 0.2715760
600.9014, 0.5555270
601.3835, 0.4293370
601.8657, 0.5792080
602.3478, 1.880066
602.8299, 2.659332
603.3120, 2.798615
603.7941, 2.656906
604.2762, 2.181351
604.7584, 1.508347
605.2405, 1.184204
605.7226, 1.237289
606.2047, 1.455109
606.6868, 1.843872
607.1689, 2.313812
607.6511, 2.526413
608.1332, 2.484131
608.6153, 2.395050
609.0974, 2.266464
609.5795, 2.234116
610.0616, 2.576569
610.5438, 3.468643
611.0259, 4.270554
611.5080, 4.594711
611.9901, 4.657471
612.4722, 4.701431
612.9543, 4.627625
613.4365, 4.650146
613.9186, 4.829926
614.4007, 5.146317
614.8828, 5.586319
615.3649, 6.254959
615.8470, 6.817444
616.3292, 7.169067
616.8113, 7.326065
617.2934, 7.408859
617.7755, 7.410416
618.2576, 7.384369
618.7397, 7.328003
619.2219, 7.272522
619.7040, 7.272507
620.1861, 7.325592
620.6682, 7.547623
621.1503, 8.389313
621.6324, 9.314468
622.1146, 9.623672
622.5967, 8.914948
623.0788, 8.109970
623.5609, 7.573135
624.0430, 7.198761
624.5251, 6.833908
625.0073, 6.295593
625.4894, 5.968430
625.9715, 5.953186
626.4536, 6.179550
626.9357, 6.463776
627.4178, 6.896500
627.9000, 7.116135
628.3821, 6.882401
628.8642, 6.291275
629.3463, 6.049759
629.8284, 6.165848
630.3105, 6.241455
630.7927, 5.848969
631.2748, 5.239059
631.7569, 4.964783
632.2390, 5.106674
632.7211, 5.161957
633.2032, 4.591537
633.6854, 3.814697
634.1675, 3.289154
634.6496, 3.183594
635.1317, 3.227859
635.6138, 3.496231
636.0959, 3.839691
636.5781, 4.019119
637.0602, 3.964508
637.5423, 3.867157
638.0244, 3.758789
638.5065, 3.628281
638.9886, 3.357651
639.4708, 2.882767
639.9529, 2.685196
640.4350, 3.196381
640.9171, 4.093292
641.3992, 4.212372
641.8813, 3.605698
642.3635, 3.005081
642.8456, 3.024841
643.3277, 3.296829
643.8098, 3.463196
644.2919, 3.496918
644.7740, 3.244568
645.2562, 2.123306
645.7383, 0.9782100
646.2204, 0.5641330
646.7025, 1.645279
647.1846, 2.364517
647.6667, 2.500656
648.1489, 2.322083
648.6310, 2.140793
649.1131, 1.928070
649.5952, 1.737366
650.0773, 1.631042
650.5594, 1.606445
651.0416, 1.573441
651.5237, 1.473755
652.0058, 1.389297
652.4879, 1.483032
652.9700, 1.640732
653.4521, 1.669693
653.9343, 1.555191
654.4164, 1.272919
654.8985, 0.6320800
655.3806, 3.8483001E-02
655.8627, 0.5097200
656.3448, 0.7298890
656.8270, 0.7491460
657.3091, 0.4245450
657.7912, 9.5261000E-02
658.2733, 1.3687000E-02
658.7554, 0.2456360
659.2375, 0.2291720
659.7197, 0.2189940
660.2018, 0.7704770
660.6839, 1.062485
661.1660, 1.106644
661.6481, 1.182693
662.1302, 1.350906
662.6124, 1.504807
663.0945, 1.480255
663.5766, 1.314255
664.0587, 1.077866
664.5408, 0.7313690
665.0229, 0.4005130
665.5051, 0.1472470
665.9872, 1.9455001E-02
666.4693, 7.9025000E-02
666.9514, 8.8486001E-02
667.4335, 0.2549740
667.9156, 0.3836360
668.3978, 0.4677580
668.8799, 0.3929750
669.3620, 3.0360001E-03
669.8441, 0.2446140
670.3262, 5.3009000E-02
670.8083, 0.5527340
671.2905, 0.9268040
671.7726, 1.055603
672.2547, 1.089661
672.7368, 1.116562
673.2189, 1.150467
673.7010, 1.184860
674.1832, 1.216476
674.6653, 1.318527
675.1474, 1.627838
675.6295, 1.994186
676.1116, 2.237900
676.5938, 2.180634
677.0759, 2.236252
677.5580, 2.686966
678.0401, 3.210220
678.5222, 3.369965
679.0043, 2.911743
679.4865, 2.637314
679.9686, 2.725052
680.4507, 2.995178
680.9328, 3.014999
681.4149, 2.787506
681.8970, 2.694305
682.3792, 3.012466
682.8613, 3.434738
683.3434, 3.302399
683.8255, 2.765671
684.3076, 2.415329
684.7897, 2.786209
685.2719, 3.301697
685.7540, 3.564270
686.2361, 3.570465
686.7182, 3.552689
687.2003, 3.564545
687.6824, 3.566513
688.1646, 3.527283
688.6467, 3.429214
689.1288, 3.393463
689.6109, 3.411850
690.0930, 3.501587
690.5751, 3.709259
691.0573, 4.020569
691.5394, 4.314133
692.0215, 4.593277
692.5036, 4.718933
692.9857, 4.378128
693.4678, 3.817520
693.9500, 3.473099
694.4321, 3.490051
694.9142, 3.609070
695.3963, 3.729080
695.8784, 3.842758
696.3605, 3.940033
696.8427, 4.196182
697.3248, 4.190338
697.8069, 3.689362
698.2890, 3.002319
698.7711, 2.786087
699.2532, 3.196457
699.7354, 3.450623
700.2175, 3.295761
700.6996, 2.914581
701.1817, 2.659927
701.6638, 2.545929
702.1459, 2.667557
702.6281, 3.468842
703.1102, 4.245850
703.5923, 4.057007
704.0744, 3.107224
704.5565, 2.391556
705.0386, 2.599808
705.5208, 2.844482
706.0029, 2.564377
706.4850, 1.658752
706.9671, 1.191650
707.4492, 1.361603
707.9313, 1.689362
708.4135, 1.983063
708.8956, 2.252762
709.3777, 2.158600
709.8598, 1.635178
710.3419, 1.177734
710.8240, 1.372696
711.3062, 1.952393
711.7883, 2.327621
712.2704, 2.434402
712.7525, 2.272751
713.2346, 1.627670
713.7167, 0.8182070
714.1989, 0.1569370
714.6810, 0.4196470
715.1631, 0.5190280
715.6452, 0.5458370
716.1273, 1.781204
716.6094, 2.095657
717.0916, 1.173218
717.5737, 0.2845610
718.0558, 0.5633700
718.5379, 1.148849
719.0200, 0.8408050
719.5021, 0.2138210
719.9843, 0.9543610
720.4664, 0.9106140
720.9485, 0.6057430
721.4306, 0.6448060
721.9127, 0.9103240
722.3948, 1.123108
722.8770, 1.241516
723.3591, 1.204117
723.8412, 0.8920590
724.3233, 0.3837890
724.8054, 5.6920000E-03
725.2875, 0.2023010
725.7697, 0.3511510
726.2518, 0.5475920
726.7339, 0.7169800
727.2160, 0.3187260
727.6981, 0.7004850
728.1802, 1.597076
728.6624, 2.003616
729.1445, 1.969986
729.6266, 1.373566
730.1087, 0.3234710
730.5908, 0.3161620
731.0729, 0.4425350
731.5551, 1.411423
732.0372, 1.701263
732.5193, 1.185196
733.0014, 0.8385310
733.4835, 0.9989620
733.9656, 1.228577
734.4478, 1.313492
734.9299, 1.223480
735.4120, 1.214600
735.8941, 1.307495
736.3762, 1.417038
736.8583, 1.528961
737.3405, 1.600403
737.8226, 1.351028
738.3047, 0.7124480
738.7868, 0.2710880
739.2689, 0.7336730
739.7510, 1.573090
740.2332, 2.213715
740.7153, 2.542160
741.1974, 2.642761
741.6795, 2.176010
742.1616, 1.697235
742.6437, 1.781631
743.1259, 2.766861
743.6080, 3.444321
744.0901, 3.699326
744.5722, 3.712769
745.0543, 3.728989
745.5364, 3.739517
746.0186, 3.647415
746.5007, 3.417480
746.9828, 3.135071
747.4649, 2.807938
747.9470, 2.517639
748.4291, 2.399429
748.9113, 2.496262
749.3934, 2.785370
749.8755, 3.517471
750.3576, 4.384506
750.8397, 4.768677
751.3218, 4.380844
751.8040, 4.035126
752.2861, 3.877792
752.7682, 3.826813
753.2503, 3.642151
753.7324, 3.331573
754.2145, 3.166672
754.6967, 3.299667
755.1788, 3.562363
755.6609, 3.803925
756.1430, 3.985764
756.6251, 3.989090
757.1072, 3.506241
757.5894, 3.093079
758.0715, 3.026672
758.5536, 3.260620
759.0357, 3.547943
759.5178, 3.952545
759.9999, 4.286133
760.4821, 4.523621
760.9642, 4.640076
761.4463, 4.392609
761.9284, 3.761353
762.4105, 3.363403
762.8926, 3.779633
763.3748, 4.502075
763.8569, 4.527924
764.3390, 4.005676
764.8211, 3.709045
765.3032, 4.519012
765.7853, 5.259521
766.2675, 5.094452
766.7496, 4.009796
767.2317, 3.440887
767.7138, 3.823914
768.1959, 4.204529
768.6780, 4.132690
769.1602, 3.660980
769.6423, 3.537598
770.1244, 3.791412
770.6065, 4.005402
771.0886, 3.851990
771.5707, 3.482025
772.0529, 3.062073
772.5350, 2.611786
773.0171, 2.396912
773.4992, 2.748535
773.9813, 3.247803
774.4634, 3.671051
774.9456, 4.003265
775.4277, 4.144073
775.9098, 4.091980
776.3919, 3.817444
776.8740, 3.221252
777.3561, 2.308014
777.8383, 1.884369
778.3204, 1.992981
778.8025, 2.199677
779.2846, 2.162415
779.7667, 1.985596
780.2488, 1.858643
780.7310, 1.801514
781.2131, 1.686768
781.6952, 1.414520
782.1773, 1.079987
782.6594, 0.7030640
783.1415, 0.1936340
783.6237, 1.2726000E-02
784.1058, 0.1666560
784.5879, 0.5077210
785.0699, 0.9302060
785.5521, 1.426727
786.0342, 1.730103
786.5163, 1.843567
786.9984, 1.638947
787.4805, 0.4981990
787.9626, 0.8257140
788.4448, 1.089325
788.9269, 3.3259999E-03
789.4090, 1.036377
789.8911, 1.528259
790.3732, 1.611847
790.8553, 1.314819
791.3375, 0.4048460
791.8196, 0.1273500
792.3017, 0.2265930
792.7838, 6.6009998E-02
793.2659, 0.3738710
793.7480, 1.030701
794.2302, 1.112549
794.7123, 0.5089110
795.1944, 0.1223750
795.6765, 0.2848510
796.1586, 8.3434999E-02
796.6407, 0.4590150
797.1229, 1.446655
797.6050, 2.177826
798.0871, 2.423798
798.5692, 2.300018
799.0513, 1.852356
799.5334, 0.8712770
800.0156, 0.2842710
800.4977, 0.1663510
800.9798, 0.2662050
801.4619, 0.3563230
801.9440, 0.4583130
802.4261, 0.6900630
802.9083, 1.068939
803.3904, 1.482971
803.8725, 1.973236
804.3546, 2.370453
804.8367, 2.422058
805.3188, 1.923889
805.8010, 1.673096
806.2831, 2.071655
806.7652, 2.605652
807.2473, 2.920654
807.7294, 2.945099
808.2115, 3.127777
808.6937, 3.533356
809.1758, 3.914703
809.6579, 3.970428
810.1400, 3.874359
810.6221, 4.043549
811.1042, 4.536896
811.5864, 5.146637
812.0685, 5.937927
812.5506, 6.652313
813.0327, 7.068420
813.5148, 7.105713
813.9969, 6.955994
814.4791, 6.430115
814.9612, 5.975433
815.4433, 5.957550
815.9254, 6.431793
816.4075, 6.952606
816.8896, 7.468567
817.3718, 7.948517
817.8539, 8.534241
818.3360, 9.123566
818.8181, 9.508392
819.3002, 9.646393
819.7823, 9.701447
820.2645, 9.611694
820.7466, 9.553314
821.2287, 9.701935
821.7108, 10.15231
822.1929, 10.45618
822.6750, 10.49823
823.1572, 10.67926
823.6393, 11.47653
824.1214, 12.70297
824.6035, 13.33368
825.0856, 13.33481
825.5677, 13.21115
826.0499, 13.09015
826.5320, 13.14038
827.0141, 13.76779
827.4962, 15.08444
827.9783, 15.75540
828.4604, 14.70221
828.9426, 13.66913
829.4247, 13.53210
829.9068, 14.33051
830.3889, 14.59088
830.8710, 14.21353
831.3531, 13.93503
831.8353, 14.43396
832.3174, 15.30090
832.7995, 15.86691
833.2816, 16.13156
833.7637, 16.15765
834.2458, 15.70340
834.7280, 15.26572
835.2101, 15.21750
835.6922, 15.58929
836.1743, 15.64740
836.6564, 15.19855
837.1385, 14.76956
837.6207, 14.74457
838.1028, 14.96011
838.5849, 14.43665
839.0670, 13.24860
839.5491, 12.33386
840.0313, 12.59949
840.5134, 13.14877
840.9955, 13.03561
841.4776, 12.40204
841.9597, 12.01862
842.4418, 12.41022
842.9240, 12.75928
843.4061, 12.83704
843.8882, 12.68259
844.3703, 12.45578
844.8524, 12.15384
845.3345, 11.78445
845.8167, 11.29990
846.2988, 10.77728
846.7809, 10.42023
847.2630, 10.14474
847.7451, 9.764038
848.2272, 8.889160
848.7094, 8.212952
849.1915, 8.157684
849.6736, 8.531494
850.1557, 8.811737
850.6378, 9.037628
851.1199, 9.051880
851.6021, 8.756287
852.0842, 8.318756
852.5663, 8.089539
853.0484, 8.034332
853.5305, 7.994843
854.0126, 7.952759
854.4948, 7.849854
854.9769, 7.671143
855.4590, 7.381927
855.9411, 6.929871
856.4232, 5.769653
856.9053, 5.204010
857.3875, 5.637604
857.8696, 6.405029
858.3517, 6.631195
858.8338, 6.298187
859.3159, 5.911835
859.7980, 5.548157
860.2802, 5.141418
860.7623, 4.464935
861.2444, 3.750580
861.7265, 3.409302
862.2086, 3.691620
862.6907, 3.843048
863.1729, 3.475098
863.6550, 2.933929
864.1371, 2.540527
864.6192, 2.399414
865.1013, 1.911438
865.5834, 0.9066770
866.0656, 0.1206050
866.5477, 0.4810180
867.0298, 1.535980
867.5119, 2.115936
867.9940, 2.111786
868.4761, 1.941833
868.9583, 1.745911
869.4404, 1.569244
869.9225, 1.424377
870.4046, 1.306427
870.8867, 1.358154
871.3688, 1.789307
871.8510, 1.984650
872.3331, 1.552582
872.8152, 0.6101380
873.2973, 0.4554440
873.7794, 1.586487
874.2615, 2.175598
874.7437, 1.257477
875.2258, 9.9457003E-02
875.7079, 0.1674800
876.1900, 0.3253170
876.6721, 0.6712340
877.1542, 0.6328740
877.6364, 0.4459230
878.1185, 4.1717999E-02
878.6006, 0.4324950
879.0827, 0.3746950
879.5648, 0.2115780
880.0469, 0.7556150
880.5291, 1.062225
881.0112, 1.200195
881.4933, 1.180695
881.9754, 1.066925
882.4575, 0.9893490
882.9396, 1.175903
883.4218, 1.179077
883.9039, 0.7506100
884.3860, 0.1628420
884.8681, 0.2228390
885.3502, 0.3997190
885.8323, 0.4075620
886.3145, 0.2355350
886.7966, 4.1443001E-02
887.2787, 0.4479060
887.7608, 0.8581850
888.2429, 1.047760
888.7250, 0.9726870
889.2072, 0.6480410
889.6893, 0.1824040
890.1714, 1.087128
890.6535, 1.699036
891.1356, 1.987946
891.6177, 2.121796
892.0999, 2.121338
892.5820, 1.897522
893.0641, 1.078583
893.5462, 2.8290000E-02
894.0283, 0.2390440
894.5104, 0.3056340
894.9926, 1.058380
895.4747, 1.909943
895.9568, 2.638824
896.4389, 3.041443
896.9210, 3.108643
897.4031, 3.382172
897.8853, 4.062195
898.3674, 4.452698
898.8495, 4.150360
899.3316, 3.424408
899.8137, 3.004364
900.2958, 2.883636
900.7780, 3.011444
901.2601, 3.491913
901.7422, 4.088104
902.2243, 4.700836
902.7064, 5.316437
903.1885, 5.885834
903.6707, 6.433716
904.1528, 6.868256
904.6349, 7.106079
905.1170, 7.304962
905.5991, 7.860199
906.0812, 8.664063
906.5634, 9.113922
907.0455, 8.943237
907.5276, 8.833893
908.0097, 9.474060
908.4918, 10.43481
908.9739, 11.23929
909.4561, 11.77185
909.9382, 12.15219
910.4203, 12.28647
910.9024, 12.42856
911.3845, 12.80505
911.8666, 13.39880
912.3488, 13.99130
912.8309, 14.58069
913.3130, 15.22910
913.7951, 15.96460
914.2772, 16.81726
914.7593, 17.95950
915.2415, 19.38010
915.7236, 20.35150
916.2057, 20.37448
916.6878, 20.49164
917.1699, 20.97171
917.6520, 21.83887
918.1342, 23.43268
918.6163, 25.67508
919.0984, 27.63113
919.5805, 28.60532
920.0626, 29.36606
920.5447, 30.63492
921.0269, 32.24298
921.5090, 33.86716
921.9911, 35.10971
922.4732, 36.81882
922.9553, 39.30515
923.4374, 42.06198
923.9196, 44.21988
924.4017, 45.88138
924.8838, 47.84167
925.3659, 50.25687
925.8480, 52.87506
926.3301, 55.24777
926.8123, 57.79623
927.2944, 61.13510
927.7765, 65.65683
928.2586, 69.85410
928.7407, 73.09171
929.2228, 76.58615
929.7050, 81.21567
930.1871, 86.86472
930.6692, 92.08942
931.1513, 96.88193
931.6334, 101.9061
932.1155, 107.4995
932.5977, 113.7872
933.0798, 120.9452
933.5619, 128.8170
934.0440, 137.1636
934.5261, 145.7924
935.0082, 155.1686
935.4904, 165.4489
935.9725, 176.5849
936.4546, 189.0175
936.9367, 202.6435
937.4188, 217.0138
937.9009, 232.0486
938.3831, 248.0030
938.8652, 265.4308
939.3473, 284.1159
939.8294, 303.4957
940.3115, 323.2583
940.7936, 344.7608
941.2758, 367.7553
941.7579, 392.8339
942.2400, 420.3245
942.7221, 450.0351
943.2042, 481.8371
943.6863, 515.3376
944.1685, 550.6112
944.6506, 587.2148
945.1327, 625.8881
945.6148, 667.4365
946.0969, 711.8084
946.5790, 756.2245
947.0612, 801.6728
947.5433, 845.0778
948.0254, 886.2571
948.5075, 924.0131
948.9896, 956.3839
949.4717, 982.6263
949.9539, 999.0300
950.4360, 1004.582
950.9181, 999.0551
951.4002, 980.8653
951.8823, 952.0931
952.3644, 915.3790
952.8466, 869.7561
953.3287, 819.3015
953.8108, 762.8162
954.2929, 704.2513
954.7750, 647.6525
955.2571, 593.0988
955.7393, 541.3569
956.2214, 492.4689
956.7035, 447.2121
957.1856, 406.2567
957.6677, 369.0001
958.1498, 335.1500
958.6320, 305.0670
959.1141, 277.2647
959.5962, 251.5926
960.0783, 228.8754
960.5604, 209.9389
961.0425, 193.8167
961.5247, 178.1044
962.0068, 163.1279
962.4889, 149.3773
962.9710, 137.3801
963.4531, 126.5413
963.9352, 116.7330
964.4174, 108.0154
964.8995, 100.4545
965.3816, 94.31519
965.8637, 87.86731
966.3458, 80.83286
966.8279, 74.11545
967.3101, 69.09714
967.7922, 64.98230
968.2743, 60.48807
968.7564, 55.36514
969.2385, 50.85565
969.7206, 47.59396
970.2028, 44.92908
970.6849, 42.68210
971.1670, 40.78772
971.6491, 38.47415
972.1312, 35.74646
972.6133, 33.00104
973.0955, 30.31030
973.5776, 27.85275
974.0597, 25.70157
974.5418, 23.96289
975.0239, 22.83267
975.5060, 23.39963
975.9882, 23.12253
976.4703, 21.41635
976.9524, 19.18906
977.4345, 17.54562
977.9166, 16.42749
978.3987, 15.44098
978.8809, 14.54199
979.3630, 13.92661
979.8451, 14.08249
980.3272, 14.37546
980.8093, 14.18509
981.2914, 13.41937
981.7736, 12.98029
982.2557, 13.05627
982.7377, 13.08548
983.2198, 12.79880
983.7020, 12.33044
984.1841, 12.00342
984.6662, 11.81171
985.1483, 11.72903
985.6304, 11.65402
986.1125, 11.79523
986.5947, 12.59579
987.0768, 13.50677
987.5589, 13.70184
988.0410, 12.86588
988.5231, 12.46066
989.0052, 12.61722
989.4874, 12.95557
989.9695, 13.16388
990.4516, 13.26865
990.9337, 13.44147
991.4158, 13.67389
991.8979, 13.40179
992.3801, 11.68188
992.8622, 10.22839
993.3443, 9.808411
993.8264, 10.16653
994.3085, 10.18240
994.7906, 9.866150
995.2728, 9.461975
995.7549, 8.997681
996.2370, 8.613129
996.7191, 8.743439
997.2012, 8.950348
997.6833, 8.580139
998.1655, 6.895874
998.6476, 5.660278
999.1297, 5.099670
999.6118, 4.664581
1000.094, 3.705109
1000.576, 2.424713
1001.058, 2.033356
1001.540, 2.493073
1002.022, 2.872406
1002.505, 2.323944
1002.987, 1.736237
1003.469, 1.943573
1003.951, 2.628052
1004.433, 2.257751
1004.915, 0.4255370
1005.397, 0.8278200
1005.879, 0.9499210
1006.361, 0.4790950
1006.844, 7.4371003E-02
1007.326, 0.5493770
1007.808, 0.6231080
1008.290, 0.1031190
1008.772, 0.4213260
1009.254, 0.7687070
1009.736, 1.052338
1010.218, 1.363953
1010.701, 1.700897
1011.183, 1.824493
1011.665, 1.740509
1012.147, 1.570099
1012.629, 1.445740
1013.111, 1.223724
1013.593, 0.4834590
1014.075, 0.4566350
1014.557, 0.6244510
1015.040, 0.9448550
1015.522, 1.584442
1016.004, 0.6799010
1016.486, 0.6588750
1016.968, 0.8024290
1017.450, 0.1332700
1017.932, 0.2142940
1018.414, 6.5704003E-02
1018.896, 0.2693480
1019.379, 0.8616030
1019.861, 1.358093
1020.343, 1.381927
1020.825, 1.027008
1021.307, 1.470581
1021.789, 2.829102
1022.271, 3.842957
1022.753, 3.820343
1023.236, 3.465088
1023.718, 3.751221
1024.200, 4.377991
1024.682, 4.780945
1025.164, 4.291595
1025.646, 4.411316
1026.128, 5.480042
1026.610, 6.823761
1027.093, 7.875580
1027.575, 8.670776
1028.057, 9.350983
1028.539, 9.935516
1029.021, 10.69250
1029.503, 11.92697
1029.985, 13.24731
1030.467, 14.43787
1030.949, 15.49637
1031.432, 16.38235
1031.914, 16.84940
1032.396, 18.36475
1032.878, 21.57339
1033.360, 24.93301
1033.842, 25.74976
1034.324, 25.45117
1034.806, 26.35162
1035.288, 29.09927
1035.771, 32.07504
1036.253, 34.92221
1036.735, 37.91559
1037.217, 41.15506
1037.699, 44.67987
1038.181, 48.60425
1038.663, 52.92285
1039.145, 57.28983
1039.628, 61.44308
1040.110, 65.76569
1040.592, 70.45389
1041.074, 75.49655
1041.556, 80.91702
1042.038, 86.55917
1042.520, 92.88776
1043.002, 99.95963
1043.484, 107.4151
1043.967, 114.9892
1044.449, 122.7570
1044.931, 130.8099
1045.413, 139.2201
1045.895, 148.5991
1046.377, 160.1956
1046.859, 171.6125
1047.341, 181.9575
1047.823, 191.8100
1048.306, 202.8053
1048.788, 214.7599
1049.270, 226.5200
1049.752, 237.9351
1050.234, 248.4636
1050.716, 258.1011
1051.198, 266.1735
1051.680, 272.1654
1052.163, 276.2194
1052.645, 277.5598
1053.127, 276.2431
1053.609, 271.9053
1054.091, 263.8343
1054.573, 253.3102
1055.055, 242.1920
1055.537, 230.2807
1056.020, 217.0123
1056.502, 201.1555
1056.984, 185.4831
1057.466, 169.9834
1057.948, 155.1955
1058.430, 141.7112
1058.912, 129.4482
1059.394, 117.9052
1059.876, 107.1488
1060.359, 97.21875
1060.841, 88.31696
1061.323, 80.08615
1061.805, 72.40610
1062.287, 65.28680
1062.769, 58.86075
1063.251, 53.11478
1063.733, 48.54401
1064.215, 45.51666
1064.698, 42.81641
1065.180, 38.54141
1065.662, 33.90955
1066.144, 30.59299
1066.626, 29.16913
1067.108, 27.44666
1067.590, 25.13928
1068.072, 22.64630
1068.555, 19.97809
1069.037, 17.39966
1069.519, 15.92575
1070.001, 15.31375
1070.483, 14.53601
1070.965, 12.73837
1071.447, 11.14676
1071.929, 10.49695
1072.411, 10.17844
1072.894, 9.634186
1073.376, 8.870697
1073.858, 8.009552
1074.340, 7.046753
1074.822, 6.045197
1075.304, 4.957947
1075.786, 3.968903
1076.268, 3.338715
1076.750, 2.967896
1077.233, 2.522186
1077.715, 1.906860
1078.197, 1.393463
1078.679, 1.012115
1079.161, 0.7506410
1079.643, 0.6871030
1080.125, 0.7030330
1080.607, 0.5411990
1081.090, 0.1577760
1081.572, 9.0668000E-02
1082.054, 0.1352840
1082.536, 8.3343998E-02
1083.018, 0.7100520
1083.500, 1.478638
1083.982, 1.529938
1084.464, 1.039673
1084.946, 0.9160460
1085.429, 1.621887
1085.911, 2.140961
1086.393, 1.506195
1086.875, 0.6943360
1087.357, 0.6260070
1087.839, 1.368042
1088.321, 1.636749
1088.803, 1.409546
1089.286, 1.118042
1089.768, 0.9862370
1090.250, 0.9125370
1090.732, 0.7327880
1091.214, 0.5495910
1091.696, 0.5735470
1092.178, 1.043457
1092.660, 1.273529
1093.142, 1.191956
1093.625, 1.031250
1094.107, 0.9861450
1094.589, 1.020355
1095.071, 1.014069
1095.553, 0.9975280
1096.035, 1.168945
1096.517, 1.540192
1096.999, 2.271667
1097.481, 3.706787
1097.964, 5.141785
1098.446, 4.978119
1098.928, 3.658417
1099.410, 3.949066
1099.892, 6.396576
1100.374, 7.772278
1100.856, 4.651764
1101.338, 1.088440
1101.821, 0.2499690
1102.303, 0.1641850
1102.785, 6.1035000E-02
1103.267, 0.5765380
1103.749, 1.111572
1104.231, 1.376312
1104.713, 1.373932
1105.195, 0.9194340
1105.677, 0.3066100
1106.160, 0.1474910
1106.642, 0.4075930
1107.124, 0.4144590
1107.606, 4.2479999E-02
1108.088, 5.7891998E-02
1108.570, 0.7499690
1109.052, 1.714752
1109.534, 1.242004
1110.016, 3.0520000E-03
1110.499, 0.6007080
1110.981, 0.7738950
1111.463, 1.273621
1111.945, 0.2294620
1112.427, 0.8548280
1112.909, 0.6272280
1113.391, 0.5747990
1113.873, 1.837555
1114.356, 3.022400
1114.838, 3.482300
1115.320, 2.021576
1115.802, 0.8949280
1116.284, 1.022614
1116.766, 1.727051
1117.248, 2.180054
1117.730, 2.382599
1118.213, 2.319244
1118.695, 1.986389
1119.177, 1.744965
1119.659, 1.965851
1120.141, 2.272064
1120.623, 2.462067
1121.105, 2.525726
1121.587, 2.393188
1122.069, 2.029633
1122.552, 1.760620
1123.034, 1.625275
1123.516, 1.736267
1123.998, 2.662079
1124.480, 3.603851
1124.962, 3.618500
1125.444, 2.503448
1125.926, 1.670532
1126.408, 1.234772
1126.891, 0.6639100
1127.373, 0.4566650
1127.855, 1.404846
1128.337, 0.6763310
1128.819, 0.9088750
1129.301, 2.009155
1129.783, 2.234375
1130.265, 2.076477
1130.748, 1.381989
1131.230, 0.7677610
1131.712, 0.5633240
1132.194, 0.7160950
1132.676, 1.220703
1133.158, 1.924866
1133.640, 2.365479
1134.122, 2.200806
1134.604, 1.996307
1135.087, 1.879913
1135.569, 1.772644
1136.051, 1.615082
1136.533, 1.409973
1137.015, 1.126038
1137.497, 0.7872310
1137.979, 0.5595400
1138.461, 0.6717530
1138.943, 0.7512820
1139.426, 0.4257510
1139.908, 9.6680000E-02
1140.390, 0.4094540
1140.872, 1.362427
1141.354, 1.910950
1141.836, 1.980865
1142.318, 1.829620
1142.800, 1.378662
1143.283, 1.030029
1143.765, 1.164124
1144.247, 1.630219
1144.729, 1.961670
1145.211, 2.157196
1145.693, 2.246643
1146.175, 2.224121
1146.657, 2.176117
1147.140, 2.179138
1147.622, 2.201294
1148.104, 2.194458
1148.586, 2.164978
1149.068, 2.200073
1149.550, 2.262756
1150.032, 2.598389
1150.514, 3.354004
1150.996, 4.131989
1151.479, 4.329102
1151.961, 4.252930
1152.443, 4.315552
1152.925, 4.605042
1153.407, 4.789001
1153.889, 4.900269
1154.371, 4.768646
1154.853, 4.246399
1155.335, 3.584229
1155.818, 3.194519
1156.300, 3.035431
1156.782, 3.077332
1157.264, 3.443176
1157.746, 3.568481
1158.228, 3.301941
1158.710, 2.984497
1159.192, 2.769470
1159.675, 2.603424
1160.157, 2.617554
1160.639, 2.707489
1161.121, 2.629974
1161.603, 2.247925
1162.085, 1.816284
1162.567, 1.212372
1163.049, 0.8880310
1163.531, 1.405884
1164.014, 2.447754
1164.496, 2.383667
1164.978, 1.459045
1165.460, 0.7494810
1165.942, 1.108887
1166.424, 1.371277
1166.906, 0.9136350
1167.388, 0.4312740
1167.870, 0.6887510
1168.353, 1.543335
1168.835, 1.822418
1169.317, 1.505127
1169.799, 1.252106
1170.281, 1.549835
1170.763, 1.808502
1171.245, 1.686707
1171.727, 1.484589
1172.210, 1.642456
1172.692, 2.130463
1173.174, 2.807556
1173.656, 3.631897
1174.138, 4.019440
1174.620, 3.148651
1175.102, 2.159882
1175.584, 1.584015
1176.067, 1.398956
1176.549, 1.771942
1177.031, 2.712067
1177.513, 2.802307
1177.995, 1.836395
1178.477, 0.9129640
1178.959, 0.9643550
1179.441, 1.311401
1179.923, 1.562927
1180.406, 1.721771
1180.888, 1.869507
1181.370, 2.010406
1181.852, 1.953094
1182.334, 1.609222
1182.816, 1.361237
1183.298, 1.734985
1183.780, 2.188171
1184.262, 2.234436
1184.745, 1.912354
1185.227, 1.519745
1185.709, 1.035614
1186.191, 0.7912600
1186.673, 0.8860170
1187.155, 1.120361
1187.637, 1.697296
1188.119, 2.105865
1188.602, 1.566833
1189.084, 0.1492610
1189.566, 0.2835080
1190.048, 0.3883360
1190.530, 1.056702
1191.012, 1.374786
1191.494, 1.536041
1191.976, 1.693268
1192.458, 1.846222
1192.941, 2.010895
1193.423, 2.192841
1193.905, 2.265259
1194.387, 2.225861
1194.869, 2.020264
1195.351, 1.469269
1195.833, 1.062988
1196.315, 1.834595
1196.797, 2.825256
1197.280, 2.640869
1197.762, 0.8842160
1198.244, 0.1347050
1198.726, 0.5260620
1199.208, 1.039215
1199.690, 1.216309
1200.172, 1.236847
1200.654, 1.244049
1201.137, 1.253448
1201.619, 1.284210
1202.101, 1.319611
1202.583, 1.515289
1203.065, 1.899384
1203.547, 2.232208
1204.029, 2.498566
1204.511, 2.493958
1204.994, 1.612610
1205.476, 0.4287110
1205.958, 3.1463999E-02
1206.440, 0.6477660
1206.922, 0.8822940
1207.404, 0.6174320
1207.886, 0.2990420
1208.368, 0.1590270
1208.850, 0.1673890
1209.333, 0.3620610
1209.815, 0.6639710
1210.297, 0.9333500
1210.779, 1.225891
1211.261, 1.274689
1211.743, 1.040283
1212.225, 0.8160400
1212.707, 0.8456120
1213.189, 0.9606930
1213.672, 0.9985660
1214.154, 0.9840090
1214.636, 0.9857180
1215.118, 1.079590
1215.600, 0.8819580
1216.082, 0.3254700
1216.564, 3.3295002E-02
1217.046, 0.5889890
1217.529, 1.310516
1218.011, 1.096802
1218.493, 0.3460690
1218.975, 4.4158999E-02
1219.457, 0.4066470
1219.939, 0.4667050
1220.421, 0.1291500
1220.903, 9.9457003E-02
1221.385, 0.4454350
1221.868, 1.055237
1222.350, 1.012024
1222.832, 0.5433960
1223.314, 0.2557680
1223.796, 0.2074580
1224.278, 0.1930540
1224.760, 0.1890870
1225.242, 0.2747190
1225.724, 0.8256530
1226.207, 1.237396
1226.689, 0.7241520
1227.171, 0.2754210
1227.653, 0.5778500
1228.135, 2.7892999E-02
1228.617, 0.1799320
1229.099, 6.3385002E-02
1229.581, 0.2037660
1230.064, 0.4693300
1230.546, 1.154877
1231.028, 1.115997
1231.510, 0.6557310
1231.992, 0.5534360
1232.474, 0.8437190
1232.956, 0.9653930
1233.438, 0.8696900
1233.921, 0.6520080
1234.403, 0.2316280
1234.885, 0.1346740
1235.367, 0.2591550
1235.849, 0.2018740
1236.331, 2.6611000E-02
1236.813, 0.2770390
1237.295, 0.3887020
1237.777, 0.3038330
1238.260, 0.1471560
1238.742, 7.8856997E-02
1239.224, 0.1823120
1239.706, 9.1614000E-02
1240.188, 0.4890140
1240.670, 0.5372310
1241.152, 0.2771610
1241.634, 0.2327880
1242.116, 0.4517820
1242.599, 0.6349180
1243.081, 0.4683530
1243.563, 0.3601990
1244.045, 0.5354310
1244.527, 0.8435060
1245.009, 0.9240420
1245.491, 0.8408200
1245.973, 1.170471
1246.456, 1.989105
1246.938, 2.506073
1247.420, 2.092529
1247.902, 1.576050
1248.384, 1.155884
1248.866, 0.8751530
1249.348, 0.8096620
1249.830, 0.9423520
1250.313, 1.346375
1250.795, 2.006470
1251.277, 2.344574
1251.759, 1.760498
1252.241, 1.297058
1252.723, 1.210938
1253.205, 1.301605
1253.687, 1.360687
1254.169, 1.336670
1254.651, 0.9947810
1255.134, 0.3680730
1255.616, 0.1644590
1256.098, 1.082397
1256.580, 1.608734
1257.062, 1.368317
1257.544, 0.9266050
1258.026, 1.109528
1258.508, 1.523621
1258.991, 1.403381
1259.473, 0.7993470
1259.955, 0.7243040
1260.437, 1.601257
1260.919, 2.081177
1261.401, 1.872742
1261.883, 1.463501
1262.365, 1.306366
1262.848, 1.239807
1263.330, 1.073303
1263.812, 0.8378600
1264.294, 0.7237850
1264.776, 0.6861880
1265.258, 0.7315370
1265.740, 0.7738650
1266.222, 0.9060060
1266.704, 1.400360
1267.187, 1.765930
1267.669, 1.333374
1268.151, 0.3957820
1268.633, 9.5031999E-02
1269.115, 0.5212100
1269.597, 0.8876950
1270.079, 1.071228
1270.561, 1.154694
1271.043, 1.249664
1271.526, 1.295410
1272.008, 1.196747
1272.490, 1.049683
1272.972, 1.045166
1273.454, 1.171570
1273.936, 1.125610
1274.418, 0.8863220
1274.900, 0.6639100
1275.383, 0.5062260
1275.865, 0.5130310
1276.347, 0.7978210
1276.829, 1.182404
1277.311, 1.476074
1277.793, 1.655945
1278.275, 1.566864
1278.757, 1.214630
1279.239, 0.9223330
1279.722, 0.7823490
1280.204, 0.7459410
1280.686, 0.8114010
1281.168, 0.9400630
1281.650, 1.158142
1282.132, 1.374512
1282.614, 1.282654
1283.096, 0.9631650
1283.578, 0.9896240
1284.061, 1.985504
1284.543, 2.316376
1285.025, 1.636414
1285.507, 0.8664550
1285.989, 1.099640
1286.471, 1.678955
1286.953, 1.800507
1287.435, 1.537384
1287.917, 1.235077
1288.400, 0.9018550
1288.882, 0.5634460
1289.364, 0.2189640
1289.846, 0.1645810
1290.328, 1.081848
1290.810, 1.968048
1291.292, 1.860626
1291.774, 1.188141
1292.257, 0.7995910
1292.739, 0.7063600
1293.221, 0.8639830
1293.703, 1.245300
1294.185, 1.369171
1294.667, 0.4584960
1295.149, 0.2432250
1295.631, 6.2835999E-02
1296.114, 0.7366030
1296.596, 1.197601
1297.078, 1.418823
1297.560, 1.591095
1298.042, 1.758118
1298.524, 1.255981
1299.006, 0.7405400
1299.488, 0.4885250
1299.970, 0.2496950
1300.453, 0.1167910
1300.935, 0.1109010
1301.417, 0.0000000E+00
##END=



