##NAMES=Vivianite
##RRUFFID=R070331
##IDEAL CHEMISTRY=Fe^2+^_3_(PO_4_)_2_&#183;8H_2_O
##LOCALITY=Big Fish River, Yukon Territory, Canada
##OWNER=RRUFF
##SOURCE=Mark Mauthner
##DESCRIPTION=Platy, indigo-blue massive, associated with maricite
##STATUS=The identification of this mineral is confirmed by single-crystal X-ray diffraction and chemical analysis.
##URL=rruff.info/R070331
##MEASURED CHEMISTRY=(Fe^2+^_1.77_Mg_1.21_Mn_0.02_)_Σ=3_(P_1.00_O_4_)_2_·8H_2_O;  (dark phase, H_2_O is estimated by difference) : Na_1.00_Fe^2+^_1.00_P_1.00_O_4_ (light phase = maricite, with trace amounts of Mn)
170.8750, 0.0000000E+00
171.3571, 19.88477
171.8392, 28.41528
172.3213, 40.72119
172.8034, 23.84473
173.2856, 6.822754
173.7677, 0.3518070
174.2498, 16.01514
174.7319, 16.74316
175.2140, 18.30054
175.6961, 19.13086
176.1783, 13.92822
176.6604, 2.169922
177.1425, 17.95557
177.6246, 18.00000
178.1067, 4.161621
178.5888, 12.55591
179.0710, 22.04834
179.5531, 28.16406
180.0352, 39.21484
180.5173, 57.30029
180.9994, 80.86865
181.4815, 106.7603
181.9637, 135.2732
182.4458, 167.3826
182.9279, 203.5691
183.4100, 244.1626
183.8921, 291.2390
184.3742, 346.7834
184.8564, 408.6768
185.3385, 469.4358
185.8206, 529.2520
186.3027, 592.1528
186.7848, 661.7437
187.2669, 738.0625
187.7491, 823.7583
188.2312, 923.4719
188.7133, 1032.973
189.1954, 1139.600
189.6775, 1242.677
190.1596, 1342.796
190.6418, 1437.680
191.1239, 1527.320
191.6060, 1627.035
192.0881, 1749.688
192.5702, 1891.650
193.0524, 2018.045
193.5345, 2123.945
194.0166, 2226.215
194.4987, 2353.346
194.9808, 2507.330
195.4629, 2656.713
195.9451, 2784.978
196.4272, 2894.059
196.9093, 2995.893
197.3914, 3092.308
197.8735, 3179.205
198.3556, 3250.240
198.8378, 3305.638
199.3199, 3342.859
199.8020, 3358.478
200.2841, 3351.711
200.7662, 3331.691
201.2483, 3297.570
201.7305, 3251.717
202.2126, 3199.286
202.6947, 3139.970
203.1768, 3075.226
203.6589, 3004.835
204.1410, 2928.896
204.6232, 2851.284
205.1053, 2772.274
205.5874, 2691.875
206.0695, 2610.207
206.5516, 2527.445
207.0337, 2442.979
207.5159, 2354.177
207.9980, 2260.689
208.4801, 2172.407
208.9622, 2090.982
209.4443, 2015.749
209.9264, 1943.437
210.4086, 1873.810
210.8907, 1807.311
211.3728, 1746.115
211.8549, 1691.773
212.3370, 1634.939
212.8191, 1570.383
213.3013, 1500.907
213.7834, 1447.099
214.2655, 1415.457
214.7476, 1388.886
215.2297, 1352.143
215.7118, 1299.816
216.1940, 1251.456
216.6761, 1212.094
217.1582, 1181.002
217.6403, 1145.123
218.1224, 1101.778
218.6045, 1057.813
219.0867, 1022.187
219.5688, 1003.851
220.0509, 972.4888
220.5330, 917.4529
221.0151, 837.1770
221.4972, 773.0830
221.9794, 728.8267
222.4615, 695.9873
222.9436, 665.5828
223.4257, 638.0481
223.9078, 611.7578
224.3899, 587.2378
224.8721, 564.3735
225.3542, 540.1340
225.8363, 514.5056
226.3184, 487.3005
226.8005, 456.7493
227.2827, 418.7449
227.7648, 385.8206
228.2469, 362.5684
228.7290, 348.5295
229.2111, 330.4238
229.6932, 305.0647
230.1754, 278.4248
230.6575, 257.8167
231.1396, 243.5444
231.6217, 235.0178
232.1038, 233.4868
232.5859, 240.2146
233.0681, 246.0801
233.5502, 250.8967
234.0323, 254.9644
234.5144, 257.8154
234.9965, 254.8804
235.4786, 258.1377
235.9608, 273.3687
236.4429, 303.8494
236.9250, 327.6006
237.4071, 339.7847
237.8892, 348.0859
238.3713, 364.8320
238.8535, 393.2363
239.3356, 424.8872
239.8177, 458.5742
240.2998, 496.8652
240.7819, 528.0410
241.2640, 549.1575
241.7462, 564.7585
242.2283, 582.9080
242.7104, 603.9827
243.1925, 627.9016
243.6746, 655.6565
244.1567, 690.0371
244.6389, 717.3735
245.1210, 736.5896
245.6031, 749.1914
246.0852, 756.9175
246.5673, 755.3167
247.0494, 756.7261
247.5316, 767.1655
248.0137, 791.8684
248.4958, 807.4058
248.9779, 809.9978
249.4600, 805.4702
249.9421, 804.7070
250.4243, 809.5891
250.9064, 814.8103
251.3885, 818.6199
251.8706, 821.0022
252.3527, 821.9556
252.8348, 821.5042
253.3170, 819.6311
253.7991, 816.0835
254.2812, 810.1589
254.7633, 804.0857
255.2454, 798.9800
255.7275, 795.7693
256.2097, 790.1445
256.6918, 781.0088
257.1739, 770.3271
257.6560, 761.3281
258.1381, 753.6770
258.6202, 748.4600
259.1024, 748.4666
259.5845, 758.2993
260.0666, 752.3171
260.5487, 720.8157
261.0308, 680.9031
261.5129, 664.2097
261.9951, 678.6194
262.4772, 697.9490
262.9593, 713.3130
263.4414, 725.0864
263.9235, 730.5542
264.4056, 726.6545
264.8878, 719.2927
265.3699, 719.2600
265.8520, 728.8660
266.3341, 739.0417
266.8162, 745.2271
267.2983, 745.8572
267.7805, 752.5381
268.2626, 765.9165
268.7447, 784.6675
269.2268, 808.3069
269.7089, 839.1448
270.1910, 866.5129
270.6732, 886.0183
271.1553, 896.9341
271.6374, 904.9573
272.1195, 907.7075
272.6016, 911.0667
273.0837, 925.8037
273.5659, 953.9165
274.0480, 983.3765
274.5301, 1012.429
275.0122, 1041.309
275.4943, 1057.503
275.9764, 1058.549
276.4586, 1051.527
276.9407, 1045.662
277.4228, 1041.003
277.9049, 1038.416
278.3870, 1041.916
278.8691, 1050.702
279.3513, 1043.977
279.8334, 1018.232
280.3155, 986.0005
280.7976, 966.7854
281.2798, 961.6624
281.7619, 949.4512
282.2440, 919.2324
282.7261, 873.6660
283.2082, 833.5210
283.6903, 799.8701
284.1725, 767.6855
284.6546, 731.5876
285.1367, 691.9250
285.6188, 647.9541
286.1009, 595.5889
286.5830, 538.3867
287.0652, 492.8796
287.5473, 460.7407
288.0294, 433.0861
288.5115, 400.1139
288.9936, 362.4507
289.4757, 326.9121
289.9579, 295.8447
290.4400, 268.2661
290.9221, 241.2306
291.4042, 214.8564
291.8863, 187.3188
292.3684, 153.7941
292.8506, 116.5763
293.3327, 85.10107
293.8148, 63.27258
294.2969, 48.32495
294.7790, 34.65210
295.2611, 22.08313
295.7433, 10.81873
296.2254, 2.310059
296.7075, 4.814331
297.1896, 14.20764
297.6717, 29.79565
298.1538, 45.83997
298.6360, 52.19739
299.1181, 49.85071
299.6002, 47.38977
300.0823, 54.72839
300.5644, 65.87671
301.0465, 70.33411
301.5287, 64.86890
302.0108, 52.56702
302.4929, 32.62158
302.9750, 6.455322
303.4571, 16.67590
303.9392, 24.88818
304.4214, 27.79529
304.9035, 39.89038
305.3856, 72.17688
305.8677, 102.3567
306.3498, 104.2358
306.8319, 85.76208
307.3141, 74.74011
307.7962, 92.32727
308.2783, 122.9839
308.7604, 152.6682
309.2425, 179.9954
309.7246, 202.0668
310.2068, 217.1818
310.6889, 225.7668
311.1710, 228.9382
311.6531, 221.5035
312.1352, 212.3077
312.6173, 208.2046
313.0995, 211.8873
313.5816, 216.1052
314.0637, 221.0013
314.5458, 223.8363
315.0279, 219.4637
315.5100, 197.9486
315.9922, 174.8949
316.4743, 158.7196
316.9564, 151.3920
317.4385, 146.6523
317.9206, 144.6931
318.4027, 143.6021
318.8849, 140.7036
319.3670, 134.3016
319.8491, 126.6313
320.3312, 117.7057
320.8133, 106.9932
321.2954, 98.44470
321.7776, 95.10156
322.2597, 93.40576
322.7418, 89.58350
323.2239, 76.07019
323.7060, 67.43628
324.1881, 70.86694
324.6703, 88.14807
325.1524, 96.20203
325.6345, 84.29468
326.1166, 67.38123
326.5987, 57.30420
327.0808, 56.16577
327.5630, 59.61243
328.0451, 69.98608
328.5272, 86.72424
329.0093, 97.91089
329.4914, 101.9279
329.9735, 101.8381
330.4557, 99.20764
330.9378, 91.47607
331.4199, 85.53516
331.9020, 81.26050
332.3841, 79.02441
332.8662, 81.15466
333.3484, 90.06238
333.8305, 99.73267
334.3126, 106.2759
334.7947, 107.3634
335.2768, 113.1237
335.7589, 126.6123
336.2411, 143.6053
336.7232, 153.1902
337.2053, 153.5513
337.6874, 151.7509
338.1695, 150.1486
338.6516, 148.4601
339.1338, 150.4088
339.6159, 157.7229
340.0980, 166.1960
340.5801, 167.0735
341.0622, 159.1881
341.5443, 153.8560
342.0265, 158.0286
342.5086, 170.1976
342.9907, 174.7573
343.4728, 170.4642
343.9549, 163.4204
344.4370, 162.6787
344.9192, 167.3026
345.4013, 167.7960
345.8834, 158.9387
346.3655, 144.1423
346.8476, 132.0807
347.3297, 122.8008
347.8119, 116.2881
348.2940, 112.8221
348.7761, 112.2625
349.2582, 115.1998
349.7403, 126.5142
350.2225, 136.5066
350.7046, 126.7299
351.1867, 99.64563
351.6688, 75.21460
352.1509, 71.81506
352.6331, 79.16736
353.1152, 81.93005
353.5973, 76.03357
354.0794, 65.99365
354.5615, 52.43420
355.0436, 37.21838
355.5258, 26.04443
356.0079, 27.32629
356.4900, 31.25427
356.9721, 28.29883
357.4542, 14.67505
357.9363, 1.676758
358.4185, 2.295654
358.9006, 1.421143
359.3827, 2.939697
359.8648, 12.09180
360.3469, 22.06860
360.8290, 30.45251
361.3112, 37.82837
361.7933, 41.21631
362.2754, 35.03424
362.7575, 26.16150
363.2396, 22.06763
363.7217, 30.18768
364.2039, 37.52075
364.6860, 40.93329
365.1681, 40.31714
365.6502, 37.66748
366.1323, 31.24097
366.6144, 24.05328
367.0966, 18.14679
367.5787, 12.19342
368.0608, 9.354797
368.5429, 12.15625
369.0250, 18.98303
369.5071, 21.43341
369.9893, 17.57684
370.4714, 11.61884
370.9535, 5.410828
371.4356, 1.081360
371.9177, 7.763916
372.3998, 15.16431
372.8820, 22.50934
373.3641, 27.68567
373.8462, 29.71326
374.3283, 32.10449
374.8104, 36.68994
375.2925, 43.85681
375.7747, 48.32745
376.2568, 48.72614
376.7389, 49.21954
377.2210, 55.92615
377.7031, 69.20831
378.1852, 83.55847
378.6674, 98.18994
379.1495, 112.5146
379.6316, 124.8506
380.1137, 135.1511
380.5958, 142.9937
381.0779, 145.2816
381.5601, 143.7590
382.0422, 147.3540
382.5243, 160.0457
383.0064, 176.3387
383.4885, 188.1775
383.9706, 195.7638
384.4528, 199.7966
384.9349, 197.7286
385.4170, 193.2294
385.8991, 193.0482
386.3812, 199.4030
386.8633, 206.1700
387.3455, 207.5975
387.8276, 205.0724
388.3097, 201.7723
388.7918, 197.8258
389.2739, 194.7100
389.7560, 194.6401
390.2382, 198.1815
390.7203, 199.9244
391.2024, 195.9686
391.6845, 188.9601
392.1666, 181.8847
392.6487, 174.0554
393.1309, 167.9441
393.6130, 165.8735
394.0951, 167.3628
394.5772, 167.0493
395.0593, 159.0010
395.5414, 151.6038
396.0236, 150.2015
396.5057, 165.1764
396.9878, 174.7329
397.4699, 172.3708
397.9520, 162.5061
398.4341, 159.0215
398.9163, 165.7069
399.3984, 174.8871
399.8805, 184.4614
400.3626, 195.6930
400.8447, 203.2532
401.3268, 204.8450
401.8090, 204.4526
402.2911, 207.6273
402.7732, 214.7061
403.2553, 224.3069
403.7374, 235.9191
404.2195, 249.5967
404.7017, 267.9567
405.1838, 293.3706
405.6659, 317.3115
406.1480, 330.7653
406.6301, 333.6617
407.1122, 335.9790
407.5944, 336.8879
408.0765, 341.0833
408.5586, 365.0852
409.0407, 408.4608
409.5228, 446.7513
410.0049, 456.5654
410.4871, 448.5435
410.9692, 453.3027
411.4513, 475.4099
411.9334, 504.1539
412.4155, 530.0480
412.8976, 553.2646
413.3798, 573.6910
413.8619, 585.9874
414.3440, 599.8768
414.8261, 630.0326
415.3082, 676.2333
415.7903, 716.3057
416.2725, 729.0135
416.7546, 731.4836
417.2367, 743.1895
417.7188, 778.4427
418.2009, 813.5583
418.6830, 835.7395
419.1652, 848.4296
419.6473, 863.1598
420.1294, 888.2385
420.6115, 914.4456
421.0937, 936.4391
421.5758, 949.2963
422.0579, 963.5549
422.5400, 987.4924
423.0221, 1014.098
423.5042, 1029.177
423.9864, 1018.388
424.4685, 1010.472
424.9506, 1014.437
425.4327, 1031.960
425.9148, 1040.155
426.3969, 1035.014
426.8791, 1024.771
427.3612, 1016.295
427.8433, 1010.878
428.3254, 1005.693
428.8075, 1003.397
429.2896, 1000.904
429.7718, 986.8518
430.2539, 959.2604
430.7360, 927.3119
431.2181, 896.0762
431.7002, 865.4438
432.1823, 831.9507
432.6645, 794.3054
433.1466, 758.2787
433.6287, 736.3024
434.1108, 724.9713
434.5929, 707.4810
435.0750, 672.1868
435.5572, 628.9280
436.0393, 594.1377
436.5214, 567.5632
437.0035, 544.8262
437.4856, 524.2754
437.9677, 505.0527
438.4499, 486.1299
438.9320, 467.1431
439.4141, 448.5033
439.8962, 432.9836
440.3783, 418.4066
440.8604, 398.7002
441.3426, 359.4187
441.8247, 323.3372
442.3068, 305.9263
442.7889, 313.0758
443.2710, 318.3491
443.7531, 309.6124
444.2353, 297.4563
444.7174, 293.4342
445.1995, 310.9346
445.6816, 323.8091
446.1637, 325.2932
446.6458, 316.6572
447.1280, 311.8782
447.6101, 313.4093
448.0922, 316.1222
448.5743, 316.1201
449.0564, 308.8450
449.5385, 312.1234
450.0207, 330.4172
450.5028, 355.7018
450.9849, 371.7343
451.4670, 376.1995
451.9491, 382.5873
452.4312, 398.3884
452.9134, 421.4552
453.3955, 434.5502
453.8776, 436.6312
454.3597, 436.2009
454.8418, 441.5150
455.3239, 451.2889
455.8061, 460.1619
456.2882, 467.3274
456.7703, 472.7719
457.2524, 475.8086
457.7345, 476.8270
458.2166, 477.7040
458.6988, 480.6667
459.1809, 483.4708
459.6630, 484.0402
460.1451, 482.3433
460.6272, 477.2712
461.1093, 464.0103
461.5915, 448.2423
462.0736, 437.2594
462.5557, 438.6696
463.0378, 440.1571
463.5199, 437.3540
464.0020, 430.5741
464.4842, 422.7137
464.9663, 415.9821
465.4484, 407.1383
465.9305, 394.2206
466.4126, 373.8781
466.8947, 355.0317
467.3769, 338.0696
467.8590, 322.4908
468.3411, 307.4390
468.8232, 293.4696
469.3053, 279.1224
469.7874, 264.6017
470.2696, 249.7170
470.7517, 229.4319
471.2338, 201.6204
471.7159, 175.0934
472.1980, 158.9963
472.6801, 153.0333
473.1623, 145.8335
473.6444, 135.2607
474.1265, 123.7279
474.6086, 116.5826
475.0907, 112.9436
475.5728, 107.1113
476.0550, 95.90540
476.5371, 80.59570
477.0192, 60.26160
477.5013, 34.63696
477.9834, 15.06482
478.4655, 19.90796
478.9477, 33.06274
479.4298, 32.51941
479.9119, 2.245605
480.3940, 34.48755
480.8761, 41.94006
481.3582, 31.27588
481.8404, 21.46985
482.3225, 16.22534
482.8046, 15.28149
483.2867, 20.40051
483.7688, 35.59131
484.2509, 43.39148
484.7331, 32.57812
485.2152, 18.76184
485.6973, 17.20642
486.1794, 39.70288
486.6615, 54.23267
487.1436, 55.10974
487.6258, 44.62451
488.1079, 32.43677
488.5900, 17.16675
489.0721, 4.248169
489.5542, 0.6483150
490.0363, 2.589233
490.5185, 4.916992
491.0006, 26.32422
491.4827, 49.28711
491.9648, 55.60876
492.4470, 48.08044
492.9291, 41.71265
493.4112, 42.66260
493.8933, 46.68909
494.3754, 42.92383
494.8575, 33.83252
495.3397, 35.04773
495.8218, 71.74048
496.3039, 117.0624
496.7860, 138.5714
497.2681, 125.9093
497.7502, 113.1425
498.2324, 117.0273
498.7145, 132.0875
499.1966, 151.0005
499.6787, 176.1418
500.1608, 200.1381
500.6429, 221.2510
501.1251, 239.4115
501.6072, 254.4207
502.0893, 261.5544
502.5714, 269.9329
503.0535, 284.2460
503.5356, 307.7970
504.0178, 329.3541
504.4999, 348.7211
504.9820, 366.0623
505.4641, 381.1519
505.9462, 393.0909
506.4283, 406.9264
506.9105, 423.0349
507.3926, 442.2827
507.8747, 470.2162
508.3568, 507.4487
508.8389, 544.1274
509.3210, 574.8575
509.8032, 599.9011
510.2853, 618.2745
510.7674, 627.8323
511.2495, 639.4170
511.7316, 669.8513
512.2137, 710.3617
512.6959, 742.6248
513.1780, 748.1555
513.6601, 752.2921
514.1422, 772.5685
514.6243, 807.1979
515.1064, 842.7104
515.5886, 871.8738
516.0707, 901.8096
516.5528, 937.3706
517.0349, 984.8784
517.5170, 1026.703
517.9991, 1055.415
518.4813, 1079.511
518.9634, 1109.726
519.4455, 1150.225
519.9276, 1190.132
520.4097, 1230.261
520.8918, 1268.308
521.3740, 1289.020
521.8561, 1285.245
522.3382, 1287.824
522.8203, 1321.352
523.3024, 1383.496
523.7845, 1439.169
524.2667, 1486.369
524.7488, 1528.548
525.2309, 1573.756
525.7130, 1619.410
526.1951, 1654.959
526.6772, 1669.099
527.1594, 1679.261
527.6415, 1706.219
528.1236, 1747.195
528.6057, 1790.829
529.0878, 1837.010
529.5699, 1878.801
530.0521, 1907.560
530.5342, 1918.471
531.0163, 1934.744
531.4984, 1970.663
531.9805, 2012.951
532.4626, 2047.632
532.9448, 2069.140
533.4269, 2087.132
533.9090, 2099.812
534.3911, 2109.437
534.8732, 2125.023
535.3553, 2150.876
535.8375, 2175.033
536.3196, 2192.347
536.8017, 2202.910
537.2838, 2208.314
537.7659, 2207.044
538.2480, 2204.240
538.7302, 2211.604
539.2123, 2227.345
539.6944, 2231.266
540.1765, 2215.044
540.6586, 2191.693
541.1407, 2179.874
541.6229, 2176.117
542.1050, 2169.609
542.5871, 2154.041
543.0692, 2134.756
543.5513, 2117.664
544.0334, 2102.147
544.5156, 2079.143
544.9977, 2039.551
545.4798, 1994.872
545.9619, 1954.432
546.4440, 1925.864
546.9261, 1892.827
547.4083, 1850.715
547.8904, 1803.044
548.3725, 1755.794
548.8546, 1708.088
549.3367, 1660.520
549.8188, 1613.245
550.3010, 1566.376
550.7831, 1522.718
551.2652, 1485.142
551.7473, 1441.106
552.2294, 1375.874
552.7115, 1292.639
553.1937, 1224.939
553.6758, 1176.492
554.1579, 1138.596
554.6400, 1106.436
555.1221, 1076.512
555.6042, 1038.666
556.0864, 980.2941
556.5685, 920.5928
557.0506, 879.6870
557.5327, 853.9445
558.0148, 830.1519
558.4969, 804.0537
558.9791, 776.5940
559.4612, 745.9236
559.9433, 709.4663
560.4254, 682.9802
560.9075, 679.6016
561.3896, 681.7679
561.8718, 673.5048
562.3539, 645.2102
562.8360, 622.7056
563.3181, 608.6172
563.8002, 601.3105
564.2823, 595.9131
564.7645, 591.2734
565.2466, 594.4509
565.7287, 612.6938
566.2108, 641.3777
566.6929, 654.6406
567.1750, 651.7056
567.6572, 648.8201
568.1393, 663.6713
568.6214, 687.6697
569.1035, 700.6370
569.5856, 695.9541
570.0677, 694.7957
570.5499, 723.9072
571.0320, 766.2930
571.5141, 795.2446
571.9962, 784.9641
572.4783, 775.3518
572.9604, 785.2639
573.4426, 810.7863
573.9247, 830.9023
574.4068, 847.1814
574.8889, 852.4077
575.3710, 841.8546
575.8531, 812.4309
576.3353, 784.9871
576.8174, 762.2709
577.2995, 737.8776
577.7816, 701.2307
578.2637, 650.0720
578.7458, 615.8008
579.2280, 608.6357
579.7101, 609.8557
580.1922, 583.3407
580.6743, 533.4514
581.1564, 484.8187
581.6385, 448.6941
582.1207, 420.2655
582.6028, 395.2914
583.0849, 373.6764
583.5670, 352.8405
584.0491, 333.7687
584.5313, 313.3297
585.0134, 287.4674
585.4955, 252.0508
585.9776, 223.0997
586.4597, 208.8179
586.9418, 201.5605
587.4240, 192.8031
587.9061, 178.7948
588.3882, 168.8745
588.8703, 167.7197
589.3524, 170.4595
589.8345, 159.9604
590.3167, 132.0590
590.7988, 108.2528
591.2809, 100.3845
591.7630, 103.1777
592.2451, 96.20862
592.7272, 80.41516
593.2094, 65.20593
593.6915, 63.71094
594.1736, 68.02380
594.6557, 58.04895
595.1378, 25.42749
595.6199, 2.508789
596.1021, 2.694458
596.5842, 25.48608
597.0663, 43.81299
597.5485, 46.24548
598.0306, 43.35022
598.5127, 36.23621
598.9948, 26.73596
599.4769, 20.04309
599.9590, 18.68579
600.4412, 16.90540
600.9233, 12.25220
601.4054, 4.319824
601.8875, 0.4820560
602.3696, 1.513062
602.8517, 0.3876950
603.3339, 3.974609
603.8160, 11.00342
604.2981, 9.012085
604.7802, 5.961426
605.2623, 22.58081
605.7444, 22.40002
606.2266, 10.28149
606.7087, 0.2991940
607.1908, 0.2889400
607.6729, 2.556641
608.1550, 7.0189998E-02
608.6371, 5.634766
609.1193, 8.021851
609.6014, 2.6860000E-03
610.0835, 7.325806
610.5656, 6.701050
611.0477, 4.162720
611.5298, 9.102417
612.0120, 3.396484
612.4941, 4.357666
612.9762, 8.172974
613.4583, 6.424927
613.9404, 7.606201
614.4225, 14.08252
614.9047, 19.53552
615.3868, 12.95129
615.8689, 4.483032
616.3510, 19.06860
616.8331, 26.71948
617.3152, 29.73096
617.7974, 30.89355
618.2795, 30.47888
618.7616, 29.26147
619.2437, 24.66064
619.7258, 21.11353
620.2079, 23.57385
620.6901, 32.28772
621.1722, 38.96289
621.6543, 35.87952
622.1364, 33.26526
622.6185, 39.17249
623.1006, 63.04993
623.5828, 73.61987
624.0649, 63.20471
624.5470, 46.72119
625.0291, 42.04382
625.5112, 50.81165
625.9933, 64.05017
626.4755, 83.44751
626.9576, 101.8446
627.4397, 98.45789
627.9218, 76.66504
628.4039, 62.24719
628.8860, 79.08252
629.3682, 104.7599
629.8503, 105.5591
630.3324, 84.43860
630.8145, 65.21936
631.2966, 64.82458
631.7787, 69.58191
632.2609, 69.39087
632.7430, 61.06970
633.2251, 55.24902
633.7072, 55.47717
634.1893, 58.21729
634.6714, 60.92627
635.1536, 65.28540
635.6357, 65.46423
636.1178, 59.47485
636.5999, 50.80969
637.0820, 46.21826
637.5641, 45.91333
