##NAMES=Vivianite
##RRUFFID=R050076
##IDEAL CHEMISTRY=Fe^2+^_3_(PO_4_)_2_&#183;8H_2_O
##LOCALITY=near Canutillos mine, Potosi, Saavedra, Bolivia
##OWNER=RRUFF
##SOURCE=Rock Currier
##DESCRIPTION=Green prismatic and elongated single crystal
##STATUS=The identification of this mineral has been confirmed by X-ray diffraction and chemical analysis
##URL=rruff.info/R050076
##MEASURED CHEMISTRY=(Fe^2+^_0.99_Mn_0.01_)_3_(P_1.00_O_4_)_2_Â·8H_2_O
96.161, 0.000
97.554, 0.274
98.947, 3.366
100.340, 47.423
101.732, 12.755
103.124, 25.758
104.516, 16.269
105.908, 78.341
107.300, 44.294
108.691, 43.908
110.082, 97.254
111.473, 123.609
112.864, 136.401
114.254, 277.179
115.644, 399.598
117.034, 545.367
118.424, 639.234
119.813, 586.969
121.203, 818.374
122.592, 742.281
123.981, 1097.543
125.369, 1325.026
126.758, 1664.631
128.146, 2145.258
129.534, 2089.821
130.922, 2214.275
132.309, 1851.638
133.696, 2098.867
135.083, 2264.888
136.470, 2996.631
137.857, 3493.039
139.243, 4291.048
140.630, 4997.586
142.016, 5276.606
143.401, 5208.065
144.787, 4973.927
146.172, 4390.193
147.557, 3781.827
148.942, 3133.783
150.327, 2695.041
151.711, 2385.582
153.096, 1993.395
154.480, 1902.518
155.863, 1609.939
157.247, 1695.597
158.630, 1936.477
160.013, 2230.568
161.396, 3123.861
162.779, 3656.351
164.161, 3745.324
165.544, 3295.090
166.926, 2901.646
168.308, 2502.650
169.689, 2152.688
171.070, 1671.275
172.452, 1565.658
173.833, 1311.068
175.213, 1171.590
176.594, 1163.257
177.974, 1096.666
179.354, 1034.746
180.734, 1167.423
182.114, 1312.996
183.493, 1383.499
184.872, 1677.958
186.251, 1859.392
187.630, 2386.814
189.008, 2711.239
190.387, 3382.673
191.765, 4129.123
193.143, 5123.595
194.520, 6313.184
195.898, 7050.219
197.275, 7920.760
198.652, 8051.339
200.029, 7913.954
201.405, 6773.607
202.782, 5263.300
204.158, 4164.031
205.534, 3406.809
206.909, 2665.688
208.285, 1901.631
209.660, 1639.643
211.035, 1443.730
212.410, 1127.454
213.784, 1107.717
215.159, 967.014
216.533, 1101.371
217.907, 1322.771
219.281, 1486.200
220.654, 1929.657
222.027, 2141.139
223.400, 2698.644
224.773, 3235.172
226.146, 3771.723
227.518, 3981.295
228.891, 4174.137
230.263, 3930.943
231.634, 3716.945
233.006, 3669.832
234.377, 3370.841
235.748, 3347.089
237.119, 3290.281
238.490, 3262.969
239.860, 3122.061
241.231, 3030.061
242.601, 2705.193
243.970, 2303.312
245.340, 1844.103
246.709, 1492.918
248.079, 1123.753
249.448, 1057.606
250.816, 760.473
252.185, 719.581
253.553, 699.719
254.921, 416.543
256.289, 633.458
257.657, 354.277
259.024, 452.649
260.391, 371.190
261.758, 439.094
263.125, 310.455
264.492, 420.548
265.858, 414.189
267.224, 283.147
268.590, 447.616
269.956, 327.410
271.321, 475.489
272.687, 542.821
274.052, 457.380
275.416, 437.143
276.781, 607.092
278.146, 560.207
279.510, 506.477
280.874, 520.886
282.237, 467.424
283.601, 431.083
284.964, 342.320
286.327, 71.721
287.690, 127.687
289.053, 88.741
290.416, 3.123
291.778, 77.091
293.140, 41.624
294.502, 227.725
295.863, 69.137
297.225, 225.607
298.586, 126.134
299.947, 69.711
301.308, 318.336
302.668, 191.006
304.029, 396.717
305.389, 366.467
306.749, 379.254
308.108, 241.075
309.468, 247.760
310.827, 232.813
312.186, 164.983
313.545, 123.923
314.903, 59.535
316.262, 123.299
317.620, 44.311
318.978, 14.444
320.336, 58.312
321.693, 35.122
323.051, 57.208
324.408, 73.944
325.765, 66.385
327.121, 128.955
328.478, 0.923
329.834, 85.060
331.190, 172.978
332.546, 264.516
333.902, 169.474
335.257, 378.193
336.612, 354.344
337.967, 446.281
339.322, 514.429
340.677, 639.572
342.031, 824.714
343.385, 831.852
344.739, 1026.985
346.093, 969.116
347.446, 695.246
348.799, 745.373
350.153, 569.545
351.505, 511.713
352.858, 419.138
354.210, 200.041
355.563, 217.209
356.915, 110.390
358.267, 64.565
359.618, 10.729
360.969, 35.112
362.321, 38.970
363.672, 88.829
365.022, 105.718
366.373, 29.641
367.723, 200.580
369.073, 113.579
370.423, 32.616
371.773, 151.672
373.122, 158.777
374.471, 120.934
375.821, 121.850
377.169, 113.377
378.518, 95.479
379.866, 102.674
381.215, 22.818
382.563, 58.985
383.910, 73.817
385.258, 29.609
386.605, 140.387
387.952, 124.156
389.299, 7.039
390.646, 139.745
391.992, 83.514
393.339, 174.242
394.685, 133.908
396.031, 134.486
397.376, 125.262
398.722, 93.406
400.067, 83.773
401.412, 95.096
402.757, 134.400
404.101, 325.674
405.446, 54.936
406.790, 94.822
408.134, 213.373
409.478, 32.559
410.821, 159.730
412.165, 133.891
413.508, 6.957
414.851, 253.193
416.193, 111.297
417.536, 74.385
418.878, 58.447
420.220, 165.514
421.562, 50.566
422.904, 73.402
424.245, 116.510
425.586, 198.502
426.927, 219.502
428.268, 393.148
429.609, 220.154
430.949, 242.164
432.289, 260.170
433.629, 345.172
434.969, 281.943
436.309, 547.938
437.648, 442.336
438.987, 737.316
440.326, 722.301
441.665, 660.260
443.003, 668.211
444.342, 1106.150
445.680, 1164.080
447.018, 1471.002
448.355, 1707.912
449.693, 1768.807
451.030, 2127.689
452.367, 2170.504
453.704, 2654.355
455.041, 2465.281
456.377, 2576.104
457.713, 2426.910
459.049, 2058.703
460.385, 1934.492
461.721, 1626.266
463.056, 1456.035
464.391, 1120.785
465.726, 795.518
467.061, 779.236
468.395, 543.934
469.730, 427.615
471.064, 602.277
472.398, 116.936
473.731, 404.572
475.065, 32.189
476.398, 18.760
477.731, 258.279
479.064, 135.775
480.397, 96.252
481.729, 38.701
483.062, 155.105
484.394, 21.488
485.725, 111.816
487.057, 128.596
488.389, 37.873
489.720, 217.049
491.051, 13.742
492.382, 78.396
493.712, 101.496
495.043, 75.111
496.373, 214.146
497.703, 106.160
499.032, 212.145
500.362, 211.105
501.691, 316.045
503.020, 384.963
504.349, 390.598
505.678, 456.732
507.007, 450.668
508.335, 499.498
509.663, 607.047
510.991, 705.832
512.319, 724.594
513.646, 803.041
514.973, 934.555
516.300, 918.807
517.627, 1027.475
518.954, 1124.119
520.280, 885.580
521.607, 1146.779
522.933, 1085.812
524.259, 1108.930
525.584, 1256.992
526.910, 1147.152
528.235, 1351.463
529.560, 1482.758
530.885, 1559.498
532.209, 1317.410
533.534, 1209.768
534.858, 1450.246
536.182, 1490.594
537.506, 1564.709
538.829, 1507.014
540.152, 1555.996
541.476, 1401.631
542.799, 1549.180
544.121, 1247.396
545.444, 1399.260
546.766, 1379.535
548.088, 1295.510
549.410, 1257.537
550.732, 1271.643
552.053, 1090.721
553.375, 1035.918
554.696, 984.072
556.017, 828.016
557.337, 865.008
558.658, 764.969
559.978, 681.916
561.298, 671.449
562.618, 872.355
563.938, 632.240
565.257, 743.887
566.576, 1047.826
567.895, 844.648
569.214, 1080.488
570.533, 1220.268
571.851, 1154.029
573.170, 970.408
574.488, 1019.127
575.805, 790.824
577.123, 598.404
578.440, 314.939
579.758, 298.574
581.075, 453.480
582.391, 7.803
583.708, 444.342
585.024, 298.861
586.341, 93.359
587.657, 317.832
588.972, 291.283
590.288, 294.715
591.603, 260.127
592.918, 85.516
594.233, 137.881
595.548, 100.504
596.863, 328.545
598.177, 127.844
599.491, 206.123
600.805, 209.383
602.119, 221.623
603.432, 160.842
604.746, 324.010
606.059, 338.191
607.372, 292.352
608.685, 228.494
609.997, 285.357
611.309, 325.721
612.621, 428.805
613.933, 463.734
615.245, 525.928
616.557, 535.959
617.868, 563.242
619.179, 529.238
620.490, 567.141
621.801, 444.098
623.111, 778.035
624.421, 712.955
625.731, 786.855
627.041, 451.736
628.351, 915.604
629.660, 568.160
630.970, 526.730
632.279, 978.541
633.588, 660.477
634.896, 768.686
636.205, 578.443
637.513, 929.082
638.821, 640.988
640.129, 517.078
641.437, 816.766
642.744, 604.805
644.051, 309.908
645.358, 325.338
646.665, 377.137
647.972, 517.758
649.278, 276.588
650.584, 459.781
651.890, 3.543
653.196, 446.516
654.502, 220.041
655.807, 242.764
657.113, 86.266
658.418, 139.752
659.722, 74.945
661.027, 195.686
662.331, 90.135
663.636, 57.572
664.940, 249.998
666.244, 135.590
667.547, 229.717
668.851, 149.014
670.154, 118.297
671.457, 8.572
672.760, 25.180
674.062, 252.025
675.365, 135.223
676.667, 47.406
677.969, 219.582
679.271, 22.238
680.572, 115.912
681.874, 54.082
683.175, 170.268
684.476, 47.461
685.777, 182.697
687.077, 74.955
688.378, 36.221
689.678, 238.516
690.978, 184.848
692.278, 109.207
693.577, 449.438
694.877, 362.693
696.176, 171.182
697.475, 59.865
698.774, 54.920
700.072, 99.988
701.371, 185.051
702.669, 13.113
703.967, 160.834
705.265, 171.119
706.562, 321.076
707.860, 115.031
709.157, 42.021
710.454, 339.896
711.751, 11.809
713.047, 378.715
714.344, 43.381
715.640, 350.490
716.936, 166.643
718.232, 128.131
719.527, 277.900
720.823, 250.670
722.118, 31.436
723.413, 110.236
724.708, 179.035
726.002, 53.834
727.297, 115.635
728.591, 96.566
729.885, 149.195
731.179, 311.955
732.472, 149.713
733.766, 63.529
735.059, 52.203
736.352, 165.934
737.645, 156.668
738.937, 243.510
740.230, 78.277
741.522, 102.045
742.814, 187.176
744.106, 108.945
745.397, 242.721
746.689, 257.494
747.980, 100.270
749.271, 108.277
750.562, 37.059
751.853, 344.430
753.143, 80.215
754.433, 214.990
755.723, 195.783
757.013, 88.576
758.303, 355.377
759.592, 37.820
760.881, 139.975
762.170, 15.775
763.459, 350.580
764.748, 211.387
766.036, 28.201
767.325, 325.020
768.613, 12.842
769.901, 206.670
771.188, 258.502
772.476, 92.660
773.763, 483.152
775.050, 88.029
776.337, 250.770
777.624, 88.572
778.910, 221.381
780.196, 176.197
781.482, 224.016
782.768, 75.844
784.054, 108.322
785.339, 148.486
786.625, 346.301
787.910, 9.125
789.195, 328.967
790.479, 90.834
791.764, 105.709
793.048, 433.594
794.332, 9.500
795.616, 289.422
796.900, 365.357
798.183, 341.316
799.467, 156.289
800.750, 244.273
802.033, 255.281
803.316, 124.301
804.598, 664.355
805.880, 58.434
807.163, 538.021
808.445, 326.168
809.726, 468.373
811.008, 367.598
812.289, 571.832
813.570, 512.150
814.851, 673.486
816.132, 808.852
817.413, 761.029
818.693, 512.555
819.973, 772.977
821.253, 784.670
822.533, 863.123
823.813, 1042.590
825.092, 971.098
826.371, 1206.113
827.650, 1260.107
828.929, 1308.676
830.208, 1443.311
831.486, 1308.914
832.764, 1096.576
834.042, 933.145
835.320, 1250.842
836.598, 1160.562
837.875, 1347.291
839.152, 1208.068
840.429, 1116.869
841.706, 1402.686
842.983, 1133.477
844.259, 1109.354
845.536, 1415.275
846.812, 1021.217
848.088, 1343.795
849.363, 942.768
850.639, 1103.951
851.914, 994.982
853.189, 831.041
854.464, 954.117
855.739, 1099.211
857.013, 1163.219
858.288, 1154.477
859.562, 872.662
860.836, 913.828
862.110, 1057.020
863.383, 599.088
864.656, 957.320
865.930, 720.520
867.203, 762.789
868.475, 985.088
869.748, 870.424
871.020, 606.168
872.292, 755.539
873.564, 696.926
874.836, 859.332
876.108, 714.760
877.379, 653.254
878.650, 733.764
879.922, 762.291
881.192, 701.857
882.463, 534.791
883.733, 706.391
885.004, 657.020
886.274, 610.660
887.544, 743.998
888.813, 873.680
890.083, 828.162
891.352, 699.102
892.621, 818.857
893.890, 700.625
895.159, 710.416
896.427, 554.225
897.695, 763.053
898.964, 1010.896
900.232, 703.760
901.499, 849.643
902.767, 907.545
904.034, 1001.465
905.301, 699.404
906.568, 1041.357
907.835, 1408.350
909.102, 1071.354
910.368, 1095.375
911.634, 1205.406
912.900, 1419.496
914.166, 1177.564
915.432, 1613.648
916.697, 1504.746
917.962, 1287.857
919.227, 1764.984
920.492, 1823.129
921.757, 1785.287
923.021, 2004.455
924.285, 2193.639
925.550, 2536.566
926.813, 2460.781
928.077, 2918.084
929.341, 2960.330
930.604, 3477.590
931.867, 3753.865
933.130, 3857.152
934.393, 4317.453
935.655, 5425.762
936.918, 5547.373
938.180, 7239.709
939.442, 7873.057
940.703, 9480.412
941.965, 11540.785
943.226, 13935.238
944.488, 16671.273
945.749, 20977.730
947.009, 26059.291
948.270, 29759.268
949.530, 32191.117
950.791, 32504.949
952.051, 30026.713
953.311, 25465.627
954.570, 20510.268
955.830, 16696.770
957.089, 12821.406
958.348, 10031.969
959.607, 7765.506
960.866, 6366.336
962.124, 5097.818
963.383, 4141.363
964.641, 3329.730
965.899, 2685.520
967.156, 2557.123
968.414, 1978.738
969.671, 1641.305
970.928, 1710.826
972.185, 1337.154
973.442, 1379.523
974.699, 1013.199
975.955, 1178.857
977.211, 1157.814
978.468, 643.734
979.723, 1177.197
980.979, 1034.123
982.234, 712.814
983.490, 1217.998
984.745, 533.299
986.000, 937.375
987.254, 1147.701
988.509, 795.467
989.763, 992.729
991.017, 781.506
992.271, 802.314
993.525, 640.578
994.779, 757.594
996.032, 956.625
997.285, 758.420
998.538, 871.932
999.791, 157.711
1001.044, 876.752
1002.296, 245.221
1003.548, 489.451
1004.800, 567.854
1006.052, 419.330
1007.304, 467.014
1008.555, 234.316
1009.807, 443.365
1011.058, 377.424
1012.309, 430.475
1013.559, 410.121
1014.810, 257.650
1016.060, 242.404
1017.310, 181.955
1018.560, 373.508
1019.810, 243.914
1021.060, 299.863
1022.309, 636.754
1023.558, 163.805
1024.807, 569.951
1026.056, 249.105
1027.305, 462.777
1028.553, 466.822
1029.801, 798.674
1031.049, 594.320
1032.297, 345.301
1033.545, 523.652
1034.793, 827.566
1036.040, 403.520
1037.287, 865.746
1038.534, 624.496
1039.781, 857.211
1041.027, 1014.680
1042.274, 942.996
1043.520, 1202.023
1044.766, 1615.762
1046.012, 1688.602
1047.257, 1973.121
1048.503, 2467.332
1049.748, 3043.695
1050.993, 3121.438
1052.238, 3922.664
1053.483, 3674.352
1054.727, 3584.734
1055.971, 3074.363
1057.216, 2983.441
1058.459, 2450.016
1059.703, 2054.551
1060.947, 1464.062
1062.190, 1467.148
1063.433, 1097.133
1064.676, 1061.551
1065.919, 921.941
1067.162, 679.453
1068.404, 1095.793
1069.646, 506.078
1070.888, 590.363
1072.130, 810.578
1073.372, 241.750
1074.613, 485.586
1075.855, 485.039
1077.096, 365.781
1078.337, 341.406
1079.578, 770.910
1080.818, 234.652
1082.059, 623.078
1083.299, 496.949
1084.539, 1151.859
1085.779, 1484.641
1087.018, 1620.086
1088.258, 1144.930
1089.497, 794.016
1090.736, 346.617
1091.975, 218.180
1093.213, 84.926
1094.452, 0.621
1095.690, 180.910
1096.928, 117.855
1098.166, 151.223
1099.404, 162.520
1100.642, 187.695
1101.879, 152.613
1103.116, 231.160
1104.353, 30.164
1105.590, 11.992
1106.827, 137.207
1108.063, 322.969
1109.299, 170.430
1110.536, 64.285
1111.771, 68.547
1113.007, 251.961
1114.243, 79.352
1115.478, 66.082
1116.713, 11.684
1117.948, 85.098
1119.183, 7.535
1120.418, 1.805
1121.652, 155.645
1122.886, 86.363
1124.120, 70.059
1125.354, 45.492
1126.588, 39.965
1127.821, 157.430
1129.055, 149.180
1130.288, 109.770
1131.521, 234.121
1132.753, 24.812
1133.986, 56.074
1135.218, 29.164
1136.450, 456.293
1137.682, 130.328
1138.914, 451.027
1140.146, 117.680
1141.377, 54.438
1142.609, 58.617
1143.840, 89.855
1145.071, 130.656
1146.301, 198.051
1147.532, 165.824
1148.762, 106.457
1149.992, 57.922
1151.222, 11.523
1152.452, 88.008
1153.682, 275.426
1154.911, 225.918
1156.140, 318.094
1157.369, 150.598
1158.598, 155.000
1159.827, 41.727
1161.055, 77.570
1162.284, 94.477
1163.512, 231.910
1164.740, 105.461
1165.967, 271.770
1167.195, 54.801
1168.422, 534.164
1169.650, 237.531
1170.877, 479.477
1172.103, 189.406
1173.330, 190.629
1174.557, 110.328
1175.783, 452.672
1177.009, 259.039
1178.235, 5.105
1179.461, 564.887
1180.686, 170.086
1181.912, 106.422
1183.137, 530.078
1184.362, 420.137
1185.587, 130.449
1186.811, 303.453
1188.036, 358.445
1189.260, 392.938
1190.484, 458.660
1191.708, 285.094
1192.932, 523.164
1194.155, 330.129
1195.378, 399.496
1196.602, 166.773
1197.825, 689.957
1199.047, 180.234
1200.270, 716.465
1201.492, 334.316
1202.715, 553.062
1203.937, 8.715
1205.159, 525.262
1206.380, 618.719
1207.602, 589.957
1208.823, 181.105
1210.044, 389.152
1211.265, 561.047
1212.486, 594.359
1213.707, 481.996
1214.927, 277.535
1216.147, 523.820
1217.367, 273.875
1218.587, 571.766
1219.807, 545.539
1221.027, 357.109
1222.246, 442.531
1223.465, 184.746
1224.684, 386.797
1225.903, 404.711
1227.121, 339.473
1228.340, 404.078
1229.558, 620.559
1230.776, 505.895
1231.994, 561.090
1233.212, 361.145
1234.429, 494.047
1235.646, 423.934
1236.864, 289.539
1238.081, 636.070
1239.297, 242.320
1240.514, 542.820
1241.730, 493.766
1242.947, 381.352
1244.163, 265.605
1245.378, 269.758
1246.594, 605.805
1247.810, 663.805
1249.025, 52.504
1250.240, 548.352
1251.455, 307.211
1252.670, 298.895
1253.885, 406.445
1255.099, 156.918
1256.313, 454.977
1257.527, 38.672
1258.741, 473.445
1259.955, 221.621
1261.168, 182.531
1262.382, 190.535
1263.595, 292.805
1264.808, 382.410
1266.021, 277.152
1267.233, 160.215
1268.446, 236.285
1269.658, 263.215
1270.870, 254.176
1272.082, 128.914
1273.294, 251.488
1274.505, 243.531
1275.716, 139.102
1276.928, 206.691
1278.139, 162.598
1279.349, 198.613
1280.560, 110.230
1281.770, 104.711
1282.981, 18.816
1284.191, 162.828
1285.401, 130.340
1286.610, 118.852
1287.820, 186.738
1289.029, 200.328
1290.239, 220.371
1291.448, 448.539
1292.656, 154.508
1293.865, 355.531
1295.073, 159.637
1296.282, 170.344
1297.490, 99.164
1298.698, 159.199
1299.906, 438.977
1301.113, 243.270
1302.320, 277.742
1303.528, 11.168
1304.735, 207.566
1305.942, 125.941
1307.148, 230.039
1308.355, 549.855
1309.561, 1.691
1310.767, 532.629
1311.973, 188.633
1313.179, 247.117
1314.384, 95.137
1315.590, 57.723
1316.795, 212.602
1318.000, 45.809
1319.205, 182.633
1320.410, 366.125
1321.614, 262.488
1322.819, 18.945
1324.023, 362.465
1325.227, 125.059
1326.431, 476.660
1327.634, 326.195
1328.838, 10.137
1330.041, 92.652
1331.244, 440.055
1332.447, 382.012
1333.650, 241.410
1334.852, 174.453
1336.055, 244.027
1337.257, 281.684
1338.459, 286.766
1339.661, 461.254
1340.862, 627.121
1342.064, 512.727
1343.265, 357.719
1344.466, 328.312
1345.667, 451.859
1346.868, 531.125
1348.068, 631.676
1349.269, 679.598
1350.469, 459.152
1351.669, 659.453
1352.869, 560.031
1354.069, 424.953
1355.268, 654.465
1356.468, 218.094
1357.667, 753.465
1358.866, 680.113
1360.065, 384.469
1361.263, 699.566
1362.462, 487.391
1363.660, 395.074
1364.858, 654.383
1366.056, 641.055
1367.254, 532.672
1368.451, 626.066
1369.649, 454.273
1370.846, 201.316
1372.043, 407.402
1373.240, 342.992
1374.436, 404.848
1375.633, 656.719
1376.829, 338.020
1378.025, 359.102
1379.221, 97.266
1380.417, 185.441
1381.613, 84.840
1382.808, 88.113
1384.003, 373.039
1385.199, 365.977
1386.393, 364.668
1387.588, 41.961
1388.783, 488.426
1389.977, 195.715
1391.171, 404.957
1392.365, 62.930
1393.559, 32.570
1394.753, 356.562
1395.946, 1.559
1397.140, 145.109
1398.333, 3.598
1399.526, 196.160
1400.719, 1.941
1401.911, 183.133
1403.104, 39.219
1404.296, 0.000
##END=



