##NAMES=Vuagnatite
##RRUFFID=R050397
##IDEAL CHEMISTRY=CaAlSiO_4_(OH)
##LOCALITY=Red Mountain, Mendocino County, California, USA
##OWNER=RRUFF
##SOURCE=Marcus Origlieri
##DESCRIPTION=Colorless prismatic crystals
##STATUS=The identification of this mineral has been confirmed by X-ray diffraction and chemical analysis
##URL=rruff.info/R050397
##MEASURED CHEMISTRY=Ca_1.00_Al_1.00_(Si_1.00_O_4_)(OH)
145.5563, 0.0000000E+00
146.0384, 3.3920001E-02
146.5205, 0.1347730
147.0026, 0.2732200
147.4847, 0.1963500
147.9668, 3.7701000E-02
148.4490, 5.9971001E-02
148.9311, 8.6250000E-02
149.4132, 3.8741998E-02
149.8953, 0.1156390
150.3774, 0.5025600
150.8595, 0.7197910
151.3417, 0.5493620
151.8238, 0.3300400
152.3059, 0.3420750
152.7880, 0.6859970
153.2701, 1.253468
153.7522, 1.768009
154.2344, 2.195061
154.7165, 2.591347
155.1986, 2.891804
155.6807, 3.179585
156.1628, 3.567028
156.6449, 4.113277
157.1271, 4.780678
157.6092, 5.418953
158.0913, 6.033680
158.5734, 6.626129
159.0555, 7.074402
159.5376, 7.479298
160.0198, 8.136803
160.5019, 9.284676
160.9840, 10.77684
161.4661, 12.01129
161.9482, 12.76727
162.4303, 13.50915
162.9125, 14.55497
163.3946, 15.89394
163.8767, 17.30503
164.3588, 18.75797
164.8409, 20.15750
165.3230, 21.38395
165.8052, 22.52044
166.2873, 23.37278
166.7694, 23.65179
167.2515, 23.30090
167.7336, 22.54832
168.2157, 21.25013
168.6979, 19.71000
169.1800, 18.21481
169.6621, 16.77272
170.1442, 15.53430
170.6263, 14.98478
171.1084, 15.59322
171.5906, 16.18303
172.0727, 16.23400
172.5548, 16.05458
173.0369, 16.08427
173.5190, 16.60918
174.0011, 17.57811
174.4833, 18.54591
174.9654, 19.14947
175.4475, 20.14505
175.9296, 21.72501
176.4117, 23.81313
176.8938, 26.30215
177.3760, 29.15348
177.8581, 32.38191
178.3402, 35.39793
178.8223, 39.35197
179.3044, 42.04036
179.7865, 42.48101
180.2687, 40.89996
180.7508, 38.00257
181.2329, 34.21504
181.7150, 29.39589
182.1971, 25.47301
182.6792, 22.57044
183.1614, 20.30128
183.6435, 18.63821
184.1256, 17.50997
184.6077, 16.55839
185.0898, 15.48704
185.5719, 14.28608
186.0541, 13.11593
186.5362, 11.92300
187.0183, 10.79582
187.5004, 9.800949
187.9825, 8.939739
188.4646, 8.249634
188.9468, 7.843029
189.4289, 7.662773
189.9110, 7.488075
190.3931, 7.084774
190.8752, 6.771755
191.3573, 6.923126
191.8395, 7.731285
192.3216, 8.754051
192.8037, 9.761795
193.2858, 10.64230
193.7679, 11.09552
194.2500, 10.72038
194.7322, 9.777611
195.2143, 9.068485
195.6964, 8.549416
196.1785, 8.411224
196.6606, 8.743061
197.1427, 9.459263
197.6249, 10.39072
198.1070, 11.62254
198.5891, 13.07526
199.0712, 13.94369
199.5533, 14.09004
200.0354, 13.71258
200.5176, 12.81429
200.9997, 11.48655
201.4818, 9.980164
201.9639, 8.524563
202.4460, 7.203632
202.9281, 5.801987
203.4103, 3.869713
203.8924, 2.371025
204.3745, 1.749229
204.8566, 1.837318
205.3387, 2.204670
205.8208, 2.450790
206.3030, 2.510147
206.7851, 2.698631
207.2672, 3.178795
207.7493, 3.645824
208.2314, 3.910568
208.7135, 4.030739
209.1957, 4.220284
209.6778, 4.684113
210.1599, 5.465656
210.6420, 6.191994
211.1241, 6.887527
211.6062, 7.517483
212.0884, 7.905727
212.5705, 8.140095
213.0526, 8.625019
213.5347, 9.806038
214.0168, 11.79873
214.4989, 13.28175
214.9811, 13.77480
215.4632, 14.18066
215.9453, 14.99855
216.4274, 16.28458
216.9095, 17.98833
217.3916, 20.20864
217.8737, 22.95319
218.3559, 25.27166
218.8380, 27.55235
219.3201, 29.16405
219.8022, 29.54481
220.2843, 28.65392
220.7664, 26.83884
221.2486, 24.00801
221.7307, 20.36520
222.2128, 16.93755
222.6949, 13.71547
223.1770, 10.84619
223.6591, 8.500778
224.1413, 6.683475
224.6234, 5.359913
225.1055, 4.790173
225.5876, 4.699841
226.0697, 4.638199
226.5518, 4.499790
227.0340, 4.322254
227.5161, 4.181602
227.9982, 4.108810
228.4803, 3.961239
228.9624, 3.640999
229.4445, 3.203007
229.9267, 2.680122
230.4088, 2.018040
230.8909, 1.336498
231.3730, 0.8889010
231.8551, 0.7485280
232.3372, 0.6653020
232.8194, 0.5435330
233.3015, 0.4100530
233.7836, 0.3001210
234.2657, 0.2367100
234.7478, 0.1920510
235.2299, 7.7007003E-02
235.7121, 0.2174380
236.1942, 0.3509410
236.6763, 6.3735999E-02
237.1584, 0.3459890
237.6405, 0.5364040
238.1227, 0.3383410
238.6048, 7.3128000E-02
239.0869, 0.2551570
239.5690, 0.1286050
240.0511, 0.1134380
240.5332, 0.5204580
241.0154, 0.9650800
241.4975, 1.307312
241.9796, 1.486290
242.4617, 1.568607
242.9438, 1.716370
243.4259, 1.959923
243.9081, 2.230453
244.3902, 2.471279
244.8723, 2.752804
245.3544, 3.140736
245.8365, 3.662357
246.3186, 4.293468
246.8008, 4.992489
247.2829, 5.838104
247.7650, 6.635128
248.2471, 7.547821
248.7292, 8.327236
249.2113, 8.799652
249.6935, 8.893757
250.1756, 8.569740
250.6577, 7.721004
251.1398, 5.742149
251.6219, 4.102322
252.1040, 2.873718
252.5862, 1.937046
253.0683, 1.241905
253.5504, 0.7631260
254.0325, 0.4101520
254.5146, 3.3085000E-02
254.9967, 0.4508900
255.4789, 0.7821620
255.9610, 0.8779070
256.4431, 0.8699190
256.9252, 0.8335420
257.4073, 0.7955510
257.8894, 0.8192410
258.3716, 1.025124
258.8537, 1.604790
259.3358, 1.800545
259.8179, 1.275021
260.3000, 0.5688290
260.7821, 0.1305810
261.2643, 3.9531998E-02
261.7464, 0.1428410
262.2285, 0.3344230
262.7106, 0.6777040
263.1927, 0.6694340
263.6748, 1.1951000E-02
264.1570, 0.8158950
264.6391, 1.369404
265.1212, 1.612778
265.6033, 1.873810
266.0854, 2.484436
266.5675, 3.465248
267.0497, 4.306900
267.5318, 4.819187
268.0139, 5.309147
268.4960, 6.040668
268.9781, 7.019642
269.4602, 8.073917
269.9424, 9.164875
270.4245, 10.22184
270.9066, 10.93533
271.3887, 11.22009
271.8708, 11.21852
272.3529, 10.96387
272.8351, 10.47488
273.3172, 9.920979
273.7993, 9.354603
274.2814, 8.813587
274.7635, 8.365650
275.2456, 7.856487
275.7278, 7.617115
276.2099, 7.974998
276.6920, 8.876289
277.1741, 9.895386
277.6562, 10.88690
278.1383, 11.83840
278.6205, 12.70723
279.1026, 13.43232
279.5847, 14.22415
280.0668, 15.26803
280.5489, 16.52809
281.0310, 17.79295
281.5132, 19.09018
281.9953, 20.23575
282.4774, 20.98789
282.9595, 21.30134
283.4416, 21.50508
283.9237, 21.82256
284.4059, 22.20224
284.8880, 22.46149
285.3701, 22.65556
285.8522, 22.54538
286.3343, 21.95074
286.8164, 20.89144
287.2986, 19.46830
287.7807, 17.58317
288.2628, 15.35273
288.7449, 13.13248
289.2270, 10.85979
289.7091, 8.807346
290.1913, 7.185875
290.6734, 5.936230
291.1555, 4.850979
291.6376, 3.802422
292.1197, 2.860294
292.6018, 2.205215
293.0840, 1.914730
293.5661, 1.745106
294.0482, 1.567390
294.5303, 1.426620
295.0124, 1.356937
295.4945, 1.308640
295.9767, 1.357559
296.4588, 1.664471
296.9409, 2.298386
297.4230, 2.985119
297.9051, 3.570133
298.3872, 4.124924
298.8694, 4.785404
299.3515, 5.702408
299.8336, 6.547665
300.3157, 6.873215
300.7978, 6.629219
301.2799, 6.166054
301.7621, 5.401356
302.2442, 4.581001
302.7263, 3.932507
303.2084, 3.511745
303.6905, 3.168026
304.1726, 2.683765
304.6548, 2.044777
305.1369, 1.639999
305.6190, 1.622295
306.1011, 1.848839
306.5832, 2.245457
307.0653, 2.803398
307.5475, 3.445885
308.0296, 4.162487
308.5117, 4.915127
308.9938, 5.472553
309.4759, 5.756977
309.9580, 5.865829
310.4402, 5.828785
310.9223, 5.686470
311.4044, 5.564121
311.8865, 5.638359
312.3686, 5.803185
312.8507, 5.588139
313.3329, 4.772541
313.8150, 3.982750
314.2971, 3.582420
314.7792, 3.435246
315.2613, 3.273468
315.7434, 2.868717
316.2256, 2.426830
316.7077, 2.458340
317.1898, 3.179165
317.6719, 3.914478
318.1540, 4.200008
318.6361, 4.382851
319.1183, 4.842354
319.6004, 5.711105
320.0825, 6.810898
320.5646, 7.896065
321.0467, 8.964859
321.5288, 10.22197
322.0110, 11.80387
322.4931, 13.49886
322.9752, 15.14694
323.4573, 16.71613
323.9394, 18.29817
324.4215, 20.00021
324.9037, 21.80931
325.3858, 23.62224
325.8679, 25.76410
326.3500, 27.50018
326.8321, 28.46609
327.3142, 28.65185
327.7964, 28.07864
328.2785, 26.51678
328.7606, 24.13422
329.2427, 21.72166
329.7248, 19.31982
330.2069, 16.89108
330.6891, 14.27829
331.1712, 11.62389
331.6533, 9.223938
332.1354, 7.196522
332.6175, 5.514038
333.0996, 4.133904
333.5818, 3.062641
334.0639, 2.256622
334.5460, 1.726231
335.0281, 1.441402
335.5102, 1.440777
335.9923, 1.797550
336.4745, 2.294163
336.9566, 2.664715
337.4387, 2.895473
337.9208, 3.205551
338.4029, 3.648518
338.8850, 4.228695
339.3671, 4.994453
339.8492, 5.968849
340.3314, 6.901829
340.8135, 7.620075
341.2956, 8.141769
341.7777, 8.577488
342.2598, 9.081074
342.7419, 9.280239
343.2241, 8.730419
343.7062, 7.570488
344.1883, 6.497265
344.6704, 5.982162
345.1525, 5.760979
345.6346, 5.210693
346.1168, 4.200157
346.5989, 3.185410
347.0810, 2.417793
347.5631, 1.883057
348.0452, 1.616795
348.5273, 1.707451
349.0095, 1.999340
349.4916, 2.359329
349.9737, 2.787823
350.4558, 3.203766
350.9379, 3.540688
351.4200, 3.859795
351.9022, 4.242584
352.3843, 4.678444
352.8664, 5.214664
353.3485, 5.882320
353.8306, 6.675259
354.3127, 7.554016
354.7949, 8.479431
355.2770, 9.548042
355.7591, 10.88558
356.2412, 12.47039
356.7233, 14.24670
357.2054, 16.65604
357.6876, 19.09960
358.1697, 20.65478
358.6518, 21.19199
359.1339, 20.93147
359.6160, 19.95245
360.0981, 18.27343
360.5803, 16.07156
361.0624, 12.85971
361.5445, 9.515320
362.0266, 6.643459
362.5087, 4.257305
362.9908, 2.401505
363.4730, 1.195522
363.9551, 0.5098720
364.4372, 0.1527670
364.9193, 0.9148640
365.4014, 1.459991
365.8835, 1.581902
366.3657, 1.400475
366.8478, 1.122284
367.3299, 0.7943460
367.8120, 0.4804460
368.2941, 0.3140560
368.7762, 0.3588830
369.2584, 0.2632480
369.7405, 9.3575001E-02
370.2226, 0.5692900
370.7047, 1.014519
371.1868, 1.416943
371.6689, 1.875584
372.1511, 2.498547
372.6332, 3.296627
373.1153, 4.021317
373.5974, 4.511768
374.0795, 5.098518
374.5616, 6.044682
375.0438, 7.223545
375.5259, 8.283783
376.0080, 9.000877
376.4901, 9.524403
376.9722, 10.38868
377.4543, 11.96773
377.9365, 13.39582
378.4186, 14.40733
378.9007, 15.30612
379.3828, 16.44343
379.8649, 17.90899
380.3470, 19.50254
380.8292, 20.92966
381.3113, 22.07362
381.7934, 23.42876
382.2755, 25.20228
382.7576, 26.98022
383.2397, 28.38948
383.7219, 29.55543
384.2040, 30.91824
384.6861, 32.83856
385.1682, 35.28193
385.6503, 37.64792
386.1324, 39.93010
386.6146, 42.12731
387.0967, 44.46524
387.5788, 46.62273
388.0609, 48.19799
388.5430, 49.01374
389.0251, 49.24673
389.5073, 49.27334
389.9894, 49.26088
390.4715, 48.63364
390.9536, 46.83541
391.4357, 44.91447
391.9178, 43.43632
392.4000, 42.50188
392.8821, 41.97641
393.3642, 41.80280
393.8463, 41.99259
394.3284, 42.13757
394.8105, 42.34174
395.2927, 42.36850
395.7748, 42.23182
396.2569, 41.86601
396.7390, 41.21373
397.2211, 40.20639
397.7032, 38.93638
398.1854, 37.58932
398.6675, 36.14157
399.1496, 34.71706
399.6317, 33.32000
400.1138, 31.97153
400.5959, 30.69543
401.0781, 29.49590
401.5602, 28.35250
402.0423, 27.32497
402.5244, 26.39068
403.0065, 25.24004
403.4886, 23.71070
403.9708, 22.14610
404.4529, 20.84029
404.9350, 19.70171
405.4171, 18.45748
405.8992, 17.01244
406.3813, 15.38239
406.8635, 13.43484
407.3456, 11.09975
407.8277, 9.118099
408.3098, 8.033012
408.7919, 7.445427
409.2740, 6.641354
409.7562, 5.472740
410.2383, 4.367912
410.7204, 3.563625
411.2025, 3.019985
411.6846, 2.632671
412.1667, 2.400311
412.6489, 2.243462
413.1310, 2.082561
413.6131, 1.917503
414.0952, 1.729759
414.5773, 1.300774
415.0594, 0.9979360
415.5416, 1.310955
416.0237, 2.171818
416.5058, 2.944595
416.9879, 3.214970
417.4700, 3.074177
417.9521, 3.008293
418.4343, 2.980457
418.9164, 3.054447
419.3985, 3.233810
419.8806, 3.529907
420.3627, 4.002277
420.8448, 4.668221
421.3270, 5.383228
421.8091, 5.917141
422.2912, 6.132088
422.7733, 6.533131
423.2554, 7.241905
423.7375, 8.029205
424.2197, 8.796139
424.7018, 9.528358
425.1839, 10.21207
425.6660, 10.81453
426.1481, 11.36573
426.6302, 12.14471
427.1124, 13.54457
427.5945, 14.69174
428.0766, 15.36792
428.5587, 15.79335
429.0408, 16.14744
429.5229, 16.49902
430.0051, 16.90755
430.4872, 17.50175
430.9693, 18.36467
431.4514, 19.05578
431.9335, 19.37424
432.4156, 19.68631
432.8978, 20.19737
433.3799, 20.82591
433.8620, 21.36430
434.3441, 21.70513
434.8262, 21.84704
435.3083, 21.76025
435.7905, 21.39490
436.2726, 20.93771
436.7547, 20.40790
437.2368, 19.83748
437.7189, 19.22987
438.2010, 18.57945
438.6832, 17.97704
439.1653, 17.56166
439.6474, 17.28502
440.1295, 16.86666
440.6116, 16.22669
441.0938, 15.51126
441.5759, 14.86589
442.0580, 14.25665
442.5401, 13.56251
443.0222, 12.65407
443.5043, 11.71553
443.9865, 10.96120
444.4686, 10.37113
444.9507, 9.736397
445.4328, 8.970776
445.9149, 8.086990
446.3970, 7.099522
446.8792, 5.964165
447.3613, 4.877785
447.8434, 3.644470
448.3255, 2.604542
448.8076, 2.182659
449.2897, 2.157043
449.7719, 2.022240
450.2540, 1.784245
450.7361, 1.134014
451.2182, 1.015827
451.7003, 0.6842690
452.1824, 0.3438340
452.6646, 0.3000760
453.1467, 0.2908740
453.6288, 0.3399240
454.1109, 0.6059490
454.5930, 0.7735140
455.0751, 0.8365780
455.5573, 0.5754470
456.0394, 0.4398770
456.5215, 0.4874040
457.0036, 0.5896000
457.4857, 0.6997910
457.9678, 0.7985800
458.4500, 0.8656920
458.9321, 0.8819470
459.4142, 0.8544960
459.8963, 0.8260120
460.3784, 0.8003920
460.8605, 0.7660790
461.3427, 0.7218320
461.8248, 0.6677250
462.3069, 0.6136210
462.7890, 0.5616460
463.2711, 0.4743160
463.7532, 0.2999230
464.2354, 4.3503001E-02
464.7175, 0.2255780
465.1996, 0.5627020
465.6817, 0.8066710
466.1638, 0.7929420
466.6459, 0.6037710
467.1281, 0.4389310
467.6102, 0.3551640
468.0923, 0.3321690
468.5744, 0.3558460
469.0565, 0.4245990
469.5386, 0.5410690
470.0208, 0.7522350
470.5029, 0.9522860
470.9850, 0.9292910
471.4671, 0.6561280
471.9492, 0.3837390
472.4313, 9.8953001E-02
472.9135, 0.1109660
473.3956, 0.1157260
473.8777, 7.7868998E-02
474.3598, 0.3223800
474.8419, 0.5229950
475.3240, 0.6748280
475.8062, 0.7193150
476.2883, 0.5182760
476.7704, 0.3956490
477.2525, 0.4474300
477.7346, 0.5995520
478.2167, 0.8088110
478.6989, 1.046352
479.1810, 1.207939
479.6631, 1.116188
480.1452, 0.6642270
480.6273, 0.5153850
481.1094, 1.003365
481.5916, 1.455215
482.0737, 1.567516
482.5558, 1.507698
483.0379, 1.616512
483.5200, 2.081905
484.0021, 2.671421
484.4843, 2.881817
484.9664, 2.588066
485.4485, 2.496876
485.9306, 2.880051
486.4127, 3.399368
486.8948, 3.878845
487.3770, 4.303699
487.8591, 4.661190
488.3412, 4.861839
488.8233, 5.014477
489.3054, 5.341259
489.7875, 5.853161
490.2697, 6.433178
490.7518, 7.065395
491.2339, 7.702427
491.7160, 8.235439
492.1981, 8.583038
492.6802, 9.056461
493.1624, 9.867065
493.6445, 10.85104
494.1266, 11.77745
494.6087, 12.60934
495.0908, 13.38301
495.5729, 14.12794
496.0551, 14.84278
496.5372, 15.56681
497.0193, 16.18459
497.5014, 16.93950
497.9835, 17.94335
498.4656, 19.11922
498.9478, 20.33339
499.4299, 21.54886
499.9120, 22.88576
500.3941, 24.52973
500.8762, 26.58191
501.3583, 28.58510
501.8405, 30.61824
502.3226, 32.51584
502.8047, 34.36040
503.2868, 35.99912
503.7689, 37.20482
504.2510, 37.91343
504.7331, 37.97939
505.2152, 37.08465
505.6974, 35.15399
506.1795, 32.70369
506.6616, 29.55106
507.1437, 26.16089
507.6258, 22.68813
508.1079, 19.20692
508.5901, 16.19362
509.0722, 13.99680
509.5543, 12.33764
510.0364, 10.82202
510.5185, 9.451344
511.0006, 8.233028
511.4828, 7.253819
511.9649, 6.430141
512.4470, 5.603096
512.9291, 4.715782
513.4113, 4.041882
513.8934, 3.774567
514.3755, 3.655453
514.8576, 3.443081
515.3397, 3.111931
515.8218, 2.725861
516.3040, 2.311684
516.7861, 1.897133
517.2682, 1.667709
517.7503, 1.937607
518.2324, 1.998924
518.7145, 1.521847
519.1967, 0.9691010
519.6788, 0.8465610
520.1609, 1.192841
520.6430, 1.581638
521.1251, 1.497528
521.6072, 0.9747960
522.0894, 0.7323070
522.5715, 1.008781
523.0536, 1.181522
523.5357, 1.251289
524.0178, 0.9091030
524.4999, 1.099083
524.9821, 1.075310
525.4642, 1.519413
525.9463, 1.724770
526.4284, 1.895920
526.9105, 1.850506
527.3926, 1.416485
527.8748, 1.210339
528.3569, 1.515919
528.8390, 1.712605
529.3211, 1.806259
529.8032, 1.487610
530.2853, 1.695965
530.7675, 1.679165
531.2496, 1.653763
531.7317, 1.937431
532.2138, 1.679142
532.6959, 1.963776
533.1780, 1.948555
533.6602, 2.223751
534.1423, 2.481049
534.6244, 2.615925
535.1065, 2.849491
535.5886, 3.271652
536.0707, 3.843395
536.5529, 4.523373
537.0350, 5.287476
537.5171, 6.085812
537.9992, 6.754837
538.4813, 7.185509
538.9634, 8.064594
539.4456, 9.970470
539.9277, 11.71923
540.4098, 12.56409
540.8919, 12.87968
541.3740, 13.45012
541.8561, 14.65053
542.3383, 16.07598
542.8204, 17.22286
543.3025, 18.12259
543.7846, 19.04077
544.2667, 19.96326
544.7488, 21.07626
545.2310, 22.70272
545.7131, 24.78034
546.1952, 26.81098
546.6773, 28.66994
547.1594, 30.49330
547.6415, 32.19115
548.1237, 33.92914
548.6058, 36.15251
549.0879, 39.03523
549.5700, 42.35747
550.0521, 45.77599
550.5342, 49.29834
551.0164, 52.85941
551.4985, 56.31063
551.9806, 59.91586
552.4627, 63.95227
552.9448, 68.22359
553.4269, 72.48038
553.9091, 76.63000
554.3912, 80.44565
554.8733, 83.63225
555.3554, 86.26306
555.8375, 87.84714
556.3196, 88.40414
556.8018, 87.69077
557.2839, 85.54456
557.7660, 82.14227
558.2481, 77.94713
558.7302, 72.78845
559.2123, 67.32888
559.6945, 62.17921
560.1766, 57.29504
560.6587, 52.57949
561.1408, 47.94737
561.6229, 43.69326
562.1050, 40.12308
562.5872, 37.30947
563.0693, 35.04210
563.5514, 33.47789
564.0335, 32.34928
564.5156, 31.52293
564.9977, 31.02338
565.4799, 30.94945
565.9620, 31.32191
566.4441, 32.00600
566.9262, 32.73114
567.4083, 33.42776
567.8904, 34.47257
568.3726, 36.07285
568.8547, 37.81690
569.3368, 39.62127
569.8189, 41.44272
570.3010, 43.20399
570.7831, 44.87824
571.2653, 46.60024
571.7474, 48.52170
572.2295, 50.63719
572.7116, 52.96577
573.1937, 55.54346
573.6758, 58.18536
574.1580, 60.77574
574.6401, 63.30607
575.1222, 65.69559
575.6043, 67.93399
576.0864, 70.02531
576.5685, 71.96874
577.0507, 73.74654
577.5328, 75.25570
578.0149, 76.48837
578.4970, 77.69823
578.9791, 79.16428
579.4612, 80.89931
579.9434, 82.59754
580.4255, 83.90159
580.9076, 85.59776
581.3897, 88.08328
581.8718, 90.92161
582.3539, 93.75104
582.8361, 96.45213
583.3182, 98.84550
583.8003, 101.0467
584.2824, 102.9132
584.7645, 103.4286
585.2466, 102.6443
585.7288, 100.3303
586.2108, 95.96907
586.6929, 90.11233
587.1750, 83.48280
587.6572, 75.97737
588.1393, 68.35737
588.6214, 60.64713
589.1035, 53.17748
589.5856, 46.36655
590.0677, 40.26388
590.5499, 34.92877
591.0320, 30.39844
591.5141, 26.60832
591.9962, 23.38763
592.4783, 21.06193
592.9604, 18.91587
593.4426, 16.88349
593.9247, 15.07311
594.4068, 13.61028
594.8889, 12.44818
595.3710, 11.42049
595.8531, 10.44610
596.3353, 9.504883
596.8174, 8.476120
597.2995, 7.302551
597.7816, 6.415886
598.2637, 6.047424
598.7458, 5.861504
599.2280, 5.597080
599.7101, 5.258629
600.1922, 4.866238
600.6743, 4.290413
601.1564, 3.778103
601.6385, 3.632565
602.1207, 3.726585
602.6028, 3.633789
603.0849, 3.198288
603.5670, 2.722786
604.0491, 2.638069
604.5313, 3.062073
605.0134, 3.128777
605.4955, 2.566002
605.9776, 2.009422
606.4597, 1.565102
606.9418, 1.283428
607.4240, 1.296711
607.9061, 1.613674
608.3882, 1.941349
608.8703, 1.901485
609.3524, 1.528889
609.8345, 1.280941
610.3167, 1.185509
610.7988, 1.158176
611.2809, 1.229073
611.7630, 1.313225
612.2451, 1.275078
612.7272, 1.072689
613.2094, 0.8960570
613.6915, 0.8636210
614.1736, 0.8867000
614.6557, 0.8938750
615.1378, 0.8613240
615.6199, 0.6872900
616.1021, 0.2829440
616.5842, 0.2361260
617.0663, 0.5274850
617.5484, 0.4041520
618.0305, 0.3695490
618.5126, 0.5506020
618.9948, 0.6945420
619.4769, 0.5818860
619.9590, 0.3193510
620.4411, 0.1829720
620.9232, 0.3297810
621.4053, 0.5904770
621.8875, 0.7391400
622.3696, 0.7770770
622.8517, 0.6101420
623.3338, 7.8178003E-02
623.8159, 0.3910680
624.2980, 0.3632200
624.7802, 2.6435999E-02
625.2623, 0.3472480
625.7444, 0.5900610
626.2265, 0.7047420
626.7086, 0.5865210
627.1907, 0.3643230
627.6729, 0.2072260
628.1550, 0.1486130
628.6371, 0.1616520
629.1192, 0.2406120
629.6013, 0.3628010
630.0834, 0.3272480
630.5656, 6.0230002E-02
631.0477, 0.2775190
631.5298, 8.1923999E-02
632.0119, 0.1591640
632.4940, 0.1315650
632.9761, 0.1354330
633.4583, 0.3489720
633.9404, 0.2751660
634.4225, 9.6306004E-02
634.9046, 0.1546820
635.3867, 0.4249110
635.8688, 0.5459400
636.3510, 0.3560410
636.8331, 9.9022001E-02
637.3152, 7.6389000E-02
637.7973, 0.3162570
638.2794, 0.5002670
638.7615, 0.6280400
639.2437, 0.6977160
639.7258, 0.6289710
640.2079, 0.5350690
640.6900, 0.5887950
641.1721, 0.8245700
641.6542, 1.117874
642.1364, 1.339977
642.6185, 1.495075
643.1006, 1.641792
643.5827, 1.776588
644.0648, 1.909630
644.5469, 2.073051
645.0291, 2.218548
645.5112, 2.300037
645.9933, 2.313728
646.4754, 2.290245
646.9575, 2.242970
647.4396, 2.167408
647.9218, 2.032173
648.4039, 1.856686
648.8860, 1.740074
649.3681, 1.730801
649.8502, 1.726578
650.3323, 1.556145
650.8145, 1.158253
651.2966, 0.8753090
651.7787, 0.7265280
652.2608, 0.6619720
652.7429, 0.7399220
653.2250, 0.8635480
653.7072, 0.9054260
654.1893, 0.8345340
654.6714, 0.7411160
655.1535, 0.7163850
655.6356, 0.7378730
656.1177, 0.7184560
656.5999, 0.6486170
657.0820, 0.5959590
657.5641, 0.5740620
658.0462, 0.6044730
658.5283, 0.7586900
659.0104, 1.072990
659.4926, 1.297115
659.9747, 1.384991
660.4568, 1.383621
660.9389, 1.251450
661.4210, 1.067566
661.9031, 0.9996260
662.3853, 1.107265
662.8674, 1.250736
663.3495, 1.197014
663.8316, 0.9217410
664.3137, 0.8357320
664.7958, 1.040520
665.2780, 1.252213
665.7601, 1.377266
666.2422, 1.427898
666.7243, 1.371357
667.2064, 1.181488
667.6885, 1.082497
668.1707, 1.257332
668.6528, 1.534260
669.1349, 1.748415
669.6170, 1.868401
670.0991, 1.845926
670.5812, 1.649649
671.0634, 1.408773
671.5455, 1.363033
672.0276, 1.597214
672.5097, 1.699312
672.9918, 1.512325
673.4739, 1.363897
673.9561, 1.374258
674.4382, 1.466019
674.9203, 1.547453
675.4024, 1.619745
675.8845, 1.655891
676.3666, 1.634275
676.8488, 1.555414
677.3309, 1.393551
677.8130, 1.156292
678.2951, 0.9596790
678.7772, 0.8347780
679.2593, 0.7901480
679.7415, 0.8844890
680.2236, 1.232864
680.7057, 1.417263
681.1878, 1.327354
681.6699, 1.231371
682.1520, 1.284557
682.6342, 1.385246
683.1163, 1.328827
683.5984, 1.071465
684.0805, 0.8262900
684.5626, 0.8605590
685.0447, 1.129421
685.5269, 1.360998
686.0090, 1.554209
686.4911, 1.647427
686.9732, 1.565086
687.4553, 1.399969
687.9374, 1.330093
688.4196, 1.394024
688.9017, 1.411819
689.3838, 1.313515
689.8659, 1.181484
690.3480, 1.057722
690.8301, 0.9818920
691.3123, 0.9906810
691.7944, 1.087816
692.2765, 1.205349
692.7586, 1.279819
693.2407, 1.314718
693.7228, 1.301762
694.2050, 1.208214
694.6871, 1.170799
695.1692, 1.306740
695.6513, 1.522207
696.1334, 1.709669
696.6155, 1.859859
697.0977, 1.931696
697.5798, 1.889219
698.0619, 1.805305
698.5440, 1.701694
699.0261, 1.609793
699.5082, 1.587639
699.9904, 1.648920
700.4725, 1.754526
700.9546, 1.872250
701.4367, 2.003353
701.9188, 2.092646
702.4009, 2.104538
702.8831, 2.136927
703.3652, 2.264725
703.8473, 2.378149
704.3294, 2.370182
704.8115, 2.260004
705.2936, 2.186270
705.7758, 2.257139
706.2579, 2.335230
706.7400, 2.296995
707.2221, 2.177185
707.7042, 2.033390
708.1863, 1.890627
708.6685, 1.806751
709.1506, 1.839737
709.6327, 1.959545
710.1148, 2.015327
710.5969, 1.944994
711.0790, 1.950554
711.5612, 2.147724
712.0433, 2.351793
712.5254, 2.440641
713.0075, 2.429703
713.4896, 2.395681
713.9717, 2.366207
714.4539, 2.322683
714.9360, 2.209463
715.4181, 2.077713
715.9002, 2.062618
716.3823, 2.181337
716.8644, 2.331881
717.3466, 2.456783
717.8287, 2.529242
718.3108, 2.441179
718.7929, 2.046932
719.2750, 1.767698
719.7571, 1.637606
720.2393, 1.597223
720.7214, 1.674917
721.2035, 1.807985
721.6856, 1.893433
722.1677, 1.900669
722.6498, 1.846449
723.1320, 1.690172
723.6141, 1.495543
724.0962, 1.428303
724.5783, 1.486465
725.0604, 1.455824
725.5425, 1.189470
726.0247, 0.8663600
726.5068, 0.8756960
726.9889, 1.404009
727.4710, 1.692518
727.9531, 1.547243
728.4352, 1.388132
728.9174, 1.336182
729.3995, 1.357275
729.8816, 1.421387
730.3637, 1.517239
730.8458, 1.578804
731.3279, 1.521675
731.8101, 1.422655
732.2922, 1.448156
732.7743, 1.568052
733.2564, 1.554121
733.7385, 1.309139
734.2206, 0.9974590
734.7028, 0.8279080
735.1849, 0.8096640
735.6670, 0.7860220
736.1491, 0.6675210
736.6312, 0.6622490
737.1133, 1.012962
737.5955, 1.342230
738.0776, 1.243147
738.5597, 0.7649820
739.0418, 0.3518960
739.5239, 0.2438350
740.0060, 0.2928850
740.4882, 0.3765540
740.9703, 0.4744830
741.4524, 0.5146350
741.9345, 0.4819370
742.4166, 0.4299640
742.8987, 0.3946720
743.3809, 0.3812660
743.8630, 0.4352040
744.3451, 0.7115820
744.8272, 0.7658230
745.3093, 0.3012120
745.7914, 0.1109890
746.2736, 7.7506997E-02
746.7557, 0.2190930
747.2378, 0.3675350
747.7199, 0.2098920
748.2020, 1.0571000E-02
748.6841, 5.9680998E-02
749.1663, 2.3510000E-02
749.6484, 0.1189730
750.1305, 0.3461340
750.6126, 0.5689510
751.0947, 0.7578580
751.5768, 0.8118060
752.0590, 0.4931760
752.5411, 0.3524700
753.0232, 0.8320880
753.5053, 0.7422940
753.9874, 0.5469400
754.4695, 0.2769550
754.9517, 4.5216002E-02
755.4338, 9.9830003E-03
755.9159, 0.1787260
756.3980, 0.3232770
756.8801, 0.3200420
757.3622, 0.2581180
757.8444, 0.1908190
758.3265, 0.1372950
758.8086, 0.1609380
759.2907, 0.2711750
759.7728, 0.3696630
760.2549, 0.3569150
760.7371, 0.2518040
761.2192, 0.1716270
761.7013, 0.1185840
762.1834, 8.3595000E-02
762.6655, 6.8516001E-02
763.1476, 5.8929000E-02
763.6298, 6.7116000E-02
764.1119, 7.4100003E-02
764.5940, 1.3706000E-02
765.0761, 0.1862980
765.5582, 0.3361740
766.0403, 0.2429390
766.5225, 0.1083640
767.0046, 0.2300150
767.4867, 0.5417900
767.9688, 0.7085570
768.4509, 0.5641480
768.9330, 0.3098790
769.4152, 0.2636950
769.8973, 0.4249920
770.3794, 0.6713830
770.8615, 1.037773
771.3436, 1.413563
771.8257, 1.810387
772.3079, 2.144032
772.7900, 2.229733
773.2721, 2.036987
773.7542, 2.006836
774.2363, 2.323296
774.7184, 2.693527
775.2006, 3.035091
775.6827, 3.308395
776.1648, 3.388283
776.6469, 3.311962
777.1290, 3.379002
777.6111, 3.885765
778.0933, 4.601463
778.5754, 4.929996
779.0575, 4.893219
779.5396, 5.110802
780.0217, 5.777744
780.5038, 6.430145
780.9860, 6.654427
781.4681, 6.581776
781.9502, 6.805603
782.4323, 7.646194
782.9144, 8.251076
783.3965, 8.415272
783.8787, 8.489803
784.3608, 8.685383
784.8429, 8.953468
785.3250, 9.140720
785.8071, 9.194939
786.2892, 9.250633
786.7714, 9.455360
787.2535, 9.727890
787.7356, 9.939529
788.2177, 10.08062
788.6998, 10.09887
789.1819, 9.960423
789.6641, 9.813725
790.1462, 9.839241
790.6283, 10.03778
791.1104, 10.32300
791.5925, 10.88804
792.0746, 11.19630
792.5568, 10.99536
793.0389, 10.66322
793.5210, 10.35261
794.0031, 10.12280
794.4852, 10.14222
794.9673, 10.59881
795.4495, 11.06091
795.9316, 11.16744
796.4137, 11.15804
796.8958, 11.38805
797.3779, 11.83984
797.8600, 12.23259
798.3422, 12.41410
798.8243, 12.57431
799.3064, 13.10807
799.7885, 14.03940
800.2706, 14.55515
800.7527, 14.50220
801.2349, 14.48491
801.7170, 14.73782
802.1991, 15.15796
802.6812, 15.67132
803.1633, 16.26767
803.6454, 16.59197
804.1276, 16.54089
804.6097, 16.36663
805.0918, 16.01017
805.5739, 15.64105
806.0560, 15.52019
806.5381, 15.58982
807.0203, 15.50799
807.5024, 15.05675
807.9845, 14.43724
808.4666, 13.97379
808.9487, 13.57906
809.4308, 12.83936
809.9130, 11.69096
810.3951, 10.61163
810.8772, 9.938152
811.3593, 9.485825
811.8414, 8.788124
812.3235, 7.715607
812.8057, 6.894264
813.2878, 6.542183
813.7699, 6.127934
814.2520, 5.415054
814.7341, 4.649189
815.2162, 4.121929
815.6984, 3.827263
816.1805, 3.439568
816.6626, 2.657722
817.1447, 1.893860
817.6268, 1.526024
818.1089, 1.357918
818.5911, 1.069439
819.0732, 0.6273650
819.5553, 0.1844710
820.0374, 0.1642610
820.5195, 0.4385800
821.0016, 0.6657140
821.4838, 0.8455430
821.9659, 1.049305
822.4480, 1.304630
822.9301, 1.487305
823.4122, 1.531433
823.8943, 1.489574
824.3765, 1.421116
824.8586, 1.289749
825.3407, 1.250954
825.8228, 1.520580
826.3049, 1.647324
826.7870, 1.410545
827.2692, 1.002972
827.7513, 0.5411260
828.2334, 9.7499996E-02
828.7155, 0.1503180
829.1976, 1.7448001E-02
829.6797, 0.1756060
830.1619, 3.6377002E-02
830.6440, 0.3130230
831.1261, 0.5994720
831.6082, 0.7861600
832.0903, 0.8608020
832.5724, 0.7859380
833.0546, 0.7763750
833.5367, 1.301376
834.0188, 2.459858
834.5009, 3.466709
834.9830, 4.282089
835.4651, 5.026604
835.9473, 5.737457
836.4294, 6.394218
836.9115, 6.961536
837.3936, 7.443275
837.8757, 7.962036
838.3578, 8.452122
838.8400, 9.091835
839.3221, 9.879097
839.8042, 10.90187
840.2863, 12.32710
840.7684, 14.07223
841.2505, 15.87217
841.7327, 17.60642
842.2148, 19.35454
842.6969, 21.16257
843.1790, 23.06825
843.6611, 25.24337
844.1432, 27.68107
844.6254, 30.13151
845.1075, 32.47759
845.5896, 34.89701
846.0717, 37.66464
846.5538, 40.76659
847.0359, 43.84964
847.5181, 46.70750
848.0002, 49.91746
848.4823, 53.85750
848.9644, 57.95438
849.4465, 61.76214
849.9286, 65.41781
850.4108, 69.35604
850.8929, 73.63280
851.3750, 78.21909
851.8571, 83.14981
852.3392, 88.37215
852.8214, 93.86084
853.3035, 99.60876
853.7856, 105.6700
854.2677, 112.0392
854.7498, 118.4846
855.2319, 124.7674
855.7141, 130.9740
856.1962, 137.5608
856.6783, 144.3748
857.1604, 150.6398
857.6425, 156.1291
858.1246, 160.9746
858.6068, 165.2996
859.0889, 168.9908
859.5710, 171.7012
860.0531, 173.6496
860.5352, 174.0199
861.0173, 172.5032
861.4995, 169.7490
861.9816, 165.7959
862.4637, 160.9306
862.9458, 155.4172
863.4279, 149.2777
863.9100, 142.7971
864.3922, 135.6766
864.8743, 128.6029
865.3564, 121.6643
865.8385, 115.1692
866.3206, 109.5317
866.8027, 104.7249
867.2849, 100.4027
867.7670, 96.40095
868.2491, 92.75363
868.7312, 89.56303
869.2133, 86.78424
869.6954, 84.31641
870.1776, 82.13203
870.6597, 80.04122
871.1418, 77.93440
871.6239, 76.07233
872.1060, 74.85617
872.5881, 74.28406
873.0703, 73.59090
873.5524, 72.60175
874.0345, 71.94641
874.5166, 71.85914
874.9987, 72.03419
875.4808, 72.25396
875.9630, 72.53876
876.4451, 72.97491
876.9272, 73.67358
877.4093, 74.29453
877.8914, 74.82230
878.3735, 75.19212
878.8557, 75.41274
879.3378, 75.43416
879.8199, 75.23962
880.3020, 74.79887
880.7841, 73.94967
881.2662, 72.60603
881.7484, 70.77735
882.2305, 68.33617
882.7126, 65.44559
883.1947, 62.43074
883.6768, 59.36280
884.1589, 56.24665
884.6411, 53.08899
885.1232, 50.03128
885.6053, 47.37853
886.0874, 45.13156
886.5695, 42.98652
887.0516, 40.88528
887.5338, 39.18637
888.0159, 38.20322
888.4980, 37.41517
888.9801, 36.09840
889.4622, 34.25457
889.9443, 33.09033
890.4265, 32.94940
890.9086, 32.98608
891.3907, 33.24549
891.8728, 33.54556
892.3549, 33.68948
892.8370, 33.81723
893.3192, 34.21939
893.8013, 34.97931
894.2834, 35.84671
894.7655, 36.55022
895.2476, 37.46341
895.7297, 39.01569
896.2119, 40.94960
896.6940, 42.71503
897.1761, 44.30109
897.6582, 46.26986
898.1403, 49.05211
898.6224, 52.33236
899.1046, 55.69579
899.5867, 59.13542
900.0688, 62.62557
900.5509, 66.18909
901.0330, 70.07978
901.5151, 74.44380
901.9973, 79.09201
902.4794, 83.70072
902.9615, 88.28803
903.4436, 93.39604
903.9257, 98.96486
904.4078, 105.2095
904.8900, 112.2580
905.3721, 119.9280
905.8542, 128.2113
906.3363, 136.9708
906.8184, 145.5627
907.3005, 153.3880
907.7827, 162.4908
908.2648, 173.6165
908.7469, 185.5284
909.2290, 197.7111
909.7111, 210.2625
910.1932, 223.6257
910.6754, 237.6867
911.1575, 251.7601
911.6396, 266.0227
912.1217, 279.4139
912.6038, 291.7981
913.0859, 302.3562
913.5681, 310.6691
914.0502, 316.1109
914.5323, 317.2582
915.0144, 313.4857
915.4965, 305.3317
915.9786, 292.8363
916.4607, 276.5074
916.9428, 257.7609
917.4249, 236.7264
917.9070, 215.0666
918.3892, 193.0476
918.8713, 172.0244
919.3534, 153.0883
919.8355, 136.0697
920.3176, 120.7607
920.7997, 107.0191
921.2819, 95.09538
921.7640, 85.38865
922.2461, 76.77058
922.7282, 68.86629
923.2103, 61.82048
923.6924, 56.04660
924.1746, 51.47950
924.6567, 47.18672
925.1388, 43.05532
925.6209, 39.30293
926.1030, 35.97871
926.5851, 33.03482
927.0673, 30.53945
927.5494, 28.39392
928.0315, 26.43336
928.5136, 24.63522
928.9957, 23.01398
929.4778, 21.60905
929.9600, 20.33919
930.4421, 19.13392
930.9242, 18.01680
931.4063, 17.04923
931.8884, 16.20382
932.3705, 15.37471
932.8527, 14.50039
933.3348, 13.60150
933.8169, 12.64384
934.2990, 11.68992
934.7811, 10.97214
935.2632, 10.46420
935.7454, 9.909702
936.2275, 9.224163
936.7096, 8.511337
937.1917, 7.871586
937.6738, 7.289204
938.1559, 6.687199
938.6381, 6.060757
939.1202, 5.506020
939.6023, 5.040180
940.0844, 4.614758
940.5665, 4.210579
941.0486, 3.835148
941.5308, 3.497776
942.0129, 3.192680
942.4950, 2.902489
942.9771, 2.578785
943.4592, 2.344902
943.9413, 2.315697
944.4235, 2.281551
944.9056, 2.109043
945.3877, 1.836380
945.8698, 1.531422
946.3519, 1.172436
946.8340, 0.9227980
947.3162, 0.9247440
947.7983, 0.9333880
948.2804, 0.8253520
948.7625, 0.6495290
949.2446, 0.4347610
949.7267, 0.2116930
950.2089, 5.5588000E-02
950.6910, 1.1017000E-02
951.1731, 4.4979998E-03
951.6552, 4.3083001E-02
952.1373, 3.9310001E-02
952.6194, 0.2020230
953.1016, 0.5636670
953.5837, 0.7301240
954.0658, 0.6308750
954.5479, 0.4873960
955.0300, 0.4765050
955.5121, 0.5380000
955.9943, 0.5849340
956.4764, 0.6103120
956.9585, 0.5592100
957.4406, 0.4363840
957.9227, 0.3884640
958.4048, 0.4902530
958.8870, 0.6063580
959.3691, 0.5224190
959.8512, 0.2897680
960.3333, 0.3791390
960.8154, 0.8572540
961.2975, 1.130077
961.7797, 1.035992
962.2618, 0.9213810
962.7439, 1.051359
963.2260, 1.249807
963.7081, 1.115524
964.1902, 0.5457920
964.6724, 0.2025300
965.1545, 0.1848700
965.6366, 0.2290360
966.1187, 0.3667140
966.6008, 0.4567620
967.0829, 0.3485550
967.5651, 0.1120430
968.0472, 3.6865000E-02
968.5293, 5.5392999E-02
969.0114, 7.1327001E-02
969.4935, 7.6774999E-02
969.9756, 0.1126120
970.4578, 0.2798670
970.9399, 0.4283430
971.4220, 0.3521250
971.9041, 8.8127002E-02
972.3862, 0.1198010
972.8683, 0.2102550
973.3505, 0.1832960
973.8326, 9.1305003E-02
974.3147, 0.3662890
974.7968, 0.4275000
975.2789, 0.3243640
975.7610, 0.1116430
976.2432, 0.1600490
976.7253, 0.3350410
977.2074, 0.3125310
977.6895, 0.1490150
978.1716, 0.1919990
978.6537, 0.5834500
979.1359, 0.7920060
979.6180, 0.8401550
980.1001, 0.8969670
980.5822, 1.023439
981.0643, 1.130587
981.5464, 1.121805
982.0286, 1.037386
982.5107, 0.9217830
982.9928, 0.8076380
983.4749, 0.9165610
983.9570, 1.259077
984.4391, 1.488852
984.9213, 1.420616
985.4034, 1.183554
985.8855, 0.9256230
986.3676, 0.6669250
986.8497, 0.6287480
987.3318, 0.8338300
987.8140, 0.9907250
988.2961, 1.036608
988.7782, 1.062120
989.2603, 1.126379
989.7424, 1.206463
990.2245, 1.250875
990.7067, 1.250799
991.1888, 1.297468
991.6709, 1.412512
992.1530, 1.520910
992.6351, 1.597403
993.1172, 1.675909
993.5994, 1.780434
994.0815, 1.906521
994.5636, 2.055470
995.0457, 2.297819
995.5278, 2.362074
996.0099, 2.027178
996.4921, 1.806644
996.9742, 1.991552
997.4563, 2.201881
997.9384, 2.041130
998.4205, 1.633696
998.9026, 1.452248
999.3848, 1.643839
999.8669, 1.826914
1000.349, 1.917196
1000.831, 1.996923
1001.313, 2.120499
1001.795, 2.244112
1002.277, 2.285646
1002.760, 2.272591
1003.242, 2.366369
1003.724, 2.716404
1004.206, 2.925821
1004.688, 2.652651
1005.170, 2.329964
1005.652, 2.275045
1006.134, 2.399662
1006.617, 2.596254
1007.099, 2.809944
1007.581, 2.922848
1008.063, 2.843302
1008.545, 2.722916
1009.027, 2.653049
1009.509, 2.639128
1009.991, 2.703388
1010.473, 2.813519
1010.956, 2.957050
1011.438, 3.110308
1011.920, 3.125494
1012.402, 2.857458
1012.884, 2.487749
1013.366, 2.213367
1013.848, 2.015192
1014.330, 1.862186
1014.813, 1.753456
1015.295, 1.683018
1015.777, 1.646618
1016.259, 1.678730
1016.741, 1.841576
1017.223, 2.047922
1017.705, 2.084751
1018.187, 2.001387
1018.669, 2.078360
1019.152, 2.303001
1019.634, 2.286261
1020.116, 1.882706
1020.598, 1.433437
1021.080, 1.309774
1021.562, 1.412262
1022.044, 1.462059
1022.526, 1.446835
1023.008, 1.300480
1023.491, 1.010155
1023.973, 0.8930300
1024.455, 1.104572
1024.937, 1.408293
1025.419, 1.531839
1025.901, 1.500084
1026.383, 1.416405
1026.865, 1.269978
1027.348, 1.257116
1027.830, 1.428528
1028.312, 1.544994
1028.794, 1.472620
1029.276, 1.358486
1029.758, 1.390724
1030.240, 1.547037
1030.722, 1.700550
1031.204, 1.915491
1031.687, 1.828903
1032.169, 1.205673
1032.651, 0.8657530
1033.133, 1.319162
1033.615, 2.002728
1034.097, 2.182163
1034.579, 1.895082
1035.061, 1.611876
1035.544, 1.338825
1036.026, 1.090664
1036.508, 0.7966040
1036.990, 0.6367720
1037.472, 0.7341610
1037.954, 0.9638670
1038.436, 1.180367
1038.918, 1.381939
1039.401, 1.548786
1039.883, 1.769217
1040.365, 1.775869
1040.847, 1.332954
1041.329, 0.9725760
1041.811, 1.013746
1042.293, 1.204277
1042.775, 1.205364
1043.257, 1.021210
1043.740, 0.9230290
1044.222, 0.9831980
1044.704, 1.018843
1045.186, 1.030727
1045.668, 1.016924
1046.150, 0.9012180
1046.632, 0.8043540
1047.114, 0.9026220
1047.596, 1.183029
1048.079, 1.410250
1048.561, 1.632334
1049.043, 1.695438
1049.525, 1.489214
1050.007, 1.223938
1050.489, 0.9136030
1050.971, 0.6568300
1051.453, 0.5859180
1051.936, 0.6876240
1052.418, 0.7928750
1052.900, 0.9587970
1053.382, 0.9792730
1053.864, 0.5765710
1054.346, 0.2820110
1054.828, 0.5183930
1055.310, 0.9234240
1055.792, 1.025867
1056.275, 0.8440720
1056.757, 0.7588770
1057.239, 0.9208530
1057.721, 1.063139
1058.203, 1.110235
1058.685, 1.122019
1059.167, 1.056416
1059.649, 1.025682
1060.131, 1.249014
1060.614, 1.641516
1061.096, 1.798737
1061.578, 1.559404
1062.060, 1.237730
1062.542, 0.7717670
1063.024, 0.4190440
1063.506, 0.3943160
1063.988, 0.4857100
1064.471, 0.4532240
1064.953, 0.3572080
1065.435, 0.5254170
1065.917, 1.163563
1066.399, 1.625818
1066.881, 1.573772
1067.363, 1.376169
1067.845, 1.093758
1068.328, 0.8930890
1068.810, 1.043802
1069.292, 1.424389
1069.774, 1.620945
1070.256, 1.498724
1070.738, 1.314688
1071.220, 1.087997
1071.702, 0.9326480
1072.184, 0.9835110
1072.667, 1.094067
1073.149, 1.111973
1073.631, 1.054373
1074.113, 1.000599
1074.595, 0.9695210
1075.077, 0.9792940
1075.559, 1.006590
1076.041, 1.111979
1076.523, 1.562395
1077.006, 1.914207
1077.488, 1.519951
1077.970, 0.7337590
1078.452, 0.4781480
1078.934, 0.9715940
1079.416, 1.262051
1079.898, 0.6158980
1080.380, 5.2967001E-02
1080.862, 0.2172340
1081.345, 0.5935690
1081.827, 0.7331180
1082.309, 0.7287860
1082.791, 0.8477590
1083.273, 1.125189
1083.755, 1.298479
1084.237, 1.185600
1084.719, 1.046625
1085.202, 1.005358
1085.684, 0.9896390
1086.166, 0.9189760
1086.648, 0.8431910
1087.130, 0.8394200
1087.612, 0.9203090
1088.094, 1.075396
1088.576, 1.413780
1089.058, 1.598919
1089.541, 1.118658
1090.023, 0.3804820
1090.505, 0.6270940
1090.987, 0.7675570
1091.469, 0.8066730
1091.951, 0.4337770
1092.433, 0.5931450
1092.915, 0.5393960
1093.397, 0.4761620
1093.880, 0.7089180
1094.362, 0.3930630
1094.844, 0.9921050
1095.326, 1.180149
1095.808, 1.053951
1096.290, 0.7329540
1096.772, 0.6881730
1097.254, 1.110210
1097.737, 1.407169
1098.219, 1.308481
1098.701, 1.131100
1099.183, 0.9352870
1099.665, 0.7968730
1100.147, 0.8417720
1100.629, 0.9734730
1101.111, 0.9533520
1101.594, 0.7254050
1102.076, 0.5905740
1102.558, 0.7612420
1103.040, 0.8523060
1103.522, 0.6447070
1104.004, 0.4089160
1104.486, 0.3377130
1104.968, 0.3677920
1105.450, 0.3627110
1105.932, 0.3131240
1106.415, 0.1669730
1106.897, 0.4054600
1107.379, 0.5348130
1107.861, 0.5607360
1108.343, 0.1732230
1108.825, 0.3167440
1109.307, 0.2466490
1109.789, 0.1682300
1110.272, 0.3873180
1110.754, 6.0146000E-02
1111.236, 0.2756370
1111.718, 0.2731700
1112.200, 0.3676990
1112.682, 0.2498260
1113.164, 0.1995980
1113.646, 0.3634870
1114.129, 0.4075890
1114.611, 0.2645870
1115.093, 0.3678320
1115.575, 0.1488950
1116.057, 0.1892990
1116.539, 0.4016910
1117.021, 0.4654850
1117.503, 7.4951001E-02
1117.985, 0.1038930
1118.468, 0.1733110
1118.950, 0.1400590
1119.432, 0.3053650
1119.914, 0.2191960
1120.396, 0.3476680
1120.878, 0.4856570
1121.360, 0.1186700
1121.842, 1.0239000E-02
1122.324, 0.2070270
1122.807, 0.2766130
1123.289, 0.2520680
1123.771, 0.1586530
1124.253, 1.3027000E-02
1124.735, 6.6947997E-02
1125.217, 7.6157004E-02
1125.699, 9.9163003E-02
1126.181, 0.1243230
1126.664, 0.1151490
1127.146, 4.8161000E-02
1127.628, 3.0022001E-02
1128.110, 9.7144999E-02
1128.592, 0.1125680
1129.074, 9.9949002E-02
1129.556, 0.5927560
1130.038, 0.6759530
1130.521, 0.2702390
1131.003, 2.6830999E-02
1131.485, 0.1110320
1131.967, 0.2833880
1132.449, 0.3965910
1132.931, 0.4433650
1133.413, 0.3720780
1133.895, 0.2226160
1134.377, 0.2495880
1134.859, 0.4546890
1135.342, 1.018457
1135.824, 1.437962
1136.306, 1.747458
1136.788, 1.955011
1137.270, 1.750923
1137.752, 2.092880
1138.234, 2.233330
1138.716, 2.364193
1139.199, 2.781076
1139.681, 2.636383
1140.163, 3.032398
1140.645, 3.211988
1141.127, 3.343596
1141.609, 3.605692
1142.091, 3.560530
1142.573, 3.576481
1143.056, 4.351370
1143.538, 5.453264
1144.020, 5.919273
1144.502, 5.996777
1144.984, 6.375828
1145.466, 7.101936
1145.948, 7.805975
1146.430, 8.335436
1146.912, 8.923027
1147.395, 9.916302
1147.877, 10.90612
1148.359, 11.43086
1148.841, 11.66741
1149.323, 11.86703
1149.805, 12.00022
1150.287, 12.00758
1150.769, 11.83825
1151.251, 11.26257
1151.734, 10.05856
1152.216, 8.724003
1152.698, 7.513706
1153.180, 6.396408
1153.662, 5.293371
1154.144, 4.321548
1154.626, 3.688599
1155.108, 3.325596
1155.591, 2.981974
1156.073, 2.603840
1156.555, 2.166544
1157.037, 1.467657
1157.519, 0.9683360
1158.001, 0.9767860
1158.483, 1.137123
1158.965, 1.211182
1159.448, 1.227612
1159.930, 1.292402
1160.412, 1.410528
1160.894, 1.374214
1161.376, 0.9564020
1161.858, 0.7030300
1162.340, 0.8029460
1162.822, 0.8948210
1163.304, 0.8141460
1163.786, 0.7025320
1164.269, 0.6904300
1164.751, 0.7560920
1165.233, 0.8257980
1165.715, 0.9175590
1166.197, 0.9224610
1166.679, 0.8073040
1167.161, 0.7072850
1167.643, 0.6531770
1168.126, 0.6083130
1168.608, 0.5465240
1169.090, 0.4821760
1169.572, 0.4216670
1170.054, 0.3770050
1170.536, 0.4594590
1171.018, 0.6784150
1171.500, 0.8254510
1171.983, 0.8827110
1172.465, 0.8763310
1172.947, 0.8165050
1173.429, 0.6745950
1173.911, 0.4071120
1174.393, 0.1438430
1174.875, 0.1836610
1175.357, 0.4247780
1175.839, 0.4763240
1176.322, 0.3809550
1176.804, 0.3763370
1177.286, 0.4654250
1177.768, 0.4496860
1178.250, 0.2278140
1178.732, 2.7042000E-02
1179.214, 0.1549720
1179.696, 0.3517070
1180.178, 0.2452430
1180.661, 2.5648000E-02
1181.143, 3.2200001E-02
1181.625, 0.1646730
1182.107, 8.1456997E-02
1182.589, 0.2215460
1183.071, 0.3493060
1183.553, 7.8230001E-02
1184.035, 0.2488040
1184.518, 0.5226880
1185.000, 0.6533660
1185.482, 0.4674240
1185.964, 0.1941410
1186.446, 6.5310001E-02
1186.928, 5.9992000E-02
1187.410, 8.1118003E-02
1187.892, 0.1110530
1188.375, 0.1044290
1188.857, 1.5244000E-02
1189.339, 7.0891999E-02
1189.821, 4.3621000E-02
1190.303, 0.1471370
1190.785, 0.1279540
1191.267, 7.2820999E-02
1191.749, 8.2220003E-02
1192.231, 0.1371060
1192.714, 0.1611290
1193.196, 0.1458340
1193.678, 0.1382810
1194.160, 0.1778510
1194.642, 9.6143998E-02
1195.124, 0.2106130
1195.606, 0.4383160
1196.088, 0.4103490
1196.570, 0.2049540
1197.053, 0.1128600
1197.535, 0.4778310
1198.017, 0.4920960
1198.499, 0.1694580
1198.981, 0.1580100
1199.463, 0.4834860
1199.945, 0.7192590
1200.427, 0.7433510
1200.910, 0.6202220
1201.392, 0.3752020
1201.874, 0.1807770
1202.356, 0.3876270
1202.838, 0.7618240
1203.320, 0.7839280
1203.802, 0.5781820
1204.284, 0.3767640
1204.766, 0.2356610
1205.249, 0.2351440
1205.731, 0.3780120
1206.213, 0.4788190
1206.695, 0.4174400
1207.177, 0.2924190
1207.659, 7.5520001E-02
1208.141, 6.4989001E-02
1208.623, 8.8026002E-02
1209.105, 0.3566210
1209.588, 0.5101830
1210.070, 0.5693700
1210.552, 0.7061040
1211.034, 0.9760040
1211.516, 1.108206
1211.998, 0.9900460
1212.480, 0.8014430
1212.962, 0.4209380
1213.445, 0.1876260
1213.927, 0.4293310
1214.409, 0.7380870
1214.891, 0.6286070
1215.373, 0.2351610
1215.855, 0.1763590
1216.337, 0.5706060
1216.819, 0.7734010
1217.302, 0.7441140
1217.784, 0.6543030
1218.266, 0.5044590
1218.748, 0.4929660
1219.230, 0.7689690
1219.712, 1.034300
1220.194, 0.8654080
1220.676, 0.4379140
1221.158, 0.3362290
1221.641, 0.4964450
1222.123, 0.5954420
1222.605, 0.6246890
1223.087, 0.6561970
1223.569, 0.7095740
1224.051, 0.7670760
1224.533, 0.8160720
1225.015, 0.9247890
1225.497, 1.296778
1225.980, 1.632721
1226.462, 1.493286
1226.944, 1.173237
1227.426, 0.9669110
1227.908, 0.9301930
1228.390, 1.213268
1228.872, 1.744526
1229.354, 1.987934
1229.837, 1.600950
1230.319, 1.332661
1230.801, 1.546444
1231.283, 1.791845
1231.765, 1.924448
1232.247, 1.959814
1232.729, 1.821045
1233.211, 1.639074
1233.693, 1.620052
1234.176, 1.763895
1234.658, 2.020479
1235.140, 2.498005
1235.622, 2.787663
1236.104, 2.749104
1236.586, 2.812675
1237.068, 3.123856
1237.550, 3.524899
1238.032, 3.916878
1238.515, 4.209183
1238.997, 4.139633
1239.479, 3.844585
1239.961, 3.942596
1240.443, 4.323666
1240.925, 4.448448
1241.407, 4.289799
1241.889, 4.283237
1242.372, 4.461403
1242.854, 4.485565
1243.336, 4.141430
1243.818, 3.775990
1244.300, 3.758072
1244.782, 3.830173
1245.264, 3.759129
1245.746, 3.598743
1246.229, 3.332817
1246.711, 3.087345
1247.193, 3.157986
1247.675, 3.534603
1248.157, 3.716034
1248.639, 3.524117
1249.121, 3.190372
1249.603, 2.479362
1250.085, 2.010338
1250.568, 2.182686
1251.050, 2.412895
1251.532, 2.327927
1252.014, 2.060856
1252.496, 1.796986
1252.978, 1.545464
1253.460, 1.401356
1253.942, 1.365700
1254.424, 1.381355
1254.907, 1.447155
1255.389, 1.415180
1255.871, 1.246712
1256.353, 1.098942
1256.835, 1.071335
1257.317, 1.137310
1257.799, 1.369316
1258.281, 1.566353
1258.764, 1.220509
1259.246, 0.6632580
1259.728, 0.4949000
1260.210, 0.6282120
1260.692, 0.7593920
1261.174, 0.8254130
1261.656, 0.9014050
1262.138, 1.026268
1262.620, 1.112225
1263.103, 1.127087
1263.585, 1.081284
1264.067, 0.9300540
1264.549, 0.7750050
1265.031, 0.6609540
1265.513, 0.6008830
1265.995, 0.6509060
1266.477, 0.7697180
1266.959, 0.7308920
1267.442, 0.4680670
1267.924, 0.3232190
1268.406, 0.3115500
1268.888, 0.3777810
1269.370, 0.5388300
1269.852, 0.5267940
1270.334, 0.1855130
1270.816, 0.1521300
1271.299, 0.1422580
1271.781, 1.5771898E-02
1272.263, 0.1663525
1272.745, 0.2491791
1273.227, 0.2678934
1273.709, 3.0473208E-02
1274.191, 0.1237979
1274.673, 8.4575638E-02
1275.156, 3.9908741E-02
1275.638, 0.1797855
1276.120, -2.0381365E-02
1276.602, 0.1165679
1277.084, 0.1189476
1277.566, 0.1829159
1278.048, 0.1135187
1278.530, 8.5313156E-02
1279.012, 0.1905179
1279.495, 0.2218434
1279.977, 0.1370925
1280.459, 0.2049769
1280.941, 1.5116503E-04
1281.423, 3.4632448E-02
1281.905, 0.1723624
1282.387, 9.4318189E-02
1282.869, 0.1646399
1283.351, 0.1784562
1283.834, -6.4534381E-02
1284.316, 0.1390801
1284.798, 6.5690000E-03
1285.280, 0.1734770
1285.762, 0.1047740
1286.244, 0.0000000E+00
##END=



