##NAMES=Vuonnemite
##RRUFFID=R050250
##IDEAL CHEMISTRY=Na_11_Ti^4+^Nb^5+^_2_(Si_2_O_7_)_2_(PO_4_)_2_O_3_F
##LOCALITY=Mont Saint-Hilaire, Rouville County, Quebec, Canada
##OWNER=RRUFF
##SOURCE=Marcus Origlieri
##DESCRIPTION=Light yellow platy crystal, embedded in microcline.
##STATUS=The identification of this mineral has been confirmed only by single crystal X-ray diffraction.
##URL=rruff.info/R050250
140.0831, 0.0000000E+00
140.5652, 9.4391003E-02
141.0473, 3.4759998E-02
141.5294, 1.3489000E-02
142.0115, 0.1965640
142.4936, 0.4610290
142.9758, 0.7372130
143.4579, 1.044220
143.9400, 1.634033
144.4221, 2.079437
144.9042, 1.759949
145.3863, 1.335083
145.8685, 0.9686890
146.3506, 0.5716860
146.8327, 0.2686460
147.3148, 6.2256001E-02
147.7969, 0.5655820
148.2790, 0.6755680
148.7612, 0.1133120
149.2433, 1.287262
149.7254, 2.080353
150.2075, 2.059906
150.6896, 1.681244
151.1717, 1.739868
151.6539, 2.393066
152.1360, 3.179077
152.6181, 3.661774
153.1002, 3.810150
153.5823, 3.994690
154.0644, 4.470306
154.5466, 4.984680
155.0287, 5.326233
155.5108, 5.419769
155.9929, 5.366394
156.4750, 5.240875
156.9571, 4.773224
157.4393, 4.877808
157.9214, 6.180786
158.4035, 7.917786
158.8856, 9.356720
159.3677, 10.14929
159.8498, 10.40714
160.3320, 10.50015
160.8141, 9.812408
161.2962, 9.807556
161.7783, 11.37787
162.2604, 13.69730
162.7425, 15.56595
163.2247, 16.22180
163.7068, 15.74655
164.1889, 15.93149
164.6710, 17.17291
165.1531, 18.49927
165.6352, 19.60349
166.1174, 20.53259
166.5995, 21.57245
167.0816, 23.09637
167.5637, 25.09338
168.0458, 26.44391
168.5279, 26.87991
169.0101, 26.97192
169.4922, 26.75241
169.9743, 26.34418
170.4564, 26.30621
170.9385, 27.29150
171.4206, 29.14667
171.9028, 30.18182
172.3849, 29.54501
172.8670, 28.48715
173.3491, 28.32364
173.8312, 29.23779
174.3133, 30.28168
174.7955, 30.75980
175.2776, 30.78922
175.7597, 30.52103
176.2418, 29.96393
176.7239, 29.14087
177.2060, 27.99390
177.6882, 26.29178
178.1703, 24.74893
178.6524, 23.88943
179.1345, 23.53720
179.6166, 23.31110
180.0987, 22.97327
180.5809, 22.57837
181.0630, 22.39410
181.5451, 22.66275
182.0272, 22.90518
182.5093, 22.81583
182.9914, 22.50259
183.4736, 22.22247
183.9557, 22.31436
184.4378, 23.07294
184.9199, 23.86612
185.4020, 24.21008
185.8841, 24.93326
186.3663, 26.77426
186.8484, 29.13272
187.3305, 31.28308
187.8126, 32.86963
188.2947, 34.06104
188.7768, 35.28973
189.2590, 36.59109
189.7411, 37.74512
190.2232, 38.75906
190.7053, 39.38455
191.1874, 39.88684
191.6695, 40.66019
192.1517, 41.95923
192.6338, 42.45502
193.1159, 42.08087
193.5980, 41.36697
194.0801, 40.42136
194.5622, 39.32220
195.0444, 38.36566
195.5265, 37.90143
196.0086, 38.10141
196.4907, 38.20032
196.9728, 37.98792
197.4549, 37.79840
197.9371, 38.64832
198.4192, 40.08743
198.9013, 41.43628
199.3834, 41.75696
199.8655, 41.04965
200.3476, 40.56937
200.8298, 40.43832
201.3119, 40.68317
201.7940, 41.55206
202.2761, 43.27994
202.7582, 44.89200
203.2403, 44.73987
203.7225, 43.27826
204.2046, 42.65659
204.6867, 44.40634
205.1688, 47.49527
205.6509, 49.49918
206.1330, 49.86826
206.6152, 49.69177
207.0973, 49.67233
207.5794, 49.81702
208.0615, 50.15448
208.5436, 50.78241
209.0257, 51.64737
209.5079, 52.49573
209.9900, 53.37424
210.4721, 54.13474
210.9542, 54.89633
211.4363, 55.52509
211.9184, 55.65402
212.4006, 54.80972
212.8827, 53.04468
213.3648, 51.50409
213.8469, 50.31860
214.3290, 49.24588
214.8111, 48.34467
215.2933, 47.49826
215.7754, 46.44501
216.2575, 44.92307
216.7396, 42.90036
217.2217, 40.88736
217.7038, 38.83633
218.1859, 36.84427
218.6681, 34.94946
219.1502, 33.14380
219.6323, 31.38477
220.1144, 29.61621
220.5965, 27.81699
221.0786, 26.26743
221.5608, 25.24106
222.0429, 24.19940
222.5250, 22.97964
223.0071, 21.57736
223.4892, 20.02560
223.9713, 18.31747
224.4535, 16.40009
224.9356, 14.86237
225.4177, 13.69131
225.8998, 12.81876
226.3819, 12.56799
226.8640, 12.68228
227.3462, 12.38422
227.8283, 10.91928
228.3104, 8.146820
228.7925, 6.084747
229.2746, 5.017334
229.7567, 4.249176
230.2389, 3.635986
230.7210, 3.071289
231.2031, 2.220917
231.6852, 0.6989750
232.1673, 1.471893
232.6494, 2.841583
233.1316, 2.986755
233.6137, 2.785889
234.0958, 2.497742
234.5779, 2.221985
235.0600, 2.421875
235.5421, 3.764709
236.0243, 5.944153
236.5064, 6.553772
236.9885, 4.624207
237.4706, 1.982300
237.9527, 0.5025020
238.4348, 2.767578
238.9170, 4.450317
239.3991, 4.963013
239.8812, 4.780579
240.3633, 5.540466
240.8454, 7.973816
241.3275, 10.78210
241.8097, 12.97693
242.2918, 14.59308
242.7739, 16.03284
243.2560, 17.23334
243.7381, 18.55176
244.2202, 20.66809
244.7024, 24.15887
245.1845, 27.74890
245.6666, 30.02496
246.1487, 30.91803
246.6308, 32.33502
247.1129, 35.76270
247.5951, 39.87500
248.0772, 42.91010
248.5593, 44.28992
249.0414, 45.45868
249.5235, 48.13092
250.0056, 52.46039
250.4878, 56.29279
250.9699, 58.30298
251.4520, 59.78070
251.9341, 61.85706
252.4162, 64.79443
252.8983, 67.81073
253.3805, 69.90906
253.8626, 70.97534
254.3447, 72.32227
254.8268, 74.63086
255.3089, 77.09369
255.7910, 79.14044
256.2732, 80.68433
256.7553, 82.04791
257.2374, 83.56775
257.7195, 85.25928
258.2016, 86.88684
258.6837, 88.81354
259.1659, 90.34631
259.6480, 90.73004
260.1301, 90.06024
260.6122, 89.51990
261.0943, 90.79126
261.5764, 94.39380
262.0586, 96.53717
262.5407, 95.87048
263.0228, 94.51080
263.5049, 93.09741
263.9870, 91.90527
264.4691, 90.99829
264.9513, 90.47174
265.4334, 90.48724
265.9155, 89.89862
266.3976, 88.45660
266.8797, 86.68268
267.3618, 84.57788
267.8440, 82.22864
268.3261, 79.77179
268.8082, 77.22052
269.2903, 74.58795
269.7724, 72.38538
270.2545, 71.06885
270.7367, 69.76166
271.2188, 68.14624
271.7009, 66.26056
272.1830, 64.34863
272.6651, 62.62878
273.1472, 61.06097
273.6294, 58.67639
274.1115, 54.01550
274.5936, 50.09509
275.0757, 47.89893
275.5578, 46.86224
276.0399, 46.01672
276.5221, 44.74854
277.0042, 43.20367
277.4863, 42.23242
277.9684, 43.19293
278.4505, 43.25409
278.9326, 41.29041
279.4148, 38.45386
279.8969, 36.37537
280.3790, 35.88831
280.8611, 36.40631
281.3432, 36.02985
281.8253, 33.27765
282.3075, 31.39697
282.7896, 31.10504
283.2717, 31.55328
283.7538, 31.77386
284.2359, 31.41388
284.7180, 30.91779
285.2002, 31.20398
285.6823, 33.60895
286.1644, 34.80707
286.6465, 33.88068
287.1286, 32.35797
287.6107, 31.47064
288.0929, 31.58588
288.5750, 32.40710
289.0571, 33.58087
289.5392, 35.46539
290.0213, 36.62067
290.5034, 36.47308
290.9856, 36.17120
291.4677, 36.57404
291.9498, 37.73962
292.4319, 39.13495
292.9140, 40.06519
293.3961, 40.31274
293.8783, 40.56158
294.3604, 40.87329
294.8425, 41.45007
295.3246, 42.52325
295.8067, 43.96222
296.2888, 45.22498
296.7710, 45.75830
297.2531, 45.42511
297.7352, 45.68176
298.2173, 46.80579
298.6994, 48.21460
299.1815, 49.71564
299.6637, 51.25067
300.1458, 52.82013
300.6279, 54.46155
301.1100, 56.13623
301.5921, 57.79565
302.0742, 59.70068
302.5564, 61.33777
303.0385, 62.24298
303.5206, 62.76129
304.0027, 63.75549
304.4848, 65.71771
304.9669, 68.09491
305.4491, 69.20062
305.9312, 69.00372
306.4133, 67.70990
306.8954, 64.31000
307.3775, 60.17371
307.8596, 57.08099
308.3418, 55.64441
308.8239, 55.19885
309.3060, 54.63373
309.7881, 54.06482
310.2702, 53.09277
310.7523, 51.76740
311.2345, 50.00208
311.7166, 47.39514
312.1987, 43.95416
312.6808, 40.61896
313.1629, 38.65143
313.6451, 38.66003
314.1272, 37.24921
314.6093, 33.22333
315.0914, 28.73853
315.5735, 25.24054
316.0556, 22.76007
316.5378, 20.50977
317.0199, 17.89008
317.5020, 14.88263
317.9841, 11.57941
318.4662, 7.219482
318.9483, 3.356323
319.4305, 1.318848
319.9126, 0.4293820
320.3947, 1.426575
320.8768, 5.791138
321.3589, 11.83453
321.8410, 15.06641
322.3232, 13.25452
322.8053, 11.79523
323.2874, 12.16290
323.7695, 13.64032
324.2516, 15.25696
324.7337, 16.66058
325.2159, 17.69025
325.6980, 17.92340
326.1801, 16.55579
326.6622, 15.82025
327.1443, 16.64819
327.6264, 17.79199
328.1086, 18.07159
328.5907, 17.18500
329.0728, 15.35571
329.5549, 12.78760
330.0370, 9.135986
330.5191, 5.758240
331.0013, 2.910950
331.4834, 0.1480100
331.9655, 2.725586
332.4476, 5.778442
332.9297, 9.136719
333.4118, 12.99084
333.8940, 17.37439
334.3761, 21.52502
334.8582, 25.48071
335.3403, 29.23242
335.8224, 32.11755
336.3045, 34.78015
336.7867, 38.95044
337.2688, 45.79553
337.7509, 54.56458
338.2330, 61.55579
338.7151, 65.76025
339.1972, 69.52734
339.6793, 72.67017
340.1614, 75.76807
340.6436, 79.66711
341.1257, 84.73352
341.6078, 90.32874
342.0899, 95.23645
342.5720, 98.53394
343.0541, 102.7516
343.5363, 109.0701
344.0184, 115.5192
344.5005, 120.3622
344.9826, 123.4493
345.4647, 126.0487
345.9468, 129.6367
346.4290, 134.6564
346.9111, 138.5889
347.3932, 140.9639
347.8753, 142.9006
348.3574, 144.5449
348.8395, 146.1487
349.3217, 148.3531
349.8038, 151.7789
350.2859, 156.1683
350.7680, 158.4493
351.2501, 156.9205
351.7322, 155.1473
352.2144, 153.1721
352.6965, 151.4603
353.1786, 150.8236
353.6607, 151.6257
354.1428, 153.0111
354.6249, 152.9489
355.1071, 150.5491
355.5892, 148.0200
356.0713, 145.2585
356.5534, 142.5592
357.0355, 140.1091
357.5176, 137.9669
357.9998, 136.1865
358.4819, 135.1948
358.9640, 135.8547
359.4461, 133.6455
359.9282, 125.7870
360.4103, 117.8127
360.8925, 111.9600
361.3746, 107.9844
361.8567, 104.6572
362.3388, 101.0837
362.8209, 97.32556
363.3030, 94.06201
363.7852, 92.62231
364.2673, 89.88928
364.7494, 84.32605
365.2315, 77.44495
365.7136, 71.03967
366.1957, 65.87769
366.6779, 61.60474
367.1600, 57.62622
367.6421, 54.07202
368.1242, 50.47217
368.6063, 46.38782
369.0884, 42.49207
369.5706, 39.48401
370.0527, 37.34949
370.5348, 35.25684
371.0169, 31.98901
371.4990, 27.38806
371.9811, 24.15002
372.4633, 23.71997
372.9454, 23.25610
373.4275, 20.75928
373.9096, 17.19458
374.3917, 15.01416
374.8738, 16.34216
375.3560, 19.81750
375.8381, 20.95410
376.3202, 18.62732
376.8023, 16.55676
377.2844, 16.30286
377.7665, 17.05457
378.2487, 18.06543
378.7308, 19.13049
379.2129, 19.82935
379.6950, 19.42151
380.1771, 18.03418
380.6592, 18.26147
381.1414, 21.37939
381.6235, 25.66821
382.1056, 30.06787
382.5877, 34.49231
383.0698, 38.08594
383.5519, 39.89478
384.0341, 40.58875
384.5162, 41.85620
384.9983, 43.67114
385.4804, 46.27576
385.9625, 50.77466
386.4446, 56.31995
386.9268, 60.85022
387.4089, 62.57629
387.8910, 64.10730
388.3731, 68.66699
388.8552, 76.09998
389.3373, 83.00623
389.8195, 87.13855
390.3016, 90.15808
390.7837, 95.50195
391.2658, 103.8502
391.7479, 112.4211
392.2300, 120.1946
392.7122, 127.1643
393.1943, 133.0588
393.6764, 137.6066
394.1585, 141.9299
394.6406, 147.2229
395.1227, 153.4493
395.6049, 160.9513
396.0870, 170.5730
396.5691, 180.8904
397.0512, 191.0050
397.5333, 200.7814
398.0154, 209.7085
398.4976, 217.2030
398.9797, 223.6342
399.4618, 231.5690
399.9439, 241.4385
400.4260, 252.0315
400.9081, 263.2122
401.3903, 274.8535
401.8724, 286.6575
402.3545, 298.5000
402.8366, 310.5631
403.3187, 323.0496
403.8008, 336.0319
404.2830, 349.3866
404.7651, 362.6410
405.2472, 376.6139
405.7293, 392.3915
406.2114, 409.5723
406.6935, 426.5210
407.1757, 441.7686
407.6578, 455.2877
408.1399, 469.7285
408.6220, 486.2474
409.1041, 502.3363
409.5862, 516.9594
410.0684, 531.0043
410.5505, 546.2336
411.0326, 563.2804
411.5147, 580.7378
411.9968, 595.6254
412.4789, 605.8884
412.9611, 618.0355
413.4432, 635.0767
413.9253, 651.7693
414.4074, 664.5898
414.8895, 673.7703
415.3716, 682.0009
415.8538, 691.8821
416.3359, 703.2119
416.8180, 712.4832
417.3001, 718.7180
417.7822, 724.1400
418.2643, 730.4238
418.7465, 736.2284
419.2286, 739.5515
419.7107, 739.4172
420.1928, 737.2854
420.6749, 735.0685
421.1570, 732.7091
421.6392, 730.8499
422.1213, 731.9957
422.6034, 731.6013
423.0855, 725.6917
423.5676, 714.3633
424.0497, 701.7261
424.5319, 689.9086
425.0140, 678.7363
425.4961, 667.8630
425.9782, 657.4647
426.4603, 646.7750
426.9424, 635.2578
427.4246, 623.1399
427.9067, 610.8770
428.3888, 599.0717
428.8709, 586.5665
429.3530, 571.2528
429.8351, 554.0691
430.3173, 539.8086
430.7994, 531.1110
431.2815, 524.6995
431.7636, 514.9526
432.2457, 501.8248
432.7278, 488.0325
433.2100, 473.6865
433.6921, 459.3047
434.1742, 445.3735
434.6563, 431.9750
435.1384, 419.3503
435.6205, 407.7273
436.1027, 397.1556
436.5848, 387.6639
437.0669, 379.6692
437.5490, 372.0890
438.0311, 365.0651
438.5132, 358.1128
438.9954, 350.2239
439.4775, 341.0610
439.9596, 331.6653
440.4417, 323.8967
440.9238, 317.9946
441.4059, 313.3506
441.8881, 310.8977
442.3702, 308.6664
442.8523, 305.3923
443.3344, 301.2964
443.8165, 297.4609
444.2986, 294.8561
444.7808, 293.1160
445.2629, 289.8632
445.7450, 283.0935
446.2271, 277.8228
446.7092, 275.8235
447.1913, 275.1421
447.6735, 274.0332
448.1556, 272.0157
448.6377, 269.5435
449.1198, 267.1857
449.6019, 264.9795
450.0840, 262.2734
450.5662, 258.7888
451.0483, 255.0409
451.5304, 250.9999
452.0125, 246.9554
452.4946, 243.6129
452.9767, 241.8507
453.4589, 240.4102
453.9410, 236.9899
454.4231, 231.4570
454.9052, 226.0931
455.3873, 221.8495
455.8694, 218.1980
456.3516, 214.2354
456.8337, 209.8507
457.3158, 205.9727
457.7979, 203.6853
458.2800, 202.0287
458.7621, 199.3174
459.2443, 195.2866
459.7264, 190.6842
460.2085, 186.0079
460.6906, 181.2839
461.1727, 176.5278
461.6548, 171.3317
462.1370, 166.5704
462.6191, 163.0811
463.1012, 160.2515
463.5833, 156.9331
464.0654, 152.5044
464.5475, 147.3932
465.0297, 142.3231
465.5118, 136.9719
465.9939, 132.7081
466.4760, 130.6476
466.9581, 128.5951
467.4402, 125.3326
467.9224, 120.9126
468.4045, 115.9489
468.8866, 110.7251
469.3687, 105.3478
469.8508, 100.1427
470.3329, 94.77246
470.8151, 90.19006
471.2972, 87.70227
471.7793, 85.23669
472.2614, 80.44360
472.7435, 73.24207
473.2256, 66.21985
473.7078, 62.34680
474.1899, 61.52161
474.6720, 60.03345
475.1541, 57.52539
475.6362, 54.89795
476.1183, 52.40588
476.6005, 50.07019
477.0826, 47.92554
477.5647, 45.90564
478.0468, 44.09155
478.5289, 42.92096
479.0110, 42.32703
479.4932, 40.85999
479.9753, 37.73285
480.4574, 34.24280
480.9395, 31.87555
481.4216, 30.47638
481.9037, 29.40771
482.3859, 29.13940
482.8680, 28.68170
483.3501, 26.56989
483.8322, 23.12250
484.3143, 20.42157
484.7964, 19.70544
485.2786, 20.41815
485.7607, 20.85852
486.2428, 21.25702
486.7249, 21.00775
487.2070, 19.47656
487.6891, 17.52301
488.1713, 15.88165
488.6534, 14.65851
489.1355, 13.72101
489.6176, 13.04077
490.0997, 12.63000
490.5818, 12.39667
491.0640, 12.81085
491.5461, 12.91187
492.0282, 12.59161
492.5103, 11.86084
492.9924, 10.59082
493.4745, 8.789795
493.9567, 7.030396
494.4388, 6.205505
494.9209, 6.465881
495.4030, 6.122437
495.8851, 4.444702
496.3672, 3.013428
496.8494, 2.825745
497.3315, 3.401672
497.8136, 3.807617
498.2957, 3.765442
498.7778, 3.290955
499.2599, 2.124146
499.7421, 0.3186650
500.2242, 0.9296880
500.7063, 1.154297
501.1884, 0.9125980
501.6705, 1.016785
502.1526, 1.462708
502.6348, 1.311401
503.1169, 0.1294560
503.5990, 1.923584
504.0811, 3.502502
504.5632, 4.697571
505.0453, 4.799927
505.5274, 3.188538
506.0096, 0.5917360
506.4917, 0.8093260
506.9738, 0.7427980
507.4559, 7.9529002E-02
507.9380, 2.775452
508.4201, 5.390320
508.9023, 5.934448
509.3844, 4.572021
509.8665, 3.126648
510.3486, 3.155945
510.8307, 4.423889
511.3128, 4.883362
511.7950, 3.655212
512.2771, 2.924438
512.7592, 3.589172
513.2413, 4.550781
513.7234, 4.604858
514.2056, 3.596191
514.6877, 2.722290
515.1698, 3.485107
515.6519, 5.628113
516.1340, 6.766418
516.6161, 6.628845
517.0983, 5.902893
517.5804, 4.336731
518.0625, 2.619019
518.5446, 1.908691
519.0267, 2.963745
519.5089, 3.802979
519.9910, 2.343628
520.4731, 0.4586180
520.9552, 1.812561
521.4373, 0.9692380
521.9194, 0.4646000
522.4016, 0.9140010
522.8837, 0.3230590
523.3658, 9.4910003E-02
523.8479, 0.2951660
524.3300, 0.3726810
524.8121, 0.3504640
525.2943, 0.2373050
525.7764, 2.6733000E-02
526.2585, 0.2930300
526.7406, 0.5946040
527.2227, 0.7255250
527.7048, 0.7030030
528.1870, 0.4429320
528.6691, 0.1267090
529.1512, 0.8453370
529.6333, 1.641724
530.1154, 2.546265
530.5975, 3.589600
531.0797, 4.787781
531.5618, 6.140991
532.0439, 7.761292
532.5260, 9.713562
533.0081, 11.46008
533.4902, 13.32965
533.9724, 14.45502
534.4545, 13.79517
534.9366, 11.85571
535.4187, 10.54254
535.9008, 10.93823
536.3829, 12.03229
536.8651, 12.93976
537.3472, 13.63263
537.8293, 13.74652
538.3114, 13.11945
538.7935, 11.91730
539.2756, 10.28491
539.7578, 8.130188
540.2399, 6.055359
540.7220, 3.800476
541.2041, 1.911072
541.6862, 0.8592530
542.1683, 0.4963380
542.6505, 0.4468990
543.1326, 0.5385740
543.6147, 0.5987550
544.0968, 0.1972050
544.5789, 0.8317870
545.0610, 2.015808
545.5432, 2.748230
546.0253, 4.142395
546.5074, 7.258728
546.9895, 11.59821
547.4716, 15.83057
547.9537, 19.22577
548.4359, 21.88666
548.9180, 23.73547
549.4001, 24.56317
549.8822, 26.03979
550.3643, 28.77155
550.8464, 32.21661
551.3286, 35.78894
551.8107, 39.48828
552.2928, 43.46075
552.7749, 47.84418
553.2570, 52.44983
553.7391, 57.14795
554.2213, 61.90356
554.7034, 66.60144
555.1855, 71.23505
555.6676, 75.68854
556.1497, 79.62079
556.6318, 82.17450
557.1140, 86.28192
557.5961, 93.01752
558.0782, 100.4397
558.5603, 107.2545
559.0424, 113.6843
559.5245, 120.6519
560.0067, 128.7551
560.4888, 137.3970
560.9709, 145.0392
561.4530, 151.2752
561.9351, 157.5667
562.4172, 164.3336
562.8994, 170.9566
563.3815, 176.5438
563.8636, 181.6334
564.3457, 187.9099
564.8278, 197.0023
565.3099, 206.8947
565.7921, 214.2376
566.2742, 219.1481
566.7563, 224.2111
567.2384, 230.0359
567.7205, 236.6387
568.2026, 244.3552
568.6848, 253.1575
569.1669, 261.7172
569.6490, 270.1163
570.1311, 277.9410
570.6132, 284.5483
571.0953, 290.4029
571.5775, 296.7834
572.0596, 304.2189
572.5417, 312.1514
573.0238, 319.6259
573.5059, 326.7896
573.9880, 333.0582
574.4702, 338.5899
574.9523, 343.1136
575.4344, 346.4619
575.9165, 348.7394
576.3986, 350.1386
576.8807, 350.7707
577.3629, 350.3885
577.8450, 348.7767
578.3271, 345.9109
578.8092, 341.1389
579.2913, 333.9793
579.7734, 325.9210
580.2556, 317.2584
580.7377, 308.4940
581.2198, 300.9401
581.7019, 295.6105
582.1840, 290.6196
582.6661, 284.7229
583.1483, 278.3279
583.6304, 271.9415
584.1125, 265.6969
584.5946, 260.2137
585.0767, 256.1208
585.5588, 253.4615
586.0409, 251.3676
586.5230, 250.8571
587.0051, 249.5274
587.4872, 246.3089
587.9694, 242.2941
588.4515, 238.4774
588.9336, 235.1450
589.4157, 232.3787
589.8978, 230.6154
590.3799, 229.6249
590.8621, 227.2769
591.3442, 223.0146
591.8263, 218.7455
592.3084, 215.5318
592.7905, 212.8572
593.2726, 209.8732
593.7548, 206.2689
594.2369, 203.3332
594.7190, 202.6406
595.2011, 202.5920
595.6832, 200.4632
596.1653, 196.4127
596.6475, 193.4004
597.1296, 193.4832
597.6117, 195.4496
598.0938, 195.7201
598.5759, 192.6683
599.0580, 190.4689
599.5402, 189.5001
600.0223, 188.9324
600.5044, 188.4636
600.9865, 187.9172
601.4686, 187.0349
601.9507, 185.6740
602.4329, 184.0569
602.9150, 182.5411
603.3971, 181.0726
603.8792, 179.8111
604.3613, 178.5572
604.8434, 177.9452
605.3256, 178.8596
605.8077, 180.7252
606.2898, 181.7426
606.7719, 181.1596
607.2540, 179.8058
607.7361, 177.5749
608.2183, 175.1448
608.7004, 174.7064
609.1825, 176.9054
609.6646, 179.4169
610.1467, 179.7394
610.6288, 177.7739
611.1110, 175.7306
611.5931, 173.2590
612.0752, 171.1439
612.5573, 169.7706
613.0394, 168.7379
613.5215, 167.8674
614.0037, 166.9795
614.4858, 165.5406
614.9679, 163.1097
615.4500, 159.6758
615.9321, 154.8278
616.4142, 147.7974
616.8964, 141.9163
617.3785, 139.3063
617.8606, 137.8973
618.3427, 135.1330
618.8248, 130.8397
619.3069, 126.6519
619.7891, 123.1707
620.2712, 120.0551
620.7533, 117.1378
621.2354, 114.2894
621.7175, 110.9733
622.1996, 106.8910
622.6818, 102.6063
623.1639, 99.24634
623.6460, 97.17249
624.1281, 94.98065
624.6102, 92.60498
625.0923, 90.17999
625.5745, 87.85498
626.0566, 85.50464
626.5387, 82.82828
627.0208, 79.70575
627.5029, 76.57333
627.9850, 74.11581
628.4672, 72.18658
628.9493, 69.59280
629.4314, 65.98218
629.9135, 62.52713
630.3956, 59.88135
630.8777, 57.95093
631.3599, 56.48795
631.8420, 56.09003
632.3241, 54.82230
632.8062, 50.85342
633.2883, 46.54663
633.7704, 44.83832
634.2526, 45.35611
634.7347, 45.27826
635.2168, 42.72369
635.6989, 38.60992
636.1810, 35.63089
636.6631, 34.38815
637.1453, 32.79352
637.6274, 29.97424
638.1095, 27.40674
638.5916, 26.02069
639.0737, 25.43158
639.5558, 24.60214
640.0380, 22.99176
640.5201, 21.34503
641.0022, 20.88287
641.4843, 21.05212
641.9664, 19.57748
642.4485, 15.84232
642.9307, 12.10458
643.4128, 10.37067
643.8949, 10.38474
644.3770, 9.843506
644.8591, 8.121216
645.3412, 6.754730
645.8234, 6.045502
646.3055, 5.753296
646.7876, 5.947540
647.2697, 6.406586
647.7518, 6.463684
648.2339, 5.563385
648.7161, 4.102325
649.1982, 3.057312
649.6803, 2.454895
650.1624, 2.175873
650.6445, 2.408386
651.1266, 2.699371
651.6088, 2.554504
652.0909, 2.110931
652.5730, 1.944000
653.0551, 2.233856
653.5372, 2.768524
654.0193, 3.641571
654.5015, 4.604126
654.9836, 5.245483
655.4657, 5.474731
655.9478, 5.351685
656.4299, 4.859436
656.9120, 4.077637
657.3942, 3.795471
657.8763, 4.100067
658.3584, 4.800232
658.8405, 6.097412
659.3226, 7.549988
659.8047, 8.951324
660.2869, 10.22394
660.7690, 11.20337
661.2511, 11.66922
661.7332, 11.93619
662.2153, 12.35663
662.6974, 12.94345
663.1796, 13.79538
663.6617, 14.98972
664.1438, 16.14478
664.6259, 16.76501
665.1080, 16.84338
665.5901, 17.56351
666.0723, 19.64066
666.5544, 21.36819
667.0365, 21.78671
667.5186, 22.02292
668.0007, 23.46155
668.4828, 26.05399
668.9650, 28.44785
669.4471, 29.49118
669.9292, 29.67273
670.4113, 30.29086
670.8934, 31.35553
671.3755, 32.96426
671.8577, 35.52539
672.3398, 38.10681
672.8219, 39.56372
673.3040, 40.11737
673.7861, 40.93854
674.2682, 42.46338
674.7504, 43.99884
675.2325, 44.93320
675.7146, 45.80200
676.1967, 47.61713
676.6788, 50.39435
677.1609, 52.94614
677.6431, 54.12424
678.1252, 54.25671
678.6073, 55.23105
679.0894, 57.52301
679.5715, 59.40268
680.0536, 59.60565
680.5358, 60.13745
681.0179, 62.90140
681.5000, 67.32852
681.9821, 70.82877
682.4642, 71.49637
682.9464, 72.05609
683.4285, 75.34644
683.9106, 80.08258
684.3927, 83.11230
684.8748, 83.79678
685.3569, 84.47101
685.8391, 87.38644
686.3212, 92.13339
686.8033, 95.37720
687.2854, 96.14731
687.7675, 96.95789
688.2496, 97.76495
688.7318, 99.08670
689.2139, 101.4873
689.6960, 104.6473
690.1781, 107.6065
690.6602, 110.0127
691.1423, 111.9261
691.6245, 112.9428
692.1066, 113.4508
692.5887, 115.1425
693.0708, 118.4302
693.5529, 121.7085
694.0350, 123.5913
694.5172, 124.3630
694.9993, 125.7578
695.4814, 128.3231
695.9635, 130.8469
696.4456, 133.9619
696.9277, 136.4296
697.4099, 136.9130
697.8920, 135.9486
698.3741, 135.0306
698.8562, 134.7988
699.3383, 135.3117
699.8204, 136.9401
700.3026, 139.4384
700.7847, 141.4082
701.2668, 142.6661
701.7489, 143.3722
702.2310, 143.5403
702.7131, 143.2640
703.1953, 142.9051
703.6774, 142.8487
704.1595, 141.8953
704.6416, 139.5445
705.1237, 136.6022
705.6058, 133.4088
706.0880, 130.1310
706.5701, 127.0219
707.0522, 124.2653
707.5343, 121.3371
708.0164, 117.3945
708.4985, 112.5315
708.9807, 108.1434
709.4628, 104.4663
709.9449, 100.7003
710.4270, 96.34369
710.9091, 91.67520
711.3912, 87.27725
711.8734, 83.16769
712.3555, 79.14261
712.8376, 75.16119
713.3197, 71.22412
713.8018, 67.26205
714.2839, 63.35519
714.7661, 59.64078
715.2482, 56.17667
715.7303, 52.96811
716.2124, 49.89871
716.6945, 47.00949
717.1766, 44.97446
717.6588, 44.10168
718.1409, 43.09973
718.6230, 41.57861
719.1051, 39.57544
719.5872, 36.89716
720.0693, 33.48593
720.5515, 30.92377
721.0336, 30.45334
721.5157, 29.97202
721.9978, 27.87894
722.4799, 25.06570
722.9620, 23.14325
723.4442, 22.42740
723.9263, 21.85483
724.4084, 20.32559
724.8905, 18.08759
725.3726, 16.35941
725.8547, 15.14883
726.3369, 14.52185
726.8190, 15.13129
727.3011, 15.61240
727.7832, 14.35974
728.2653, 11.77713
728.7474, 9.803162
729.2296, 9.144775
729.7117, 8.675507
730.1938, 7.872681
730.6759, 6.991791
731.1580, 6.433441
731.6401, 6.159119
732.1223, 5.703400
732.6044, 4.706360
733.0865, 3.450989
733.5686, 2.706238
734.0507, 2.576508
734.5328, 2.174408
735.0150, 1.105347
735.4971, 0.2232670
735.9792, 0.3763430
736.4613, 1.059692
736.9434, 1.249786
737.4255, 0.7082210
737.9077, 7.9498000E-02
738.3898, 0.3988040
738.8719, 0.8977970
739.3540, 1.721619
739.8361, 2.702515
740.3182, 3.365173
740.8004, 3.502869
741.2825, 3.368683
741.7646, 3.252136
742.2467, 3.150787
742.7288, 3.431274
743.2109, 4.401611
743.6931, 4.817230
744.1752, 3.554840
744.6573, 1.907104
745.1394, 1.940613
745.6215, 3.791656
746.1036, 4.925964
746.5858, 4.310089
747.0679, 3.423248
747.5500, 2.812347
748.0321, 2.584351
748.5142, 3.026001
748.9963, 4.081146
749.4785, 5.077728
749.9606, 5.447968
750.4427, 5.288910
750.9248, 4.819611
751.4069, 3.983185
751.8890, 3.344788
752.3712, 2.976563
752.8533, 2.948822
753.3354, 3.593903
753.8175, 4.707916
754.2996, 5.118744
754.7817, 4.015228
755.2639, 3.318298
755.7460, 3.782806
756.2281, 4.603607
756.7102, 5.447479
757.1923, 6.013031
757.6744, 5.630493
758.1566, 3.896393
758.6387, 1.784943
759.1208, 0.6654360
759.6029, 0.4468080
760.0850, 0.6721800
760.5671, 1.463715
761.0493, 1.750824
761.5314, 0.8002930
762.0135, 0.8023380
762.4956, 2.023132
762.9777, 2.983002
763.4598, 3.047119
763.9420, 0.7966310
764.4241, 0.7749940
764.9062, 0.1622310
765.3883, 2.219543
765.8704, 3.816376
766.3525, 4.541626
766.8347, 4.504150
767.3168, 3.387665
767.7989, 1.848419
768.2810, 1.101044
768.7631, 1.088654
769.2452, 1.443268
769.7274, 2.133301
770.2095, 2.777832
770.6916, 2.959961
771.1737, 2.768799
771.6558, 2.942749
772.1379, 3.771271
772.6201, 4.545532
773.1022, 5.314697
773.5843, 5.931885
774.0664, 6.317902
774.5485, 6.484589
775.0306, 6.356689
775.5128, 5.784515
775.9949, 5.541962
776.4770, 6.779297
776.9591, 8.546448
777.4412, 9.074371
777.9233, 8.375854
778.4055, 7.423279
778.8876, 6.646698
779.3697, 6.093689
779.8518, 5.817230
780.3339, 5.801514
780.8160, 6.222961
781.2982, 7.492859
781.7803, 8.532410
782.2624, 8.936005
782.7445, 9.042908
783.2266, 9.082306
783.7087, 9.082886
784.1909, 9.112701
784.6730, 9.393005
785.1551, 9.514832
785.6372, 8.940704
786.1193, 8.141815
786.6014, 7.907410
787.0836, 8.286133
787.5657, 8.777191
788.0478, 9.046631
788.5299, 9.117249
789.0120, 8.966125
789.4941, 8.556763
789.9763, 8.437714
790.4584, 8.732971
790.9405, 9.119232
791.4226, 9.633148
791.9047, 10.04034
792.3868, 9.616760
792.8690, 7.888000
793.3511, 7.145691
793.8332, 8.644684
794.3153, 10.37897
794.7974, 11.58594
795.2795, 12.11685
795.7617, 11.55820
796.2438, 10.04364
796.7259, 8.822449
797.2080, 9.047150
797.6901, 10.07538
798.1722, 10.87625
798.6544, 11.42850
799.1365, 11.03024
799.6186, 9.345581
800.1007, 7.914032
800.5828, 8.132263
801.0649, 9.560455
801.5471, 10.28723
802.0292, 10.03400
802.5113, 9.841736
802.9934, 9.327179
803.4755, 8.968445
803.9576, 9.231323
804.4398, 9.952423
804.9219, 10.68976
805.4040, 11.31485
805.8861, 11.92874
806.3682, 12.76938
806.8503, 13.40515
807.3325, 13.04495
807.8146, 12.12863
808.2967, 11.94995
808.7788, 12.89429
809.2609, 14.19202
809.7430, 14.99951
810.2252, 15.42023
810.7073, 16.24734
811.1894, 17.58536
811.6715, 18.57562
812.1536, 18.57166
812.6357, 19.08310
813.1179, 21.71515
813.6000, 25.64856
814.0821, 28.55530
814.5642, 29.53018
815.0463, 31.12842
815.5284, 34.98169
816.0106, 38.88129
816.4927, 40.91766
816.9748, 41.78931
817.4569, 43.03296
817.9390, 45.17230
818.4211, 47.82919
818.9033, 50.79190
819.3854, 54.05750
819.8675, 57.64758
820.3496, 61.47354
820.8317, 64.90826
821.3138, 67.71133
821.7960, 70.39856
822.2781, 73.44507
822.7602, 76.88104
823.2423, 80.63553
823.7244, 85.07968
824.2065, 89.10510
824.6887, 92.63553
825.1708, 95.71225
825.6529, 98.17905
826.1350, 100.2370
826.6171, 102.2021
827.0992, 104.0749
827.5814, 106.2231
828.0635, 109.3175
828.5456, 112.3556
829.0277, 114.4013
829.5098, 115.6398
829.9919, 116.5140
830.4741, 117.1897
830.9562, 117.7521
831.4383, 118.2660
831.9204, 118.7494
832.4025, 119.3838
832.8846, 120.1994
833.3668, 120.4522
833.8489, 119.8246
834.3310, 119.1182
834.8131, 119.0792
835.2952, 119.4319
835.7773, 119.0577
836.2595, 117.1631
836.7416, 115.9467
837.2237, 116.4766
837.7058, 116.5636
838.1879, 114.9052
838.6700, 112.3034
839.1522, 109.7474
839.6343, 107.4850
840.1164, 105.7461
840.5985, 105.5082
841.0806, 105.1550
841.5627, 102.4730
842.0449, 98.44379
842.5270, 95.50394
843.0091, 94.02359
843.4912, 92.22284
843.9733, 88.58716
844.4554, 84.20068
844.9376, 82.29623
845.4197, 83.22989
845.9018, 82.70694
846.3839, 79.94638
846.8660, 76.86435
847.3481, 74.44403
847.8303, 72.35913
848.3124, 69.93900
848.7945, 67.04538
849.2766, 64.60068
849.7587, 62.83875
850.2408, 61.30331
850.7230, 59.34091
851.2051, 57.88937
851.6872, 58.57333
852.1693, 60.84769
852.6514, 61.96735
853.1335, 60.29871
853.6157, 57.70935
854.0978, 55.56232
854.5799, 53.89673
855.0620, 52.78210
855.5441, 52.22437
856.0262, 52.26895
856.5084, 52.94775
856.9905, 53.92395
857.4726, 54.59280
857.9547, 54.98019
858.4368, 56.20480
858.9189, 58.52328
859.4011, 60.63980
859.8832, 62.12418
860.3653, 63.35504
860.8474, 64.71979
861.3295, 66.17599
861.8116, 67.38666
862.2938, 67.96631
862.7759, 68.86429
863.2580, 70.31860
863.7401, 71.99078
864.2222, 73.59506
864.7043, 75.30307
865.1865, 77.55792
865.6686, 80.48276
866.1507, 83.27243
866.6328, 85.07495
867.1149, 86.69949
867.5970, 88.94415
868.0792, 91.81406
868.5613, 95.13895
869.0434, 98.92307
869.5255, 103.7178
870.0076, 110.1802
870.4897, 117.3425
870.9719, 122.2556
871.4540, 124.7402
871.9361, 129.2065
872.4182, 136.5655
872.9003, 144.0195
873.3824, 150.0334
873.8646, 155.3895
874.3467, 161.4546
874.8288, 168.2847
875.3109, 175.3451
875.7930, 182.8290
876.2751, 190.2740
876.7573, 197.9960
877.2394, 205.3039
877.7215, 211.0439
878.2036, 215.8411
878.6857, 222.1783
879.1678, 231.7928
879.6500, 240.5267
880.1321, 245.1760
880.6142, 248.1370
881.0963, 252.1626
881.5784, 256.8896
882.0605, 260.9699
882.5427, 263.8796
883.0248, 265.5254
883.5069, 265.8038
883.9890, 264.8017
884.4711, 262.8014
884.9532, 259.7350
885.4354, 254.2770
885.9175, 245.9469
886.3996, 236.8110
886.8817, 228.2815
887.3638, 220.3372
887.8459, 213.2098
888.3281, 207.6071
888.8102, 200.2951
889.2923, 189.5997
889.7744, 179.5784
890.2565, 172.2532
890.7386, 165.7867
891.2208, 158.0809
891.7029, 149.2714
892.1850, 141.5635
892.6671, 136.0350
893.1492, 130.9379
893.6313, 125.9122
894.1135, 120.7592
894.5956, 115.2828
895.0777, 109.5305
895.5598, 103.5674
896.0419, 97.41025
896.5240, 91.44717
897.0062, 85.91516
897.4883, 80.85693
897.9704, 76.52008
898.4525, 72.69894
898.9346, 68.54266
899.4167, 63.88373
899.8989, 59.21753
900.3810, 54.89496
900.8631, 50.94556
901.3452, 47.19540
901.8273, 43.55377
902.3094, 41.28561
902.7916, 40.80042
903.2737, 40.55438
903.7558, 39.65970
904.2379, 38.80566
904.7200, 39.13034
905.2021, 40.78482
905.6843, 42.14182
906.1664, 42.49661
906.6485, 43.54413
907.1306, 45.93915
907.6127, 48.72537
908.0948, 51.11331
908.5770, 53.39069
909.0591, 56.38672
909.5412, 60.41797
910.0233, 64.54959
910.5054, 68.42224
910.9875, 72.17300
911.4697, 75.48712
911.9518, 78.93378
912.4339, 83.74478
912.9160, 89.86194
913.3981, 95.64536
913.8802, 99.80194
914.3624, 103.4041
914.8445, 108.5096
915.3265, 114.1998
915.8087, 117.4113
916.2908, 118.1634
916.7729, 119.6123
917.2550, 123.2681
917.7371, 127.5311
918.2192, 130.2962
918.7014, 131.6261
919.1835, 132.1307
919.6656, 131.6449
920.1477, 131.3007
920.6298, 131.6787
921.1119, 131.4200
921.5941, 129.4168
922.0762, 126.0547
922.5583, 122.5081
923.0404, 118.7043
923.5225, 114.8566
924.0046, 110.4547
924.4868, 106.6434
924.9689, 104.5531
925.4510, 102.6516
925.9331, 99.24448
926.4152, 94.49774
926.8973, 90.06436
927.3795, 86.28891
927.8616, 83.03528
928.3437, 80.90155
928.8258, 78.74161
929.3079, 75.29266
929.7900, 71.11703
930.2722, 67.46747
930.7543, 64.68414
931.2364, 61.86795
931.7185, 58.17093
932.2006, 54.16980
932.6827, 50.62384
933.1649, 47.37451
933.6470, 43.97223
934.1291, 40.38290
934.6112, 37.01733
935.0933, 34.11893
935.5754, 31.38007
936.0576, 28.20795
936.5397, 24.68649
937.0218, 21.83832
937.5039, 19.74377
937.9860, 16.98407
938.4681, 12.99072
938.9503, 9.056274
939.4324, 6.385498
939.9145, 4.695404
940.3966, 2.838745
940.8787, 0.4844060
941.3608, 1.098999
941.8430, 1.371674
942.3251, 1.715179
942.8072, 2.883026
943.2893, 4.261749
943.7714, 5.012909
944.2535, 5.186127
944.7357, 5.755554
945.2178, 7.549072
945.6999, 8.690430
946.1820, 8.164948
946.6641, 7.496948
947.1462, 8.041870
947.6284, 9.029724
948.1105, 8.846741
948.5926, 7.161316
949.0747, 5.695923
949.5568, 5.359070
950.0389, 5.467285
950.5211, 5.832672
951.0032, 6.152618
951.4853, 5.934265
951.9674, 5.277283
952.4495, 4.703857
952.9316, 4.463684
953.4138, 4.303802
953.8959, 4.019653
954.3780, 3.590607
954.8601, 2.982086
955.3422, 2.193115
955.8243, 1.210724
956.3065, 4.0405001E-02
956.7886, 1.177368
957.2707, 2.279694
957.7528, 3.619080
958.2349, 6.257263
958.7170, 10.08762
959.1992, 12.89951
959.6813, 14.48523
960.1634, 16.31561
960.6455, 18.96921
961.1276, 21.87762
961.6097, 24.40381
962.0919, 26.62714
962.5740, 28.97263
963.0561, 31.34671
963.5382, 34.17218
964.0203, 37.79642
964.5024, 41.31796
964.9846, 44.03769
965.4667, 46.60172
965.9488, 50.05765
966.4309, 54.48761
966.9130, 58.54398
967.3951, 62.29352
967.8773, 65.55795
968.3594, 68.09378
968.8415, 70.34891
969.3236, 72.92285
969.8057, 75.30341
970.2878, 76.41589
970.7700, 76.01147
971.2521, 75.73499
971.7342, 77.04138
972.2163, 77.49133
972.6984, 75.57428
973.1805, 72.36414
973.6627, 68.69296
974.1448, 64.79230
974.6269, 60.81256
975.1090, 56.79816
975.5911, 52.74655
976.0732, 48.21713
976.5554, 44.04572
977.0375, 41.57007
977.5196, 40.03552
978.0017, 37.82339
978.4838, 34.85626
978.9659, 32.25659
979.4481, 30.70309
979.9302, 29.60687
980.4123, 28.05743
980.8944, 26.47235
981.3765, 26.12863
981.8586, 26.71628
982.3408, 26.37222
982.8229, 24.65015
983.3050, 23.04169
983.7871, 22.82254
984.2692, 23.50476
984.7513, 24.09186
985.2335, 24.56271
985.7156, 24.58453
986.1977, 24.10474
986.6798, 23.87628
987.1619, 24.18576
987.6440, 24.76300
988.1262, 25.34018
988.6083, 25.94763
989.0904, 26.83560
989.5725, 28.24719
990.0546, 28.71918
990.5367, 27.78452
991.0189, 26.90015
991.5010, 26.76044
991.9831, 26.85403
992.4652, 26.45483
992.9473, 25.60260
993.4294, 25.29913
993.9116, 25.73575
994.3937, 26.38901
994.8758, 27.62036
995.3579, 28.57822
995.8400, 28.53525
996.3221, 28.16730
996.8043, 28.52493
997.2864, 29.65784
997.7685, 30.28802
998.2506, 30.00955
998.7327, 29.64062
999.2148, 29.21594
999.6970, 28.82855
1000.179, 28.29694
1000.661, 27.87567
1001.143, 28.27289
1001.625, 29.62393
1002.108, 30.28369
1002.590, 29.08167
1003.072, 27.76651
1003.554, 27.38580
1004.036, 27.20847
1004.518, 26.49728
1005.000, 25.30542
1005.482, 23.96799
1005.964, 22.64975
1006.447, 21.52188
1006.929, 20.70023
1007.411, 19.95428
1007.893, 19.22485
1008.375, 18.36975
1008.857, 16.99060
1009.339, 15.38867
1009.821, 14.44879
1010.304, 14.48819
1010.786, 14.71194
1011.268, 14.58273
1011.750, 14.15118
1012.232, 13.30453
1012.714, 12.25781
1013.196, 11.35150
1013.678, 10.72552
1014.160, 10.64029
1014.643, 11.20987
1015.125, 11.88770
1015.607, 12.06256
1016.089, 11.88016
1016.571, 11.73502
1017.053, 11.53476
1017.535, 10.74429
1018.017, 9.432861
1018.500, 8.871277
1018.982, 9.804321
1019.464, 11.28519
1019.946, 12.08502
1020.428, 12.26669
1020.910, 11.88040
1021.392, 11.00842
1021.874, 10.59119
1022.356, 10.81168
1022.839, 11.07312
1023.321, 11.03812
1023.803, 10.57419
1024.285, 9.139374
1024.767, 6.903442
1025.249, 6.556427
1025.731, 8.259003
1026.213, 9.158661
1026.696, 8.600647
1027.178, 7.505951
1027.660, 6.404449
1028.142, 5.325806
1028.624, 4.309021
1029.106, 3.347473
1029.588, 2.819489
1030.070, 2.868103
1030.552, 2.606873
1031.035, 1.672211
1031.517, 0.9140930
1031.999, 1.000946
1032.481, 1.556946
1032.963, 1.793274
1033.445, 1.711456
1033.927, 1.219666
1034.409, 5.1605001E-02
1034.891, 0.8299260
1035.374, 1.168610
1035.856, 1.254822
1036.338, 1.322601
1036.820, 1.254425
1037.302, 0.6775210
1037.784, 0.6343380
1038.266, 1.182495
1038.748, 0.4657290
1039.231, 0.1312870
1039.713, 0.4489440
1040.195, 0.4368590
1040.677, 0.1750180
1041.159, 1.064758
1041.641, 1.469482
1042.123, 1.211151
1042.605, 1.246246
1043.088, 1.791443
1043.570, 2.358215
1044.052, 2.764893
1044.534, 3.243103
1045.016, 4.052582
1045.498, 5.013672
1045.980, 5.759613
1046.462, 6.249786
1046.944, 6.772919
1047.427, 7.459473
1047.909, 8.024811
1048.391, 8.155640
1048.873, 8.396484
1049.355, 9.223389
1049.837, 10.35870
1050.319, 11.33582
1050.801, 12.12274
1051.283, 12.65036
1051.766, 12.60147
1052.248, 12.71997
1052.730, 13.28397
1053.212, 13.97882
1053.694, 14.68777
1054.176, 15.34811
1054.658, 15.86600
1055.140, 16.23178
1055.623, 16.60275
1056.105, 17.34091
1056.587, 17.64182
1057.069, 17.08289
1057.551, 16.22769
1058.033, 15.06866
1058.515, 14.03812
1058.997, 14.05057
1059.479, 15.12656
1059.962, 15.49115
1060.444, 14.19666
1060.926, 12.70764
1061.408, 11.19443
1061.890, 9.965393
1062.372, 9.257263
1062.854, 8.960205
1063.336, 9.081207
1063.818, 9.522034
1064.301, 9.563690
1064.783, 8.614197
1065.265, 7.834564
1065.747, 7.870148
1066.229, 8.039032
1066.711, 7.927368
1067.193, 7.612793
1067.675, 7.149780
1068.158, 6.622131
1068.640, 6.314667
1069.122, 6.072296
1069.604, 6.478699
1070.086, 8.717896
1070.568, 10.73883
1071.050, 10.86624
1071.532, 10.12878
1072.015, 9.804779
1072.497, 9.969208
1072.979, 10.11014
1073.461, 9.886169
1073.943, 10.05124
1074.425, 11.60120
1074.907, 12.96359
1075.389, 12.61304
1075.871, 11.78766
1076.354, 12.12720
1076.836, 13.40826
1077.318, 14.29022
1077.800, 14.30707
1078.282, 14.36533
1078.764, 14.96878
1079.246, 15.62070
1079.728, 16.06680
1080.210, 16.39136
1080.693, 16.63342
1081.175, 16.84225
1081.657, 17.16656
1082.139, 17.68677
1082.621, 18.02151
1083.103, 18.34250
1083.585, 18.04498
1084.067, 15.77658
1084.549, 13.59332
1085.032, 13.94086
1085.514, 15.77176
1085.996, 16.64679
1086.478, 16.06009
1086.960, 15.21063
1087.442, 14.34485
1087.924, 13.68610
1088.406, 13.46790
1088.889, 13.34219
1089.371, 12.90036
1089.853, 12.43564
1090.335, 12.56119
1090.817, 13.28946
1091.299, 13.87885
1091.781, 14.26071
1092.263, 14.02725
1092.745, 12.45447
1093.228, 10.84677
1093.710, 10.24374
1094.192, 10.07632
1094.674, 9.428802
1095.156, 8.383362
1095.638, 7.846893
1096.120, 8.186584
1096.602, 8.468994
1097.084, 8.718994
1097.567, 8.428925
1098.049, 6.424805
1098.531, 4.466675
1099.013, 4.842926
1099.495, 6.865753
1099.977, 7.746765
1100.459, 6.516327
1100.941, 5.928467
1101.424, 7.403198
1101.906, 8.822815
1102.388, 9.510803
1102.870, 9.619690
1103.352, 9.068024
1103.834, 8.124908
1104.316, 7.265076
1104.798, 6.546967
1105.281, 6.114655
1105.763, 6.191620
1106.245, 6.242004
1106.727, 6.162537
1107.209, 5.989136
1107.691, 5.712067
1108.173, 5.359161
1108.655, 4.914948
1109.137, 4.389648
1109.620, 4.114380
1110.102, 4.230194
1110.584, 4.438019
1111.066, 4.869781
1111.548, 5.168518
1112.030, 4.821747
1112.512, 4.530457
1112.994, 5.595001
1113.476, 7.597107
1113.959, 7.898529
1114.441, 5.091553
1114.923, 3.380432
1115.405, 3.581909
1115.887, 3.893951
1116.369, 4.102417
1116.851, 3.994324
1117.333, 3.201080
1117.816, 2.035583
1118.298, 1.250946
1118.780, 0.8133850
1119.262, 0.9523320
1119.744, 2.334167
1120.226, 2.956573
1120.708, 1.877625
1121.190, 0.9651490
1121.672, 1.468475
1122.155, 2.612579
1122.637, 3.238373
1123.119, 3.340790
1123.601, 2.969666
1124.083, 1.906250
1124.565, 1.104828
1125.047, 0.6751400
1125.529, 0.1337280
1126.011, 0.9186100
1126.494, 1.685272
1126.976, 1.111053
1127.458, 0.3168030
1127.940, 0.3234560
1128.422, 1.412750
1128.904, 2.477631
1129.386, 2.713043
1129.868, 2.359619
1130.351, 2.419250
1130.833, 2.265045
1131.315, 1.371368
1131.797, 0.1100460
1132.279, 0.9108890
1132.761, 1.663879
1133.243, 1.905762
1133.725, 1.621216
1134.208, 2.505249
1134.690, 4.920593
1135.172, 5.880066
1135.654, 3.731201
1136.136, 0.9821780
1136.618, 0.9082640
1137.100, 2.519165
1137.582, 2.600769
1138.064, 1.549377
1138.547, 1.715149
1139.029, 3.108765
1139.511, 4.077148
1139.993, 4.085266
1140.475, 3.809937
1140.957, 3.793823
1141.439, 3.892700
1141.921, 3.806702
1142.403, 3.779419
1142.886, 4.562073
1143.368, 5.854126
1143.850, 6.375793
1144.332, 6.008789
1144.814, 5.820496
1145.296, 6.261536
1145.778, 6.725952
1146.260, 6.407104
1146.743, 6.080017
1147.225, 7.171936
1147.707, 8.632324
1148.189, 8.437073
1148.671, 7.175964
1149.153, 6.982544
1149.635, 8.319214
1150.117, 9.760925
1150.599, 10.59607
1151.082, 11.05981
1151.564, 11.61676
1152.046, 11.95801
1152.528, 11.13818
1153.010, 10.11694
1153.492, 10.69623
1153.974, 12.60620
1154.456, 13.87891
1154.938, 14.01868
1155.421, 14.00598
1155.903, 13.86139
1156.385, 13.98279
1156.867, 14.92883
1157.349, 15.88776
1157.831, 15.30542
1158.313, 13.36652
1158.795, 11.92444
1159.278, 11.22754
1159.760, 10.83270
1160.242, 9.864014
1160.724, 9.326782
1161.206, 10.06268
1161.688, 10.42743
1162.170, 9.103821
1162.652, 7.957397
1163.135, 9.267334
1163.617, 12.32581
1164.099, 13.88867
1164.581, 13.51758
1165.063, 13.16595
1165.545, 12.99768
1166.027, 12.58490
1166.509, 11.83759
1166.991, 10.88837
1167.474, 9.765137
1167.956, 8.832886
1168.438, 8.908997
1168.920, 9.936462
1169.402, 10.54712
1169.884, 10.76367
1170.366, 10.15839
1170.848, 8.742615
1171.330, 7.313416
1171.813, 6.129150
1172.295, 5.495789
1172.777, 5.572754
1173.259, 6.175964
1173.741, 7.315186
1174.223, 8.646790
1174.705, 8.369080
1175.187, 6.689514
1175.670, 5.373108
1176.152, 4.576477
1176.634, 4.182129
1177.116, 4.131042
1177.598, 4.316467
1178.080, 4.844604
1178.562, 5.697693
1179.044, 7.158936
1179.526, 8.344299
1180.009, 7.908997
1180.491, 6.282532
1180.973, 3.906860
1181.455, 1.003662
1181.937, 0.5667110
1182.419, 0.5020140
1182.901, 2.295593
1183.383, 3.813965
1183.865, 4.701782
1184.348, 3.498840
1184.830, 0.5516360
1185.312, 0.7628170
1185.794, 1.861145
1186.276, 1.587524
1186.758, 0.0000000E+00
##END=



