##NAMES=Wakefieldite-(Ce)
##RRUFFID=R060176
##IDEAL CHEMISTRY=CeVO_4_
##LOCALITY=North Keremeous, British Columbia, Canada
##OWNER=RRUFF
##SOURCE=Ty Balacko
##DESCRIPTION=Blue-gray to rust-brown colored prismatic crystals
##STATUS=The identification of this mineral is confirmed by single-crystal X-ray diffraction and chemical analysis.
##URL=rruff.info/R060176
##MEASURED CHEMISTRY=(Ce_0.49_La_0.40_Nd_0.11_)_Î£=1_V_1.00_O_4_; trace amounts of Si; no Pb detected
134.1364, 0.0000000E+00
134.6185, 4.1859001E-02
135.1006, 0.7849040
135.5827, 1.473352
136.0648, 1.750275
136.5469, 1.825855
137.0291, 2.358528
137.5112, 3.438274
137.9933, 4.471552
138.4754, 5.105324
138.9575, 5.294361
139.4396, 5.225357
139.9218, 4.813931
140.4039, 4.154274
140.8860, 3.715286
141.3681, 3.526833
141.8502, 3.501461
142.3323, 3.557762
142.8145, 3.663078
143.2966, 3.758665
143.7787, 4.247390
144.2608, 4.623520
144.7429, 4.893105
145.2251, 4.737076
145.7072, 5.130650
146.1893, 5.303950
146.6714, 5.468216
147.1535, 5.939149
147.6356, 5.844984
148.1178, 6.701237
148.5999, 7.273819
149.0820, 7.659649
149.5641, 8.004314
150.0462, 8.476109
150.5283, 9.355728
151.0105, 10.07428
151.4926, 10.00993
151.9747, 9.353085
152.4568, 8.933701
152.9389, 8.996334
153.4210, 9.250313
153.9032, 9.290806
154.3853, 8.783783
154.8674, 8.854023
155.3495, 8.709229
155.8316, 8.361027
156.3138, 7.192539
156.7959, 7.088806
157.2780, 6.561687
157.7601, 6.028412
158.2422, 6.111580
158.7243, 5.107895
159.2065, 5.154480
159.6886, 4.790512
160.1707, 4.620708
160.6528, 4.463772
161.1349, 4.163532
161.6170, 3.847790
162.0992, 4.126720
162.5813, 3.315506
163.0634, 3.588493
163.5455, 3.428993
164.0276, 3.467434
164.5097, 3.077904
164.9919, 2.821232
165.4740, 2.993771
165.9561, 2.929836
166.4382, 2.493950
166.9203, 2.549263
167.4025, 1.729660
167.8846, 1.679764
168.3667, 1.962582
168.8488, 1.175316
169.3309, 1.592838
169.8130, 1.793896
170.2952, 1.790192
170.7773, 0.9649730
171.2594, 1.203239
171.7415, 1.016953
172.2236, 0.8143730
172.7057, 1.205669
173.1879, 0.5059470
173.6700, 0.8901480
174.1521, 0.8432810
174.6342, 0.9953690
175.1163, 0.7202340
175.5984, 0.5785060
176.0806, 0.8663600
176.5627, 0.9180370
177.0448, 0.5979310
177.5269, 0.7691270
178.0090, 6.5453000E-02
178.4911, 0.1314160
178.9733, 0.5300410
179.4554, 0.2366220
179.9375, 0.4207230
180.4196, 0.4243320
180.9017, 0.3958970
181.3839, 0.2192570
181.8660, 0.4751210
182.3481, 0.6851010
182.8302, 0.8782840
183.3123, 0.3410990
183.7944, 2.0287000E-02
184.2766, 9.5856003E-02
184.7587, 0.6084860
185.2408, 0.2513580
185.7229, 0.3184130
186.2050, 0.4020500
186.6871, 0.1068570
187.1693, 0.4736980
187.6514, 2.7515000E-02
188.1335, 9.8266996E-02
188.6156, 0.3678250
189.0977, 0.2110210
189.5798, 0.1875570
190.0620, 0.5934680
190.5441, 0.7641640
191.0262, 0.5641330
191.5083, 0.8551060
191.9904, 0.2067570
192.4725, 0.3274120
192.9547, 0.7874640
193.4368, 0.5600170
193.9189, 0.8120960
194.4010, 0.8863220
194.8831, 0.1400600
195.3652, 0.8287090
195.8474, 0.7722210
196.3295, 1.457397
196.8116, 1.927357
197.2937, 2.193806
197.7758, 1.640800
198.2579, 2.150208
198.7401, 2.236385
199.2222, 2.306660
199.7043, 2.970314
200.1864, 2.545036
200.6685, 3.202206
201.1507, 3.429188
201.6328, 3.854939
202.1149, 3.854298
202.5970, 3.986904
203.0791, 4.548416
203.5612, 4.874153
204.0434, 5.326508
204.5255, 6.034168
205.0076, 6.537319
205.4897, 6.220043
205.9718, 6.964298
206.4539, 7.284389
206.9361, 7.587978
207.4182, 8.484196
207.9003, 8.290817
208.3824, 9.179230
208.8645, 9.637005
209.3466, 10.29300
209.8288, 10.52222
210.3109, 10.88424
210.7930, 11.67480
211.2751, 12.22921
211.7572, 12.41203
212.2393, 13.08493
212.7215, 12.62311
213.2036, 12.55079
213.6857, 12.99971
214.1678, 14.22963
214.6499, 15.06678
215.1321, 15.24306
215.6142, 14.96820
216.0963, 15.20603
216.5784, 16.19148
217.0605, 17.23760
217.5426, 17.83016
218.0248, 17.68547
218.5069, 17.93633
218.9890, 18.84916
219.4711, 20.24269
219.9532, 21.25452
220.4353, 21.76047
220.9175, 22.10617
221.3996, 22.45704
221.8817, 22.67755
222.3638, 23.29641
222.8459, 24.60941
223.3280, 26.39371
223.8102, 27.34996
224.2923, 27.06187
224.7744, 26.61202
225.2565, 26.75433
225.7386, 27.91892
226.2208, 28.60613
226.7029, 28.50776
227.1850, 27.80021
227.6671, 27.39862
228.1492, 27.38091
228.6313, 27.55684
229.1135, 27.88661
229.5956, 28.66914
230.0777, 28.92541
230.5598, 28.43602
231.0419, 27.34464
231.5240, 26.34222
232.0062, 25.46272
232.4883, 24.62738
232.9704, 23.78079
233.4525, 22.87575
233.9346, 22.08002
234.4167, 21.49421
234.8989, 21.04195
235.3810, 20.34807
235.8631, 19.25048
236.3452, 18.11045
236.8273, 17.14549
237.3095, 16.52165
237.7916, 15.68441
238.2737, 14.37110
238.7558, 12.79889
239.2379, 11.53549
239.7200, 11.45724
240.2022, 11.19874
240.6843, 10.79147
241.1664, 9.656055
241.6485, 9.621979
242.1306, 9.248558
242.6127, 8.920780
243.0949, 9.243397
243.5770, 8.543823
244.0591, 8.968239
244.5412, 9.033192
245.0233, 9.362976
245.5054, 9.329914
245.9876, 8.453087
246.4697, 8.711056
246.9518, 8.555962
247.4339, 8.376476
247.9160, 8.778198
248.3981, 8.109806
248.8803, 8.510380
249.3624, 8.487591
249.8445, 8.642239
250.3266, 8.346893
250.8087, 8.177166
251.2909, 8.041187
251.7730, 8.455177
252.2551, 8.709545
252.7372, 8.834949
253.2193, 8.163010
253.7014, 8.590847
254.1836, 8.643372
254.6657, 8.771206
255.1478, 9.524956
255.6299, 9.247250
256.1120, 10.11041
256.5941, 10.61380
257.0763, 11.13784
257.5584, 11.47000
258.0405, 11.78996
258.5226, 12.41899
259.0047, 13.53466
259.4868, 14.67900
259.9690, 15.77098
260.4511, 16.99198
260.9332, 17.37555
261.4153, 16.63373
261.8974, 15.31226
262.3795, 14.23046
262.8617, 13.48996
263.3438, 12.69036
263.8259, 11.56181
264.3080, 10.01583
264.7901, 8.956272
265.2722, 8.400867
265.7544, 8.179115
266.2365, 8.095467
266.7186, 8.177868
267.2007, 8.129467
267.6829, 7.742077
268.1650, 6.955502
268.6471, 6.570492
269.1292, 6.279167
269.6113, 6.597206
270.0934, 6.707508
270.5756, 6.641876
271.0577, 5.728489
271.5398, 5.877754
272.0219, 5.605499
272.5040, 5.324257
272.9861, 5.635712
273.4683, 4.859222
273.9504, 5.169731
274.4325, 5.052265
274.9146, 5.136826
275.3967, 4.797253
275.8788, 4.594196
276.3610, 4.823833
276.8431, 4.820427
277.3252, 4.448406
277.8073, 4.570812
278.2894, 3.821526
278.7715, 3.845058
279.2537, 4.204388
279.7358, 3.874897
280.2179, 4.026142
280.7000, 4.000084
281.1821, 3.153408
281.6642, 3.745331
282.1464, 3.721096
282.6285, 3.064095
283.1106, 3.619427
283.5927, 3.058598
284.0748, 2.901840
284.5569, 3.050201
285.0391, 2.490875
285.5212, 2.847424
286.0033, 2.989151
286.4854, 2.927727
286.9675, 2.046417
287.4496, 2.230213
287.9318, 1.991009
288.4139, 1.737167
288.8960, 2.078804
289.3781, 1.331024
289.8602, 1.668797
290.3424, 1.577080
290.8245, 1.685986
291.3066, 1.369293
291.7887, 1.187668
292.2708, 1.437305
292.7530, 1.452419
293.2351, 1.097458
293.7172, 1.235508
294.1993, 0.5003930
294.6814, 0.5366670
295.1635, 0.9073030
295.6457, 0.5876460
296.1278, 0.7472760
296.6099, 0.7281910
297.0920, 0.1129420
297.5741, 0.4829140
298.0562, 0.4612050
298.5384, 0.1946530
299.0205, 0.3601530
299.5026, 0.2026370
299.9847, 0.3630410
300.4668, 0.2200740
300.9489, 0.3883250
301.4311, 5.9558999E-02
301.9132, 0.2047120
302.3953, 0.3899730
302.8774, 0.3870390
303.3595, 0.9081990
303.8416, 0.4505230
304.3238, 0.6577030
304.8059, 0.5309940
305.2880, 0.3268280
305.7701, 0.6958390
306.2522, 0.4532970
306.7343, 0.5976330
307.2165, 0.2383350
307.6986, 0.1711390
308.1807, 0.3803480
308.6628, 0.2505870
309.1449, 3.4816999E-02
309.6270, 6.7188002E-02
310.1092, 0.4930420
310.5913, 2.1214001E-02
311.0734, 0.2352330
311.5555, 0.2880740
312.0376, 0.4794350
312.5197, 0.1826360
313.0019, 0.3094600
313.4840, 0.4516720
313.9661, 8.0899999E-04
314.4482, 0.6366770
314.9304, 0.1894950
315.4125, 0.1724210
315.8946, 4.4597998E-02
316.3767, 0.1645200
316.8588, 0.2391970
317.3409, 0.1167070
317.8231, 0.2376250
318.3052, 1.2001000E-02
318.7873, 0.2308310
319.2694, 0.3999370
319.7515, 0.2600860
320.2336, 0.2134820
320.7158, 3.6740000E-03
321.1979, 0.2579040
321.6800, 0.3403130
322.1621, 0.3997340
322.6442, 0.2966610
323.1263, 0.3750760
323.6085, 0.1810760
324.0906, 0.4730830
324.5727, 9.2850002E-03
325.0548, 5.2379999E-02
325.5369, 0.1890870
326.0190, 0.1191480
326.5012, 0.5461270
326.9833, 0.4990080
327.4654, 0.2501720
327.9475, 0.2462310
328.4296, 0.3729740
328.9117, 0.7744710
329.3939, 0.9699940
329.8760, 0.3427510
330.3581, 0.7776990
330.8402, 0.7868770
331.3223, 0.7785030
331.8044, 1.362785
332.2866, 0.8548470
332.7687, 1.429604
333.2508, 1.572067
333.7329, 1.912292
334.2150, 1.824100
334.6971, 1.473583
335.1793, 2.269920
335.6614, 2.848557
336.1435, 3.221203
336.6256, 2.771141
337.1077, 3.383320
337.5899, 3.569801
338.0720, 3.738697
338.5541, 4.500267
339.0362, 4.169605
339.5183, 4.921692
340.0005, 5.241558
340.4826, 5.759151
340.9647, 5.848343
341.4468, 6.069813
341.9289, 6.719734
342.4110, 7.132370
342.8932, 7.172173
343.3753, 7.702145
343.8574, 7.356167
344.3395, 7.778793
344.8216, 8.532997
345.3037, 8.594162
345.7859, 8.819710
346.2680, 9.383011
346.7501, 10.11854
347.2322, 10.75591
347.7143, 11.06746
348.1964, 11.16507
348.6786, 11.43281
349.1607, 11.90750
349.6428, 12.43961
350.1249, 12.78392
350.6070, 13.03364
351.0891, 13.49450
351.5713, 14.36419
352.0534, 15.47473
352.5355, 16.62465
353.0176, 17.79980
353.4997, 19.00083
353.9818, 20.29559
354.4640, 21.59412
354.9461, 22.72904
355.4282, 23.51846
355.9103, 24.36655
356.3924, 25.64725
356.8745, 27.34913
357.3567, 29.14180
357.8388, 31.19651
358.3209, 33.14564
358.8030, 34.59319
359.2851, 35.32366
359.7672, 36.00401
360.2494, 36.92335
360.7315, 38.07037
361.2136, 39.35458
361.6957, 40.96368
362.1779, 42.61058
362.6600, 44.19993
363.1421, 45.72276
363.6242, 47.18440
364.1063, 48.48912
364.5884, 49.81466
365.0706, 51.38376
365.5527, 53.54315
366.0348, 55.60730
366.5169, 57.39229
366.9990, 58.90123
367.4811, 60.35007
367.9633, 61.52235
368.4454, 62.82656
368.9275, 64.45569
369.4096, 66.97035
369.8917, 68.95823
370.3738, 70.30685
370.8560, 71.15730
371.3381, 71.92307
371.8202, 72.48678
372.3023, 73.15841
372.7844, 74.21429
373.2665, 75.80364
373.7487, 77.03098
374.2308, 77.80350
374.7129, 78.26633
375.1950, 78.64787
375.6771, 78.96805
376.1592, 79.07433
376.6414, 79.01363
377.1235, 78.71140
377.6056, 77.85196
378.0877, 76.32778
378.5698, 74.61993
379.0519, 73.22392
379.5341, 72.14473
380.0162, 70.86336
380.4983, 69.40488
380.9804, 67.71312
381.4625, 65.65386
381.9446, 63.25325
382.4268, 60.99204
382.9089, 59.39751
383.3910, 58.23505
383.8731, 56.50704
384.3553, 54.06614
384.8374, 51.52985
385.3195, 49.71052
385.8016, 48.39650
386.2837, 47.04254
386.7658, 45.30069
387.2480, 43.39293
387.7301, 41.55098
388.2122, 39.79158
388.6943, 38.08478
389.1764, 36.48307
389.6585, 34.91146
390.1407, 33.28171
390.6228, 31.40222
391.1049, 29.69849
391.5870, 28.59814
392.0691, 27.94055
392.5512, 27.24204
393.0334, 26.21466
393.5155, 25.12160
393.9976, 24.11727
394.4797, 23.22031
394.9618, 22.42292
395.4439, 21.81319
395.9261, 21.27649
396.4082, 20.66313
396.8903, 19.64828
397.3724, 18.83625
397.8545, 18.52020
398.3366, 18.73130
398.8188, 18.68073
399.3009, 17.98976
399.7830, 17.23672
400.2651, 16.81223
400.7472, 17.33855
401.2293, 17.23121
401.7115, 16.06985
402.1936, 14.25409
402.6757, 13.02268
403.1578, 12.65348
403.6399, 12.38850
404.1220, 11.89605
404.6042, 11.10559
405.0863, 10.47628
405.5684, 10.01760
406.0505, 9.714684
406.5326, 9.613422
407.0147, 9.753071
407.4969, 9.792961
407.9790, 9.638878
408.4611, 9.316631
408.9432, 8.880993
409.4254, 8.320084
409.9075, 7.797626
410.3896, 7.496998
410.8717, 7.358120
411.3538, 7.078648
411.8359, 6.565613
412.3181, 6.030521
412.8002, 5.778522
413.2823, 5.771606
413.7644, 5.836803
414.2465, 6.113400
414.7286, 6.310547
415.2108, 5.847973
415.6929, 4.680393
416.1750, 3.703659
416.6571, 3.795128
417.1392, 4.440826
417.6213, 4.952061
418.1035, 5.098167
418.5856, 5.045643
419.0677, 4.738739
419.5498, 4.267727
420.0319, 3.984463
420.5140, 4.322151
420.9962, 4.681736
421.4783, 4.667706
421.9604, 4.076714
422.4425, 3.516991
422.9246, 3.076332
423.4067, 2.757877
423.8889, 2.560631
424.3710, 2.642288
424.8531, 2.683899
425.3352, 2.597290
425.8173, 2.382179
426.2994, 2.227070
426.7816, 2.271099
427.2637, 2.235176
427.7458, 1.891388
428.2279, 0.9849620
428.7100, 0.3876840
429.1921, 0.2205390
429.6743, 0.3525430
430.1564, 0.5466580
430.6385, 0.8605230
431.1206, 1.009304
431.6028, 0.7857970
432.0849, 0.2127950
432.5670, 0.1100500
433.0491, 0.1640170
433.5312, 4.6463002E-02
434.0133, 0.2298160
434.4955, 0.6268270
434.9776, 0.8870200
435.4597, 0.9407960
435.9418, 0.8339650
436.4239, 0.5705720
436.9060, 0.1820910
437.3882, 0.1477360
437.8703, 0.3298260
438.3524, 0.3710750
438.8345, 0.6254430
439.3166, 1.5583000E-02
439.7987, 0.3769800
440.2809, 0.5640260
440.7630, 7.1200997E-02
441.2451, 0.3562160
441.7272, 0.3582880
442.2093, 0.3432040
442.6914, 0.9211460
443.1736, 0.4072420
443.6557, 0.9765510
444.1378, 1.113941
444.6199, 1.449436
445.1020, 1.356869
445.5841, 1.396935
446.0663, 1.865772
446.5484, 2.097622
447.0305, 1.957302
447.5126, 2.307102
447.9947, 2.537991
448.4768, 3.011799
448.9590, 3.110989
449.4411, 2.820503
449.9232, 2.947838
450.4053, 3.721138
450.8874, 4.597542
451.3695, 5.108246
451.8517, 5.122948
452.3338, 5.416985
452.8159, 6.153313
453.2980, 7.086338
453.7801, 7.712105
454.2622, 8.007935
454.7444, 8.260895
455.2265, 8.646023
455.7086, 9.087830
456.1907, 9.209213
456.6729, 8.984409
457.1550, 8.829830
457.6371, 9.088036
458.1192, 9.709446
458.6013, 10.61431
459.0834, 11.85241
459.5656, 13.22505
460.0477, 14.57368
460.5298, 15.89119
461.0119, 17.11147
461.4940, 18.10507
461.9761, 19.03378
462.4583, 20.09809
462.9404, 21.36624
463.4225, 22.54215
463.9046, 23.41039
464.3867, 24.17193
464.8688, 24.99764
465.3510, 26.63798
465.8331, 27.57621
466.3152, 27.39948
466.7973, 26.24578
467.2794, 24.63659
467.7615, 22.14332
468.2437, 19.67232
468.7258, 17.52356
469.2079, 15.79564
469.6900, 13.98350
470.1721, 11.89664
470.6542, 9.899475
471.1364, 8.441540
471.6185, 7.665470
472.1006, 7.025272
472.5827, 6.432842
473.0648, 5.860146
473.5469, 5.391582
474.0291, 5.051693
474.5112, 4.691395
474.9933, 4.047573
475.4754, 3.205383
475.9575, 2.926193
476.4396, 3.300339
476.9218, 3.770210
477.4039, 3.704792
477.8860, 3.281025
478.3681, 2.890415
478.8503, 2.682262
479.3324, 2.540272
479.8145, 2.319164
480.2966, 2.062569
480.7787, 1.886177
481.2608, 1.931057
481.7430, 2.029221
482.2251, 2.075489
482.7072, 2.053493
483.1893, 1.990147
483.6714, 1.809216
484.1535, 1.636353
484.6357, 1.591305
485.1178, 2.020889
485.5999, 2.215771
486.0820, 1.843220
486.5641, 1.111649
487.0462, 0.8078920
487.5284, 1.308041
488.0105, 1.731781
488.4926, 1.653669
488.9747, 0.9396230
489.4568, 0.6639270
489.9389, 0.9922750
490.4211, 1.463577
490.9032, 1.489822
491.3853, 1.038145
491.8674, 0.7794950
492.3495, 0.9058460
492.8316, 1.237141
493.3138, 1.424377
493.7959, 1.469908
494.2780, 1.381531
494.7601, 0.9813500
495.2422, 0.4970680
495.7243, 0.4621110
496.2065, 0.9206200
496.6886, 1.339994
497.1707, 1.238354
497.6528, 0.8649440
498.1349, 0.5675010
498.6170, 0.4425320
499.0992, 0.4155100
499.5813, 0.4514290
500.0634, 0.5479560
500.5455, 0.7069240
501.0276, 1.114147
501.5097, 1.418159
501.9919, 1.447083
502.4740, 1.150063
502.9561, 0.8510570
503.4382, 0.4861430
503.9203, 0.1833400
504.4025, 3.2102998E-02
504.8846, 9.2068002E-02
505.3667, 0.2002410
505.8488, 0.4135270
506.3309, 0.6320550
506.8130, 0.5941300
507.2952, 0.2327580
507.7773, 7.5851001E-02
508.2594, 0.1668190
508.7415, 8.1427000E-02
509.2236, 6.8460003E-02
509.7057, 0.1329750
510.1879, 0.2037560
510.6700, 0.2266120
511.1521, 0.2101880
511.6342, 0.1905710
512.1163, 0.1816250
512.5984, 0.1366920
513.0806, 6.2798001E-02
513.5627, 0.3351040
514.0448, 0.5063950
514.5269, 0.3340450
515.0090, 0.1754340
515.4911, 0.3538970
515.9733, 0.8079300
516.4554, 1.124701
516.9375, 1.152283
517.4196, 0.9900630
517.9017, 0.6323320
518.3839, 0.1399690
518.8660, 0.5665700
519.3481, 0.2266310
519.8302, 0.3442590
520.3123, 0.5654640
520.7944, 0.2096750
521.2766, 7.7890001E-02
521.7587, 0.1806030
522.2408, 0.1437110
522.7229, 0.1646440
523.2050, 0.2677570
523.6871, 0.3438150
524.1693, 0.2848110
524.6514, 0.1118340
525.1335, 0.1392080
525.6156, 0.3933770
526.0977, 0.6777920
526.5798, 0.8585320
527.0620, 0.9173050
527.5441, 0.7523330
528.0262, 0.2292630
528.5083, 0.2857440
528.9904, 0.2784400
529.4725, 5.5643000E-02
529.9547, 0.2462160
530.4368, 0.2148320
530.9189, 0.6806850
531.4010, 0.5885680
531.8831, 5.9032001E-02
532.3652, 0.4105490
532.8474, 0.2199170
533.3295, 0.5254100
533.8116, 1.009296
534.2937, 1.278984
534.7758, 1.345898
535.2579, 0.5900540
535.7401, 0.8952330
536.2222, 0.7740710
536.7043, 0.6351390
537.1865, 1.087507
537.6686, 0.4453720
538.1507, 0.8846660
538.6328, 0.8912430
539.1149, 1.095552
539.5970, 0.8713530
540.0792, 0.7789310
540.5613, 1.114742
541.0434, 1.214016
541.5255, 0.9425220
542.0076, 1.162100
542.4897, 0.5037140
542.9719, 0.6142650
543.4540, 0.9715650
543.9361, 1.477953
544.4182, 1.766201
544.9003, 1.851730
545.3824, 1.112587
545.8646, 1.435919
546.3467, 1.333828
546.8288, 1.212017
547.3109, 1.685932
547.7930, 1.064810
548.2751, 1.526075
548.7573, 1.553913
549.2394, 1.779169
549.7215, 1.575609
550.2036, 1.504099
550.6857, 1.860876
551.1678, 1.980188
551.6500, 1.726400
552.1321, 1.963163
552.6142, 1.325085
553.0963, 2.067961
553.5784, 2.070295
554.0605, 1.738379
554.5427, 1.769327
555.0248, 2.138142
555.5069, 2.382111
555.9890, 2.011129
556.4711, 1.402063
556.9532, 1.307566
557.4354, 1.759073
557.9175, 2.193609
558.3996, 2.092060
558.8817, 1.786463
559.3638, 1.628916
559.8459, 1.710114
560.3281, 1.458771
560.8102, 1.971788
561.2923, 2.267754
561.7744, 2.359501
562.2565, 1.630329
562.7386, 1.964247
563.2208, 1.870789
563.7029, 1.757843
564.1850, 2.417849
564.6671, 2.213245
565.1492, 1.973347
565.6313, 1.980621
566.1135, 2.269190
566.5956, 2.414152
567.0777, 2.431042
567.5598, 1.893244
568.0419, 2.347485
568.5240, 2.581802
569.0062, 2.611471
569.4883, 1.820387
569.9704, 2.091515
570.4525, 1.937723
570.9346, 1.776340
571.4167, 2.210054
571.8989, 1.551332
572.3810, 1.458193
572.8631, 1.491726
573.3452, 1.967836
573.8273, 2.321560
574.3094, 2.224184
574.7916, 2.049322
575.2737, 2.013277
575.7558, 2.214018
576.2379, 2.274708
576.7200, 2.081829
577.2021, 1.870035
577.6843, 1.834135
578.1664, 2.052847
578.6485, 2.078362
579.1306, 1.761541
579.6127, 1.329142
580.0948, 1.267714
580.5770, 1.574108
581.0591, 1.862658
581.5412, 1.997719
582.0233, 2.015137
582.5054, 1.935457
582.9875, 1.765348
583.4697, 1.620853
583.9518, 1.785252
584.4340, 1.920580
584.9161, 1.113209
585.3982, 1.536648
585.8803, 1.777422
586.3624, 1.845596
586.8445, 1.091452
587.3267, 1.377872
587.8088, 1.222582
588.2909, 1.073952
588.7730, 1.527567
589.2551, 0.8875980
589.7372, 1.305984
590.2194, 1.269581
590.7015, 1.467550
591.1836, 1.245138
591.6657, 0.5349460
592.1478, 0.1973360
592.6299, 0.1867810
593.1121, 0.2648750
593.5942, 0.2954040
594.0763, 0.3000620
594.5584, 0.4195900
595.0405, 0.6705610
595.5226, 0.8952750
596.0048, 0.9580550
596.4869, 0.9187370
596.9690, 0.8987940
597.4511, 0.9524040
597.9332, 0.9531140
598.4153, 0.7197190
598.8975, 0.4194370
599.3796, 0.2951530
599.8617, 0.5062160
600.3438, 0.4307820
600.8259, 0.9416690
601.3080, 1.231651
601.7902, 1.313442
602.2723, 0.5705850
602.7544, 0.8898140
603.2365, 0.7809890
603.7186, 0.6562060
604.2007, 1.123394
604.6829, 0.4975340
605.1650, 0.9557510
605.6471, 0.9785800
606.1292, 1.201683
606.6113, 1.236851
607.0934, 1.564596
607.5756, 1.795761
608.0577, 1.850840
608.5398, 1.759296
609.0219, 1.569399
609.5040, 1.172935
609.9861, 0.8598820
610.4683, 0.8411710
610.9504, 1.017469
611.4325, 1.170261
611.9146, 1.389544
612.3967, 1.428207
612.8788, 1.017408
613.3610, 0.2354550
613.8431, 4.9814001E-02
614.3252, 0.8418540
614.8073, 1.582298
615.2894, 1.685633
615.7715, 1.099424
616.2537, 0.8240740
616.7358, 0.9062900
617.2179, 1.078163
617.7000, 1.099472
618.1821, 0.9890860
618.6642, 0.7962060
619.1464, 0.4865420
619.6285, 0.2268980
620.1106, 0.1754420
620.5927, 0.2916910
621.0748, 0.5022660
621.5569, 1.086363
622.0391, 1.450808
622.5212, 1.025917
623.0033, 0.1348650
623.4854, 0.2118550
623.9675, 0.8522820
624.4496, 1.778294
624.9318, 2.104187
625.4139, 1.839443
625.8960, 1.504852
626.3781, 1.023010
626.8602, 0.6596010
627.3423, 0.6214010
627.8245, 0.8994120
628.3066, 1.207983
628.7887, 1.570658
629.2708, 1.764204
629.7529, 1.262383
630.2350, 0.4375930
630.7172, 0.2145160
631.1993, 0.9989240
631.6815, 1.853928
632.1636, 2.016428
632.6457, 1.740215
633.1278, 1.434868
633.6099, 1.121109
634.0920, 0.9252950
634.5742, 0.9328370
635.0563, 1.098886
635.5384, 1.256266
636.0205, 1.514540
636.5026, 1.595448
636.9847, 1.341225
637.4669, 0.7842880
637.9490, 0.4421220
638.4311, 0.3309590
638.9132, 0.3568020
639.3953, 0.5318220
639.8774, 0.8057730
640.3596, 0.9022100
640.8417, 0.7973920
641.3238, 0.7040540
641.8059, 0.9720290
642.2880, 1.325829
642.7701, 1.307739
643.2523, 0.6410960
643.7344, 9.4887003E-02
644.2165, 3.5271000E-02
644.6986, 0.3320980
645.1807, 0.8168030
645.6628, 1.964079
646.1450, 2.655731
646.6271, 2.568506
647.1092, 1.976238
647.5913, 1.569258
648.0734, 1.364628
648.5555, 1.295887
649.0377, 1.419420
649.5198, 1.644312
650.0019, 1.485855
650.4840, 0.9502530
650.9661, 0.5364190
651.4482, 0.7632390
651.9304, 1.249624
652.4125, 1.219219
652.8946, 0.6559370
653.3767, 0.2491840
653.8588, 0.6955030
654.3409, 1.346916
654.8231, 1.637119
655.3052, 1.363031
655.7873, 1.066374
656.2694, 0.8573270
656.7515, 0.6853580
657.2336, 0.4744630
657.7158, 6.8370998E-02
658.1979, 3.6203001E-02
658.6800, 0.2827720
659.1621, 0.8302970
659.6442, 1.318214
660.1263, 1.741774
660.6085, 2.043234
661.0906, 2.199299
661.5727, 2.215570
662.0548, 2.036720
662.5369, 1.707029
663.0190, 1.429577
663.5012, 1.442493
663.9833, 1.443945
664.4654, 1.096678
664.9475, 0.4650400
665.4296, 5.7521999E-02
665.9117, 0.1840060
666.3939, 0.4399430
666.8760, 0.5732770
667.3581, 0.5706210
667.8402, 0.7263660
668.3223, 1.169037
668.8044, 1.574587
669.2866, 1.686832
669.7687, 1.511724
670.2508, 1.298098
670.7329, 1.023655
671.2150, 0.7898390
671.6971, 0.7075750
672.1793, 0.7662540
672.6614, 0.8911840
673.1435, 1.115629
673.6256, 1.372807
674.1077, 1.777468
674.5898, 2.161642
675.0720, 2.214664
675.5541, 1.402798
676.0362, 0.7165370
676.5183, 0.3740730
677.0004, 0.3700470
677.4825, 0.7358590
677.9647, 1.932451
678.4468, 2.638067
678.9290, 2.287937
679.4111, 1.184757
679.8932, 0.7255080
680.3753, 0.9465750
680.8574, 1.261959
681.3395, 1.316507
681.8217, 1.249517
682.3038, 1.303070
682.7859, 1.477985
683.2680, 1.630447
683.7501, 1.619631
684.2322, 1.563343
684.7144, 1.552443
685.1965, 1.624414
685.6786, 1.733408
686.1607, 1.967030
686.6428, 2.185965
687.1249, 2.287626
687.6071, 2.259327
688.0892, 2.139988
688.5713, 1.889448
689.0534, 1.632338
689.5355, 1.500647
690.0176, 1.490316
690.4998, 1.562786
690.9819, 1.729523
691.4640, 1.923212
691.9461, 2.075645
692.4282, 2.183828
692.9103, 2.229168
693.3925, 2.205717
693.8746, 2.121525
694.3567, 1.921486
694.8388, 1.665020
695.3209, 1.490723
695.8030, 1.364511
696.2852, 1.412012
696.7673, 1.792925
697.2494, 2.393351
697.7315, 2.519880
698.2136, 1.973120
698.6957, 1.618784
699.1779, 2.024225
699.6600, 2.923378
700.1421, 2.963968
700.6242, 2.192907
701.1063, 1.509672
701.5884, 1.776360
702.0706, 2.366842
702.5527, 2.397482
703.0348, 1.808798
703.5169, 1.448427
703.9990, 2.099270
704.4811, 2.871794
704.9633, 3.107883
705.4454, 2.474995
705.9275, 2.061975
706.4096, 1.966326
706.8917, 1.988337
707.3738, 1.981195
707.8560, 1.949568
708.3381, 1.829918
708.8202, 1.600023
709.3023, 1.342150
709.7844, 1.141581
710.2665, 0.9916310
710.7487, 0.8535100
711.2308, 0.6742340
711.7129, 0.6248720
712.1950, 1.056921
712.6771, 1.638783
713.1592, 1.873396
713.6414, 1.193138
714.1235, 0.6264310
714.6056, 0.4409310
715.0877, 0.5125750
715.5698, 0.6095450
716.0519, 0.7092060
716.5341, 0.9403110
717.0162, 1.430862
717.4983, 1.989319
717.9804, 1.964956
718.4625, 1.399031
718.9446, 0.8736710
719.4268, 0.7145560
719.9089, 0.7279680
720.3910, 0.6997800
720.8731, 0.6293930
721.3552, 0.5143050
721.8373, 0.3654270
722.3195, 0.1607880
722.8016, 0.2546840
723.2837, 0.8819810
723.7658, 0.9772000
724.2479, 0.1182580
724.7300, 0.7303850
725.2122, 1.141069
725.6943, 1.112122
726.1765, 0.8471720
726.6586, 0.2897000
727.1407, 0.1740530
727.6228, 0.1244240
728.1049, 0.2213420
728.5870, 0.2925110
729.0692, 3.4864001E-02
729.5513, 0.1167140
730.0334, 0.4123250
730.5155, 1.044937
730.9976, 1.171988
731.4797, 0.4713420
731.9619, 3.3767998E-02
732.4440, 8.8528000E-02
732.9261, 6.6712998E-02
733.4082, 0.3167920
733.8903, 0.7882900
734.3724, 0.8359410
734.8546, 0.3055550
735.3367, 0.3319820
735.8188, 0.3532450
736.3009, 6.8467997E-02
736.7830, 8.4224999E-02
737.2651, 0.6110880
737.7473, 1.332680
738.2294, 1.358824
738.7115, 0.9632550
739.1936, 0.5483880
739.6757, 0.1140290
740.1578, 0.1592640
740.6400, 6.8210997E-02
741.1221, 0.1740550
741.6042, 0.1657600
742.0863, 0.3353790
742.5684, 0.5111390
743.0505, 9.3493998E-02
743.5327, 0.5779290
744.0148, 0.7101650
744.4969, 0.3381560
744.9790, 9.1271996E-02
745.4611, 0.4629250
745.9432, 0.7523540
746.4254, 0.8885230
746.9075, 0.9167400
747.3896, 0.9538020
747.8717, 1.213934
748.3538, 1.333168
748.8359, 1.001116
749.3181, 0.3453850
749.8002, 3.9182998E-02
750.2823, 0.3269440
750.7644, 0.5672210
751.2465, 0.5379890
751.7286, 0.3098320
752.2108, 0.1515500
752.6929, 5.7753000E-02
753.1750, 0.2343180
753.6571, 1.168797
754.1392, 2.277708
754.6213, 2.432741
755.1035, 1.787245
755.5856, 1.230276
756.0677, 1.246826
756.5498, 1.489120
757.0319, 1.895243
757.5140, 2.460142
757.9962, 2.586348
758.4783, 1.844002
758.9604, 1.238861
759.4425, 1.269848
759.9246, 1.918028
760.4067, 2.477938
760.8889, 2.947760
761.3710, 3.313553
761.8531, 3.500011
762.3352, 3.597103
762.8173, 3.743507
763.2994, 3.946821
763.7816, 4.266100
764.2637, 4.770273
764.7458, 5.380104
765.2279, 6.051798
765.7100, 6.812891
766.1921, 7.517321
766.6743, 8.161596
767.1564, 8.745476
767.6385, 9.237888
768.1206, 9.620985
768.6027, 10.03262
769.0848, 10.42052
769.5670, 11.15479
770.0491, 12.82924
770.5312, 15.04055
771.0133, 17.01893
771.4954, 18.66191
771.9775, 20.16649
772.4597, 21.50831
772.9418, 22.87210
773.4240, 24.41834
773.9061, 26.20287
774.3882, 28.11729
774.8703, 30.30322
775.3524, 32.43815
775.8345, 34.02285
776.3167, 34.92597
776.7988, 37.07934
777.2809, 40.74023
777.7630, 44.81966
778.2451, 47.92236
778.7272, 50.61830
779.2094, 54.07891
779.6915, 58.57106
780.1736, 63.48416
780.6557, 68.71641
781.1378, 73.95509
781.6199, 78.93593
782.1021, 83.38885
782.5842, 88.02547
783.0663, 93.05561
783.5484, 97.97557
784.0305, 102.6187
784.5126, 107.0794
784.9948, 109.0620
785.4769, 108.2734
785.9590, 105.3188
786.4411, 100.0204
786.9232, 93.21175
787.4053, 86.15785
787.8875, 78.78057
788.3696, 72.30795
788.8517, 67.25867
789.3338, 63.35096
789.8159, 60.19643
790.2980, 57.64957
790.7802, 56.11770
791.2623, 55.75807
791.7444, 56.23940
792.2265, 57.20206
792.7086, 58.64799
793.1907, 60.46381
793.6729, 62.73013
794.1550, 65.23176
794.6371, 67.85666
795.1192, 70.45194
795.6013, 72.89781
796.0834, 75.44715
796.5656, 77.41805
797.0477, 78.74867
797.5298, 79.26385
798.0119, 78.89812
798.4940, 78.06996
798.9761, 75.17680
799.4583, 69.61420
799.9404, 62.89180
800.4225, 56.68869
800.9046, 50.96388
801.3867, 45.20462
801.8688, 39.22057
802.3510, 33.75263
802.8331, 29.80392
803.3152, 26.74520
803.7973, 23.77077
804.2794, 20.46095
804.7615, 17.53152
805.2437, 15.13626
805.7258, 13.17476
806.2079, 11.57526
806.6900, 10.37801
807.1721, 9.432272
807.6542, 8.804382
808.1364, 8.224880
808.6185, 7.230804
809.1006, 5.984535
809.5827, 4.966560
810.0648, 4.297745
810.5469, 3.829460
811.0291, 3.478146
811.5112, 3.256721
811.9933, 3.185730
812.4754, 3.538811
812.9575, 3.603695
813.4396, 3.189354
813.9218, 2.636452
814.4039, 2.386971
814.8860, 2.472382
815.3681, 2.263519
815.8502, 1.627769
816.3323, 0.9672200
816.8145, 0.8211400
817.2966, 0.9671170
817.7787, 1.012993
818.2608, 0.8624650
818.7429, 0.6373600
819.2251, 0.2332530
819.7072, 0.1263540
820.1893, 0.1868710
820.6714, 0.3187680
821.1536, 0.5255320
821.6357, 0.3225590
822.1178, 1.8650001E-02
822.5999, 5.4072998E-02
823.0820, 7.6087996E-02
823.5641, 0.2566220
824.0463, 0.4869040
824.5284, 0.6266860
825.0105, 0.4470830
825.4926, 0.1519320
825.9747, 2.0572999E-02
826.4568, 9.6099998E-04
826.9390, 5.1109001E-02
827.4211, 1.5247000E-02
827.9032, 2.2647999E-02
828.3853, 8.3682999E-02
828.8674, 0.2878650
829.3495, 0.4852940
829.8317, 0.5203360
830.3138, 0.2237550
830.7959, 0.1379590
831.2780, 0.1174810
831.7601, 0.1231190
832.2422, 0.7651330
832.7244, 0.3586810
833.2065, 1.078552
833.6886, 1.409828
834.1707, 1.982635
834.6528, 2.170620
835.1349, 2.534473
835.6171, 3.370461
836.0992, 4.012703
836.5813, 4.325813
837.0634, 5.172825
837.5455, 5.187595
838.0276, 6.014717
838.5098, 7.217609
838.9919, 7.771141
839.4740, 8.845314
839.9561, 9.781719
840.4382, 9.936848
840.9203, 11.93881
841.4025, 13.33460
841.8846, 14.51203
842.3667, 15.35592
842.8488, 15.88401
843.3309, 17.11547
843.8130, 19.14329
844.2952, 21.35237
844.7773, 23.24519
845.2594, 25.11434
845.7415, 27.59732
846.2236, 30.65758
846.7057, 34.05778
847.1879, 37.63620
847.6700, 41.54629
848.1521, 45.92031
848.6342, 50.74095
849.1163, 55.83384
849.5984, 61.44858
850.0806, 66.70560
850.5627, 71.14809
851.0448, 75.06181
851.5269, 79.32008
852.0090, 83.88618
852.4911, 88.47592
852.9733, 92.78146
853.4554, 97.14618
853.9375, 101.6752
854.4196, 106.5413
854.9017, 112.1963
855.3839, 118.6291
855.8660, 125.9938
856.3481, 134.2230
856.8302, 143.3967
857.3123, 154.0571
857.7944, 166.4412
858.2766, 178.3128
858.7587, 189.2075
859.2408, 199.3775
859.7229, 209.4088
860.2050, 218.8941
860.6871, 227.0510
861.1693, 236.1771
861.6514, 239.8769
862.1335, 235.8917
862.6156, 224.6642
863.0977, 207.0883
863.5798, 180.4324
864.0620, 154.5132
864.5441, 129.2802
865.0262, 106.3213
865.5083, 86.71272
865.9904, 70.45637
866.4726, 57.58613
866.9547, 48.22781
867.4368, 40.86924
867.9189, 34.87039
868.4011, 29.99015
868.8832, 25.94158
869.3653, 22.76016
869.8474, 20.27271
870.3295, 18.67360
870.8116, 17.45371
871.2938, 16.32885
871.7759, 15.27824
872.2580, 14.10404
872.7401, 12.78493
873.2222, 11.46769
873.7043, 10.13103
874.1865, 8.941006
874.6686, 8.072388
875.1507, 7.532457
875.6328, 7.184774
876.1149, 7.155779
876.5970, 7.166237
877.0792, 7.153593
877.5613, 7.099724
878.0434, 6.739925
878.5255, 6.063053
879.0076, 5.462215
879.4897, 5.220737
879.9719, 5.165234
880.4540, 5.144688
880.9361, 4.779095
881.4182, 5.195059
881.9003, 5.393755
882.3824, 5.386892
882.8646, 4.562353
883.3467, 4.813671
883.8288, 4.640135
884.3109, 4.438555
884.7930, 4.823025
885.2751, 4.114944
885.7573, 4.490074
886.2394, 4.434479
886.7215, 4.585520
887.2036, 4.307596
887.6857, 4.153625
888.1678, 4.426817
888.6500, 3.956188
889.1321, 4.125025
889.6142, 4.164221
890.0963, 3.956036
890.5784, 3.894447
891.0605, 4.031275
891.5427, 4.267351
892.0248, 4.464476
892.5069, 4.587330
892.9890, 4.409298
893.4711, 3.903698
893.9532, 3.532265
894.4354, 3.890327
894.9175, 4.419600
895.3996, 4.606863
895.8817, 4.376633
896.3638, 4.265629
896.8459, 4.416401
897.3281, 4.461948
897.8102, 4.066755
898.2923, 3.361732
898.7744, 3.204285
899.2565, 3.558550
899.7386, 3.899229
900.2208, 3.649025
900.7029, 3.433102
901.1850, 3.784533
901.6671, 4.602648
902.1492, 4.942299
902.6313, 4.445263
903.1135, 3.956186
903.5956, 3.597078
904.0777, 3.393831
904.5598, 3.403032
905.0419, 3.629215
905.5240, 3.876495
906.0062, 4.145754
906.4883, 4.367989
906.9704, 4.480009
907.4525, 4.515163
907.9346, 4.421497
908.4167, 4.071764
908.8989, 3.800537
909.3810, 3.609770
909.8631, 3.542513
910.3452, 3.735369
910.8273, 4.163816
911.3094, 4.343372
911.7916, 4.192780
912.2737, 3.960402
912.7558, 3.837835
913.2380, 3.783031
913.7201, 3.754473
914.2022, 3.745590
914.6843, 3.762175
915.1664, 3.962433
915.6486, 3.996191
916.1307, 3.584948
916.6128, 2.772766
917.0949, 2.333715
917.5770, 2.271086
918.0591, 2.347916
918.5413, 2.562668
919.0234, 2.722717
919.5055, 2.515947
919.9876, 2.057678
920.4697, 1.807119
920.9518, 2.114889
921.4340, 2.320698
921.9161, 2.246777
922.3982, 2.013323
922.8803, 1.908516
923.3624, 1.930885
923.8445, 1.926344
924.3267, 1.835510
924.8088, 1.738585
925.2909, 1.757526
925.7730, 1.815041
926.2551, 1.795345
926.7372, 1.637604
927.2194, 1.454220
927.7015, 1.249640
928.1836, 1.035057
928.6657, 0.7976550
929.1478, 0.5348110
929.6299, 0.4401470
930.1121, 0.5366230
930.5942, 0.6146620
931.0763, 0.4365770
931.5584, 0.1822620
932.0405, 5.5151001E-02
932.5226, 7.6214001E-02
933.0048, 6.4621001E-02
933.4869, 0.1364060
933.9690, 0.2291300
934.4511, 8.6375996E-02
934.9332, 0.2430080
935.4153, 0.5860040
935.8975, 0.9384770
936.3796, 1.100155
936.8617, 0.8184050
937.3438, 0.4905280
937.8259, 0.6355150
938.3080, 1.016550
938.7902, 1.159187
939.2723, 0.7233490
939.7544, 0.3175980
940.2365, 3.7781000E-02
940.7186, 0.2859690
941.2007, 0.2909790
941.6829, 7.5768001E-02
942.1650, 9.8328002E-02
942.6471, 0.2010990
943.1292, 0.2296890
943.6113, 8.7260999E-02
944.0934, 7.0304997E-02
944.5756, 4.4325002E-02
945.0577, 0.2555540
945.5398, 0.3302120
946.0219, 2.4658000E-02
946.5040, 0.3040680
946.9861, 0.4839900
947.4683, 0.5337750
947.9504, 0.4518180
948.4325, 0.2712170
948.9146, 0.6880840
949.3967, 0.1951240
949.8788, 7.9829998E-02
950.3610, 0.1521490
950.8431, 0.6006360
951.3252, 0.2931000
951.8073, 0.4117640
952.2894, 0.5484310
952.7715, 9.3011998E-02
953.2537, 0.7301770
953.7358, 0.2852840
954.2179, 0.2731300
954.7000, 6.3671000E-02
955.1821, 0.2829670
955.6642, 0.3704660
956.1464, 3.0081000E-02
956.6285, 7.2672002E-02
957.1106, 0.1977940
957.5927, 2.1477001E-02
958.0748, 0.4911800
958.5569, 5.5445001E-02
959.0391, 0.5818820
959.5212, 0.5553210
960.0033, 0.2075460
960.4855, 0.1587560
960.9676, 0.3590200
961.4497, 0.6588840
961.9318, 0.7525900
962.4139, 2.3397001E-02
962.8961, 0.3560600
963.3782, 0.2626990
963.8603, 0.1515160
964.3424, 0.6326520
964.8245, 2.1341000E-02
965.3066, 0.4927390
965.7888, 0.5312100
966.2709, 0.7672080
966.7530, 0.5753960
967.2351, 0.5155680
967.7172, 0.8831620
968.1993, 1.013233
968.6815, 0.7702140
969.1636, 0.7236000
969.6457, 0.7772100
970.1278, 0.7391990
970.6099, 0.7204670
971.0920, 0.6988870
971.5742, 0.7387540
972.0563, 1.012461
972.5384, 1.286093
973.0205, 1.140028
973.5026, 0.6995280
973.9847, 0.4889720
974.4669, 0.8842430
974.9490, 1.287420
975.4311, 1.666986
975.9132, 1.910532
976.3953, 1.717148
976.8774, 1.116362
977.3596, 0.5377710
977.8417, 3.3252999E-02
978.3238, 0.2236440
978.8059, 6.0901999E-02
979.2880, 0.6053300
979.7701, 1.139971
980.2523, 1.676733
980.7344, 1.972427
981.2165, 1.922901
981.6986, 1.828129
982.1807, 1.909624
982.6628, 2.096329
983.1450, 2.005970
983.6271, 1.692078
984.1092, 1.490143
984.5913, 1.792395
985.0734, 2.055355
985.5555, 1.752983
986.0377, 1.213091
986.5198, 1.369953
987.0019, 2.585552
987.4840, 3.260408
987.9661, 3.074593
988.4482, 2.492653
988.9304, 2.018181
989.4125, 1.646507
989.8946, 1.378796
990.3767, 1.223207
990.8588, 1.126860
991.3409, 0.9996910
991.8231, 0.9911800
992.3052, 1.254278
992.7873, 1.765718
993.2694, 1.977232
993.7515, 1.876614
994.2336, 1.833416
994.7158, 2.205204
995.1979, 2.601057
995.6800, 2.488470
996.1621, 2.053349
996.6442, 1.731522
997.1263, 1.513365
997.6085, 1.665556
998.0906, 2.471952
998.5727, 3.292862
999.0548, 3.161631
999.5369, 2.276312
1000.019, 1.861765
1000.501, 2.076628
1000.983, 2.313570
1001.465, 2.028280
1001.948, 1.661911
1002.430, 1.626440
1002.912, 1.953365
1003.394, 2.011637
1003.876, 1.683115
1004.358, 1.470642
1004.840, 1.569975
1005.322, 1.864540
1005.804, 2.254576
1006.287, 2.617008
1006.769, 2.579733
1007.251, 1.632666
1007.733, 0.9958250
1008.215, 1.257376
1008.697, 1.779028
1009.179, 2.135105
1009.661, 2.285044
1010.144, 2.374058
1010.626, 2.445560
1011.108, 2.420467
1011.590, 2.357742
1012.072, 2.237501
1012.554, 2.001005
1013.036, 1.661516
1013.518, 1.541891
1014.000, 1.945522
1014.483, 2.160057
1014.965, 1.897610
1015.447, 1.491058
1015.929, 1.563293
1016.411, 2.050779
1016.893, 2.483704
1017.375, 2.763985
1017.857, 2.827177
1018.340, 2.488216
1018.822, 2.052685
1019.304, 1.684576
1019.786, 1.354822
1020.268, 1.369026
1020.750, 1.847761
1021.232, 2.165298
1021.714, 1.740353
1022.196, 1.055338
1022.679, 0.8042260
1023.161, 0.9036750
1023.643, 0.9781150
1024.125, 0.6919160
1024.607, 0.6865310
1025.089, 1.211380
1025.571, 1.899956
1026.053, 2.308784
1026.536, 2.416578
1027.018, 1.944424
1027.500, 0.8136620
1027.982, 3.9549001E-02
1028.464, 0.4648300
1028.946, 1.252045
1029.428, 1.434273
1029.910, 0.9709070
1030.392, 0.7296830
1030.875, 0.7136210
1031.357, 0.9161030
1031.839, 1.431847
1032.321, 2.039612
1032.803, 2.301538
1033.285, 2.322964
1033.767, 2.325092
1034.249, 2.380610
1034.732, 2.412863
1035.214, 2.423086
1035.696, 2.355364
1036.178, 2.146358
1036.660, 1.833286
1037.142, 1.705296
1037.624, 1.742382
1038.106, 1.643538
1038.589, 0.9143850
1039.071, 0.2416590
1039.553, 0.2832720
1040.035, 0.8188060
1040.517, 1.031782
1040.999, 0.7216430
1041.481, 0.5667060
1041.963, 0.7125430
1042.445, 0.9156630
1042.927, 0.8056470
1043.410, 0.5319400
1043.892, 0.3893510
1044.374, 0.4340400
1044.856, 0.4926130
1045.338, 0.5369320
1045.820, 0.5268480
1046.302, 0.3703230
1046.784, 0.1492750
1047.267, 0.4185830
1047.749, 1.120544
1048.231, 1.557974
1048.713, 1.331030
1049.195, 0.9542710
1049.677, 0.7362040
1050.159, 0.6623900
1050.641, 0.7349430
1051.124, 1.067907
1051.606, 1.177404
1052.088, 1.013918
1052.570, 0.8089180
1053.052, 0.7242130
1053.534, 0.7281970
1054.016, 0.8361400
1054.498, 0.9978770
1054.980, 0.9924830
1055.463, 0.3022100
1055.945, 3.1838998E-02
1056.427, 0.6508060
1056.909, 1.580359
1057.391, 1.826269
1057.873, 1.469130
1058.355, 1.137867
1058.837, 0.9211180
1059.319, 0.8055270
1059.802, 0.9962540
1060.284, 1.112810
1060.766, 0.6898400
1061.248, 0.2185880
1061.730, 0.4781130
1062.212, 2.8746000E-02
1062.694, 0.5983160
1063.176, 1.033554
1063.659, 1.289192
1064.141, 1.197567
1064.623, 0.9147620
1065.105, 0.7087690
1065.587, 0.7079330
1066.069, 0.6428390
1066.551, 0.4065690
1067.033, 0.2211840
1067.516, 0.3080640
1067.998, 0.5870380
1068.480, 0.5940460
1068.962, 0.3987850
1069.444, 0.3912850
1069.926, 0.9952550
1070.408, 1.600163
1070.890, 2.089806
1071.372, 2.309902
1071.854, 1.863436
1072.337, 0.6126120
1072.819, 1.0973000E-02
1073.301, 0.2577060
1073.783, 0.7445450
1074.265, 1.090521
1074.747, 1.259279
1075.229, 1.064119
1075.711, 0.5522800
1076.194, 0.5039620
1076.676, 1.266092
1077.158, 1.698696
1077.640, 1.385895
1078.122, 0.8043520
1078.604, 0.8639350
1079.086, 1.266623
1079.568, 1.336790
1080.051, 0.8124640
1080.533, 0.4399990
1081.015, 0.6595500
1081.497, 0.9100530
1081.979, 0.8983210
1082.461, 0.6773620
1082.943, 0.5255370
1083.425, 0.4601040
1083.907, 0.6448990
1084.390, 1.474464
1084.872, 2.130344
1085.354, 1.888901
1085.836, 1.263510
1086.318, 0.9674090
1086.800, 1.098230
1087.282, 1.183838
1087.764, 1.217813
1088.247, 1.197155
1088.729, 1.027559
1089.211, 0.8697910
1089.693, 1.017580
1090.175, 1.357897
1090.657, 1.414690
1091.139, 0.7538680
1091.621, 0.5105300
1092.104, 0.9742070
1092.586, 1.639244
1093.068, 1.745499
1093.550, 1.515404
1094.032, 1.500780
1094.514, 1.784067
1094.996, 2.040869
1095.478, 2.163662
1095.960, 2.187901
1096.443, 2.173565
1096.925, 2.051989
1097.407, 1.443066
1097.889, 0.4586600
1098.371, 1.8324001E-02
1098.853, 0.3714080
1099.335, 0.8507000
1099.817, 0.7577100
1100.299, 0.5881060
1100.782, 0.8516580
1101.264, 1.579519
1101.746, 1.990318
1102.228, 2.079222
1102.710, 1.992817
1103.192, 1.681519
1103.674, 1.388784
1104.156, 1.502554
1104.639, 1.793339
1105.121, 1.877375
1105.603, 1.476191
1106.085, 1.307516
1106.567, 1.438358
1107.049, 1.611391
1107.531, 1.645939
1108.013, 1.567211
1108.495, 1.354511
1108.978, 1.061705
1109.460, 0.8907600
1109.942, 1.118549
1110.424, 1.179792
1110.906, 0.8810060
1111.388, 0.5068380
1111.870, 0.4390300
1112.352, 0.6213340
1112.834, 0.8547760
1113.317, 1.117432
1113.799, 1.296776
1114.281, 1.221819
1114.763, 1.168625
1115.245, 1.349236
1115.727, 1.620243
1116.209, 1.555471
1116.691, 1.168518
1117.174, 0.9294170
1117.656, 0.9493410
1118.138, 1.070614
1118.620, 1.276007
1119.102, 1.428482
1119.584, 1.387812
1120.066, 1.191301
1120.548, 0.9571040
1121.031, 0.6652300
1121.513, 0.4541800
1121.995, 0.3426060
1122.477, 0.4036050
1122.959, 1.062140
1123.441, 1.804516
1123.923, 1.819405
1124.405, 0.5067900
1124.887, 0.1313380
1125.370, 0.1461750
1125.852, 0.4951130
1126.334, 0.3451290
1126.816, 1.0695000E-02
1127.298, 0.1518040
1127.780, 0.6060660
1128.262, 0.7817000
1128.744, 0.1169720
1129.227, 0.2859750
1129.709, 0.2600350
1130.191, 5.4995000E-02
1130.673, 0.1403660
1131.155, 0.3329850
1131.637, 0.6162930
1132.119, 0.9486560
1132.601, 1.089500
1133.083, 0.7122550
1133.566, 0.3747730
1134.048, 0.2798420
1134.530, 0.3040770
1135.012, 0.2645440
1135.494, 0.1804390
1135.976, 0.2993760
1136.458, 0.6415250
1136.940, 0.9585170
1137.422, 1.180172
1137.905, 1.226927
1138.387, 0.9073070
1138.869, 0.4051650
1139.351, 0.1712880
1139.833, 0.2376040
1140.315, 0.3976380
1140.797, 0.5960330
1141.279, 0.8197420
1141.762, 1.348022
1142.244, 1.773159
1142.726, 1.587727
1143.208, 0.8397770
1143.690, 0.5774590
1144.172, 0.8941500
1144.654, 1.160614
1145.136, 1.186155
1145.619, 1.106501
1146.101, 1.143423
1146.583, 1.217529
1147.065, 1.248892
1147.547, 1.236303
1148.029, 1.047596
1148.511, 0.6272910
1148.993, 0.2043230
1149.475, 0.1622080
1149.958, 0.4174850
1150.440, 0.4953990
1150.922, 0.3900630
1151.404, 5.3704999E-02
1151.886, 0.7571870
1152.368, 1.184337
1152.850, 1.040481
1153.332, 0.8390390
1153.814, 0.9156590
1154.297, 1.117780
1154.779, 1.292186
1155.261, 1.404424
1155.743, 1.293551
1156.225, 0.5615930
1156.707, 0.1164720
1157.189, 0.1801180
1157.671, 0.3568220
1158.154, 0.2384800
1158.636, 4.9862001E-02
1159.118, 5.9082001E-02
1159.600, 0.5038700
1160.082, 0.9438610
1160.564, 1.318088
1161.046, 1.518564
1161.528, 1.481812
1162.010, 1.315477
1162.493, 1.070450
1162.975, 0.7828080
1163.457, 0.7374110
1163.939, 0.9317830
1164.421, 1.152000
1164.903, 1.311691
1165.385, 1.426847
1165.867, 1.565867
1166.349, 1.624953
1166.832, 1.315223
1167.314, 0.6630150
1167.796, 0.4964400
1168.278, 0.9096590
1168.760, 1.281761
1169.242, 1.057326
1169.724, 0.7766270
1170.206, 0.8114360
1170.689, 1.031368
1171.171, 1.167937
1171.653, 0.8415000
1172.135, 1.304267
1172.617, 1.549387
1173.099, 1.588516
1173.581, 0.8049070
1174.063, 1.083560
1174.546, 0.9363430
1175.028, 0.7716990
1175.510, 1.199683
1175.992, 0.5354460
1176.474, 0.9539050
1176.956, 0.9401120
1177.438, 1.124187
1177.920, 0.8798330
1178.402, 0.7677290
1178.885, 1.083977
1179.367, 0.3152340
1179.849, 0.2946360
1180.331, 0.6787500
1180.813, 0.9810910
1181.295, 1.029224
1181.777, 0.9464240
1182.259, 0.7327870
1182.742, 0.5342920
1183.224, 0.6036870
1183.706, 1.004270
1184.188, 0.9684830
1184.670, 0.4120740
1185.152, 1.8593000E-02
1185.634, 0.1412850
1186.116, 0.4803090
1186.599, 0.7904650
1187.081, 1.047054
1187.563, 1.236152
1188.045, 1.359504
1188.527, 1.450856
1189.009, 1.529527
1189.491, 1.436673
1189.973, 0.9305480
1190.455, 0.3933300
1190.938, 0.3121680
1191.420, 0.5215520
1191.902, 0.7686600
1192.384, 1.042546
1192.866, 1.299064
1193.348, 1.580557
1193.830, 1.638272
1194.312, 1.041110
1194.794, 0.3511190
1195.277, 0.5013740
1195.759, 1.067536
1196.241, 1.147981
1196.723, 0.2523370
1197.205, 0.3232300
1197.687, 0.5707130
1198.169, 0.4659810
1198.651, 0.3513230
1199.134, 1.283361
1199.616, 1.439768
1200.098, 1.066646
1200.580, 0.7946760
1201.062, 0.8335660
1201.544, 0.6626270
1202.026, 0.1709780
1202.508, 0.1608890
1202.990, 0.2952930
1203.473, 1.011124
1203.955, 1.322237
1204.437, 1.291281
1204.919, 1.190693
1205.401, 1.048403
1205.883, 0.8646900
1206.365, 0.6178510
1206.847, 0.4104060
1207.329, 0.3581520
1207.812, 0.3705250
1208.294, 0.3519590
1208.776, 0.3212670
1209.258, 0.3624840
1209.740, 0.5877380
1210.222, 0.4861300
1210.704, 0.1027600
1211.186, 0.6038330
1211.669, 0.2393720
1212.151, 0.4157020
1212.633, 0.5598900
1213.115, 0.2816450
1213.597, 0.3480630
1214.079, 1.049599
1214.561, 1.357828
1215.043, 1.059372
1215.526, 0.6625200
1216.008, 0.8196430
1216.490, 1.103453
1216.972, 0.8930720
1217.454, 0.2685110
1217.936, 0.1241620
1218.418, 0.7185010
1218.900, 0.9890230
1219.382, 0.6766500
1219.865, 0.3569030
1220.347, 0.9093070
1220.829, 1.643476
1221.311, 1.655876
1221.793, 0.9985770
1222.275, 0.7997340
1222.757, 1.296871
1223.239, 1.337208
1223.722, 0.5710510
1224.204, 9.4080999E-02
1224.686, 0.6887660
1225.168, 1.829201
1225.650, 2.145479
1226.132, 1.617347
1226.614, 1.265395
1227.096, 1.079066
1227.578, 1.234511
1228.061, 1.847591
1228.543, 2.429138
1229.025, 2.357068
1229.507, 2.076668
1229.989, 2.060177
1230.471, 2.282385
1230.953, 2.181108
1231.435, 1.692406
1231.917, 1.475830
1232.400, 1.731247
1232.882, 2.045620
1233.364, 2.076075
1233.846, 1.942215
1234.328, 1.650839
1234.810, 1.271288
1235.292, 1.263954
1235.774, 1.657150
1236.257, 1.709541
1236.739, 1.156025
1237.221, 0.6851140
1237.703, 1.023088
1238.185, 1.573431
1238.667, 1.908577
1239.149, 2.028852
1239.631, 1.899042
1240.114, 1.530218
1240.596, 1.125154
1241.078, 0.6999660
1241.560, 0.4663260
1242.042, 0.7184600
1242.524, 1.095226
1243.006, 1.369543
1243.488, 1.570118
1243.970, 1.783960
1244.453, 1.999619
1244.935, 2.113415
1245.417, 2.097584
1245.899, 2.022821
1246.381, 1.949335
1246.863, 1.794550
1247.345, 1.459690
1247.827, 1.060469
1248.309, 1.023657
1248.792, 1.281364
1249.274, 1.576942
1249.756, 1.863962
1250.238, 1.985239
1250.720, 1.965092
1251.202, 1.965979
1251.684, 2.024784
1252.166, 2.086836
1252.649, 1.929548
1253.131, 1.686531
1253.613, 1.591148
1254.095, 1.718800
1254.577, 1.825462
1255.059, 1.838800
1255.541, 1.797260
1256.023, 1.665823
1256.505, 1.550098
1256.988, 1.688416
1257.470, 2.024252
1257.952, 2.178364
1258.434, 2.053204
1258.916, 1.720770
1259.398, 0.9898260
1259.880, 0.5499500
1260.362, 0.6875020
1260.844, 1.113749
1261.327, 1.469051
1261.809, 1.711121
1262.291, 1.701303
1262.773, 1.381573
1263.255, 1.390556
1263.737, 1.896828
1264.219, 2.162308
1264.701, 1.856731
1265.184, 1.371683
1265.666, 1.076336
1266.148, 0.9622020
1266.630, 1.050629
1267.112, 1.351303
1267.594, 1.766165
1268.076, 2.371744
1268.558, 2.425028
1269.041, 1.558615
1269.523, 0.6685500
1270.005, 0.7232280
1270.487, 1.084677
1270.969, 1.121981
1271.451, 0.9021300
1271.933, 1.008474
1272.415, 1.431997
1272.897, 1.531158
1273.380, 1.083431
1273.862, 0.6889100
1274.344, 1.023752
1274.826, 1.313053
1275.308, 0.9695780
1275.790, 0.2371060
1276.272, 9.7810999E-02
1276.754, 8.3238997E-02
1277.237, 1.5133000E-02
1277.719, 0.1428200
1278.201, 0.3475020
1278.683, 0.9100280
1279.165, 1.203272
1279.647, 0.8282490
1280.129, 0.2209550
1280.611, 0.4457720
1281.094, 1.172379
1281.576, 1.469475
1282.058, 1.172632
1282.540, 0.9057660
1283.022, 0.8880100
1283.504, 0.8726310
1283.986, 0.8139630
1284.468, 0.6934320
1284.950, 0.3443600
1285.432, 1.9447001E-02
1285.915, 2.8828001E-02
1286.397, 0.5200390
1286.879, 0.8385520
1287.361, 0.9066930
1287.843, 0.8691430
1288.325, 0.7317640
1288.807, 0.5987890
1289.289, 0.6060910
1289.772, 0.6467080
1290.254, 0.6700610
1290.736, 0.6614190
1291.218, 0.7491740
1291.700, 0.9661450
1292.182, 0.8886550
1292.664, 0.4066310
1293.146, 3.0673999E-02
1293.629, 0.3172380
1294.111, 0.7423360
1294.593, 0.9815540
1295.075, 1.074873
1295.557, 1.071455
1296.039, 0.9858110
1296.521, 1.034035
1297.003, 1.237103
1297.485, 1.278219
1297.968, 0.7611940
1298.450, 0.2878230
1298.932, 1.6329000E-02
1299.414, 3.0382000E-02
1299.896, 0.3456920
1300.378, 0.9540500
1300.860, 1.223007
1301.342, 0.9798370
1301.824, 0.5825310
1302.307, 0.0000000E+00
##END=



