##NAMES=Walpurgite
##RRUFFID=R050573
##IDEAL CHEMISTRY=Bi^3+^_4_O_4_(U^6+^O_2_)(As^5+^O_4_)_2_&#183;2H_2_O
##LOCALITY=Joachimstal, Bohemia, Czech Republic
##OWNER=RRUFF
##SOURCE=University of Arizona Mineral Museum
##DESCRIPTION=Yellow thin tabular crystals associated with metazeunerite, R060301
##STATUS=The identification of this mineral has been confirmed by single-crystal X-ray diffraction.
##URL=rruff.info/R050573
158.5975, 0.0000000E+00
159.0796, 1.051068
159.5617, 2.834737
160.0438, 4.235029
160.5260, 4.744564
161.0081, 4.880352
161.4902, 4.862593
161.9723, 4.739211
162.4544, 4.673038
162.9365, 4.851495
163.4187, 5.188416
163.9008, 4.451361
164.3829, 3.272097
164.8650, 2.212534
165.3471, 2.121242
165.8292, 2.372716
166.3113, 2.107684
166.7935, 1.438782
167.2756, 0.7157260
167.7577, 6.5165997E-02
168.2398, 0.5838490
168.7219, 1.180520
169.2040, 1.533062
169.6862, 1.600519
170.1683, 1.454818
170.6504, 0.8839400
171.1325, 0.2458790
171.6146, 0.2736470
172.0967, 0.6374710
172.5789, 0.6765510
173.0610, 0.4988390
173.5431, 0.3984720
174.0252, 2.3705000E-02
174.5073, 0.8331860
174.9894, 1.864046
175.4716, 3.061715
175.9537, 4.389319
176.4358, 5.733985
176.9179, 6.870133
177.4000, 7.708915
177.8821, 8.439338
178.3643, 8.837760
178.8464, 9.233716
179.3285, 10.03592
179.8106, 11.41805
180.2927, 13.11602
180.7748, 14.41476
181.2570, 14.84558
181.7391, 15.46310
182.2212, 16.44054
182.7033, 17.65997
183.1854, 18.96316
183.6675, 20.27480
184.1497, 21.58567
184.6318, 22.81995
185.1139, 23.83840
185.5960, 24.97390
186.0781, 26.47320
186.5602, 28.18324
187.0423, 29.68498
187.5245, 30.73924
188.0066, 31.47734
188.4887, 32.27227
188.9708, 33.17823
189.4529, 34.05948
189.9350, 34.72872
190.4172, 35.20531
190.8993, 35.83696
191.3814, 36.99701
191.8635, 38.23803
192.3456, 38.91708
192.8277, 38.82653
193.3099, 38.44730
193.7920, 38.38737
194.2741, 38.75802
194.7562, 38.53143
195.2383, 36.76475
195.7204, 34.38907
196.2026, 32.07937
196.6847, 29.97749
197.1668, 28.08253
197.6489, 26.40540
198.1310, 25.00315
198.6131, 23.68160
199.0953, 22.31104
199.5774, 20.99788
200.0595, 19.86880
200.5416, 18.96021
201.0237, 18.21028
201.5058, 17.45520
201.9880, 16.61634
202.4701, 15.92440
202.9522, 15.39792
203.4343, 15.02788
203.9164, 14.87877
204.3985, 14.98860
204.8807, 15.20347
205.3628, 15.04726
205.8449, 14.15731
206.3270, 13.34082
206.8091, 12.76049
207.2912, 13.41884
207.7733, 13.97205
208.2555, 14.34439
208.7376, 14.54109
209.2197, 14.58592
209.7018, 14.26296
210.1839, 14.02857
210.6660, 13.97562
211.1482, 14.03048
211.6303, 14.12093
212.1124, 14.21927
212.5945, 14.29418
213.0766, 14.19020
213.5587, 13.81474
214.0409, 13.39701
214.5230, 12.97104
215.0051, 12.54035
215.4872, 12.06908
215.9693, 11.52056
216.4514, 10.97791
216.9336, 10.71513
217.4157, 11.00277
217.8978, 11.14727
218.3799, 10.76939
218.8620, 10.06730
219.3441, 9.560877
219.8263, 9.571749
220.3084, 9.867724
220.7905, 9.788707
221.2726, 9.117188
221.7547, 8.483150
222.2368, 8.259342
222.7190, 8.353575
223.2011, 8.401331
223.6832, 8.273504
224.1653, 7.987764
224.6474, 7.586929
225.1295, 6.998208
225.6117, 6.408298
226.0938, 6.003682
226.5759, 5.757147
227.0580, 5.606403
227.5401, 5.723721
228.0222, 5.800219
228.5043, 5.394855
228.9865, 4.351898
229.4686, 3.347245
229.9507, 3.118265
230.4328, 3.672067
230.9149, 3.961930
231.3970, 3.350792
231.8792, 2.576039
232.3613, 2.274213
232.8434, 2.541090
233.3255, 2.922958
233.8076, 2.924037
234.2897, 2.499459
234.7719, 2.227312
235.2540, 2.519778
235.7361, 2.808089
236.2182, 2.643010
236.7003, 1.977772
237.1824, 1.256125
237.6646, 1.006538
238.1467, 1.332368
238.6288, 1.544830
239.1109, 1.455130
239.5930, 1.282866
240.0751, 1.094227
240.5573, 0.9156210
241.0394, 0.7966160
241.5215, 0.8247890
242.0036, 1.054758
242.4857, 1.205133
242.9678, 1.214300
243.4500, 1.177614
243.9321, 1.096774
244.4142, 0.9974700
244.8963, 0.9542470
245.3784, 1.095872
245.8605, 1.533932
246.3427, 1.740764
246.8248, 1.364532
247.3069, 1.084603
247.7890, 1.351645
248.2711, 2.066716
248.7532, 2.812238
249.2354, 3.106355
249.7175, 2.796451
250.1996, 2.822935
250.6817, 3.485262
251.1638, 4.193199
251.6459, 4.579660
252.1281, 4.760296
252.6102, 5.036192
253.0923, 5.774604
253.5744, 7.069810
254.0565, 8.113288
254.5386, 8.849443
255.0208, 9.428348
255.5029, 9.907174
255.9850, 10.31855
256.4671, 10.62906
256.9492, 10.82679
257.4313, 10.84377
257.9135, 11.15056
258.3956, 11.92661
258.8777, 12.76867
259.3598, 13.53011
259.8419, 14.20860
260.3240, 14.86492
260.8062, 15.55234
261.2883, 16.27139
261.7704, 16.86969
262.2525, 17.44643
262.7346, 17.84865
263.2167, 17.77618
263.6989, 17.44059
264.1810, 17.43480
264.6631, 18.20160
265.1452, 19.62010
265.6273, 20.60234
266.1094, 20.86696
266.5916, 21.09361
267.0737, 21.52635
267.5558, 22.10350
268.0379, 22.67864
268.5200, 23.18358
269.0021, 23.61675
269.4843, 23.97014
269.9664, 24.25344
270.4485, 24.46769
270.9306, 24.64255
271.4127, 24.74581
271.8948, 24.69560
272.3770, 24.43743
272.8591, 24.03823
273.3412, 23.66112
273.8233, 23.33025
274.3054, 22.96787
274.7875, 22.57966
275.2697, 22.14572
275.7518, 21.59645
276.2339, 20.88077
276.7160, 20.11955
277.1981, 19.57587
277.6802, 19.30780
278.1623, 18.92555
278.6444, 18.19540
279.1266, 17.30783
279.6087, 16.62020
280.0908, 16.24947
280.5729, 16.03322
281.0550, 15.77251
281.5371, 15.44390
282.0193, 15.19202
282.5014, 15.14907
282.9835, 15.17200
283.4656, 15.00929
283.9477, 14.58671
284.4298, 14.17075
284.9120, 14.14066
285.3941, 14.43255
285.8762, 14.53583
286.3583, 14.15351
286.8404, 13.60966
287.3225, 13.31334
287.8047, 13.31959
288.2868, 13.42604
288.7689, 13.49619
289.2510, 13.53129
289.7331, 13.55018
290.2152, 13.57861
290.6974, 13.58300
291.1795, 13.55235
291.6616, 13.48695
292.1437, 13.29116
292.6258, 12.74944
293.1079, 12.07204
293.5901, 11.76050
294.0722, 12.16961
294.5543, 12.61126
295.0364, 12.51615
295.5185, 11.90308
296.0006, 11.06463
296.4828, 9.998662
296.9649, 8.858480
297.4470, 7.917688
297.9291, 7.240480
298.4112, 6.630587
298.8933, 5.960598
299.3755, 5.242723
299.8576, 4.519261
300.3397, 3.752229
300.8218, 3.048631
301.3039, 2.574005
301.7860, 2.366138
302.2682, 2.111255
302.7503, 1.554512
303.2324, 0.7958120
303.7145, 0.1784460
304.1966, 0.2098650
304.6787, 0.4666230
305.1609, 0.9275270
305.6430, 0.6031690
306.1251, 0.4130320
306.6072, 0.3498280
307.0893, 0.7929440
307.5714, 0.5830030
308.0536, 0.6353150
308.5357, 0.6987530
309.0178, 0.3979930
309.4999, 0.7693870
309.9820, 0.4751410
310.4641, 0.4471070
310.9463, 0.2976800
311.4284, 0.4119980
311.9105, 0.4452140
312.3926, 0.2151370
312.8747, 0.1312110
313.3568, 0.2768060
313.8390, 0.1210410
314.3211, 0.5042710
314.8032, 0.4150120
315.2853, 0.1442410
315.7674, 0.3993960
316.2495, 0.8271280
316.7317, 0.9844070
317.2138, 0.9736480
317.6959, 0.9300050
318.1780, 0.8059170
318.6601, 0.7971360
319.1422, 1.146294
319.6243, 1.793946
320.1064, 2.316809
320.5886, 2.564908
321.0707, 2.646199
321.5528, 2.651397
322.0349, 2.560707
322.5170, 2.630007
322.9991, 3.162111
323.4813, 3.967675
323.9634, 4.502836
324.4455, 4.627182
324.9276, 4.549324
325.4097, 4.432497
325.8918, 4.284098
326.3740, 4.136317
326.8561, 4.000831
327.3382, 3.872906
327.8203, 3.763147
328.3024, 3.687156
328.7845, 3.553335
329.2667, 3.253875
329.7488, 2.847637
330.2309, 2.480990
330.7130, 2.148762
331.1951, 1.813508
331.6772, 1.498918
332.1594, 1.215730
332.6415, 0.9308900
333.1236, 0.5747200
333.6057, 0.1546950
334.0878, 4.6987999E-02
334.5699, 0.7301440
335.0521, 1.156671
335.5342, 0.7880000
336.0163, 4.8482999E-02
336.4984, 0.5477680
336.9805, 0.3152610
337.4626, 9.4438002E-02
337.9448, 0.2743380
338.4269, 1.9153001E-02
338.9090, 0.2204320
339.3911, 0.6385280
339.8732, 1.060022
340.3553, 1.435338
340.8375, 1.737941
341.3196, 2.059687
341.8017, 2.522602
342.2838, 3.126581
342.7659, 3.766405
343.2480, 4.398974
343.7302, 5.025624
344.2123, 5.647118
344.6944, 6.285415
345.1765, 6.946226
345.6586, 7.656470
346.1407, 8.426150
346.6229, 9.123681
347.1050, 9.730380
347.5871, 10.30092
348.0692, 10.77094
348.5513, 11.17604
349.0334, 11.74227
349.5156, 12.59226
349.9977, 13.65379
350.4798, 14.71347
350.9619, 15.95697
351.4440, 16.90846
351.9261, 17.17521
352.4083, 17.07980
352.8904, 17.24850
353.3725, 17.87779
353.8546, 18.73395
354.3367, 19.49339
354.8188, 20.12463
355.3010, 20.79338
355.7831, 21.65858
356.2652, 22.48005
356.7473, 22.94341
357.2294, 23.05025
357.7115, 23.22909
358.1937, 23.94193
358.6758, 25.21596
359.1579, 25.86322
359.6400, 25.48529
360.1221, 24.93908
360.6042, 24.55708
361.0863, 24.33937
361.5685, 24.24709
362.0506, 24.26892
362.5327, 24.34811
363.0148, 24.25166
363.4969, 24.00285
363.9790, 23.66124
364.4612, 23.15944
364.9433, 22.55425
365.4254, 22.06765
365.9075, 21.73802
366.3896, 21.33718
366.8717, 20.46698
367.3539, 18.60975
367.8360, 17.35666
368.3181, 17.24201
368.8002, 17.31489
369.2823, 16.94244
369.7644, 16.07335
370.2466, 14.95353
370.7287, 13.73377
371.2108, 12.37574
371.6929, 11.29901
372.1750, 10.61491
372.6571, 10.04301
373.1393, 9.520104
373.6214, 9.042391
374.1035, 8.637629
374.5856, 8.340814
375.0677, 8.074997
375.5498, 7.570079
376.0320, 6.546508
376.5141, 5.694829
376.9962, 5.131668
377.4783, 4.715886
377.9604, 4.341655
378.4425, 3.975463
378.9247, 3.637304
379.4068, 3.356178
379.8889, 3.143575
380.3710, 2.949623
380.8531, 2.803955
381.3352, 2.650286
381.8174, 2.483804
382.2995, 2.290298
382.7816, 2.027307
383.2637, 1.653357
383.7458, 1.202534
384.2279, 1.015231
384.7101, 1.382869
385.1922, 1.600593
385.6743, 1.473793
386.1564, 1.129027
386.6385, 0.6504140
387.1206, 4.0936999E-02
387.6028, 3.1909000E-02
388.0849, 4.0764999E-02
388.5670, 9.6680000E-02
389.0491, 0.4883030
389.5312, 0.1386080
390.0133, 7.3201001E-02
390.4955, 1.5293000E-02
390.9776, 4.9853999E-02
391.4597, 0.4843390
391.9418, 0.7681640
392.4239, 0.9241620
392.9060, 0.8808970
393.3882, 0.5579570
393.8703, 0.2572180
394.3524, 0.2231960
394.8345, 0.3390610
395.3166, 0.3779160
395.7987, 0.2492630
396.2809, 3.3461001E-02
396.7630, 0.1581950
397.2451, 6.4510000E-03
397.7272, 0.1195640
398.2093, 0.1257260
398.6914, 9.6507996E-02
399.1736, 0.2079760
399.6557, 0.5575690
400.1378, 0.7500340
400.6199, 0.3979350
401.1020, 9.8061003E-02
401.5841, 0.3873030
402.0662, 0.5468100
402.5483, 0.4808930
403.0305, 0.2215820
403.5126, 0.2078540
403.9947, 0.1577690
404.4768, 0.5045280
404.9589, 0.7079050
405.4410, 0.5567950
405.9232, 8.2480997E-02
406.4053, 8.7559998E-02
406.8874, 0.1599160
407.3695, 0.2081640
407.8516, 0.1323150
408.3337, 0.1905830
408.8159, 7.0887998E-02
409.2980, 0.1494420
409.7801, 8.9125000E-02
410.2622, 0.4058450
410.7443, 0.4521930
411.2264, 0.1060100
411.7086, 0.4427190
412.1907, 0.6455200
412.6728, 0.7216120
413.1549, 0.2915800
413.6370, 0.5150370
414.1191, 0.4765680
414.6013, 0.4273380
415.0834, 0.7426970
415.5655, 0.3861410
416.0476, 0.6956680
416.5297, 0.7392710
417.0118, 0.9045480
417.4940, 0.8062890
417.9761, 0.7893960
418.4582, 1.036082
418.9403, 1.008136
419.4224, 1.299495
419.9045, 1.529989
420.3867, 1.702970
420.8688, 1.645868
421.3509, 1.886291
421.8330, 1.949996
422.3151, 2.201996
422.7972, 2.574106
423.2794, 2.986224
423.7615, 3.275158
424.2436, 3.256593
424.7257, 2.995546
425.2078, 2.957203
425.6899, 3.318026
426.1721, 3.591711
426.6542, 3.520766
427.1363, 3.310154
427.6184, 3.226582
428.1005, 3.377303
428.5826, 3.548720
429.0648, 3.406325
429.5469, 2.941958
430.0290, 2.714720
430.5111, 3.080768
430.9932, 3.455771
431.4753, 3.259061
431.9575, 2.560345
432.4396, 1.932287
432.9217, 1.677966
433.4038, 1.658199
433.8859, 1.653793
434.3680, 1.655945
434.8502, 1.669774
435.3323, 1.758675
435.8144, 1.841538
436.2965, 1.705520
436.7786, 1.185397
437.2607, 0.6854470
437.7429, 0.4272950
438.2250, 0.3513170
438.7071, 0.3764970
439.1892, 0.5100460
439.6713, 0.5623430
440.1534, 0.1809110
440.6356, 0.1262350
441.1177, 0.4047300
441.5998, 1.3910000E-03
442.0819, 0.3932860
442.5640, 0.2127950
443.0461, 0.3896570
443.5282, 0.3680620
444.0103, 0.3164200
444.4925, 0.4048940
444.9746, 0.4889040
445.4567, 0.3396770
445.9388, 0.2541090
446.4209, 0.2528260
446.9030, 0.3023560
447.3852, 0.4108370
447.8673, 0.4979220
448.3494, 0.4391390
448.8315, 0.4434760
449.3136, 0.1521830
449.7957, 0.5485160
450.2779, 0.5483270
450.7600, 0.5385250
451.2421, 0.6181260
451.7242, 0.7852150
452.2063, 1.039075
452.6884, 1.399652
453.1706, 1.796188
453.6527, 2.064189
454.1348, 2.185452
454.6169, 2.190664
455.0990, 1.925398
455.5811, 1.688710
456.0633, 1.752296
456.5454, 2.122246
457.0275, 2.468365
457.5096, 2.450617
457.9917, 2.202652
458.4738, 2.228403
458.9560, 2.627783
459.4381, 3.122606
459.9202, 3.619817
460.4023, 4.038381
460.8844, 4.167947
461.3665, 3.699143
461.8487, 3.286122
462.3308, 3.493062
462.8129, 4.153472
463.2950, 4.689598
463.7771, 4.933679
464.2592, 4.969309
464.7414, 4.846926
465.2235, 4.480942
465.7056, 4.420744
466.1877, 4.884096
466.6698, 5.537371
467.1519, 6.190438
467.6341, 6.815724
468.1162, 7.229302
468.5983, 7.293161
469.0804, 7.105742
469.5625, 7.125507
470.0446, 7.474847
470.5268, 7.885913
471.0089, 8.357406
471.4910, 8.869185
471.9731, 9.428649
472.4552, 10.02319
472.9373, 10.59795
473.4195, 11.11574
473.9016, 11.58852
474.3837, 11.82690
474.8658, 11.39709
475.3479, 11.21542
475.8300, 11.73467
476.3122, 12.59534
476.7943, 13.26246
477.2764, 13.49657
477.7585, 13.57412
478.2406, 13.96214
478.7227, 14.70823
479.2049, 15.32128
479.6870, 15.68581
480.1691, 15.91181
480.6512, 15.96458
481.1333, 15.91729
481.6154, 16.09212
482.0976, 16.73892
482.5797, 17.65904
483.0618, 18.59911
483.5439, 19.56035
484.0260, 20.41219
484.5081, 21.05784
484.9902, 21.57744
485.4724, 22.12048
485.9545, 22.61945
486.4366, 23.32304
486.9187, 24.45470
487.4008, 25.78378
487.8829, 26.98872
488.3651, 28.02656
488.8472, 29.06987
489.3293, 30.28407
489.8114, 31.67284
490.2935, 32.86927
490.7756, 33.50492
491.2578, 34.40892
491.7399, 35.87201
492.2220, 37.71254
492.7041, 39.72259
493.1862, 41.81662
493.6683, 43.96777
494.1505, 46.14526
494.6326, 48.35577
495.1147, 50.54269
495.5968, 52.60635
496.0789, 54.73215
496.5610, 57.06048
497.0432, 59.48861
497.5253, 61.82639
498.0074, 63.93695
498.4895, 65.91606
498.9716, 68.04626
499.4537, 70.41678
499.9359, 72.69533
500.4180, 74.85500
500.9001, 76.87701
501.3822, 78.68389
501.8643, 80.32877
502.3464, 82.03273
502.8286, 84.05471
503.3107, 86.15655
503.7928, 87.96108
504.2749, 89.45007
504.7570, 90.88155
505.2391, 92.42686
505.7213, 93.98331
506.2034, 95.31660
506.6855, 96.39653
507.1676, 97.37938
507.6497, 98.37391
508.1318, 99.20487
508.6140, 99.66455
509.0961, 99.72910
509.5782, 99.47585
510.0603, 98.99471
510.5424, 98.29456
511.0245, 97.39975
511.5067, 96.46799
511.9888, 95.12864
512.4709, 93.25803
512.9530, 90.95722
513.4351, 88.36636
513.9172, 85.49466
514.3994, 82.31627
514.8815, 78.69621
515.3636, 74.55979
515.8457, 70.56639
516.3278, 66.81520
516.8099, 63.10336
517.2921, 59.20208
517.7742, 55.34228
518.2563, 51.93692
518.7384, 49.18839
519.2205, 46.60440
519.7026, 43.55670
520.1848, 40.12385
520.6669, 36.94548
521.1490, 34.17234
521.6311, 31.65705
522.1132, 29.25803
522.5953, 26.96730
523.0775, 25.02468
523.5596, 23.71490
524.0417, 22.56739
524.5238, 21.30366
525.0059, 19.97688
525.4880, 18.76264
525.9702, 17.72460
526.4523, 16.76401
526.9344, 15.63387
527.4165, 14.10357
527.8986, 12.94717
528.3807, 12.48967
528.8629, 12.12687
529.3450, 11.53529
529.8271, 10.76803
530.3092, 10.01546
530.7913, 9.383798
531.2734, 8.845509
531.7556, 8.318135
532.2377, 7.769656
532.7198, 7.326723
533.2019, 7.137163
533.6840, 6.953125
534.1661, 6.622974
534.6483, 6.164823
535.1304, 5.696364
535.6125, 5.250378
536.0946, 4.854060
536.5767, 4.581114
537.0588, 4.438236
537.5410, 4.269280
538.0231, 3.987737
538.5052, 3.673628
538.9873, 3.456143
539.4694, 3.339398
539.9515, 3.252546
540.4337, 3.153176
540.9158, 3.088880
541.3979, 3.169729
541.8800, 3.356596
542.3621, 3.438977
542.8442, 3.281496
543.3264, 2.938406
543.8085, 2.591754
544.2906, 2.205116
544.7726, 1.872220
545.2548, 1.597948
545.7369, 1.374758
546.2190, 1.176992
546.7011, 1.021023
547.1832, 0.9801120
547.6653, 1.148396
548.1475, 1.441658
548.6296, 1.483875
549.1117, 1.131806
549.5938, 0.9065620
550.0759, 1.114100
550.5580, 1.404918
551.0402, 1.533855
551.5223, 1.480035
552.0044, 1.337408
552.4865, 1.085171
552.9686, 0.8061870
553.4507, 0.6808020
553.9329, 0.7169900
554.4150, 0.6938110
554.8971, 0.4375360
555.3792, 9.2274003E-02
555.8613, 8.0420002E-02
556.3434, 0.6174910
556.8256, 0.8863700
557.3077, 0.4496470
557.7898, 0.1269380
558.2719, 0.2902020
558.7540, 5.9647001E-02
559.2361, 0.1728860
559.7183, 0.1130550
560.2004, 0.1177320
560.6825, 6.8310998E-02
561.1646, 1.1401000E-02
561.6467, 3.0257000E-02
562.1288, 8.4570004E-03
562.6110, 0.2774320
563.0931, 0.2490530
563.5752, 0.3533110
564.0573, 0.3249500
564.5394, 0.3254410
565.0215, 0.3424190
565.5037, 0.3519140
565.9858, 0.3229010
566.4679, 0.3236560
566.9500, 5.8146998E-02
567.4321, 0.2076630
567.9142, 0.1709190
568.3964, 0.1895990
568.8785, 0.1427480
569.3606, 0.1338830
569.8427, 0.2731560
570.3248, 8.9856997E-02
570.8069, 0.3006250
571.2891, 6.1840001E-03
571.7712, 3.9427001E-02
572.2533, 0.2763920
572.7354, 0.2954430
573.2175, 2.3786001E-02
573.6996, 0.1599340
574.1818, 0.2613920
574.6639, 0.2363720
575.1460, 5.9655000E-02
575.6281, 7.7330001E-02
576.1102, 0.2715940
576.5923, 0.3425620
577.0745, 0.2248670
577.5566, 6.8727002E-02
578.0387, 0.1651440
578.5208, 0.2134400
579.0029, 0.1834930
579.4850, 0.5621330
579.9672, 0.5523550
580.4493, 0.2200610
580.9314, 0.1420360
581.4135, 1.3685000E-02
581.8956, 0.3113250
582.3777, 0.2095790
582.8599, 0.1950750
583.3420, 4.9325000E-02
583.8241, 0.3603570
584.3062, 0.4347260
584.7883, 1.8998999E-02
585.2704, 0.6914550
585.7526, 1.320938
586.2347, 0.9186350
586.7168, 0.4797940
587.1989, 0.4512410
587.6810, 0.6671690
588.1631, 0.8222710
588.6453, 0.8042360
589.1274, 0.7276910
589.6095, 0.7393320
590.0916, 0.8386300
590.5737, 1.057114
591.0558, 1.585485
591.5380, 1.951281
592.0201, 1.799873
592.5022, 1.407021
592.9843, 1.202798
593.4664, 1.334506
593.9485, 1.503376
594.4307, 1.423899
594.9128, 1.218858
595.3949, 1.214134
595.8770, 1.469923
596.3591, 1.708352
596.8412, 1.677218
597.3234, 1.440271
597.8055, 1.475191
598.2876, 2.077919
598.7697, 2.528081
599.2518, 2.528360
599.7339, 2.445736
600.2161, 2.733193
600.6982, 3.351094
601.1803, 3.808943
601.6624, 3.687631
602.1445, 3.123560
602.6266, 2.701776
603.1088, 2.383778
603.5909, 2.315463
604.0730, 2.930999
604.5551, 3.522001
605.0372, 3.395702
605.5193, 2.626109
606.0015, 2.103458
606.4836, 2.575864
606.9657, 3.319745
607.4478, 3.305347
607.9299, 2.665638
608.4120, 2.291459
608.8942, 2.583903
609.3763, 3.168556
609.8584, 3.497193
610.3405, 3.536290
610.8226, 3.384492
611.3047, 2.814007
611.7869, 2.297685
612.2690, 1.996187
612.7511, 1.916409
613.2332, 2.100608
613.7153, 2.554865
614.1974, 3.072421
614.6796, 3.355542
615.1617, 3.390410
615.6438, 3.485331
616.1259, 3.761943
616.6080, 3.924900
617.0901, 3.623605
617.5723, 3.152790
618.0544, 2.980257
618.5365, 3.297759
619.0186, 3.559853
619.5007, 3.355882
619.9828, 2.925557
620.4650, 2.620754
620.9471, 2.499606
621.4292, 2.478063
621.9113, 2.542189
622.3934, 2.629461
622.8755, 2.527843
623.3577, 1.888535
623.8398, 1.577981
624.3219, 1.993299
624.8040, 2.429615
625.2861, 2.296954
625.7682, 1.730356
626.2504, 1.232789
626.7325, 1.108312
627.2145, 1.234669
627.6967, 1.506582
628.1788, 1.967328
628.6609, 1.969373
629.1430, 1.134789
629.6251, 0.2360640
630.1072, 0.1103340
630.5894, 0.5518780
631.0715, 0.7992550
631.5536, 0.4420040
632.0357, 0.1477250
632.5178, 0.3332920
632.9999, 0.7619680
633.4821, 1.150760
633.9642, 1.424103
634.4463, 1.528147
634.9284, 1.386250
635.4105, 1.017392
635.8926, 0.8067880
636.3748, 0.8114320
636.8569, 0.8809700
637.3390, 1.081622
637.8211, 1.264992
638.3032, 1.302406
638.7853, 1.174549
639.2675, 1.021566
639.7496, 0.9166840
640.2317, 0.8177290
640.7138, 0.5697940
641.1959, 0.2284320
641.6780, 0.1285040
642.1602, 0.4847970
642.6423, 0.9878760
643.1244, 1.201239
643.6065, 1.024280
644.0886, 0.8442560
644.5707, 0.6144660
645.0529, 0.4362050
645.5350, 0.3687120
646.0171, 0.4088200
646.4992, 0.5122000
646.9813, 0.6290300
647.4634, 0.7762820
647.9456, 0.9797450
648.4277, 1.223151
648.9098, 1.323377
649.3919, 1.210063
649.8740, 1.025403
650.3561, 0.6949920
650.8383, 0.3857010
651.3204, 0.3420820
651.8025, 0.6010810
652.2846, 0.8957680
652.7667, 1.251644
653.2488, 1.496626
653.7310, 1.242109
654.2131, 0.6622120
654.6952, 0.4789340
655.1773, 1.026093
655.6594, 1.788722
656.1415, 1.964154
656.6237, 1.382211
657.1058, 0.9539140
657.5879, 0.6328470
658.0700, 0.4986750
658.5521, 0.7565480
659.0342, 1.141268
659.5164, 1.277035
659.9985, 1.098791
660.4806, 0.9335650
660.9627, 1.062413
661.4448, 1.306889
661.9269, 1.227151
662.4091, 0.8207430
662.8912, 0.5615600
663.3733, 0.7313220
663.8554, 1.099963
664.3375, 1.192930
664.8196, 0.8415830
665.3018, 0.7063070
665.7839, 1.047724
666.2660, 1.378938
666.7481, 1.369054
667.2302, 1.155554
667.7123, 1.009495
668.1945, 1.027871
668.6766, 1.124508
669.1587, 1.230547
669.6408, 1.337377
670.1229, 1.308301
670.6050, 1.090405
671.0872, 0.9320690
671.5693, 0.9336780
672.0514, 1.053259
672.5335, 1.309365
673.0156, 1.782388
673.4977, 1.993967
673.9799, 1.496614
674.4620, 0.9307530
674.9441, 0.8819570
675.4262, 1.233461
675.9083, 1.587453
676.3904, 1.766040
676.8726, 1.795564
677.3547, 1.702968
677.8368, 1.465104
678.3189, 1.252205
678.8010, 0.9897370
679.2831, 0.8937570
679.7653, 1.199846
680.2474, 1.590240
680.7295, 1.615255
681.2116, 1.174071
681.6937, 0.7544480
682.1758, 0.6309950
682.6580, 0.6800860
683.1401, 0.7379550
683.6222, 0.8113240
684.1043, 1.045246
684.5864, 1.539584
685.0685, 2.035717
685.5507, 2.047748
686.0328, 1.394076
686.5149, 0.9830670
686.9970, 0.9416460
687.4791, 0.9954400
687.9612, 1.241511
688.4434, 1.478579
688.9255, 1.359251
689.4076, 0.8109280
689.8897, 0.3510320
690.3718, 0.5616480
690.8539, 1.085460
691.3361, 1.131405
691.8182, 0.7066510
692.3003, 0.4435380
692.7824, 0.6531440
693.2645, 1.049636
693.7466, 1.185872
694.2288, 1.006388
694.7109, 0.7857040
695.1930, 0.3995190
695.6751, 0.1206590
696.1572, 0.1211390
696.6393, 0.2438600
697.1215, 0.3093770
697.6036, 0.2689890
698.0857, 0.1491990
698.5678, 7.5855002E-02
699.0499, 0.1181770
699.5320, 0.3125440
700.0142, 0.4187520
700.4963, 0.4260780
700.9784, 0.3118400
701.4605, 0.1335490
701.9426, 5.4515000E-02
702.4247, 2.4546999E-02
702.9069, 7.4074000E-02
703.3890, 8.8657998E-02
703.8711, 0.1420290
704.3532, 0.1325670
704.8353, 0.5105600
705.3174, 0.5444400
705.7996, 0.1930000
706.2817, 0.1530810
706.7638, 3.1176999E-02
707.2459, 0.1065730
707.7280, 0.1601780
708.2101, 1.2242000E-02
708.6923, 3.0870000E-02
709.1743, 9.1868997E-02
709.6564, 0.1232490
710.1385, 0.1163470
710.6207, 0.3906050
711.1028, 0.4931970
711.5849, 0.2919130
712.0670, 6.7078002E-02
712.5491, 0.1683850
713.0313, 0.1604020
713.5134, 0.2490870
713.9955, 5.3110000E-02
714.4776, 0.3231750
714.9597, 0.3720970
715.4418, 0.2616150
715.9240, 9.0622999E-02
716.4061, 0.1826780
716.8882, 0.1659440
717.3703, 0.4697310
717.8524, 1.015806
718.3345, 0.7176860
718.8167, 0.1741790
719.2988, 0.1325540
719.7809, 0.2804980
720.2630, 0.2911240
720.7451, 0.1728350
721.2272, 4.7410000E-02
721.7094, 8.0178998E-02
722.1915, 0.2239670
722.6736, 0.2591510
723.1557, 5.0974999E-02
723.6378, 0.2643360
724.1199, 0.3614390
724.6021, 0.3613040
725.0842, 0.3899350
725.5663, 0.3723270
726.0484, 0.3426090
726.5305, 0.3897610
727.0126, 0.3840360
727.4948, 0.1904580
727.9769, 0.2311250
728.4590, 0.3577370
728.9411, 0.2663630
729.4232, 2.1491000E-02
729.9053, 0.3063910
730.3875, 0.2406020
730.8696, 0.1049690
731.3517, 1.9188000E-02
731.8338, 3.7870999E-02
732.3159, 0.1068630
732.7980, 0.1822200
733.2802, 0.1889160
733.7623, 0.1228660
734.2444, 4.4920002E-03
734.7265, 0.2645850
735.2086, 0.5019270
735.6907, 0.3715010
736.1729, 0.1710880
736.6550, 0.4474880
737.1371, 0.1695720
737.6192, 0.2657600
738.1013, 0.7320800
738.5834, 1.146177
739.0656, 1.383257
739.5477, 1.422307
740.0298, 1.373612
740.5119, 1.347465
740.9940, 1.321828
741.4761, 1.153324
741.9583, 0.7840760
742.4404, 0.6228330
742.9225, 0.8303070
743.4046, 1.202352
743.8867, 1.608021
744.3688, 2.025717
744.8510, 2.321531
745.3331, 2.400787
745.8152, 2.463654
746.2973, 2.643889
746.7794, 2.792968
747.2615, 2.574066
747.7437, 2.049786
748.2258, 2.344146
748.7079, 2.577582
749.1900, 2.753429
749.6721, 2.699169
750.1542, 2.942382
750.6364, 3.066651
751.1185, 3.186010
751.6006, 3.471289
752.0827, 3.450867
752.5648, 3.848293
753.0469, 4.189589
753.5291, 4.558633
754.0112, 4.915224
754.4933, 5.365759
754.9754, 5.701958
755.4575, 5.628007
755.9396, 5.391413
756.4218, 5.436675
756.9039, 5.921923
757.3860, 6.557582
757.8681, 7.100960
758.3502, 7.557127
758.8323, 7.893583
759.3145, 8.109366
759.7966, 8.329198
760.2787, 8.599442
760.7608, 8.936424
761.2429, 9.359141
761.7250, 9.893300
762.2072, 10.37308
762.6893, 10.78180
763.1714, 11.10104
763.6535, 11.24481
764.1356, 11.32800
764.6177, 11.46611
765.0999, 11.69323
765.5820, 12.07671
766.0641, 12.72220
766.5462, 13.43669
767.0283, 13.97018
767.5104, 14.35616
767.9926, 14.74112
768.4747, 15.13573
768.9568, 15.39913
769.4389, 15.40044
769.9210, 15.26246
770.4031, 15.38292
770.8853, 15.91647
771.3674, 16.42121
771.8495, 16.98931
772.3316, 17.43996
772.8137, 17.66610
773.2958, 17.76450
773.7780, 17.84227
774.2601, 17.90713
774.7422, 18.05855
775.2243, 18.34961
775.7064, 18.72117
776.1885, 19.10190
776.6707, 19.57049
777.1528, 20.40114
777.6349, 21.67531
778.1170, 23.04754
778.5991, 24.06314
779.0812, 24.75627
779.5634, 25.81785
780.0455, 27.36999
780.5276, 29.03099
781.0097, 31.08841
781.4918, 32.85303
781.9739, 33.56303
782.4561, 33.50484
782.9382, 33.83886
783.4203, 35.12791
783.9024, 36.41339
784.3845, 37.21851
784.8666, 37.78645
785.3488, 38.33302
785.8309, 38.90382
786.3130, 39.57413
786.7951, 40.40871
787.2772, 41.28058
787.7593, 41.92628
788.2415, 42.34753
788.7236, 42.68221
789.2057, 42.91185
789.6878, 43.15878
790.1699, 43.54809
790.6520, 43.92337
791.1342, 44.02621
791.6162, 43.85443
792.0983, 43.48330
792.5804, 42.92928
793.0626, 42.14993
793.5447, 41.14931
794.0268, 39.89331
794.5089, 38.29097
794.9910, 36.40115
795.4731, 34.37509
795.9553, 32.35459
796.4374, 30.19327
796.9195, 27.52179
797.4016, 24.48410
797.8837, 21.81925
798.3658, 19.66104
798.8480, 17.70241
799.3301, 15.71763
799.8122, 13.76368
800.2943, 12.06858
800.7764, 10.63643
801.2585, 9.442971
801.7407, 8.691558
802.2228, 7.968568
802.7049, 7.034786
803.1870, 6.080640
803.6691, 5.381768
804.1512, 4.989209
804.6334, 4.769977
805.1155, 4.790674
805.5976, 4.850142
806.0797, 4.765690
806.5618, 4.577721
807.0439, 4.379260
807.5261, 4.150401
808.0082, 3.994403
808.4903, 3.948072
808.9724, 4.015714
809.4545, 4.096854
809.9366, 4.200687
810.4188, 4.276592
810.9009, 4.260203
811.3830, 4.301681
811.8651, 4.578084
812.3472, 5.009602
812.8293, 5.248495
813.3115, 5.005939
813.7936, 5.082387
814.2757, 5.948892
814.7578, 6.876772
815.2399, 7.385767
815.7220, 7.648586
816.2042, 7.957500
816.6863, 8.406184
817.1684, 9.038120
817.6505, 9.959874
818.1326, 11.05169
818.6147, 12.08504
819.0969, 13.07928
819.5790, 14.13754
820.0611, 15.30405
820.5432, 16.57644
821.0253, 17.96418
821.5074, 19.47813
821.9896, 21.12963
822.4717, 23.13269
822.9538, 24.80371
823.4359, 25.71289
823.9180, 26.65176
824.4001, 28.10904
824.8823, 29.87454
825.3644, 31.55838
825.8465, 33.11277
826.3286, 34.52582
826.8107, 35.53206
827.2928, 36.63968
827.7750, 38.48964
828.2571, 40.69389
828.7392, 42.39156
829.2213, 43.38951
829.7034, 44.32008
830.1855, 45.80069
830.6677, 47.65699
831.1498, 49.49216
831.6319, 51.28875
832.1140, 52.71634
832.5961, 53.65358
833.0782, 54.41737
833.5604, 55.34520
834.0425, 56.27987
834.5246, 56.55436
835.0067, 55.85186
835.4888, 55.00685
835.9709, 54.37027
836.4531, 53.22915
836.9352, 51.05055
837.4173, 48.25758
837.8994, 45.48436
838.3815, 42.85356
838.8636, 39.98407
839.3458, 36.41080
839.8279, 32.74467
840.3100, 29.42080
840.7921, 26.45054
841.2742, 23.90919
841.7563, 21.77235
842.2385, 19.73128
842.7206, 17.51210
843.2027, 15.29680
843.6848, 13.58713
844.1669, 12.40981
844.6490, 11.34495
845.1312, 10.37582
845.6133, 9.416541
846.0954, 8.341520
846.5775, 7.277907
847.0596, 6.623773
847.5417, 6.588952
848.0239, 6.364564
848.5060, 5.709300
848.9881, 5.150812
849.4702, 5.002116
849.9523, 4.929168
850.4344, 4.498071
850.9166, 3.746096
851.3987, 3.099593
851.8808, 2.845226
852.3629, 2.629437
852.8450, 1.954109
853.3271, 1.154770
853.8093, 0.9156670
854.2914, 1.193765
854.7735, 1.388556
855.2556, 1.167478
855.7377, 0.7531210
856.2198, 0.3963750
856.7020, 9.0934999E-02
857.1841, 1.0849000E-02
857.6662, 0.2482410
858.1483, 0.4386410
858.6304, 0.4220650
859.1125, 0.2919930
859.5947, 0.1661200
860.0768, 7.0197001E-02
860.5589, 6.0780002E-03
861.0410, 7.4702002E-02
861.5231, 0.1241260
862.0052, 9.3483999E-02
862.4874, 5.9756000E-02
862.9695, 2.6474001E-02
863.4516, 9.0245999E-02
863.9337, 0.1023000
864.4158, 0.7035220
864.8979, 0.4064960
865.3801, 0.6125640
865.8622, 8.1202000E-02
866.3443, 0.3052110
866.8264, 0.1514770
867.3085, 8.6548001E-02
867.7906, 0.2942130
868.2728, 0.4187740
868.7549, 0.3829080
869.2370, 0.2613170
869.7191, 0.3464800
870.2012, 0.6338470
870.6833, 0.5354180
871.1655, 0.1466600
871.6476, 0.7238860
872.1297, 0.6908540
872.6118, 0.2811860
873.0939, 7.3445000E-02
873.5760, 0.1351260
874.0581, 0.1984890
874.5402, 0.2273980
875.0223, 0.2887060
875.5045, 0.5342030
875.9866, 0.7318760
876.4687, 0.5569020
876.9508, 5.5045001E-02
877.4329, 0.2738720
877.9150, 0.2137460
878.3972, 8.7700002E-03
878.8793, 0.2866770
879.3614, 0.6078230
879.8435, 0.8748510
880.3256, 1.098599
880.8077, 1.368959
881.2899, 1.734835
881.7720, 2.026883
882.2541, 1.919214
882.7362, 1.595804
883.2183, 1.609702
883.7004, 1.946662
884.1826, 2.416046
884.6647, 2.980552
885.1468, 3.402233
885.6289, 3.428712
886.1110, 3.125533
886.5931, 2.817845
887.0753, 2.439730
887.5574, 2.273785
888.0395, 2.493879
888.5216, 2.715602
889.0037, 2.718653
889.4858, 2.596375
889.9680, 2.503405
890.4501, 2.466612
890.9322, 2.365716
891.4143, 2.113023
891.8964, 1.879335
892.3785, 1.808370
892.8607, 1.739763
893.3428, 1.465493
893.8249, 1.019950
894.3070, 0.6144170
894.7891, 0.3348920
895.2712, 0.1639420
895.7534, 0.1487130
896.2355, 0.2011060
896.7176, 0.1713080
897.1997, 7.2031997E-02
897.6818, 9.5480001E-03
898.1639, 2.4586000E-02
898.6461, 3.8922001E-02
899.1282, 5.6961000E-02
899.6103, 0.2182890
900.0924, 0.1881290
900.5745, 0.1507240
901.0566, 6.6990003E-02
901.5388, 0.4762800
902.0209, 0.6673280
902.5030, 0.2507880
902.9851, 0.1317730
903.4672, 0.4824540
903.9493, 0.2146870
904.4315, 9.5094003E-02
904.9136, 0.2516800
905.3957, 0.3910470
905.8778, 0.4699820
906.3599, 0.4583760
906.8420, 0.2430680
907.3242, 0.1429880
907.8063, 7.8859001E-02
908.2884, 2.6880000E-03
908.7705, 9.4278000E-02
909.2526, 0.2696410
909.7347, 0.5658910
910.2169, 0.5066720
910.6990, 0.2160600
911.1811, 2.9936001E-02
911.6632, 8.5693002E-02
912.1453, 0.1064610
912.6274, 0.2105250
913.1096, 0.5481220
913.5917, 0.3470980
914.0738, 1.6882000E-02
914.5559, 0.1256470
915.0380, 4.4236999E-02
915.5201, 0.3803160
916.0023, 0.3166810
916.4844, 7.2660998E-02
916.9665, 0.1941930
917.4486, 0.6774410
917.9307, 0.8192680
918.4128, 0.5386010
918.8950, 0.1915380
919.3771, 2.3565000E-02
919.8592, 0.1971300
920.3413, 0.2520520
920.8234, 0.1447450
921.3055, 1.1989000E-02
921.7877, 4.9136002E-02
922.2698, 0.1672310
922.7519, 0.3321120
923.2340, 0.3487060
923.7161, 7.5514004E-02
924.1982, 3.5629001E-02
924.6804, 0.2968490
925.1625, 0.3399760
925.6446, 0.3517040
926.1267, 0.3627850
926.6088, 0.3861890
927.0909, 0.4371470
927.5731, 0.4895760
928.0552, 0.5415930
928.5373, 0.5949750
929.0194, 0.6012280
929.5015, 0.4830180
929.9836, 0.3233800
930.4658, 0.1377700
930.9479, 1.2312000E-02
931.4300, 2.0885000E-02
931.9121, 7.7474996E-02
932.3942, 0.2209650
932.8763, 0.3811440
933.3585, 0.5239760
933.8406, 0.6201790
934.3227, 0.6723270
934.8048, 0.6570030
935.2869, 0.5720020
935.7690, 0.5880390
936.2512, 0.7378730
936.7333, 0.9153700
937.2154, 1.089805
937.6975, 1.173403
938.1796, 0.9750240
938.6617, 0.4522040
939.1439, 0.2800080
939.6260, 0.5555810
940.1081, 0.9416090
940.5902, 1.533051
941.0723, 1.972306
941.5544, 1.885999
942.0366, 1.436860
942.5187, 1.198787
943.0008, 1.327382
943.4829, 1.287936
943.9650, 0.7870190
944.4471, 0.4432120
944.9293, 0.6785760
945.4114, 1.053912
945.8935, 1.009609
946.3756, 0.6071830
946.8577, 0.4851700
947.3398, 1.072608
947.8220, 1.556486
948.3041, 1.449589
948.7862, 1.153488
949.2683, 0.9561180
949.7504, 0.8769600
950.2325, 0.8832360
950.7147, 0.9644460
951.1968, 1.124861
951.6789, 1.480441
952.1610, 1.793511
952.6431, 1.689277
953.1252, 1.341178
953.6074, 1.069833
954.0895, 0.9364970
954.5716, 0.9831170
955.0537, 1.232027
955.5358, 1.521402
956.0179, 1.684863
956.5000, 1.703913
956.9821, 1.374172
957.4642, 0.7144590
957.9464, 0.3747970
958.4285, 0.5223710
958.9106, 0.8505850
959.3927, 1.127509
959.8748, 1.357841
960.3569, 1.562814
960.8391, 1.741450
961.3212, 1.817608
961.8033, 1.869886
962.2854, 1.679171
962.7675, 0.9515210
963.2496, 0.2623180
963.7318, 0.2900020
964.2139, 0.9219990
964.6960, 1.274662
965.1781, 1.076705
965.6602, 1.032513
966.1423, 1.227386
966.6245, 1.430422
967.1066, 1.681130
967.5887, 1.809896
968.0708, 1.540254
968.5529, 0.9033820
969.0350, 0.5153680
969.5172, 0.6874740
969.9993, 0.8715380
970.4814, 0.9185450
970.9635, 0.8710910
971.4456, 0.7406540
971.9277, 0.6176840
972.4099, 0.6788760
972.8920, 0.9280400
973.3741, 1.035193
973.8562, 0.6776670
974.3383, 0.2940160
974.8204, 0.1892430
975.3026, 0.2462260
975.7847, 0.4365990
976.2668, 0.7069300
976.7489, 0.8621700
977.2310, 0.7998880
977.7131, 0.7437380
978.1953, 0.9871900
978.6774, 1.296954
979.1595, 1.253508
979.6416, 0.9419340
980.1237, 0.5784560
980.6058, 0.2281850
981.0880, 4.8971999E-02
981.5701, 0.1821200
982.0522, 0.4144380
982.5343, 0.3246650
983.0164, 1.2340000E-02
983.4985, 0.1249890
983.9807, 0.6576020
984.4628, 1.106194
984.9449, 1.328030
985.4270, 1.315077
985.9091, 1.010472
986.3912, 0.5693610
986.8734, 0.5391950
987.3555, 1.014072
987.8376, 0.9967790
988.3197, 0.2524730
988.8018, 0.1535130
989.2839, 0.3186670
989.7661, 1.001497
990.2482, 1.160718
990.7303, 0.8669720
991.2124, 0.6429680
991.6945, 0.4815240
992.1766, 0.3764130
992.6588, 0.3143020
993.1409, 0.3302170
993.6230, 0.5741930
994.1051, 0.8095260
994.5872, 0.6367490
995.0693, 6.5315999E-02
995.5515, 0.2310790
996.0336, 7.6465003E-02
996.5157, 9.8062001E-02
996.9978, 0.3659180
997.4799, 0.5273920
997.9620, 0.3689240
998.4442, 7.6263003E-02
998.9263, 0.1027440
999.4084, 0.1392160
999.8905, 1.6173000E-02
1000.373, 0.4607560
1000.855, 0.8449570
1001.337, 0.9104410
1001.819, 0.8795470
1002.301, 0.9758960
1002.783, 1.111318
1003.265, 0.9683120
1003.747, 0.4801210
1004.230, 0.2082490
1004.712, 0.6611850
1005.194, 1.173014
1005.676, 1.314881
1006.158, 1.248821
1006.640, 1.076345
1007.122, 0.8895860
1007.604, 0.8906290
1008.086, 1.148911
1008.569, 1.346001
1009.051, 1.121787
1009.533, 0.8150910
1010.015, 0.8329930
1010.497, 1.021312
1010.979, 1.082276
1011.461, 0.9999480
1011.943, 0.9478910
1012.426, 1.002086
1012.908, 1.085998
1013.390, 1.126808
1013.872, 1.130264
1014.354, 1.074091
1014.836, 0.9955350
1015.318, 1.051122
1015.800, 1.226000
1016.282, 1.241414
1016.765, 0.9248790
1017.247, 0.5496530
1017.729, 0.5284270
1018.211, 0.7645160
1018.693, 0.9568420
1019.175, 1.089651
1019.657, 1.103841
1020.139, 0.9937360
1020.622, 0.9547190
1021.104, 1.111179
1021.586, 1.322796
1022.068, 1.329936
1022.550, 1.137754
1023.032, 1.076912
1023.514, 1.156421
1023.996, 1.199842
1024.478, 1.145082
1024.961, 0.9985240
1025.443, 0.7338590
1025.925, 0.4765990
1026.407, 0.5488520
1026.889, 0.9771300
1027.371, 1.104931
1027.853, 0.8689760
1028.335, 0.6312480
1028.818, 0.1753790
1029.300, 0.5421710
1029.782, 0.7779170
1030.264, 0.8949000
1030.746, 0.5030650
1031.228, 0.7653140
1031.710, 0.7641850
1032.192, 0.7454380
1032.674, 1.091311
1033.156, 0.7653200
1033.639, 0.6509420
1034.121, 0.4086480
1034.603, 8.7413996E-02
1035.085, 0.4993050
1035.567, 0.7773660
1036.049, 0.9287360
1036.531, 0.5740580
1037.013, 0.5648960
1037.496, 0.7799520
1037.978, 0.8613360
1038.460, 0.8160710
1038.942, 0.2646950
1039.424, 0.3668850
1039.906, 0.2072010
1040.388, 0.9150840
1040.870, 1.092123
1041.353, 1.134966
1041.835, 1.033852
1042.317, 0.8891010
1042.799, 0.7691090
1043.281, 0.6695600
1043.763, 0.5656320
1044.245, 0.4205530
1044.727, 0.3868940
1045.209, 0.6508510
1045.692, 0.7880470
1046.174, 0.5452960
1046.656, 0.2540770
1047.138, 0.2265740
1047.620, 0.3643560
1048.102, 0.3710540
1048.584, 9.8091997E-02
1049.066, 0.2240480
1049.548, 0.4123140
1050.031, 0.4739350
1050.513, 2.9429000E-02
1050.995, 0.2414750
1051.477, 0.1886550
1051.959, 0.1250920
1052.441, 0.4261530
1052.923, 5.5323999E-02
1053.405, 0.3440510
1053.888, 0.3723900
1054.370, 0.5234680
1054.852, 0.4110270
1055.334, 0.3799760
1055.816, 0.6125320
1056.298, 0.6464690
1056.780, 0.6893630
1057.262, 0.4340600
1057.745, 0.2515690
1058.227, 0.3442260
1058.709, 0.3956940
1059.191, 0.2000590
1059.673, 2.1779999E-02
1060.155, 0.1073750
1060.637, 4.6875000E-02
1061.119, 0.1665880
1061.601, 0.5653340
1062.083, 0.8323560
1062.566, 0.8268180
1063.048, 0.7075020
1063.530, 0.4236040
1064.012, 0.1631760
1064.494, 0.1080040
1064.976, 0.1926620
1065.458, 0.2918890
1065.940, 0.3797330
1066.423, 0.3808360
1066.905, 0.1822340
1067.387, 4.4900001E-04
1067.869, 0.1109740
1068.351, 0.1253000
1068.833, 4.1350001E-03
1069.315, 2.6308000E-02
1069.797, 0.2854560
1070.280, 0.4661660
1070.762, 0.5177390
1071.244, 6.2847003E-02
1071.726, 0.2614700
1072.208, 0.1981910
1072.690, 0.1241680
1073.172, 0.4147610
1073.654, 3.3463001E-02
1074.136, 0.3182650
1074.619, 0.3371730
1075.101, 0.4777620
1075.583, 0.3548290
1076.065, 5.1077999E-02
1076.547, 0.1637370
1077.029, 0.4029470
1077.511, 0.1449180
1077.993, 5.9239998E-02
1078.475, 0.1498050
1078.958, 5.3890001E-02
1079.440, 0.1603910
1079.922, 0.2035760
1080.404, 0.4024580
1080.886, 6.0442001E-02
1081.368, 0.1692170
1081.850, 8.1122003E-02
1082.332, 7.4395999E-02
1082.814, 0.1776160
1083.297, 0.2755840
1083.779, 0.2593940
1084.261, 9.9627003E-02
1084.743, 3.0574000E-02
1085.225, 3.5110999E-02
1085.707, 5.6560002E-03
1086.189, 3.5799999E-02
1086.671, 5.3451002E-02
1087.154, 1.9100999E-02
1087.636, 0.1413030
1088.118, 9.7067997E-02
1088.600, 0.1052790
1089.082, 7.6884001E-02
1089.564, 0.3820650
1090.046, 0.7062870
1090.528, 0.4337880
1091.010, 3.7537001E-02
1091.493, 3.3349000E-02
1091.975, 0.1826320
1092.457, 0.5292800
1092.939, 0.9931450
1093.421, 1.295904
1093.903, 1.250213
1094.385, 1.130950
1094.867, 1.000713
1095.349, 0.9035480
1095.832, 0.9565350
1096.314, 1.032023
1096.796, 0.8140510
1097.278, 0.2919900
1097.760, 1.9569000E-02
1098.242, 0.4467700
1098.724, 0.7683180
1099.206, 0.6380270
1099.689, 0.3996660
1100.171, 0.1702840
1100.653, 5.0710000E-02
1101.135, 0.2405830
1101.617, 0.7090370
1102.099, 1.009490
1102.581, 0.9774500
1103.063, 0.8721140
1103.546, 0.6795640
1104.028, 0.5164910
1104.510, 0.4565210
1104.992, 0.4446840
1105.474, 0.4003360
1105.956, 0.3408220
1106.438, 0.3828290
1106.920, 0.6733710
1107.402, 0.7617410
1107.885, 0.3065170
1108.367, 1.2650000E-03
1108.849, 0.2274600
1109.331, 0.5509660
1109.813, 0.5771360
1110.295, 0.4092890
1110.777, 0.3838110
1111.259, 0.5652470
1111.741, 0.7016930
1112.224, 0.7938960
1112.706, 0.8128530
1113.188, 0.6714990
1113.670, 0.5393490
1114.152, 0.5392740
1114.634, 0.6147620
1115.116, 0.6919630
1115.598, 0.7830730
1116.081, 0.7256060
1116.563, 0.4222450
1117.045, 0.1312120
1117.527, 0.1376990
1118.009, 0.3112370
1118.491, 6.2819999E-03
1118.973, 0.3254210
1119.455, 0.4166720
1119.938, 0.2022350
1120.420, 0.1695990
1120.902, 0.4261470
1121.384, 0.5957050
1121.866, 0.6420320
1122.348, 0.6536720
1122.830, 0.6387030
1123.312, 0.6444460
1123.794, 0.7493000
1124.276, 0.8820050
1124.759, 0.7828310
1125.241, 0.3686270
1125.723, 0.2282590
1126.205, 0.4849310
1126.687, 0.5386890
1127.169, 0.1475730
1127.651, 1.3470000E-03
1128.133, 5.8093999E-02
1128.616, 0.5150250
1129.098, 0.8356620
1129.580, 1.017292
1130.062, 0.9803140
1130.544, 0.6953140
1131.026, 0.5522560
1131.508, 0.6122180
1131.990, 0.7816260
1132.473, 1.042541
1132.955, 1.204819
1133.437, 1.005242
1133.919, 0.5796200
1134.401, 0.4465100
1134.883, 0.5683180
1135.365, 0.5357140
1135.847, 0.3265040
1136.329, 0.2556580
1136.812, 0.4312450
1137.294, 0.6256480
1137.776, 0.6791190
1138.258, 0.6540410
1138.740, 0.6277410
1139.222, 0.6316440
1139.704, 0.9501050
1140.186, 1.443800
1140.668, 1.441970
1141.151, 0.8969820
1141.633, 0.3572010
1142.115, 9.8879002E-02
1142.597, 8.3287999E-02
1143.079, 0.4436900
1143.561, 0.8734800
1144.043, 0.8492560
1144.525, 0.5071840
1145.008, 6.8127997E-02
1145.490, 0.4492130
1145.972, 0.4887620
1146.454, 0.1234460
1146.936, 0.4891800
1147.418, 0.6809960
1147.900, 0.6504150
1148.382, 0.4714360
1148.865, 0.3000980
1149.347, 0.3492510
1149.829, 0.5151940
1150.311, 0.5855750
1150.793, 0.5444060
1151.275, 0.4774030
1151.757, 0.3950630
1152.239, 0.4196750
1152.721, 0.8689710
1153.203, 1.155348
1153.686, 0.6381110
1154.168, 2.2225000E-02
1154.650, 8.9147002E-02
1155.132, 0.2470630
1155.614, 0.4083840
1156.096, 0.2913520
1156.578, 0.3121300
1157.060, 0.8085480
1157.543, 1.142198
1158.025, 1.018747
1158.507, 0.8160830
1158.989, 0.7805190
1159.471, 0.7768760
1159.953, 0.5840020
1160.435, 0.2358820
1160.917, 3.0130999E-02
1161.400, 1.3189000E-02
1161.882, 8.1290998E-02
1162.364, 0.4967320
1162.846, 0.7732760
1163.328, 0.7253920
1163.810, 0.5957630
1164.292, 0.5763770
1164.774, 0.5747150
1165.256, 0.3351470
1165.739, 0.1027460
1166.221, 0.1156510
1166.703, 0.8430500
1167.185, 1.202204
1167.667, 0.5749670
1168.149, 0.1068190
1168.631, 0.3646080
1169.113, 0.8485110
1169.595, 1.013301
1170.078, 0.9363230
1170.560, 0.8735980
1171.042, 0.8261460
1171.524, 0.8350410
1172.006, 0.8991600
1172.488, 0.9213590
1172.970, 0.8769090
1173.452, 0.7796760
1173.934, 0.6324950
1174.417, 0.5060450
1174.899, 0.5274510
1175.381, 0.6219380
1175.863, 0.6330050
1176.345, 0.5968540
1176.827, 0.4906200
1177.309, 0.3437600
1177.791, 0.3181140
1178.274, 0.4560980
1178.756, 0.5959590
1179.238, 0.5993770
1179.720, 0.5793220
1180.202, 0.8040540
1180.684, 1.009899
1181.166, 0.6829790
1181.648, 0.1890550
1182.130, 0.2408170
1182.613, 0.7975210
1183.095, 1.342975
1183.577, 1.726296
1184.059, 1.766018
1184.541, 0.9513100
1185.023, 0.2933790
1185.505, 0.5149600
1185.987, 0.9569000
1186.469, 1.067173
1186.952, 0.9712860
1187.434, 0.9704500
1187.916, 1.082352
1188.398, 1.066682
1188.880, 0.7901170
1189.362, 0.5492720
1189.844, 0.2998460
1190.326, 0.1923400
1190.809, 0.3537440
1191.291, 0.5873160
1191.773, 0.7575570
1192.255, 0.8714120
1192.737, 0.9454560
1193.219, 0.9794450
1193.701, 0.9730510
1194.183, 0.9250000
1194.666, 0.8250630
1195.148, 0.6433540
1195.630, 0.5390830
1196.112, 0.5997320
1196.594, 0.7106160
1197.076, 0.7612930
1197.558, 0.7366650
1198.040, 0.5000390
1198.522, 0.1139190
1199.005, 0.2289080
1199.487, 0.7632700
1199.969, 0.9426990
1200.451, 0.6341760
1200.933, 0.2965220
1201.415, 0.1808820
1201.897, 0.1311720
1202.379, 4.8705999E-02
1202.861, 7.2953999E-02
1203.344, 9.5119998E-03
1203.826, 3.2657001E-02
1204.308, 1.4049000E-02
1204.790, 9.0967998E-02
1205.272, 9.6692003E-02
1205.754, 0.2241900
1206.236, 0.7484950
1206.718, 1.284610
1207.201, 1.561046
1207.683, 1.206813
1208.165, 0.7705510
1208.647, 0.5873360
1209.129, 0.5375690
1209.611, 0.5123610
1210.093, 0.5024610
1210.575, 0.5281770
1211.057, 0.5937840
1211.540, 0.6261210
1212.022, 0.6363200
1212.504, 0.5692130
1212.986, 0.3125450
1213.468, 0.1714530
1213.950, 0.2486630
1214.432, 0.4143630
1214.914, 0.6059680
1215.396, 0.7776260
1215.879, 0.7883880
1216.361, 0.6205660
1216.843, 0.5385240
1217.325, 0.5705870
1217.807, 0.4344880
1218.289, 4.7610998E-02
1218.771, 5.5133000E-02
1219.253, 0.3963720
1219.736, 0.8768190
1220.218, 0.8066920
1220.700, 0.4779330
1221.182, 0.5549670
1221.664, 0.9064120
1222.146, 1.151321
1222.628, 1.270095
1223.110, 1.239083
1223.593, 1.070423
1224.075, 0.8787770
1224.557, 0.7157880
1225.039, 0.6035180
1225.521, 0.6270990
1226.003, 0.6373940
1226.485, 0.3456920
1226.967, 0.1052790
1227.449, 0.4428190
1227.932, 0.9960970
1228.414, 1.137444
1228.896, 0.8877760
1229.378, 0.7813130
1229.860, 1.020603
1230.342, 1.075027
1230.824, 0.5984800
1231.306, 0.2378870
1231.788, 0.2214600
1232.271, 0.3290110
1232.753, 0.4903970
1233.235, 0.6483560
1233.717, 0.7320290
1234.199, 0.7434220
1234.681, 0.7026240
1235.163, 0.6180910
1235.645, 0.3899170
1236.128, 4.9536999E-02
1236.610, 0.1543690
1237.092, 0.2197750
1237.574, 0.5828490
1238.056, 0.6274520
1238.538, 0.4804270
1239.020, 0.2625970
1239.502, 4.3793000E-02
1239.984, 8.2489997E-03
1240.467, 8.7157004E-02
1240.949, 0.3497290
1241.431, 0.6948340
1241.913, 0.8639250
1242.395, 0.8299880
1242.877, 0.7742530
1243.359, 0.7845300
1243.841, 0.8502590
1244.323, 1.091883
1244.806, 1.209184
1245.288, 0.8146300
1245.770, 0.3949440
1246.252, 0.5734650
1246.734, 1.012705
1247.216, 1.119381
1247.698, 0.8772640
1248.180, 0.6580750
1248.662, 0.4632600
1249.145, 0.4192180
1249.627, 0.6632430
1250.109, 0.8399840
1250.591, 0.8786620
1251.073, 0.8283530
1251.555, 0.6646310
1252.037, 0.5285350
1252.519, 0.6478140
1253.002, 0.9251660
1253.484, 0.8846540
1253.966, 0.5307820
1254.448, 0.4446390
1254.930, 0.6193770
1255.412, 0.5182830
1255.894, 7.3244996E-02
1256.376, 7.0618004E-02
1256.859, 0.4298600
1257.341, 1.034513
1257.823, 1.220884
1258.305, 1.143589
1258.787, 0.8467360
1259.269, 0.5344170
1259.751, 0.5195300
1260.233, 0.6838100
1260.715, 0.8602690
1261.198, 0.9711010
1261.680, 0.8086930
1262.162, 0.3476060
1262.644, 4.9908999E-02
1263.126, 0.1636160
1263.608, 0.3132210
1264.090, 0.3555340
1264.572, 0.4662090
1265.054, 0.8332000
1265.537, 1.227345
1266.019, 1.423784
1266.501, 1.444220
1266.983, 1.329494
1267.465, 1.054460
1267.947, 0.9507270
1268.429, 1.041923
1268.911, 1.034138
1269.394, 0.8828850
1269.876, 0.5336680
1270.358, 3.8228001E-02
1270.840, 0.2103770
1271.322, 5.6951001E-02
1271.804, 0.4314310
1272.286, 0.9701040
1272.768, 1.335384
1273.250, 1.091781
1273.733, 0.6195070
1274.215, 0.6577100
1274.697, 1.083476
1275.179, 1.365391
1275.661, 1.370037
1276.143, 1.252030
1276.625, 0.9536810
1277.107, 0.7793270
1277.589, 0.9997280
1278.072, 1.141354
1278.554, 0.8213300
1279.036, 0.2172870
1279.518, 0.1495730
1280.000, 0.2558150
1280.482, 0.4185790
1280.964, 0.6287490
1281.446, 0.7804350
1281.929, 0.8865150
1282.411, 0.7155590
1282.893, 0.2508480
1283.375, 1.4075000E-02
1283.857, 2.0140000E-02
1284.339, 0.2026000
1284.821, 0.4377040
1285.303, 0.3951030
1285.786, 0.2663820
1286.268, 0.0000000E+00
##END=



