##NAMES=Willemite
##RRUFFID=R100109
##IDEAL CHEMISTRY=Zn_2_SiO_4_
##LOCALITY=Franklin, Sussex County, New Jersey, USA
##OWNER=RRUFF
##SOURCE=American Museum of Natural History
##DESCRIPTION=Pale yellow transparent fragments
##STATUS=The identification of this mineral is confirmed by single-crystal X-ray diffraction and chemical analysis.
##URL=rruff.info/R100109
##MEASURED CHEMISTRY=(Zn_1.677_Mn^+2^_0.242_Mg_0.034_Fe^+2^_0.001_)_Î£=1.954_Si_1.023_O_4_
119.0139, 0.0000000E+00
119.4960, 0.1949040
119.9781, 0.4242520
120.4602, 0.4420280
120.9423, 0.1425250
121.4244, 2.7138000E-02
121.9066, 6.8480998E-02
122.3887, 0.4293290
122.8708, 0.6191180
123.3529, 0.4615020
123.8350, 0.2775690
124.3171, 0.2973180
124.7993, 0.5948910
125.2814, 0.8807910
125.7635, 0.8957940
126.2456, 0.6122280
126.7277, 0.3643880
127.2098, 0.1888310
127.6920, 9.5615000E-02
128.1741, 0.1658020
128.6562, 0.4609150
129.1383, 0.7947580
129.6204, 0.8539620
130.1025, 0.6694150
130.5847, 0.5310550
131.0668, 0.6251530
131.5489, 0.8756410
132.0310, 0.9947090
132.5131, 0.8213270
132.9952, 0.6170270
133.4774, 0.6486510
133.9595, 0.9095380
134.4416, 1.166321
134.9237, 1.095768
135.4058, 0.6368980
135.8879, 0.6439090
136.3701, 2.325546
136.8522, 4.184483
137.3343, 4.838295
137.8164, 4.549889
138.2985, 3.983791
138.7806, 4.123840
139.2628, 5.138493
139.7449, 5.908825
140.2270, 6.399193
140.7091, 6.671761
141.1912, 6.731472
141.6733, 6.575191
142.1555, 6.262508
142.6376, 6.005928
143.1197, 5.918571
143.6018, 5.775951
144.0839, 5.584305
144.5660, 5.311142
145.0482, 4.883797
145.5303, 4.233273
146.0124, 3.408119
146.4945, 2.763233
146.9766, 2.332680
147.4587, 2.002159
147.9409, 1.735825
148.4230, 1.533222
148.9051, 1.410183
149.3872, 1.429096
149.8693, 1.542759
150.3514, 1.490582
150.8336, 1.052971
151.3157, 0.5661810
151.7978, 0.3966560
152.2799, 0.6023750
152.7620, 0.7454530
153.2441, 0.1399310
153.7263, 0.7541920
154.2084, 1.094795
154.6905, 7.5870998E-02
155.1726, 1.615108
155.6547, 2.404175
156.1368, 1.909859
156.6190, 1.140045
157.1011, 0.4847070
157.5832, 1.0822000E-02
158.0653, 0.2482720
158.5474, 9.7415999E-02
159.0295, 0.4134940
159.5117, 0.9192160
159.9938, 1.546822
160.4759, 2.030506
160.9580, 2.236599
161.4401, 2.212959
161.9222, 2.092606
162.4044, 1.983398
162.8865, 1.871452
163.3686, 1.818417
163.8507, 1.897614
164.3328, 1.973961
164.8149, 2.023216
165.2971, 2.028061
165.7792, 1.937634
166.2613, 1.668716
166.7434, 1.075390
167.2255, 0.7789340
167.7076, 0.8741300
168.1898, 1.147690
168.6719, 1.489254
169.1540, 1.866829
169.6361, 2.263859
170.1182, 2.663242
170.6003, 3.145515
171.0825, 3.397411
171.5646, 3.141823
172.0467, 2.748730
172.5288, 2.715191
173.0109, 3.224869
173.4930, 3.876972
173.9752, 3.948200
174.4573, 3.356491
174.9394, 2.952160
175.4215, 3.165520
175.9036, 3.741760
176.3857, 4.107357
176.8679, 4.124317
177.3500, 3.884800
177.8321, 3.543488
178.3142, 3.081692
178.7963, 2.686024
179.2784, 2.516010
179.7606, 2.543800
180.2427, 2.502277
180.7248, 2.142769
181.2069, 1.855652
181.6890, 2.078056
182.1711, 2.865166
182.6533, 3.651951
183.1354, 3.763748
183.6175, 3.075230
184.0996, 2.689800
184.5817, 3.219547
185.0638, 3.922516
185.5460, 4.344425
186.0281, 4.433559
186.5102, 4.434643
186.9923, 4.776745
187.4744, 5.661682
187.9565, 6.467037
188.4387, 7.049892
188.9208, 7.580795
189.4029, 8.176144
189.8850, 8.889050
190.3671, 9.655960
190.8492, 10.40969
191.3314, 11.31343
191.8135, 11.95364
192.2956, 12.28777
192.7777, 12.35589
193.2598, 12.18164
193.7419, 11.82624
194.2241, 11.30573
194.7062, 10.63242
195.1883, 9.452301
195.6704, 8.534527
196.1525, 8.198952
196.6346, 8.039005
197.1168, 7.482029
197.5989, 6.254543
198.0810, 4.700443
198.5631, 3.848083
199.0452, 4.181587
199.5273, 4.519405
200.0095, 4.824120
200.4916, 4.996269
200.9737, 4.807808
201.4558, 4.089954
201.9379, 3.078251
202.4200, 2.448296
202.9022, 2.285748
203.3843, 2.246586
203.8664, 2.272190
204.3485, 2.337769
204.8306, 2.353874
205.3127, 2.237846
205.7949, 2.105713
206.2770, 2.230930
206.7591, 2.769310
207.2412, 3.213547
207.7233, 3.188698
208.2054, 2.766567
208.6876, 2.401108
209.1697, 2.327602
209.6518, 2.364002
210.1339, 2.215626
210.6160, 1.801407
211.0981, 1.382515
211.5803, 1.136803
212.0624, 1.097485
212.5445, 1.238640
213.0266, 1.628826
213.5087, 2.037128
213.9908, 2.230526
214.4730, 2.138660
214.9551, 2.014141
215.4372, 2.205921
215.9193, 2.803406
216.4014, 3.207355
216.8836, 3.093021
217.3657, 2.799927
217.8478, 2.521423
218.3299, 2.302288
218.8120, 2.116253
219.2941, 1.894329
219.7763, 1.564632
220.2584, 1.445816
220.7405, 1.772858
221.2226, 2.205845
221.7047, 2.551743
222.1868, 2.751839
222.6690, 2.809673
223.1511, 2.690052
223.6332, 2.240864
224.1153, 1.964153
224.5974, 2.096039
225.0795, 2.268871
225.5617, 2.140537
226.0438, 1.641357
226.5259, 1.065758
227.0080, 0.9676480
227.4901, 1.782955
227.9722, 2.284538
228.4544, 2.291019
228.9365, 2.102238
229.4186, 1.864048
229.9007, 1.646748
230.3828, 1.544842
230.8649, 1.755562
231.3471, 2.744785
231.8292, 3.280293
232.3113, 3.105301
232.7934, 2.670692
233.2755, 2.287437
233.7576, 2.058826
234.2398, 1.970943
234.7219, 2.020306
235.2040, 2.426781
235.6861, 2.555538
236.1682, 2.214317
236.6503, 1.706795
237.1325, 1.264439
237.6146, 0.9573520
238.0967, 0.7862930
238.5788, 0.7739140
239.0609, 1.044544
239.5430, 1.186951
240.0252, 1.021683
240.5073, 0.8032260
240.9894, 0.8979230
241.4715, 1.390167
241.9536, 1.837494
242.4357, 1.528908
242.9179, 0.1819310
243.4000, 0.6331440
243.8821, 0.4390720
244.3642, 0.2069320
244.8463, 0.8045690
245.3284, 1.269127
245.8106, 1.490799
246.2927, 1.207855
246.7748, 0.3924710
247.2569, 0.1881180
247.7390, 0.2462160
248.2211, 8.8642001E-02
248.7033, 0.1372300
249.1854, 0.4867400
249.6675, 0.7833440
250.1496, 0.5485340
250.6317, 0.1263240
251.1138, 0.6044770
251.5960, 0.6570820
252.0781, 0.4854850
252.5602, 0.3256260
253.0423, 0.1953430
253.5244, 9.9930003E-02
254.0065, 3.1268999E-02
254.4887, 3.1359999E-03
254.9708, 2.8751001E-02
255.4529, 0.2233050
255.9350, 0.4555170
256.4171, 0.5168910
256.8992, 0.3686260
257.3813, 0.2112960
257.8635, 0.1557920
258.3456, 0.1910900
258.8277, 0.3259660
259.3098, 0.6043320
259.7919, 0.9586330
260.2740, 1.300186
260.7562, 1.630722
261.2383, 1.942074
261.7204, 2.279835
262.2025, 2.583195
262.6846, 2.770473
263.1667, 2.827778
263.6489, 2.745724
264.1310, 2.445442
264.6131, 1.854645
265.0952, 1.365314
265.5773, 1.142197
266.0594, 1.120140
266.5416, 1.301193
267.0237, 1.736507
267.5058, 2.244160
267.9879, 2.542660
268.4700, 2.563591
268.9521, 2.685059
269.4343, 3.243473
269.9164, 3.850216
270.3985, 4.189423
270.8806, 4.176472
271.3627, 3.995125
271.8448, 3.816456
272.3270, 3.608215
272.8091, 3.560188
273.2912, 3.974785
273.7733, 4.406021
274.2554, 4.515083
274.7375, 4.256409
275.2197, 3.953274
275.7018, 3.997822
276.1839, 4.450649
276.6660, 4.853428
277.1481, 4.959908
277.6302, 5.153923
278.1124, 5.673290
278.5945, 6.506943
279.0766, 7.419052
279.5587, 8.196041
280.0408, 8.838985
280.5229, 9.358406
281.0051, 9.689880
281.4872, 9.956882
281.9693, 10.20135
282.4514, 10.40073
282.9335, 10.50133
283.4156, 10.48725
283.8978, 10.35979
284.3799, 10.01994
284.8620, 9.152615
285.3441, 8.392509
285.8262, 8.065487
286.3083, 8.015240
286.7905, 7.868267
287.2726, 7.300800
287.7547, 6.383869
288.2368, 5.840103
288.7189, 6.085682
289.2010, 6.228203
289.6832, 5.946003
290.1653, 5.423992
290.6474, 4.941292
291.1295, 4.656151
291.6116, 4.536411
292.0938, 4.453976
292.5759, 4.378704
293.0580, 4.397961
293.5401, 4.609482
294.0222, 4.884735
294.5043, 5.109119
294.9865, 5.235004
295.4686, 5.228340
295.9507, 4.953518
296.4328, 4.063786
296.9149, 3.547733
297.3970, 3.737396
297.8792, 4.170521
298.3613, 4.454189
298.8434, 4.470348
299.3255, 4.366219
299.8076, 4.399929
300.2897, 4.696438
300.7719, 4.826553
301.2540, 4.799194
301.7361, 4.601803
302.2182, 4.106750
302.7003, 3.314114
303.1824, 2.483124
303.6646, 1.936962
304.1467, 1.762127
304.6288, 1.558765
305.1109, 1.190445
305.5930, 0.8969120
306.0751, 0.8787270
306.5573, 1.060688
307.0394, 1.180260
307.5215, 0.9873310
308.0036, 0.4801140
308.4857, 0.2251590
308.9678, 0.4839820
309.4500, 0.6701770
309.9321, 0.5117910
310.4142, 0.1508410
310.8963, 8.6910002E-02
311.3784, 4.6108000E-02
311.8605, 0.4789090
312.3427, 0.6519130
312.8248, 0.2100300
313.3069, 7.3928997E-02
313.7890, 6.6200003E-02
314.2711, 0.4014740
314.7532, 0.6263050
315.2354, 0.5862660
315.7175, 0.3717540
316.1996, 0.2401080
316.6817, 0.2341730
317.1638, 0.2524410
317.6459, 0.2759440
318.1281, 0.3194850
318.6102, 0.4234730
319.0923, 0.5931550
319.5744, 0.7516060
320.0565, 0.7223550
320.5386, 0.2723810
321.0208, 0.1916920
321.5029, 0.9431500
321.9850, 1.690273
322.4671, 1.844006
322.9492, 1.382545
323.4313, 0.7479630
323.9135, 0.4105380
324.3956, 0.4202270
324.8777, 0.4862440
325.3598, 0.7588650
325.8419, 0.9485400
326.3240, 0.8377910
326.8062, 0.5318150
327.2883, 0.3359640
327.7704, 0.5314180
328.2525, 1.082478
328.7346, 1.349648
329.2167, 1.027973
329.6989, 0.7527050
330.1810, 0.7248340
330.6631, 0.8304100
331.1452, 0.8922620
331.6273, 0.8132970
332.1094, 0.6358070
332.5916, 0.4976390
333.0737, 0.4666520
333.5558, 0.3537250
334.0379, 1.8519999E-02
334.5200, 0.4013710
335.0021, 0.5451240
335.4843, 0.3728290
335.9664, 1.9107999E-02
336.4485, 0.3640170
336.9306, 0.9020580
337.4127, 1.083778
337.8948, 0.4925230
338.3770, 0.1724470
338.8591, 0.5339890
339.3412, 0.5477640
339.8233, 0.3610800
340.3055, 5.8472000E-02
340.7876, 0.3844640
341.2697, 0.6857870
341.7518, 0.7771380
342.2339, 0.7765080
342.7160, 0.5831300
343.1982, 0.3266910
343.6803, 0.3187680
344.1624, 0.8978200
344.6445, 1.874378
345.1266, 2.246143
345.6087, 1.600739
346.0909, 1.003220
346.5730, 0.8160590
347.0551, 0.8679010
347.5372, 0.9801030
348.0193, 1.106377
348.5014, 1.171032
348.9836, 0.9698260
349.4657, 0.3658870
349.9478, 3.8077999E-02
350.4299, 0.1115000
350.9120, 0.4003980
351.3941, 0.5200810
351.8763, 0.4150660
352.3584, 0.2785910
352.8405, 0.2936520
353.3226, 0.4620360
353.8047, 0.7234730
354.2868, 1.153446
354.7690, 1.592594
355.2511, 1.993374
355.7332, 2.333145
356.2153, 2.532936
356.6974, 2.464741
357.1795, 2.202961
357.6617, 2.009151
358.1438, 1.825336
358.6259, 1.848171
359.1080, 2.370190
359.5901, 3.125141
360.0722, 3.699345
360.5544, 3.958828
361.0365, 3.958176
361.5186, 3.640472
362.0007, 2.934727
362.4828, 2.495705
362.9649, 2.743546
363.4471, 3.325405
363.9292, 3.862816
364.4113, 4.323925
364.8934, 4.727661
365.3755, 5.055935
365.8576, 5.321445
366.3398, 5.565052
366.8219, 5.811344
367.3040, 6.014442
367.7861, 6.046627
368.2682, 5.933159
368.7503, 6.005028
369.2325, 6.586876
369.7146, 7.387470
370.1967, 7.888657
370.6788, 8.015778
371.1609, 8.032742
371.6430, 8.069111
372.1252, 8.156246
372.6073, 8.403736
373.0894, 8.878494
373.5715, 9.476967
374.0536, 10.19650
374.5357, 11.00126
375.0179, 11.68124
375.5000, 12.09290
375.9821, 12.34293
376.4642, 12.69656
376.9463, 13.19402
377.4284, 13.68319
377.9106, 14.08152
378.3927, 14.44621
378.8748, 14.91782
379.3569, 15.54171
379.8390, 16.08969
380.3211, 16.20820
380.8033, 15.79948
381.2854, 15.52117
381.7675, 15.37792
382.2496, 15.41260
382.7317, 15.72009
383.2138, 16.27462
383.6960, 16.92656
384.1781, 17.63993
384.6602, 18.36832
385.1423, 18.59327
385.6244, 18.07667
386.1065, 17.45109
386.5887, 16.77253
387.0708, 16.19131
387.5529, 15.98807
388.0350, 16.31355
388.5171, 16.90307
388.9992, 17.04195
389.4814, 16.29767
389.9635, 15.75986
390.4456, 15.48570
390.9277, 15.33965
391.4098, 15.31423
391.8919, 15.37634
392.3741, 15.36088
392.8562, 15.09416
393.3383, 14.54290
393.8204, 14.13530
394.3025, 13.97066
394.7846, 13.81583
395.2668, 13.58840
395.7489, 13.31238
396.2310, 13.03523
396.7131, 12.77233
397.1952, 12.54134
397.6773, 12.37164
398.1595, 12.36510
398.6416, 12.23649
399.1237, 11.84529
399.6058, 11.39541
400.0879, 11.07759
400.5700, 10.92843
401.0522, 10.81916
401.5343, 10.62235
402.0164, 10.35403
402.4985, 9.895584
402.9806, 8.955597
403.4627, 8.095093
403.9449, 7.647921
404.4270, 7.484825
404.9091, 7.229708
405.3912, 6.548590
405.8733, 5.656694
406.3554, 5.329468
406.8376, 5.883324
407.3197, 6.201582
407.8018, 5.476370
408.2839, 4.461199
408.7660, 3.990356
409.2481, 4.333147
409.7303, 4.808659
410.2124, 4.683853
410.6945, 3.999861
411.1766, 3.390774
411.6587, 2.966656
412.1408, 2.692234
412.6230, 2.573862
413.1051, 2.587791
413.5872, 2.555359
414.0693, 2.346956
414.5514, 2.066214
415.0335, 1.869040
415.5157, 1.764507
415.9978, 1.745914
416.4799, 1.885801
416.9620, 2.095219
417.4441, 2.104820
417.9262, 1.742668
418.4084, 1.394922
418.8905, 1.340219
419.3726, 1.472000
419.8547, 1.522646
420.3368, 1.403791
420.8189, 1.156322
421.3011, 0.7932420
421.7832, 0.2308480
422.2653, 8.5758001E-02
422.7474, 0.1078510
423.2295, 0.4208130
423.7116, 0.4695130
424.1938, 0.2601760
424.6759, 0.1038610
425.1580, 0.2557640
425.6401, 0.6958070
426.1222, 1.054728
426.6043, 1.479500
427.0865, 1.668493
427.5686, 1.352734
428.0507, 0.8162190
428.5328, 0.4442810
429.0149, 0.3842930
429.4970, 0.5239520
429.9792, 0.6775590
430.4613, 0.8829770
430.9434, 1.016270
431.4255, 1.094872
431.9076, 1.101974
432.3897, 0.9346790
432.8719, 0.6699730
433.3540, 0.5577050
433.8361, 0.8623750
434.3182, 1.476606
434.8003, 1.575022
435.2824, 0.6845250
435.7646, 1.4149999E-03
436.2467, 8.5546002E-02
436.7288, 0.1104150
437.2109, 0.2386170
437.6930, 0.1889500
438.1751, 0.1320970
438.6573, 0.3708150
439.1394, 0.9465310
439.6215, 1.211649
440.1036, 0.8931770
440.5857, 0.4384650
441.0678, 6.5577999E-02
441.5500, 0.2036990
442.0321, 0.3157080
442.5142, 5.0485998E-02
442.9963, 0.3070740
443.4784, 7.9960003E-02
443.9605, 0.8485150
444.4427, 1.428503
444.9248, 0.8446580
445.4069, 0.2760600
445.8890, 0.8106980
446.3711, 0.5532510
446.8532, 0.1655580
447.3354, 0.1399670
447.8175, 0.2959520
448.2996, 3.1048000E-02
448.7817, 0.7847230
449.2638, 1.566658
449.7459, 1.580246
450.2281, 0.7653560
450.7102, 0.3383430
451.1923, 0.6341670
451.6744, 1.069754
452.1565, 1.340099
452.6386, 1.448187
453.1208, 1.449703
453.6029, 1.361610
454.0850, 1.226868
454.5671, 1.165121
455.0492, 1.250971
455.5313, 1.311432
456.0135, 1.306246
456.4956, 1.300568
456.9777, 1.350677
457.4598, 1.462137
457.9419, 1.611790
458.4240, 1.788813
458.9062, 1.996948
459.3883, 2.015020
459.8704, 1.495861
460.3525, 1.228113
460.8346, 1.536716
461.3167, 2.067171
461.7989, 2.358786
462.2810, 2.232250
462.7631, 1.940371
463.2452, 1.920877
463.7273, 2.243496
464.2094, 2.449162
464.6916, 2.459494
465.1737, 2.349318
465.6558, 2.027719
466.1379, 1.604334
466.6200, 1.433029
467.1021, 1.892052
467.5843, 2.639400
468.0664, 2.862026
468.5485, 2.466829
469.0306, 2.256138
469.5127, 2.777445
469.9948, 3.593887
470.4770, 3.984186
470.9591, 3.830353
471.4412, 3.574282
471.9233, 3.370222
472.4054, 3.241816
472.8875, 3.250961
473.3697, 3.413536
473.8518, 3.644102
474.3339, 3.907776
474.8160, 4.192949
475.2981, 4.285223
475.7802, 3.868351
476.2624, 3.594875
476.7445, 3.931467
477.2266, 4.591566
477.7087, 5.018105
478.1908, 4.991198
478.6729, 4.696529
479.1551, 4.457382
479.6372, 4.257917
480.1193, 4.152054
480.6014, 4.149000
481.0835, 4.237047
481.5656, 4.499952
482.0478, 4.855652
482.5299, 5.097586
483.0120, 5.074402
483.4941, 4.869703
483.9762, 4.825047
484.4583, 5.107061
484.9405, 5.203373
485.4226, 4.872574
485.9047, 4.430233
486.3868, 4.121101
486.8689, 3.973999
487.3510, 3.855730
487.8332, 3.627485
488.3153, 3.325933
488.7974, 3.128838
489.2795, 3.063253
489.7616, 3.052488
490.2437, 3.076433
490.7259, 3.119404
491.2080, 3.171936
491.6901, 3.277189
492.1722, 3.301744
492.6543, 3.082518
493.1364, 2.702154
493.6186, 2.388145
494.1007, 2.197630
494.5828, 2.110823
495.0649, 2.103043
495.5470, 2.183979
496.0291, 2.207825
496.5113, 2.176456
496.9934, 2.083626
497.4755, 1.913960
497.9576, 1.679707
498.4397, 1.346390
498.9218, 0.8797420
499.4040, 0.4466880
499.8861, 0.5078680
500.3682, 1.683237
500.8503, 2.257101
501.3324, 1.767963
501.8145, 1.068560
502.2967, 0.7142750
502.7788, 0.7537710
503.2609, 0.9168490
503.7430, 0.9440460
504.2251, 0.8720050
504.7072, 0.8450530
505.1894, 0.8546010
505.6715, 0.8903900
506.1536, 1.073547
506.6357, 1.237083
507.1178, 1.187979
507.5999, 0.9190770
508.0821, 0.6849840
508.5642, 0.7021430
509.0463, 0.8994940
509.5284, 1.079996
510.0105, 1.246445
510.4926, 1.330307
510.9748, 1.242298
511.4569, 1.050571
511.9390, 0.9180320
512.4211, 0.8671970
512.9032, 0.8518700
513.3853, 0.9281940
513.8674, 1.004139
514.3495, 0.8423960
514.8317, 0.3902530
515.3138, 1.4862000E-02
515.7959, 0.1646690
516.2780, 0.9084660
516.7601, 1.080137
517.2422, 0.1565630
517.7244, 0.6553440
518.2065, 0.9470600
518.6886, 0.8757650
519.1707, 0.6380210
519.6528, 0.3181060
520.1349, 2.1000000E-05
520.6171, 0.1848510
521.0992, 0.2145390
521.5813, 0.2010780
522.0634, 0.1223660
522.5455, 1.9506000E-02
523.0276, 0.1811290
523.5098, 0.3820080
523.9919, 0.3763010
524.4740, 1.9463999E-02
524.9561, 0.4273660
525.4382, 0.5696490
525.9203, 0.4013210
526.4025, 0.2086960
526.8846, 1.1868000E-02
527.3667, 0.1269190
527.8488, 0.1734490
528.3309, 0.1263200
528.8130, 5.5700000E-02
529.2952, 0.5789780
529.7773, 1.093763
530.2594, 1.207687
530.7415, 1.000059
531.2236, 0.8569890
531.7057, 0.9512210
532.1879, 1.195675
532.6700, 1.443666
533.1521, 1.792154
533.6342, 1.900629
534.1163, 1.500578
534.5984, 1.081795
535.0806, 0.9393250
535.5627, 1.060186
536.0448, 1.320347
536.5269, 1.648603
537.0090, 2.036890
537.4911, 2.471148
537.9733, 3.027800
538.4554, 3.466843
538.9375, 3.646252
539.4196, 3.799520
539.9017, 4.044308
540.3839, 4.394068
540.8660, 4.835283
541.3481, 5.421209
541.8302, 6.058949
542.3123, 6.536682
542.7944, 6.843449
543.2766, 7.080719
543.7587, 7.266605
544.2408, 7.415890
544.7229, 7.585745
545.2050, 7.798010
545.6871, 7.855150
546.1693, 7.445547
546.6514, 6.997719
547.1335, 7.029886
547.6156, 7.521370
548.0977, 8.126938
548.5798, 8.682384
549.0620, 9.127373
549.5441, 9.256355
550.0262, 8.819550
550.5083, 8.378796
550.9904, 8.055193
551.4725, 7.636232
551.9547, 6.807785
552.4368, 5.693737
552.9189, 4.784199
553.4010, 4.488672
553.8831, 4.637327
554.3652, 4.518167
554.8474, 3.951942
555.3295, 3.573421
555.8116, 3.894459
556.2937, 4.218616
556.7758, 3.934704
557.2579, 3.054922
557.7401, 2.240982
558.2222, 1.865877
558.7043, 1.810257
559.1864, 1.979612
559.6685, 2.371386
560.1506, 2.554413
560.6328, 2.226929
561.1149, 1.652260
561.5970, 1.411734
562.0791, 1.561796
562.5612, 1.779831
563.0433, 2.138460
563.5255, 2.443672
564.0076, 2.487555
564.4897, 2.309528
564.9718, 2.096977
565.4539, 1.954351
565.9360, 1.914249
566.4182, 2.120911
566.9003, 2.872658
567.3824, 3.304018
567.8645, 3.175789
568.3466, 2.903704
568.8287, 2.647570
569.3109, 2.471769
569.7930, 2.494411
570.2751, 2.880608
570.7572, 3.414207
571.2393, 3.617231
571.7214, 3.466299
572.2036, 3.257532
572.6857, 3.016661
573.1678, 2.825296
573.6499, 2.849356
574.1320, 3.081226
574.6141, 3.170866
575.0963, 2.876175
575.5784, 2.470791
576.0605, 2.233316
576.5426, 2.198080
577.0247, 2.290012
577.5068, 2.468391
577.9890, 2.671663
578.4711, 2.691412
578.9532, 2.336351
579.4353, 2.284710
579.9174, 2.758966
580.3995, 3.268976
580.8817, 3.643667
581.3638, 3.855146
581.8459, 3.878099
582.3280, 3.703014
582.8101, 3.447464
583.2922, 3.366335
583.7744, 3.509199
584.2565, 3.493906
584.7386, 3.076775
585.2207, 2.688629
585.7029, 2.723053
586.1850, 3.030231
586.6671, 3.203173
587.1492, 2.977629
587.6313, 2.739016
588.1135, 2.845564
588.5956, 3.180861
589.0777, 3.501249
589.5598, 3.747627
590.0419, 3.881329
590.5240, 3.818659
591.0062, 3.540751
591.4883, 3.516760
591.9704, 3.973644
592.4525, 4.377439
592.9346, 4.548611
593.4167, 4.621956
593.8989, 4.800093
594.3810, 5.105398
594.8631, 5.331827
595.3452, 5.195124
595.8273, 4.743683
596.3094, 4.571419
596.7916, 4.828844
597.2737, 5.020573
597.7558, 4.830191
598.2379, 4.516104
598.7200, 4.336130
599.2021, 4.321384
599.6843, 4.397848
600.1664, 4.691050
600.6485, 4.972700
601.1306, 4.809872
601.6127, 4.230272
602.0948, 3.763977
602.5770, 3.734953
603.0591, 3.993622
603.5412, 4.130707
604.0233, 4.087303
604.5054, 4.007772
604.9875, 3.854372
605.4697, 3.700262
605.9518, 3.592300
606.4339, 3.522274
606.9160, 3.465364
607.3981, 3.409325
607.8802, 3.340036
608.3624, 3.250225
608.8445, 3.139420
609.3266, 3.123995
609.8087, 3.303900
610.2908, 3.478586
610.7729, 3.473183
611.2551, 3.343361
611.7372, 3.256399
612.2193, 3.306633
612.7014, 3.353962
613.1835, 3.280500
613.6656, 3.137297
614.1478, 3.073509
614.6299, 3.150671
615.1120, 3.204615
615.5941, 3.029325
616.0762, 2.622776
616.5583, 2.476032
617.0405, 2.716209
617.5226, 3.052984
618.0047, 3.770468
618.4868, 4.367640
618.9689, 4.173244
619.4510, 3.211678
619.9332, 2.309053
620.4153, 2.252995
620.8974, 2.789360
621.3795, 3.026167
621.8616, 2.943394
622.3438, 2.643444
622.8259, 1.946423
623.3080, 1.245342
623.7901, 1.085789
624.2722, 1.487375
624.7543, 1.950563
625.2365, 2.483353
625.7186, 2.909941
626.2007, 3.073107
626.6828, 3.004452
627.1649, 2.794474
627.6470, 2.478884
628.1292, 2.074200
628.6113, 1.573223
629.0934, 0.8934630
629.5755, 0.4608520
630.0576, 0.3900390
630.5397, 0.4595810
631.0219, 0.7324180
631.5040, 1.061764
631.9861, 1.295431
632.4682, 1.393751
632.9503, 1.272598
633.4324, 0.5445540
633.9146, 0.4649450
634.3967, 0.5068040
634.8788, 0.6352900
635.3609, 1.592144
635.8430, 1.472330
636.3251, 0.6566160
636.8073, 0.2456870
637.2894, 0.3877490
637.7715, 0.5036740
638.2536, 0.4832360
638.7357, 0.4224410
639.2178, 0.4531920
639.7000, 0.5112990
640.1821, 0.3486800
640.6642, 0.1930680
641.1463, 0.8239900
641.6284, 0.8772340
642.1105, 0.1925390
642.5927, 0.2175520
643.0748, 5.0299000E-02
643.5569, 0.1508160
644.0390, 0.3707220
644.5211, 0.3498760
645.0032, 0.5282650
645.4854, 2.731567
645.9675, 5.023199
646.4496, 6.802132
646.9317, 8.040842
647.4138, 8.586430
647.8959, 8.451134
648.3781, 7.980328
648.8602, 7.360706
649.3423, 6.681410
649.8244, 6.381952
650.3065, 6.519968
650.7886, 6.984608
651.2708, 8.553791
651.7529, 9.762451
652.2350, 9.080427
652.7171, 7.163788
653.1992, 6.095331
653.6813, 7.188288
654.1635, 9.106216
654.6456, 9.861225
655.1277, 9.521225
655.6098, 8.811420
656.0919, 7.650610
656.5740, 6.810932
657.0562, 7.483728
657.5383, 9.227173
658.0204, 9.058701
658.5025, 3.950409
658.9846, 0.7189960
659.4667, 3.512655
659.9489, 7.833061
660.4310, 8.647249
660.9131, 5.788370
661.3952, 2.408165
661.8773, 0.7131180
662.3594, 0.3639560
662.8416, 0.1793230
663.3237, 0.2186490
663.8058, 0.1940360
664.2879, 8.0599003E-02
664.7700, 0.2887290
665.2521, 0.1570400
665.7343, 0.2323300
666.2164, 0.5797560
666.6985, 0.7836130
667.1806, 0.9333440
667.6627, 1.149776
668.1448, 1.338673
668.6270, 1.294735
669.1091, 0.9869080
669.5912, 0.5436150
670.0733, 3.9675001E-02
670.5554, 0.4633120
671.0375, 0.6035160
671.5197, 0.1265320
672.0018, 0.3312930
672.4839, 0.8479140
672.9660, 1.202332
673.4481, 1.053473
673.9302, 0.5822390
674.4124, 0.4199200
674.8945, 1.060682
675.3766, 1.866957
675.8587, 1.934811
676.3408, 1.435421
676.8229, 1.207060
677.3051, 1.470451
677.7872, 1.743002
678.2693, 1.529510
678.7514, 0.9024870
679.2335, 0.7099670
679.7156, 1.426645
680.1978, 1.898750
680.6799, 1.741697
681.1620, 1.434135
681.6441, 1.405249
682.1262, 1.631546
682.6083, 1.794704
683.0905, 1.660086
683.5726, 1.432453
684.0547, 1.610655
684.5368, 2.192621
685.0189, 2.360870
685.5010, 1.794996
685.9832, 1.164982
686.4653, 1.111767
686.9474, 1.535538
687.4295, 1.711493
687.9116, 1.314526
688.3937, 1.161772
688.8759, 1.763105
689.3580, 2.555740
689.8401, 2.893887
690.3222, 2.788902
690.8043, 2.555506
691.2864, 2.379856
691.7686, 2.253389
692.2507, 2.286678
692.7328, 2.582649
693.2149, 2.596249
693.6970, 2.096863
694.1791, 1.536598
694.6613, 1.132843
695.1434, 0.9331860
695.6255, 1.045330
696.1076, 1.705376
696.5897, 2.186361
697.0718, 2.040636
697.5540, 1.628433
698.0361, 1.371342
698.5182, 1.276136
699.0003, 1.078890
699.4824, 0.6552310
699.9645, 0.2187730
700.4467, 0.1737610
700.9288, 0.6174240
701.4109, 1.047642
701.8930, 1.561806
702.3751, 1.896454
702.8572, 1.855473
703.3394, 1.590599
703.8215, 1.352217
704.3036, 1.206987
704.7857, 1.116753
705.2678, 1.085472
705.7499, 1.083733
706.2321, 1.063753
706.7142, 1.030483
707.1963, 1.042027
707.6784, 1.135912
708.1605, 1.245703
708.6426, 1.218512
709.1248, 0.9701080
709.6069, 0.8876190
710.0890, 1.105991
710.5711, 1.335999
711.0532, 1.518713
711.5353, 1.637655
712.0175, 1.668941
712.4996, 1.606627
712.9817, 1.491507
713.4638, 1.282608
713.9459, 1.073524
714.4280, 0.9719600
714.9102, 0.9881380
715.3923, 1.217308
715.8744, 1.732319
716.3565, 2.188192
716.8386, 2.034266
717.3207, 1.156391
717.8029, 0.5001010
718.2850, 0.1368350
718.7671, 0.2626550
719.2492, 0.6784020
719.7313, 1.890890
720.2134, 2.656015
720.6956, 2.879044
721.1777, 2.762844
721.6598, 2.313356
722.1419, 1.711182
722.6240, 1.062817
723.1061, 0.4702190
723.5883, 0.3280160
724.0704, 0.7716140
724.5525, 1.352373
725.0346, 1.616261
725.5167, 1.567352
725.9988, 1.406578
726.4810, 1.041496
726.9631, 0.6944430
727.4452, 0.1830810
727.9273, 0.1428590
728.4094, 0.1378770
728.8915, 0.8736270
729.3737, 1.407074
729.8558, 1.331491
730.3379, 1.070393
730.8200, 1.051416
731.3021, 1.157593
731.7842, 1.162008
732.2664, 1.033117
732.7485, 0.8944850
733.2306, 0.8311330
733.7127, 0.8301160
734.1948, 0.8343200
734.6769, 0.7632470
735.1591, 0.8491380
735.6412, 1.424110
736.1233, 1.819084
736.6054, 1.523472
737.0875, 0.8434390
737.5696, 0.3549710
738.0518, 0.2287010
738.5339, 0.3185040
739.0160, 0.6490990
739.4981, 1.059046
739.9802, 1.237566
740.4623, 1.181004
740.9445, 1.048256
741.4266, 0.9055730
741.9087, 0.7948860
742.3908, 0.8309750
742.8729, 1.136166
743.3550, 1.049601
743.8372, 0.1506060
744.3193, 0.8674980
744.8014, 0.1585010
745.2835, 0.9466800
745.7656, 1.185419
746.2477, 0.4370650
746.7299, 0.1397320
747.2120, 0.4032380
747.6941, 1.213226
748.1762, 1.169603
748.6583, 0.5506690
749.1404, 0.3090100
749.6226, 0.7112960
750.1047, 1.243607
750.5868, 1.394337
751.0689, 1.186394
751.5510, 0.8474900
752.0331, 0.2028100
752.5153, 0.2322600
752.9974, 0.3218670
753.4795, 0.2128580
753.9616, 6.8866998E-02
754.4437, 0.4585910
754.9258, 0.8200990
755.4080, 1.171276
755.8901, 1.372318
756.3722, 1.182848
756.8543, 0.8554970
757.3364, 0.8023340
757.8185, 1.019960
758.3007, 1.257986
758.7828, 1.387985
759.2649, 1.381741
759.7470, 1.090769
760.2291, 0.3498740
760.7112, 0.1052040
761.1934, 0.7437170
761.6755, 1.319126
762.1576, 1.269453
762.6397, 0.9381600
763.1218, 0.7534730
763.6039, 0.7653750
764.0861, 0.8232080
764.5682, 0.9055390
765.0503, 0.9931450
765.5324, 1.087135
766.0145, 1.165104
766.4966, 1.155279
766.9788, 1.052446
767.4609, 0.9951650
767.9430, 1.177134
768.4251, 1.536875
768.9072, 1.663074
769.3893, 1.481388
769.8715, 1.359482
770.3536, 1.449617
770.8357, 1.541262
771.3178, 1.401342
771.7999, 1.080217
772.2820, 0.8375910
772.7642, 0.6240010
773.2463, 0.5775470
773.7284, 0.9299720
774.2105, 1.314520
774.6926, 1.330112
775.1747, 1.077839
775.6569, 0.9837360
776.1390, 1.266420
776.6211, 1.549812
777.1032, 1.162920
777.5853, 0.2557960
778.0674, 3.0125000E-02
778.5496, 0.4629900
779.0317, 0.8702430
779.5138, 0.7162040
779.9959, 0.3166330
780.4780, 0.2227460
780.9601, 0.5035720
781.4423, 0.8098720
781.9244, 1.226122
782.4065, 1.577797
782.8886, 1.875193
783.3707, 2.040545
783.8528, 1.904461
784.3350, 1.509417
784.8171, 1.217745
785.2992, 1.380592
785.7813, 1.586620
786.2634, 1.250149
786.7455, 0.5387380
787.2277, 6.2973000E-02
787.7098, 0.4488810
788.1919, 0.4715690
788.6740, 6.0476001E-02
789.1561, 0.9317890
789.6382, 1.294683
790.1204, 0.7530210
790.6025, 0.6650580
791.0846, 1.738108
791.5667, 2.563271
792.0488, 2.263729
792.5309, 1.426445
793.0131, 1.031601
793.4952, 1.313488
793.9773, 1.477947
794.4594, 0.8446200
794.9415, 0.1904450
795.4236, 0.4642770
795.9058, 1.272324
796.3879, 1.550611
796.8700, 1.013762
797.3521, 0.3794630
797.8342, 0.4384420
798.3163, 1.025993
798.7985, 1.234970
799.2806, 0.9738030
799.7627, 0.8851150
800.2448, 1.206108
800.7269, 1.584816
801.2090, 1.703184
801.6912, 1.583364
802.1733, 1.509674
802.6554, 1.775591
803.1375, 1.836439
803.6196, 1.307501
804.1017, 0.7447830
804.5839, 0.5577930
805.0660, 0.6802440
805.5481, 0.7931270
806.0302, 0.7831290
806.5123, 0.7457410
806.9944, 0.7684800
807.4766, 0.8430790
807.9587, 0.9774530
808.4408, 1.152887
808.9229, 1.140360
809.4050, 0.8389210
809.8871, 0.4212590
810.3693, 6.4562000E-02
810.8514, 0.2120420
811.3335, 0.3538170
811.8156, 0.2984330
812.2977, 0.1894610
812.7798, 4.0803999E-02
813.2620, 0.1281550
813.7441, 0.3985750
814.2262, 0.6765610
814.7083, 0.6912170
815.1904, 0.2783300
815.6725, 0.1753730
816.1547, 0.6065770
816.6368, 0.8611180
817.1189, 0.5846310
817.6010, 3.5360001E-02
818.0831, 0.3696670
818.5652, 0.1534920
819.0474, 0.2370890
819.5295, 0.3535040
820.0116, 0.2280180
820.4937, 0.1897580
820.9758, 0.2818200
821.4579, 0.1709610
821.9401, 0.3655510
822.4222, 0.9398670
822.9043, 1.143864
823.3864, 0.9848520
823.8685, 0.7754610
824.3506, 0.5437910
824.8328, 0.2276380
825.3149, 0.4702590
825.7970, 1.000292
826.2791, 0.8277380
826.7612, 0.1858010
827.2433, 0.3543970
827.7255, 0.5960750
828.2076, 0.6505740
828.6897, 0.4748670
829.1718, 0.2439940
829.6539, 0.3167500
830.1360, 0.6298980
830.6182, 0.7899860
831.1003, 0.6459900
831.5824, 0.4761710
832.0645, 0.6445050
832.5466, 1.106722
833.0287, 1.270733
833.5109, 1.008236
833.9930, 0.8265630
834.4751, 0.8124890
834.9572, 0.9291340
835.4393, 1.268480
835.9214, 1.702959
836.4036, 1.876659
836.8857, 1.496635
837.3678, 1.335129
837.8499, 1.704845
838.3320, 2.234917
838.8141, 2.801796
839.2963, 3.287992
839.7784, 3.459965
840.2605, 3.273041
840.7426, 3.170885
841.2247, 3.759565
841.7068, 4.608686
842.1890, 4.677738
842.6711, 4.158007
843.1532, 4.224075
843.6353, 5.199396
844.1174, 6.248074
844.5995, 6.601749
845.0817, 6.426178
845.5638, 6.519917
846.0459, 6.957417
846.5280, 7.572165
847.0101, 8.413429
847.4922, 9.287754
847.9744, 10.04211
848.4565, 10.79415
848.9386, 11.73690
849.4207, 12.90063
849.9028, 14.12811
850.3849, 15.51134
850.8671, 16.79758
851.3492, 17.53167
851.8313, 18.23469
852.3134, 19.70461
852.7955, 21.96451
853.2776, 24.37244
853.7598, 26.49636
854.2419, 28.81396
854.7240, 30.80115
855.2061, 33.26264
855.6882, 35.57161
856.1703, 37.69298
856.6525, 40.14586
857.1346, 43.21189
857.6167, 46.74142
858.0988, 50.43102
858.5809, 54.30698
859.0630, 58.15971
859.5452, 61.93403
860.0273, 65.77602
860.5094, 69.64872
860.9915, 73.65775
861.4736, 77.90607
861.9557, 82.37008
862.4379, 86.95338
862.9200, 91.42135
863.4021, 96.30390
863.8842, 102.0213
864.3663, 107.9985
864.8484, 113.8464
865.3306, 119.5128
865.8127, 125.0933
866.2948, 130.5878
866.7769, 136.0896
867.2590, 141.7002
867.7411, 147.3237
868.2233, 152.8901
868.7054, 158.2565
869.1875, 162.6986
869.6696, 166.0230
870.1517, 168.6663
870.6339, 171.1233
871.1160, 173.1262
871.5981, 173.3572
872.0802, 171.5079
872.5623, 169.0194
873.0444, 166.1495
873.5266, 162.4690
874.0087, 157.7981
874.4908, 152.0907
874.9729, 145.3015
875.4550, 137.2614
875.9371, 129.1073
876.4193, 120.8175
876.9014, 112.6758
877.3835, 104.7872
877.8656, 97.23029
878.3477, 90.13190
878.8298, 83.42453
879.3120, 76.64431
879.7941, 69.34184
880.2762, 62.56345
880.7583, 57.72277
881.2404, 53.97163
881.7225, 49.71305
882.2047, 45.00378
882.6868, 40.87600
883.1689, 37.74971
883.6510, 35.31324
884.1331, 33.29414
884.6152, 31.65094
885.0974, 29.92556
885.5795, 28.08759
886.0616, 26.40233
886.5437, 24.97677
887.0258, 23.60026
887.5079, 22.04974
887.9901, 20.42234
888.4722, 19.11025
888.9543, 18.40834
889.4364, 17.45168
889.9185, 15.78618
890.4006, 14.40340
890.8828, 14.01927
891.3649, 13.94149
891.8470, 13.23533
892.3291, 11.84467
892.8112, 10.59891
893.2933, 9.627823
893.7755, 9.129963
894.2576, 9.586611
894.7397, 10.36444
895.2218, 10.67814
895.7039, 10.52995
896.1860, 10.28246
896.6682, 10.10103
897.1503, 10.04133
897.6324, 10.29692
898.1145, 10.70351
898.5966, 10.69176
899.0787, 10.30231
899.5609, 10.10140
900.0430, 10.27882
900.5251, 10.48654
901.0072, 10.36109
901.4893, 10.00785
901.9714, 9.956528
902.4536, 10.29101
902.9357, 10.60744
903.4178, 10.77679
903.8999, 11.10165
904.3820, 11.89616
904.8641, 12.85594
905.3463, 13.42739
905.8284, 13.55665
906.3105, 13.75320
906.7926, 14.30862
907.2747, 14.60605
907.7568, 14.27993
908.2390, 13.76388
908.7211, 13.50844
909.2032, 13.40485
909.6853, 12.96221
910.1674, 11.90445
910.6495, 10.91592
911.1317, 10.71442
911.6138, 10.61175
912.0959, 9.682827
912.5780, 8.231089
913.0601, 7.079264
913.5422, 6.429678
914.0244, 5.869419
914.5065, 5.018812
914.9886, 4.061998
915.4707, 3.367477
915.9528, 2.917215
916.4349, 2.602034
916.9171, 2.410379
917.3992, 2.359900
917.8813, 2.509102
918.3634, 2.608055
918.8455, 2.171591
919.3276, 1.144140
919.8098, 0.5734770
920.2919, 0.5854680
920.7740, 0.7493610
921.2561, 1.148668
921.7382, 1.432110
922.2203, 1.199577
922.7025, 0.6072560
923.1846, 0.2890320
923.6667, 0.4593180
924.1488, 0.4311050
924.6309, 0.2204950
925.1130, 0.6713520
925.5952, 0.3438800
926.0773, 0.2701610
926.5594, 0.6159210
927.0415, 0.6203980
927.5236, 0.4265710
928.0057, 0.1480430
928.4879, 0.5442790
928.9700, 0.2155840
929.4521, 0.3634740
929.9342, 0.6396850
930.4163, 0.6591400
930.8984, 0.7470090
931.3806, 1.018908
931.8627, 1.236622
932.3448, 1.116289
932.8269, 0.8220630
933.3090, 0.5315800
933.7911, 0.3049260
934.2733, 0.5817950
934.7554, 1.391003
935.2375, 2.032104
935.7196, 1.992834
936.2017, 1.570683
936.6838, 1.410597
937.1660, 1.489311
937.6481, 1.591091
938.1302, 1.705202
938.6123, 1.868488
939.0944, 2.042231
939.5765, 2.316231
940.0587, 2.892279
940.5408, 3.707163
941.0229, 4.165056
941.5050, 3.862917
941.9871, 3.981611
942.4692, 4.874294
942.9514, 5.717346
943.4335, 6.244904
943.9156, 6.565348
944.3977, 6.719618
944.8798, 6.722319
945.3619, 6.984482
945.8441, 7.919790
946.3262, 8.698355
946.8083, 8.961338
947.2904, 9.010174
947.7725, 9.094156
948.2546, 9.184952
948.7368, 9.121956
949.2189, 8.837290
949.7010, 8.582777
950.1831, 8.536961
950.6652, 8.618299
951.1473, 8.808065
951.6295, 8.973433
952.1116, 8.816727
952.5937, 8.361704
953.0758, 7.900608
953.5579, 7.576624
954.0400, 7.514521
954.5222, 8.148396
955.0043, 9.118460
955.4864, 9.212538
955.9685, 8.523710
956.4506, 8.085571
956.9327, 8.205809
957.4149, 8.348940
957.8970, 8.049925
958.3791, 7.387747
958.8612, 6.486641
959.3433, 5.301161
959.8254, 4.597775
960.3076, 4.506498
960.7897, 4.556240
961.2718, 4.609278
961.7539, 4.584496
962.2360, 4.354891
962.7181, 3.931536
963.2003, 3.604712
963.6824, 3.496595
964.1645, 3.229425
964.6466, 2.641302
965.1287, 2.046972
965.6108, 1.481440
966.0930, 1.073694
966.5751, 1.094566
967.0572, 1.596266
967.5393, 1.972498
968.0214, 2.200815
968.5035, 2.241833
968.9857, 1.890366
969.4678, 1.524782
969.9499, 1.493616
970.4320, 1.661421
970.9141, 1.698311
971.3962, 1.527323
971.8784, 1.236174
972.3605, 0.6082780
972.8426, 0.1670760
973.3247, 0.5238460
973.8068, 1.090910
974.2889, 1.010729
974.7711, 0.3856830
975.2532, 2.7020000E-02
975.7353, 0.3444630
976.2174, 0.7605920
976.6995, 0.6795770
977.1816, 0.8865760
977.6638, 0.5109580
978.1459, 0.7925450
978.6280, 0.7642920
979.1101, 0.3818860
979.5922, 0.1727120
980.0743, 0.5501820
980.5565, 1.102442
981.0386, 1.120918
981.5207, 0.7494370
982.0028, 0.4725670
982.4849, 0.3168910
982.9670, 0.2229160
983.4492, 0.1949980
983.9313, 0.2460440
984.4134, 0.4132420
984.8955, 0.6207620
985.3776, 0.5699810
985.8597, 0.2488400
986.3419, 0.1291260
986.8240, 0.2848550
987.3061, 0.5309070
987.7882, 0.8379520
988.2703, 1.062794
988.7524, 1.023420
989.2346, 0.7370740
989.7167, 0.3788450
990.1988, 0.1474550
990.6809, 0.4603390
991.1630, 0.5544200
991.6451, 0.3456100
992.1273, 0.5304740
992.6094, 1.452194
993.0915, 1.379950
993.5736, 0.2419590
994.0557, 0.5204220
994.5378, 0.7067410
995.0200, 0.7964290
995.5021, 0.8866180
995.9842, 0.8437390
996.4663, 0.4184270
996.9484, 0.1209490
997.4305, 0.3236750
997.9127, 0.1353070
998.3948, 0.1267380
998.8769, 0.7097240
999.3590, 0.9582610
999.8411, 0.3938390
1000.323, 0.3267860
1000.805, 0.7314130
1001.287, 0.8845560
1001.770, 0.9807360
1002.252, 1.060518
1002.734, 1.120861
1003.216, 1.267868
1003.698, 1.269192
1004.180, 0.8570500
1004.662, 0.3256000
1005.144, 8.5556000E-02
1005.627, 0.3131030
1006.109, 0.2379130
1006.591, 0.2002140
1007.073, 0.5336460
1007.555, 0.1898860
1008.037, 0.1715640
1008.519, 0.2150730
1009.001, 0.9541890
1009.483, 1.490023
1009.966, 1.718231
1010.448, 1.601685
1010.930, 1.096016
1011.412, 0.6593270
1011.894, 0.8866000
1012.376, 1.398321
1012.858, 1.682114
1013.340, 1.740278
1013.823, 1.569336
1014.305, 1.216299
1014.787, 0.8713420
1015.269, 0.6407740
1015.751, 0.4935910
1016.233, 0.3852180
1016.715, 0.3339880
1017.197, 0.4165290
1017.679, 0.6082950
1018.162, 0.7993950
1018.644, 0.9631630
1019.126, 1.093569
1019.608, 1.181112
1020.090, 1.270346
1020.572, 1.510635
1021.054, 1.844330
1021.536, 1.777334
1022.018, 1.326710
1022.501, 1.133185
1022.983, 1.368296
1023.465, 1.516171
1023.947, 1.154292
1024.429, 1.433184
1024.911, 1.485078
1025.393, 1.469724
1025.875, 1.774260
1026.358, 1.557889
1026.840, 1.551748
1027.322, 2.023680
1027.804, 2.377279
1028.286, 2.126759
1028.768, 1.472286
1029.250, 0.8611140
1029.732, 0.2507040
1030.214, 3.7220001E-02
1030.697, 0.2582880
1031.179, 0.8359440
1031.661, 2.028668
1032.143, 2.906278
1032.625, 2.600123
1033.107, 1.549145
1033.589, 1.015354
1034.071, 1.128343
1034.553, 1.168540
1035.036, 1.081527
1035.518, 1.037807
1036.000, 1.068146
1036.482, 1.176099
1036.964, 1.402457
1037.446, 1.696068
1037.928, 1.918452
1038.410, 2.117211
1038.893, 2.066307
1039.375, 1.421888
1039.857, 1.083856
1040.339, 1.603079
1040.821, 2.143156
1041.303, 1.915503
1041.785, 1.241273
1042.267, 1.090575
1042.750, 1.735416
1043.232, 1.994185
1043.714, 1.404245
1044.196, 1.036975
1044.678, 1.381062
1045.160, 1.801594
1045.642, 1.753122
1046.124, 1.440967
1046.606, 1.426523
1047.089, 1.873313
1047.571, 2.052369
1048.053, 1.527646
1048.535, 1.165398
1049.017, 1.453458
1049.499, 1.798213
1049.981, 1.673170
1050.463, 1.255665
1050.945, 1.075575
1051.428, 1.239744
1051.910, 1.261386
1052.392, 0.8627810
1052.874, 0.6522770
1053.356, 1.099519
1053.838, 1.560446
1054.320, 1.397848
1054.802, 0.9385810
1055.285, 0.9329050
1055.767, 1.541883
1056.249, 1.790399
1056.731, 1.029203
1057.213, 0.3788500
1057.695, 0.2918460
1058.177, 0.4843660
1058.659, 0.8230810
1059.141, 1.176729
1059.624, 1.340264
1060.106, 1.277919
1060.588, 1.211148
1061.070, 1.181665
1061.552, 1.218648
1062.034, 1.418939
1062.516, 1.572276
1062.998, 1.418966
1063.480, 1.124372
1063.963, 1.008684
1064.445, 1.133207
1064.927, 1.242535
1065.409, 1.224677
1065.891, 1.190050
1066.373, 1.321427
1066.855, 1.362070
1067.337, 0.8588570
1067.820, 0.2234280
1068.302, 0.2282530
1068.784, 0.8945290
1069.266, 1.286013
1069.748, 0.7864540
1070.230, 0.3937950
1070.712, 0.7749120
1071.194, 1.202424
1071.677, 1.014832
1072.159, 0.5838640
1072.641, 0.5091090
1073.123, 0.8099870
1073.605, 1.065029
1074.087, 1.106331
1074.569, 1.114643
1075.051, 1.160163
1075.533, 1.228831
1076.016, 1.314350
1076.498, 1.410624
1076.980, 1.551306
1077.462, 1.700223
1077.944, 1.703228
1078.426, 1.455033
1078.908, 1.248301
1079.390, 1.337746
1079.873, 1.379818
1080.355, 0.9790440
1080.837, 0.5272020
1081.319, 0.5421970
1081.801, 0.9278760
1082.283, 1.236060
1082.765, 1.325475
1083.247, 1.397855
1083.729, 1.582518
1084.212, 1.731206
1084.694, 1.730020
1085.176, 1.671789
1085.658, 1.637258
1086.140, 1.632244
1086.622, 1.653250
1087.104, 1.698369
1087.586, 1.695817
1088.068, 1.506270
1088.551, 1.442593
1089.033, 1.898496
1089.515, 2.318586
1089.997, 2.052558
1090.479, 1.493098
1090.961, 1.477226
1091.443, 2.118996
1091.925, 2.611938
1092.408, 2.610905
1092.890, 2.459267
1093.372, 2.209184
1093.854, 1.947982
1094.336, 1.731061
1094.818, 1.547353
1095.300, 1.370620
1095.782, 1.198969
1096.265, 1.050069
1096.747, 0.9102630
1097.229, 0.8284360
1097.711, 0.7760510
1098.193, 0.8393300
1098.675, 1.181323
1099.157, 1.579264
1099.639, 1.794454
1100.121, 1.822206
1100.604, 1.742714
1101.086, 1.511744
1101.568, 1.350246
1102.050, 1.455588
1102.532, 1.468770
1103.014, 1.035295
1103.496, 0.6042150
1103.978, 0.6853550
1104.460, 1.086159
1104.943, 1.212574
1105.425, 0.9046790
1105.907, 0.7836010
1106.389, 1.237851
1106.871, 1.512876
1107.353, 1.146173
1107.835, 0.7707230
1108.317, 0.9658900
1108.800, 1.387486
1109.282, 1.392833
1109.764, 0.9210900
1110.246, 0.5069840
1110.728, 0.1134440
1111.210, 8.2951002E-02
1111.692, 6.0378000E-02
1112.174, 0.2579200
1112.656, 0.4773520
1113.139, 0.6080880
1113.621, 0.4233790
1114.103, 2.9507000E-02
1114.585, 0.2205780
1115.067, 2.1028999E-02
1115.549, 0.2166870
1116.031, 0.3599550
1116.513, 0.4754110
1116.995, 0.6470700
1117.478, 0.7041420
1117.960, 0.3688480
1118.442, 0.1691130
1118.924, 0.2827360
1119.406, 0.1667160
1119.888, 0.4923460
1120.370, 0.6530690
1120.852, 0.7905040
1121.335, 1.043075
1121.817, 1.060049
1122.299, 0.4415320
1122.781, 0.3624740
1123.263, 0.4880220
1123.745, 8.2938999E-02
1124.227, 0.4411720
1124.709, 0.5726300
1125.192, 0.5102690
1125.674, 0.1664740
1126.156, 0.1166190
1126.638, 0.2044120
1127.120, 8.1541002E-02
1127.602, 0.3410130
1128.084, 0.9462000
1128.566, 1.143563
1129.048, 0.8866360
1129.531, 0.5929510
1130.013, 0.2584100
1130.495, 5.3560998E-02
1130.977, 3.1910001E-03
1131.459, 0.1014610
1131.941, 0.3693630
1132.423, 0.6579550
1132.905, 0.5825790
1133.387, 0.1779640
1133.870, 2.4840001E-03
1134.352, 4.9015999E-02
1134.834, 0.1136360
1135.316, 0.1588610
1135.798, 0.3873990
1136.280, 0.9272790
1136.762, 1.422029
1137.244, 1.374352
1137.727, 0.9588690
1138.209, 0.6255640
1138.691, 0.3967090
1139.173, 0.4515910
1139.655, 0.7490910
1140.137, 0.9386420
1140.619, 0.9065000
1141.101, 0.8304310
1141.583, 0.8341110
1142.066, 0.9471000
1142.548, 1.448247
1143.030, 1.969745
1143.512, 1.519423
1143.994, 0.4797240
1144.476, 4.0065002E-02
1144.958, 0.3021790
1145.440, 0.4409350
1145.922, 2.4682000E-02
1146.405, 0.3771880
1146.887, 0.1981840
1147.369, 0.2444110
1147.851, 0.7457590
1148.333, 1.173247
1148.815, 1.282901
1149.297, 1.157661
1149.779, 1.005344
1150.262, 0.9034700
1150.744, 0.9720700
1151.226, 1.531251
1151.708, 1.861162
1152.190, 1.070526
1152.672, 0.2814110
1153.154, 0.6595740
1153.636, 1.535385
1154.119, 1.868784
1154.601, 1.643015
1155.083, 1.496817
1155.565, 1.675331
1156.047, 1.692387
1156.529, 1.131742
1157.011, 0.7067370
1157.493, 0.9219990
1157.975, 1.223521
1158.458, 1.058586
1158.940, 0.6546710
1159.422, 0.5494010
1159.904, 0.8108480
1160.386, 1.015263
1160.868, 1.113338
1161.350, 1.173354
1161.832, 1.128041
1162.314, 1.143976
1162.797, 1.345822
1163.279, 1.586390
1163.761, 1.702342
1164.243, 1.723276
1164.725, 1.809953
1165.207, 2.083071
1165.689, 1.943256
1166.171, 1.143750
1166.654, 0.6967840
1167.136, 0.9361270
1167.618, 1.309704
1168.100, 1.487416
1168.582, 1.499448
1169.064, 1.353718
1169.546, 1.098989
1170.028, 1.184070
1170.510, 1.623555
1170.993, 1.716484
1171.475, 1.383411
1171.957, 0.9990760
1172.439, 0.6883130
1172.921, 0.6299040
1173.403, 1.000317
1173.885, 1.522483
1174.367, 1.603922
1174.849, 1.383334
1175.332, 1.304027
1175.814, 1.361661
1176.296, 1.554959
1176.778, 1.801039
1177.260, 1.887598
1177.742, 1.723128
1178.224, 1.473422
1178.706, 1.193516
1179.189, 1.041328
1179.671, 1.473485
1180.153, 2.021906
1180.635, 1.818439
1181.117, 1.177857
1181.599, 0.9624680
1182.081, 1.249086
1182.563, 1.460924
1183.046, 1.284058
1183.528, 1.138033
1184.010, 1.495980
1184.492, 1.698596
1184.974, 0.9791030
1185.456, 0.1578600
1185.938, 0.3072890
1186.420, 1.018002
1186.902, 1.029094
1187.385, 8.1896998E-02
1187.867, 0.2670870
1188.349, 0.9361760
1188.831, 1.777270
1189.313, 1.562179
1189.795, 1.322531
1190.277, 1.644746
1190.759, 2.101493
1191.241, 2.318194
1191.724, 2.299172
1192.206, 2.044737
1192.688, 1.458669
1193.170, 0.9989460
1193.652, 0.6390090
1194.134, 0.5079060
1194.616, 0.6700370
1195.098, 0.9700750
1195.581, 1.389141
1196.063, 1.668653
1196.545, 1.377300
1197.027, 0.7212300
1197.509, 0.6408580
1197.991, 1.107881
1198.473, 1.568145
1198.955, 1.949523
1199.438, 2.092222
1199.920, 1.956082
1200.402, 1.640184
1200.884, 1.187702
1201.366, 0.8465690
1201.848, 1.130180
1202.330, 1.627254
1202.812, 1.495446
1203.294, 1.005519
1203.776, 0.6523650
1204.259, 0.4647820
1204.741, 0.4122410
1205.223, 0.4630020
1205.705, 0.5301170
1206.187, 0.5145550
1206.669, 0.6507560
1207.151, 1.378855
1207.633, 2.028846
1208.116, 1.913845
1208.598, 1.532039
1209.080, 1.512194
1209.562, 1.732552
1210.044, 1.694430
1210.526, 1.287092
1211.008, 0.9646120
1211.490, 0.7701210
1211.973, 0.7306990
1212.455, 0.9906960
1212.937, 1.235371
1213.419, 1.379966
1213.901, 1.388206
1214.383, 1.129485
1214.865, 0.7414690
1215.347, 0.7217580
1215.829, 1.147438
1216.312, 1.422768
1216.794, 1.547123
1217.276, 1.482821
1217.758, 1.186956
1218.240, 0.9292090
1218.722, 0.8340170
1219.204, 0.8980170
1219.686, 1.158075
1220.168, 1.468378
1220.651, 1.364004
1221.133, 0.9889300
1221.615, 0.9747300
1222.097, 1.247450
1222.579, 1.376674
1223.061, 1.306884
1223.543, 1.290504
1224.025, 1.446150
1224.508, 1.533345
1224.990, 1.253419
1225.472, 0.9129640
1225.954, 0.7581830
1226.436, 0.7663730
1226.918, 1.044261
1227.400, 1.393712
1227.882, 1.471013
1228.365, 1.291386
1228.847, 1.177285
1229.329, 1.256498
1229.811, 1.236263
1230.293, 0.8517530
1230.775, 0.6104200
1231.257, 0.8921630
1231.739, 1.134725
1232.221, 0.9466350
1232.703, 0.5288730
1233.186, 1.7175000E-02
1233.668, 0.5067880
1234.150, 0.4187240
1234.632, 0.5988010
1235.114, 0.8986110
1235.596, 0.2745060
1236.078, 0.1336770
1236.560, 5.1064000E-02
1237.043, 0.1707940
1237.525, 0.3783990
1238.007, 0.6151300
1238.489, 1.022048
1238.971, 1.422398
1239.453, 1.225521
1239.935, 0.6313060
1240.417, 0.2590860
1240.900, 0.1344830
1241.382, 0.2165500
1241.864, 0.4535130
1242.346, 0.6887330
1242.828, 0.8482390
1243.310, 0.9517150
1243.792, 0.9349480
1244.274, 0.9647580
1244.756, 1.216661
1245.239, 1.539744
1245.721, 2.001675
1246.203, 2.306841
1246.685, 1.808088
1247.167, 0.6892930
1247.649, 0.1736730
1248.131, 0.7445490
1248.613, 0.9937840
1249.095, 0.3289130
1249.578, 1.1542000E-02
1250.060, 0.3515450
1250.542, 0.8104480
1251.024, 1.060233
1251.506, 1.278201
1251.988, 1.754238
1252.470, 2.304580
1252.952, 2.102835
1253.435, 1.119986
1253.917, 0.6016630
1254.399, 0.5465770
1254.881, 0.3430870
1255.363, 9.1991998E-02
1255.845, 0.1751670
1256.327, 0.3518660
1256.809, 0.8586020
1257.292, 0.7100750
1257.774, 0.3107810
1258.256, 0.1444790
1258.738, 0.1356770
1259.220, 0.2517700
1259.702, 0.4004900
1260.184, 0.2475230
1260.666, 0.1281600
1261.148, 0.2475370
1261.630, 0.7365580
1262.113, 1.043477
1262.595, 0.8468320
1263.077, 0.5997890
1263.559, 0.3763150
1264.041, 0.1979250
1264.523, 4.1740000E-02
1265.005, 0.1085860
1265.487, 0.3576720
1265.970, 1.044530
1266.452, 1.205667
1266.934, 0.8321030
1267.416, 0.5468850
1267.898, 0.3198730
1268.380, 0.4068360
1268.862, 0.8437460
1269.344, 1.115347
1269.827, 1.053989
1270.309, 0.9475670
1270.791, 0.9726400
1271.273, 0.9983840
1271.755, 0.8221220
1272.237, 0.5878160
1272.719, 0.7666220
1273.201, 0.6707530
1273.683, 1.089137
1274.166, 0.8472190
1274.648, 0.8246240
1275.130, 1.033581
1275.612, 0.9207480
1276.094, 0.3490430
1276.576, 4.7853000E-02
1277.058, 8.2944997E-02
1277.540, 0.3389380
1278.022, 0.6781170
1278.505, 0.9687720
1278.987, 1.061879
1279.469, 1.115825
1279.951, 1.374477
1280.433, 1.739105
1280.915, 1.793002
1281.397, 1.481723
1281.879, 1.158954
1282.362, 0.7951630
1282.844, 0.5980100
1283.326, 0.6036900
1283.808, 0.5516480
1284.290, 0.3332290
1284.772, 0.1062870
1285.254, 3.5490000E-03
1285.736, 0.0000000E+00
##END=



