##NAMES=Winchite
##RRUFFID=R061124
##IDEAL CHEMISTRY=[box]NaCa(Mg_4_Al)Si_8_O_22_(OH)_2_
##LOCALITY=Iratuyama, Ehime Prefecture, Japan
##OWNER=RRUFF
##SOURCE=Michael Scott
##DESCRIPTION=Dark green prismatic crystals frozen in a matrix of calcite and mica
##STATUS=The identification of this mineral is confirmed by single-crystal X-ray diffraction and chemical analysis.
##URL=rruff.info/R061124
##MEASURED CHEMISTRY=([box]_0.65_Na_0.31_K_0.04_)_Σ=1_Na_1.00_(Ca_0.97_Mn_0.03_)_Σ=1_[(Mg_3.36_Fe^2+^_0.64_)_Σ=4_(Al_0.55_Fe^3+^_0.35_)_Σ=1_](Si_7.65_Al_0.35_)_Σ=8_O_22_((OH)_1.87_F_0.13_)_Σ=2_
194.9111, 15.01489
195.3932, 10.07227
195.8753, 8.252441
196.3574, 8.569336
196.8396, 6.313477
197.3217, 5.920898
197.8038, 12.47119
198.2859, 6.867676
198.7680, 4.416748
199.2501, 11.86670
199.7323, 10.28271
200.2144, 3.302734
200.6965, 4.561035
201.1786, 27.10327
201.6607, 43.71216
202.1428, 46.56714
202.6250, 44.06201
203.1071, 47.57056
203.5892, 62.43286
204.0713, 83.96069
204.5534, 98.09717
205.0355, 99.59058
205.5177, 99.78320
205.9998, 95.82227
206.4819, 92.08789
206.9640, 93.93994
207.4461, 103.4934
207.9282, 117.4326
208.4104, 127.9011
208.8925, 135.1389
209.3746, 138.6277
209.8567, 132.2412
210.3388, 127.0391
210.8209, 133.7874
211.3030, 155.2812
211.7852, 184.6846
212.2673, 209.9150
212.7494, 229.5833
213.2315, 245.8005
213.7136, 255.6538
214.1957, 262.6594
214.6779, 270.5044
215.1600, 280.4714
215.6421, 290.6902
216.1242, 297.5781
216.6063, 297.0186
217.0884, 303.9172
217.5706, 322.6433
218.0527, 346.3010
218.5348, 373.4197
219.0169, 402.0642
219.4990, 426.1311
219.9811, 436.6636
220.4633, 425.8008
220.9454, 420.0728
221.4275, 424.2061
221.9096, 429.6443
222.3917, 430.7864
222.8738, 427.3662
223.3560, 423.2656
223.8381, 423.7175
224.3202, 431.7969
224.8023, 430.5356
225.2844, 413.4866
225.7665, 394.0676
226.2487, 378.1606
226.7308, 366.0618
227.2129, 355.5178
227.6950, 344.9895
228.1771, 334.2192
228.6592, 323.0864
229.1414, 312.2578
229.6235, 300.4570
230.1056, 287.2822
230.5877, 273.1619
231.0698, 259.3735
231.5519, 247.1392
232.0341, 235.9983
232.5162, 219.3232
232.9983, 185.7278
233.4804, 158.8364
233.9625, 148.0740
234.4446, 147.4333
234.9268, 145.9705
235.4089, 136.7148
235.8910, 121.2634
236.3731, 108.9614
236.8552, 101.1987
237.3373, 95.42505
237.8195, 94.94653
238.3016, 95.15918
238.7837, 88.80884
239.2658, 71.83765
239.7479, 49.59033
240.2300, 38.60400
240.7122, 47.33350
241.1943, 55.02588
241.6764, 59.45752
242.1585, 61.35742
242.6406, 60.93628
243.1227, 58.29834
243.6049, 54.70166
244.0870, 51.92212
244.5691, 47.88623
245.0512, 49.59839
245.5333, 64.41284
246.0154, 80.10645
246.4975, 86.65576
246.9797, 82.15283
247.4618, 73.27905
247.9439, 67.70288
248.4260, 65.19482
248.9081, 68.74243
249.3902, 81.75879
249.8724, 97.99561
250.3545, 116.5686
250.8366, 136.2388
251.3187, 153.4700
251.8008, 164.0396
252.2829, 167.4702
252.7651, 169.3896
253.2472, 168.9062
253.7293, 167.7107
254.2114, 165.9968
254.6935, 164.1272
255.1756, 162.8979
255.6578, 163.8113
256.1399, 166.4805
256.6220, 166.9001
257.1041, 168.5896
257.5862, 162.1699
258.0684, 137.2388
258.5505, 102.8618
259.0326, 76.54761
259.5147, 71.32446
259.9968, 78.63940
260.4789, 74.96509
260.9611, 55.70361
261.4432, 35.88013
261.9253, 21.20312
262.4074, 9.922852
262.8895, 3.1982001E-02
263.3716, 9.522705
263.8537, 17.67163
264.3358, 24.10034
264.8180, 29.31567
265.3001, 29.38843
265.7822, 14.11768
266.2643, 2.604492
266.7464, 4.587158
267.2285, 13.92114
267.7107, 34.85376
268.1928, 39.38354
268.6749, 28.83521
269.1570, 24.43286
269.6391, 37.48730
270.1212, 53.98535
270.6034, 56.74585
271.0855, 44.56567
271.5676, 32.65161
272.0497, 34.83936
272.5318, 44.68018
273.0139, 39.53418
273.4961, 8.802002
273.9782, 24.10791
274.4603, 33.50610
274.9424, 22.21826
275.4245, 6.870117
275.9066, 14.40259
276.3888, 34.04126
276.8709, 40.54541
277.3530, 32.18628
277.8351, 16.06250
278.3172, 5.891357
278.7993, 32.13037
279.2815, 50.82202
279.7636, 60.58057
280.2457, 62.79541
280.7278, 53.31494
281.2099, 34.38770
281.6920, 21.98413
282.1742, 27.87549
282.6563, 47.99023
283.1384, 60.62378
283.6205, 67.10229
284.1026, 65.81274
284.5847, 47.67236
285.0669, 21.50000
285.5490, 8.040771
286.0311, 18.33154
286.5132, 41.63940
286.9953, 50.14111
287.4774, 30.52686
287.9596, 18.97778
288.4417, 18.47070
288.9238, 29.18286
289.4059, 58.04004
289.8880, 105.9143
290.3701, 153.5020
290.8523, 172.1714
291.3344, 145.1919
291.8165, 129.4692
292.2986, 131.2136
292.7807, 138.4211
293.2628, 142.2703
293.7450, 142.9602
294.2271, 147.5471
294.7092, 163.7192
295.1913, 193.0447
295.6734, 214.4941
296.1555, 225.3101
296.6377, 231.4958
297.1198, 232.4573
297.6019, 230.3245
298.0840, 228.4775
298.5661, 229.0718
299.0482, 231.5557
299.5304, 233.3262
300.0125, 234.5391
300.4946, 234.7610
300.9767, 233.2600
301.4588, 231.1750
301.9409, 228.9021
302.4231, 226.5916
302.9052, 226.2300
303.3873, 233.3289
303.8694, 253.3704
304.3515, 263.9014
304.8336, 254.6763
305.3158, 240.4390
305.7979, 229.2542
306.2800, 222.2458
306.7621, 216.5271
307.2442, 207.7773
307.7263, 196.2590
308.2085, 192.4409
308.6906, 204.9519
309.1727, 215.2014
309.6548, 208.0415
310.1369, 189.3684
310.6190, 176.9204
311.1012, 183.5747
311.5833, 201.8528
312.0654, 215.9092
312.5475, 225.6990
313.0296, 231.0771
313.5117, 231.2268
313.9939, 226.7988
314.4760, 217.1587
314.9581, 196.5901
315.4402, 178.4492
315.9223, 178.8604
316.4044, 195.4128
316.8866, 206.8931
317.3687, 203.8909
317.8508, 192.4778
318.3329, 183.6316
318.8150, 177.7908
319.2971, 172.6355
319.7793, 165.7131
320.2614, 158.9756
320.7435, 156.4954
321.2256, 159.5283
321.7077, 164.4451
322.1898, 166.9561
322.6720, 166.6064
323.1541, 167.6125
323.6362, 173.9858
324.1183, 180.6335
324.6004, 178.5032
325.0826, 168.9580
325.5647, 166.7429
326.0468, 186.5095
326.5289, 227.2678
327.0110, 250.8982
327.4931, 247.2141
327.9753, 238.3586
328.4574, 227.4109
328.9395, 217.7827
329.4216, 213.6941
329.9037, 216.2632
330.3858, 221.1179
330.8680, 219.9329
331.3501, 211.0642
331.8322, 202.4358
332.3143, 186.2356
332.7964, 173.0093
333.2785, 174.7136
333.7606, 190.4072
334.2427, 205.4670
334.7249, 203.1699
335.2070, 181.8074
335.6891, 165.1670
336.1712, 155.3154
336.6533, 148.8564
337.1354, 143.5723
337.6176, 139.6594
338.0997, 138.7966
338.5818, 144.0049
339.0639, 151.0435
339.5460, 147.4290
340.0281, 129.8726
340.5103, 113.4197
340.9924, 103.3147
341.4745, 96.89893
341.9566, 93.00879
342.4387, 92.44873
342.9208, 88.67993
343.4030, 71.72485
343.8851, 44.98169
344.3672, 30.61768
344.8493, 38.29565
345.3314, 52.70947
345.8135, 57.84644
346.2957, 54.50195
346.7778, 48.74341
347.2599, 36.95776
347.7420, 26.26489
348.2241, 31.29956
348.7062, 53.89282
349.1884, 73.50732
349.6705, 71.62915
350.1526, 49.67676
350.6347, 37.54834
351.1168, 41.58984
351.5989, 48.77686
352.0811, 53.96118
352.5632, 57.37012
353.0453, 59.77417
353.5274, 61.38647
354.0095, 62.86206
354.4916, 65.90161
354.9738, 73.03125
355.4559, 78.37354
355.9380, 81.15234
356.4201, 82.60278
356.9022, 82.71069
357.3843, 82.04102
357.8665, 82.78101
358.3486, 87.13379
358.8307, 95.05005
359.3128, 106.9282
359.7949, 129.0237
360.2770, 149.0759
360.7592, 158.6436
361.2413, 163.7009
361.7234, 176.8530
362.2055, 206.9666
362.6876, 245.9651
363.1697, 271.6001
363.6519, 279.6184
364.1340, 285.3391
364.6161, 286.9629
365.0982, 291.6370
365.5803, 307.8040
366.0624, 337.4236
366.5446, 367.9382
367.0267, 388.8066
367.5088, 401.1418
367.9909, 411.7427
368.4730, 421.0491
368.9551, 429.7090
369.4373, 438.5073
369.9194, 447.2520
370.4015, 454.9504
370.8836, 461.4641
371.3657, 466.7046
371.8478, 472.2014
372.3300, 477.4519
372.8121, 476.8076
373.2942, 466.1846
373.7763, 447.8098
374.2584, 429.4231
374.7405, 407.1633
375.2227, 390.3433
375.7048, 383.6875
376.1869, 382.7849
376.6690, 382.5315
377.1511, 381.4009
377.6332, 379.3074
378.1154, 375.8809
378.5975, 370.0835
379.0796, 366.6245
379.5617, 369.3621
380.0438, 370.3203
380.5259, 363.0400
381.0081, 350.6992
381.4902, 341.4409
381.9723, 340.7278
382.4544, 346.6335
382.9365, 351.6289
383.4186, 355.9224
383.9008, 358.7578
384.3829, 358.9609
384.8650, 358.4258
385.3471, 358.8643
385.8292, 360.6782
386.3113, 362.9563
386.7935, 366.2625
387.2756, 370.1628
387.7577, 366.9851
388.2398, 349.1643
388.7219, 335.4414
389.2040, 344.8728
389.6862, 369.4626
390.1683, 385.2642
390.6504, 381.6240
391.1325, 367.4314
391.6146, 349.9370
392.0967, 329.4744
392.5789, 309.9170
393.0610, 292.7104
393.5431, 278.0144
394.0252, 266.4436
394.5073, 258.7300
394.9894, 253.2563
395.4716, 252.3362
395.9537, 250.8545
396.4358, 243.0940
396.9179, 228.2156
397.4000, 210.1948
397.8821, 192.4346
398.3643, 174.5017
398.8464, 163.7913
399.3285, 164.2549
399.8106, 165.0771
400.2927, 164.1089
400.7748, 160.6013
401.2570, 153.7227
401.7391, 143.4644
402.2212, 131.6279
402.7033, 119.3420
403.1854, 103.7944
403.6675, 98.14062
404.1497, 114.1953
404.6317, 133.2314
405.1139, 142.6602
405.5960, 142.5630
406.0781, 142.9397
406.5602, 153.0310
407.0423, 169.4255
407.5244, 180.4270
408.0066, 184.7380
408.4887, 186.8655
408.9708, 188.4272
409.4529, 189.8254
409.9350, 191.8677
410.4171, 194.8486
410.8993, 198.2056
411.3814, 201.0139
411.8635, 203.9299
412.3456, 209.9851
412.8277, 220.9155
413.3098, 230.5208
413.7920, 229.4351
414.2741, 212.7659
414.7562, 202.2874
415.2383, 207.1533
415.7204, 210.2939
416.2025, 195.4690
416.6847, 169.0845
417.1668, 152.2185
417.6489, 159.2490
418.1310, 182.2935
418.6131, 189.3438
419.0952, 168.5186
419.5774, 150.5801
420.0595, 141.2173
420.5416, 134.3469
421.0237, 124.7539
421.5058, 111.7249
421.9879, 99.31787
422.4701, 91.72754
422.9522, 88.51685
423.4343, 86.15991
423.9164, 88.16675
424.3985, 84.03491
424.8806, 59.05151
425.3628, 25.57788
425.8449, 5.398926
426.3270, 8.509033
426.8091, 18.89624
427.2912, 26.50146
427.7733, 31.27271
428.2555, 30.19360
428.7376, 20.37231
429.2197, 8.503418
429.7018, 4.219971
430.1839, 8.921387
430.6660, 14.33228
431.1482, 22.00220
431.6303, 29.00977
432.1124, 32.80347
432.5945, 34.15186
433.0766, 35.82812
433.5587, 39.57227
434.0409, 44.52734
434.5230, 48.60034
435.0051, 52.58179
435.4872, 54.02466
435.9693, 50.57935
436.4514, 46.97974
436.9336, 46.80884
437.4157, 50.54126
437.8978, 56.62012
438.3799, 68.04761
438.8620, 82.62915
439.3441, 78.59302
439.8263, 44.21606
440.3084, 16.05542
440.7905, 24.14355
441.2726, 47.17627
441.7547, 54.62378
442.2368, 34.85547
442.7190, 11.03223
443.2011, 0.6523440
443.6832, 3.018311
444.1653, 3.040283
444.6474, 1.891113
445.1295, 1.643555
445.6117, 5.542480
446.0938, 14.78003
446.5759, 18.61450
447.0580, 15.19800
447.5401, 8.164795
448.0222, 4.818359
448.5044, 19.57373
448.9865, 27.80054
449.4686, 25.33276
449.9507, 15.99854
450.4328, 8.175781
450.9149, 2.562744
451.3971, 3.130371
451.8792, 13.31909
452.3613, 20.02124
452.8434, 16.30396
453.3255, 4.430420
453.8076, 6.920898
454.2898, 13.43750
454.7719, 14.90576
455.2540, 8.653564
455.7361, 7.281006
456.2182, 19.36182
456.7003, 21.03003
457.1825, 16.42725
457.6646, 11.43237
458.1467, 5.379883
458.6288, 2.168213
459.1109, 11.54028
459.5930, 20.87891
460.0752, 6.259033
460.5573, 32.74072
461.0394, 64.87891
461.5215, 64.16235
462.0036, 34.21045
462.4857, 14.85864
462.9679, 9.121094
463.4500, 9.634277
463.9321, 19.54834
464.4142, 32.85864
464.8963, 45.78345
465.3784, 56.37329
465.8606, 60.50879
466.3427, 48.44922
466.8248, 19.08472
467.3069, 10.23950
467.7890, 38.33936
468.2711, 62.75220
468.7533, 62.28564
469.2354, 47.84253
469.7175, 35.52441
470.1996, 29.16968
470.6817, 27.17993
471.1638, 30.66455
471.6460, 37.73975
472.1281, 41.10376
472.6102, 38.73926
473.0923, 33.47729
473.5744, 26.48291
474.0565, 17.30054
474.5387, 16.92114
475.0208, 36.65137
475.5029, 53.86279
475.9850, 57.03955
476.4671, 49.56396
476.9492, 36.55859
477.4313, 20.23853
477.9135, 5.112549
478.3956, 0.3349610
478.8777, 10.58765
479.3598, 17.52173
479.8419, 18.77563
480.3240, 18.65308
480.8062, 19.03857
481.2883, 19.42944
481.7704, 18.17139
482.2525, 13.75928
482.7346, 8.464600
483.2167, 6.520752
483.6989, 7.823730
484.1810, 5.829468
484.6631, 3.487549
485.1452, 13.83594
485.6273, 16.05945
486.1094, 10.27991
486.5916, 5.262085
487.0737, 3.843628
487.5558, 2.750610
488.0379, 2.128784
488.5200, 9.063354
489.0021, 12.28674
489.4843, 8.665161
489.9664, 0.3974610
490.4485, 7.752930
490.9306, 19.59961
491.4127, 23.70557
491.8948, 15.84631
492.3770, 4.783203
492.8591, 7.654053
493.3412, 19.22437
493.8233, 24.90540
494.3054, 19.04602
494.7875, 8.346069
495.2697, 7.075928
495.7518, 15.90186
496.2339, 26.78040
496.7160, 37.22754
497.1981, 48.55933
497.6802, 64.93250
498.1624, 87.22217
498.6445, 100.4117
499.1266, 94.85034
499.6087, 82.46924
500.0908, 69.18262
500.5729, 58.05579
501.0551, 58.58240
501.5372, 77.25476
502.0193, 106.6000
502.5014, 126.7488
502.9835, 135.5365
503.4656, 137.9830
503.9478, 121.4950
504.4299, 109.9087
504.9120, 124.9508
505.3941, 159.6442
505.8762, 187.3682
506.3583, 188.2482
506.8405, 174.7828
507.3226, 174.7592
507.8047, 189.4436
508.2868, 204.8398
508.7689, 217.6309
509.2510, 227.9407
509.7332, 232.9054
510.2153, 231.9324
510.6974, 240.4342
511.1795, 276.3984
511.6616, 312.8407
512.1437, 322.2198
512.6259, 310.1595
513.1080, 300.3557
513.5901, 304.6998
514.0722, 318.1255
514.5543, 330.3881
515.0364, 339.2146
515.5186, 352.5415
516.0007, 380.3870
516.4828, 403.1938
516.9649, 403.8083
517.4470, 389.6085
517.9291, 383.5841
518.4113, 399.1287
518.8934, 424.4576
519.3755, 440.7559
519.8576, 448.0028
520.3397, 453.5768
520.8218, 458.0834
521.3040, 463.7141
521.7861, 475.2595
522.2682, 492.4769
522.7503, 504.4004
523.2324, 503.1965
523.7145, 501.9427
524.1967, 509.3712
524.6788, 523.3401
525.1609, 538.9219
525.6430, 554.0869
526.1251, 567.8992
526.6072, 578.0247
527.0894, 581.8342
527.5715, 590.8689
528.0536, 611.0718
528.5357, 630.7527
529.0178, 644.9766
529.4999, 655.6285
529.9821, 666.2285
530.4642, 677.7915
530.9463, 690.5125
531.4284, 706.1316
531.9105, 723.5028
532.3926, 736.7388
532.8748, 743.6587
533.3569, 750.0106
533.8390, 759.3624
534.3211, 772.1943
534.8032, 795.3788
535.2853, 844.9302
535.7675, 885.7826
536.2496, 900.4998
536.7317, 902.1042
537.2138, 907.9927
537.6959, 922.2249
538.1780, 935.5201
538.6602, 936.2224
539.1423, 924.6224
539.6244, 917.6953
540.1065, 918.3616
540.5886, 918.4089
541.0707, 910.4568
541.5529, 901.9678
542.0350, 903.6838
542.5171, 919.2284
542.9992, 931.0122
543.4813, 931.6157
543.9634, 922.4297
544.4456, 898.1531
544.9277, 860.4004
545.4098, 833.1001
545.8919, 836.5845
546.3740, 859.9150
546.8561, 861.1514
547.3383, 815.5642
547.8204, 782.5000
548.3025, 771.8381
548.7846, 767.3083
549.2667, 760.1680
549.7488, 749.8981
550.2310, 737.7415
550.7131, 723.1608
551.1952, 707.7373
551.6773, 696.8071
552.1594, 690.7393
552.6415, 682.9495
553.1237, 670.2847
553.6058, 658.4347
554.0879, 655.2744
554.5700, 661.2234
555.0521, 661.9766
555.5342, 653.3872
556.0164, 642.3762
556.4985, 631.0530
556.9806, 619.5688
557.4627, 608.6490
557.9448, 598.7430
558.4269, 589.4409
558.9091, 577.3782
559.3912, 561.1152
559.8733, 551.4358
560.3554, 553.4340
560.8375, 555.2607
561.3196, 554.6387
561.8018, 550.0646
562.2839, 538.0884
562.7660, 515.0427
563.2481, 493.8651
563.7302, 485.6007
564.2123, 485.8197
564.6945, 487.7681
565.1766, 490.2200
565.6587, 486.2336
566.1408, 468.6316
566.6229, 441.5548
567.1050, 427.6340
567.5872, 439.7112
568.0693, 449.1934
568.5514, 455.1826
569.0335, 458.2781
569.5156, 458.1514
569.9977, 455.0933
570.4799, 449.9452
570.9620, 442.3074
571.4441, 435.5823
571.9262, 442.2378
572.4083, 462.7146
572.8904, 462.8901
573.3726, 423.5363
573.8547, 376.5173
574.3368, 362.7385
574.8189, 382.8491
575.3010, 391.4294
575.7831, 375.4324
576.2653, 357.3400
576.7474, 348.1406
577.2295, 344.3760
577.7116, 340.5421
578.1937, 334.7378
578.6758, 327.2454
579.1580, 318.9568
579.6401, 309.8959
580.1222, 295.1268
580.6042, 269.0691
581.0864, 248.2565
581.5685, 243.8204
582.0506, 246.9843
582.5327, 249.0177
583.0148, 249.4335
583.4969, 246.3352
583.9791, 235.9146
584.4612, 223.3247
584.9433, 215.4087
585.4254, 211.5081
585.9075, 206.2040
586.3896, 196.3137
586.8718, 183.5370
587.3539, 171.9600
587.8360, 162.2253
588.3181, 152.1995
588.8002, 141.1971
589.2823, 130.4054
589.7645, 118.8982
590.2466, 108.1926
590.7287, 101.7236
591.2108, 101.8694
591.6929, 103.6165
592.1750, 103.3772
592.6572, 100.9465
593.1393, 95.22620
593.6214, 86.00269
594.1035, 75.22412
594.5856, 63.66833
595.0677, 52.00281
595.5499, 45.45398
596.0320, 50.36353
596.5141, 52.17566
596.9962, 48.22827
597.4783, 41.86450
597.9604, 35.40015
598.4426, 29.10535
598.9247, 21.90491
599.4068, 11.35974
599.8889, 1.548218
600.3710, 2.004028
600.8531, 12.10315
601.3353, 18.88599
601.8174, 19.12427
602.2995, 13.79297
602.7816, 1.073120
603.2637, 20.14856
603.7458, 28.57300
604.2280, 16.08337
604.7101, 0.6835940
605.1922, 16.14648
605.6743, 30.09644
606.1564, 34.67969
606.6385, 29.49658
607.1207, 22.24792
607.6028, 19.13147
608.0849, 20.04114
608.5670, 27.59314
609.0491, 45.05237
609.5313, 50.01489
610.0134, 25.93152
610.4955, 6.941650
610.9776, 16.39380
611.4597, 0.2747800
611.9418, 9.357788
612.4240, 4.930176
612.9061, 4.690918
613.3882, 21.33472
613.8703, 37.57764
614.3524, 38.54761
614.8345, 19.58105
615.3167, 5.684204
615.7988, 20.58459
616.2809, 25.20007
616.7630, 27.31970
617.2451, 26.67871
617.7272, 24.11621
618.2094, 19.54675
618.6915, 13.41541
619.1736, 5.267822
619.6557, 6.424683
620.1378, 12.87598
620.6199, 7.494141
621.1021, 0.9366460
621.5842, 6.260498
622.0663, 8.176758
622.5484, 6.884399
623.0305, 2.417969
623.5126, 2.301147
623.9948, 1.047974
624.4769, 7.685303
624.9590, 9.634155
625.4411, 0.1982420
625.9232, 8.929932
626.4053, 12.94116
626.8875, 12.47559
627.3696, 7.028687
627.8517, 5.459351
628.3338, 16.04419
628.8159, 18.98340
629.2980, 19.52600
629.7802, 25.22314
630.2623, 34.14917
630.7444, 35.54504
631.2265, 22.72070
631.7086, 6.454346
632.1907, 11.17175
632.6729, 43.01978
633.1550, 65.56665
633.6371, 73.41553
634.1192, 76.38733
634.6013, 80.08228
635.0834, 82.60437
635.5656, 79.86731
636.0477, 69.27563
636.5298, 58.85303
637.0119, 49.05615
637.4940, 43.50024
637.9761, 49.13147
638.4583, 64.04895
638.9404, 78.04663
639.4225, 85.10144
639.9046, 88.21460
640.3867, 95.27490
640.8688, 108.7615
641.3510, 114.9443
641.8331, 105.5066
642.3152, 98.23193
642.7973, 106.0809
643.2794, 122.2633
643.7615, 133.1248
644.2437, 133.6188
644.7258, 135.3213
645.2079, 146.4790
645.6900, 160.4124
646.1721, 168.3615
646.6542, 170.6947
647.1364, 172.5176
647.6185, 176.3860
648.1006, 184.4561
648.5827, 203.8987
649.0648, 238.4390
649.5469, 266.3597
650.0291, 286.1964
650.5112, 298.4767
650.9933, 297.9003
651.4754, 291.3301
651.9575, 291.7264
652.4396, 301.1637
652.9218, 317.3417
653.4039, 345.7639
653.8860, 376.1018
654.3681, 395.5125
654.8502, 405.4952
655.3323, 416.7068
655.8145, 435.1206
656.2966, 459.2844
656.7787, 487.0055
657.2608, 519.0676
657.7429, 550.1047
658.2250, 580.2552
658.7072, 609.2976
659.1893, 631.5411
659.6714, 653.5403
660.1535, 689.4441
660.6356, 745.9636
661.1177, 800.7393
661.5999, 849.1960
662.0820, 893.7876
662.5641, 929.9258
663.0462, 962.4734
663.5283, 1006.684
664.0104, 1070.964
664.4926, 1145.815
664.9747, 1217.388
665.4568, 1285.526
665.9389, 1350.963
666.4210, 1414.113
666.9031, 1473.585
667.3853, 1530.232
667.8674, 1582.149
668.3495, 1624.339
668.8316, 1652.839
669.3137, 1686.531
669.7958, 1743.781
670.2780, 1792.115
670.7601, 1802.222
671.2422, 1785.414
671.7243, 1772.312
672.2064, 1776.521
672.6885, 1777.914
673.1707, 1746.849
673.6528, 1686.296
674.1349, 1624.716
674.6170, 1564.145
675.0991, 1498.679
675.5812, 1423.731
676.0634, 1344.608
676.5455, 1272.317
677.0276, 1210.393
677.5097, 1143.589
677.9918, 1067.206
678.4739, 992.4380
678.9561, 923.3782
679.4382, 858.5881
679.9203, 794.6677
680.4024, 731.2896
680.8845, 676.1370
681.3666, 642.1138
681.8488, 619.5067
682.3309, 583.5365
682.8130, 533.9547
683.2951, 484.5492
683.7772, 438.9941
684.2593, 401.0304
684.7415, 377.3376
685.2236, 371.8671
685.7057, 358.9230
686.1878, 328.0454
686.6699, 301.1228
687.1520, 286.0345
687.6342, 275.5587
688.1163, 261.4670
688.5984, 243.2003
689.0805, 227.9441
689.5626, 222.9854
690.0447, 220.6556
690.5269, 211.1567
691.0090, 196.7017
691.4911, 184.7871
691.9732, 177.4551
692.4553, 169.4951
692.9374, 154.1678
693.4196, 132.8832
693.9017, 124.5874
694.3838, 137.5049
694.8659, 145.1656
695.3480, 140.6943
695.8301, 130.0050
696.3123, 114.0425
696.7944, 94.87756
697.2765, 81.44727
697.7586, 78.99524
698.2407, 79.63330
698.7228, 80.07983
699.2050, 80.64844
699.6871, 82.86584
700.1692, 86.07410
700.6513, 86.94507
701.1334, 83.37488
701.6155, 75.23706
702.0977, 58.26379
702.5798, 30.91003
703.0619, 19.91711
703.5440, 34.26318
704.0261, 53.44141
704.5082, 65.90784
704.9904, 71.39111
705.4725, 68.61072
705.9546, 49.62915
706.4367, 37.15356
706.9188, 37.40955
707.4009, 42.26074
707.8831, 48.46533
708.3652, 54.46716
708.8473, 58.31995
709.3294, 59.17737
709.8115, 58.61157
710.2936, 58.45203
710.7758, 58.13025
711.2579, 55.50439
711.7400, 50.61304
712.2221, 48.07642
712.7042, 50.87549
713.1863, 54.73328
713.6685, 51.29126
714.1506, 37.25439
714.6327, 30.41846
715.1148, 37.71875
715.5969, 43.73743
716.0790, 45.40552
716.5612, 42.98718
717.0433, 34.20935
717.5254, 19.26917
718.0075, 10.08411
718.4896, 16.89893
718.9717, 27.15784
719.4539, 30.08972
719.9360, 28.10852
720.4181, 26.26550
720.9002, 26.01221
721.3823, 26.84595
721.8644, 28.48242
722.3465, 30.73145
722.8286, 33.90381
723.3107, 39.62939
723.7928, 35.09192
724.2750, 9.966309
724.7571, 13.88269
725.2392, 15.61475
725.7213, 2.294312
726.2034, 17.76941
726.6855, 34.65002
727.1677, 43.74890
727.6498, 37.73096
728.1319, 27.97107
728.6140, 23.04065
729.0961, 22.45398
729.5782, 22.07861
730.0604, 19.93335
730.5425, 17.78247
731.0246, 18.41541
731.5067, 20.44299
731.9888, 20.49500
732.4709, 18.24951
732.9531, 12.88086
733.4352, 3.250977
733.9173, 7.002930
734.3994, 10.07874
734.8815, 3.245728
735.3636, 1.564819
735.8458, 12.11450
736.3279, 17.59692
736.8100, 9.533447
737.2921, 5.102051
737.7742, 21.53711
738.2563, 39.55920
738.7385, 48.05383
739.2206, 33.98206
739.7027, 20.06750
740.1848, 3.809448
740.6669, 25.18933
741.1490, 42.30920
741.6312, 48.71899
742.1133, 10.33289
742.5954, 30.73169
743.0775, 27.67737
743.5596, 23.56055
744.0417, 51.81738
744.5239, 19.03552
745.0060, 45.68811
745.4881, 48.44592
745.9702, 62.11206
746.4523, 49.39551
746.9344, 50.22986
747.4166, 49.73938
747.8987, 50.75562
748.3808, 56.94299
748.8629, 63.02258
749.3450, 70.83667
749.8271, 75.31201
750.3093, 63.51587
750.7914, 27.89429
751.2735, 0.4985350
751.7556, 0.8964840
752.2377, 16.31482
752.7198, 33.21936
753.2020, 47.96130
753.6841, 52.58899
754.1662, 44.54138
754.6483, 34.11804
755.1304, 34.56873
755.6125, 44.17847
756.0947, 50.34778
756.5768, 53.32031
757.0589, 50.23755
757.5410, 35.76868
758.0231, 22.95752
758.5052, 27.92676
758.9874, 50.51953
759.4695, 65.29810
759.9516, 73.72717
760.4337, 73.11060
760.9158, 51.57544
761.3979, 30.56396
761.8801, 30.91028
762.3622, 45.94763
762.8443, 52.24219
763.3264, 19.82678
763.8085, 35.32214
764.2906, 43.61487
764.7728, 45.09082
765.2549, 19.64136
765.7370, 29.69592
766.2191, 25.22278
766.7012, 20.05054
767.1833, 34.75134
767.6655, 14.29272
768.1476, 29.83484
768.6297, 30.24023
769.1118, 36.63879
769.5939, 28.72058
770.0760, 26.74304
770.5582, 27.38489
771.0403, 29.80200
771.5224, 34.21094
772.0045, 37.48621
772.4866, 36.49097
772.9688, 38.71216
773.4509, 54.03955
773.9330, 66.99744
774.4151, 59.17419
774.8972, 35.51770
775.3793, 19.81775
775.8615, 24.03271
776.3436, 35.14331
776.8257, 46.91492
777.3078, 57.24109
777.7899, 63.35242
778.2720, 63.07117
778.7542, 54.24390
779.2363, 36.06531
779.7184, 18.25720
780.2005, 19.30762
780.6826, 38.30688
781.1647, 48.65039
781.6469, 48.23486
782.1290, 47.60205
782.6111, 51.19678
783.0932, 55.30432
783.5753, 53.72974
784.0574, 44.66296
784.5396, 43.97742
785.0217, 61.46399
785.5038, 74.02783
785.9859, 76.54675
786.4680, 73.29272
786.9501, 64.34961
787.4323, 52.49854
787.9144, 46.76831
788.3965, 55.09692
788.8786, 61.00830
789.3607, 46.41223
789.8428, 28.44409
790.3250, 32.78711
790.8071, 54.61816
791.2892, 71.06653
791.7713, 71.10217
792.2534, 61.30627
792.7355, 45.96497
793.2177, 27.71631
793.6998, 23.67737
794.1819, 34.69507
794.6640, 44.86865
795.1461, 48.79468
795.6282, 44.69604
796.1104, 27.94336
796.5925, 1.241211
797.0746, 12.60425
797.5567, 9.574219
798.0388, 22.48157
798.5209, 11.33044
799.0031, 4.149292
799.4852, 13.10608
799.9673, 16.18616
800.4494, 16.48010
800.9315, 14.84180
801.4136, 9.824951
801.8958, 3.749146
802.3779, 16.87366
802.8600, 23.46167
803.3421, 23.50244
803.8242, 14.95044
804.3063, 2.871460
804.7885, 13.65149
805.2706, 8.113281
805.7527, 41.93188
806.2348, 45.69214
806.7169, 26.03479
807.1990, 14.24023
807.6812, 19.01343
808.1633, 29.52185
808.6454, 36.27747
809.1275, 39.43237
809.6096, 38.93616
810.0917, 33.33655
810.5739, 32.45239
811.0560, 40.72534
811.5381, 47.48218
812.0202, 43.18347
812.5023, 32.93335
812.9844, 31.56824
813.4666, 44.80688
813.9487, 53.33008
814.4308, 55.95142
814.9129, 54.59607
815.3950, 48.41284
815.8771, 39.65686
816.3593, 29.17883
816.8414, 17.79163
817.3235, 10.98669
817.8056, 13.80481
818.2877, 20.20850
818.7698, 25.23083
819.2520, 29.29053
819.7341, 30.76367
820.2162, 30.62073
820.6983, 34.86975
821.1804, 48.46948
821.6625, 60.00757
822.1447, 45.64282
822.6268, 13.77625
823.1089, 3.660889
823.5910, 17.24854
824.0731, 24.60559
824.5552, 11.17236
825.0374, 7.828247
825.5195, 10.69666
826.0016, 2.766724
826.4837, 20.77625
826.9658, 50.71179
827.4479, 65.51672
827.9301, 48.98303
828.4122, 27.05481
828.8943, 23.91223
829.3764, 35.22119
829.8585, 38.92651
830.3406, 28.76819
830.8228, 20.33191
831.3049, 12.71094
831.7870, 10.07581
832.2691, 20.01306
832.7512, 34.69360
833.2333, 41.68909
833.7155, 38.11292
834.1976, 28.76868
834.6797, 6.022217
835.1618, 11.86633
835.6439, 1.368286
836.1260, 23.30872
836.6082, 36.56177
837.0903, 34.35742
837.5724, 28.06470
838.0545, 25.27405
838.5366, 24.56250
839.0187, 23.19226
839.5009, 21.57153
839.9830, 21.63391
840.4651, 23.56226
840.9472, 26.63599
841.4293, 30.64343
841.9114, 34.80579
842.3936, 38.05994
842.8757, 40.48413
843.3578, 39.68994
843.8399, 33.20728
844.3220, 31.41321
844.8041, 41.61328
845.2863, 51.21863
845.7684, 45.95874
846.2505, 27.99414
846.7326, 17.45264
847.2147, 19.83582
847.6968, 21.00891
848.1790, 17.55286
848.6611, 15.42920
849.1432, 21.46033
849.6253, 29.71619
850.1074, 28.91260
850.5895, 16.30176
851.0717, 4.969604
851.5538, 0.7380370
852.0359, 2.033203
852.5180, 2.378784
853.0001, 9.455322
853.4822, 15.61914
853.9644, 20.13391
854.4465, 23.25989
854.9286, 25.29016
855.4107, 28.06677
855.8928, 30.92053
856.3749, 33.19238
856.8571, 32.75171
857.3392, 30.15454
857.8213, 29.40991
858.3034, 32.39636
858.7855, 35.60962
859.2676, 35.06323
859.7498, 31.22131
860.2319, 21.41809
860.7140, 4.718262
861.1961, 6.506470
861.6782, 8.756348
862.1603, 7.643433
862.6425, 7.115479
863.1245, 4.979614
863.6066, 0.7423100
864.0887, 6.632690
864.5709, 12.02429
865.0530, 14.17432
865.5351, 16.07068
866.0172, 18.32532
866.4993, 21.35718
866.9814, 28.37878
867.4636, 40.52576
867.9457, 40.65845
868.4278, 15.16077
868.9099, 6.544922
869.3920, 19.23816
869.8741, 22.54089
870.3563, 10.43970
870.8384, 10.82275
871.3205, 24.21033
871.8026, 22.64709
872.2847, 19.19617
872.7668, 16.69055
873.2490, 18.74121
873.7311, 38.46582
874.2132, 61.59888
874.6953, 55.27332
875.1774, 16.66736
875.6595, 12.65344
876.1417, 4.793213
876.6238, 38.48425
877.1059, 46.23779
877.5880, 37.89294
878.0701, 36.88025
878.5522, 45.14087
879.0344, 52.15015
879.5165, 52.25732
879.9986, 48.25867
880.4807, 43.33386
880.9628, 37.57446
881.4449, 30.97522
881.9271, 23.18359
882.4092, 24.10645
882.8913, 37.29053
883.3734, 51.84424
883.8555, 57.43433
884.3376, 56.31860
884.8198, 60.78430
885.3019, 75.34509
885.7840, 75.12915
886.2661, 50.25354
886.7482, 28.12793
887.2303, 22.40942
887.7125, 27.01233
888.1946, 32.22827
888.6767, 37.38708
889.1588, 47.49109
889.6409, 71.29297
890.1230, 88.65527
890.6052, 96.73755
891.0873, 96.58472
891.5694, 82.23694
892.0515, 60.80908
892.5336, 52.33057
893.0157, 65.12659
893.4979, 75.75134
893.9800, 77.46265
894.4621, 75.16760
894.9442, 68.44397
895.4263, 61.55347
895.9084, 59.65063
896.3906, 63.28589
896.8727, 69.83813
897.3548, 80.27576
897.8369, 90.05078
898.3190, 96.24561
898.8011, 99.88257
899.2833, 101.4407
899.7654, 101.6270
900.2475, 102.9841
900.7296, 106.3164
901.2117, 105.5438
901.6938, 88.28772
902.1760, 67.96069
902.6581, 68.79504
903.1402, 83.51367
903.6223, 92.68494
904.1044, 92.86060
904.5865, 90.58350
905.0687, 90.20557
905.5508, 90.25366
906.0329, 89.09338
906.5150, 86.26514
906.9971, 77.97998
907.4792, 64.46362
907.9614, 53.40881
908.4435, 47.34106
908.9256, 46.56152
909.4077, 52.33533
909.8898, 63.62244
910.3719, 77.93030
910.8541, 97.08862
911.3362, 98.41992
911.8183, 74.17529
912.3004, 51.23816
912.7825, 43.42175
913.2646, 47.08679
913.7468, 57.60291
914.2289, 76.21191
914.7110, 88.53809
915.1931, 97.28857
915.6752, 92.41858
916.1573, 60.54285
916.6395, 29.77478
917.1216, 24.56787
917.6037, 37.22302
918.0858, 41.31604
918.5679, 31.44824
919.0500, 24.41418
919.5322, 24.40613
920.0143, 23.24792
920.4964, 12.80383
920.9785, 3.823486
921.4606, 11.83679
921.9427, 33.97217
922.4249, 44.46289
922.9070, 28.29114
923.3891, 16.39111
923.8712, 16.12732
924.3533, 21.65454
924.8354, 35.77734
925.3176, 50.25037
925.7997, 49.40161
926.2818, 31.11731
926.7639, 19.43164
927.2460, 32.44165
927.7281, 45.04663
928.2103, 42.25940
928.6924, 34.01709
929.1745, 27.71326
929.6566, 25.26587
930.1387, 29.28589
930.6208, 41.38611
931.1030, 50.83228
931.5851, 48.17432
932.0672, 40.94153
932.5493, 35.82495
933.0314, 31.97498
933.5135, 25.01501
933.9957, 18.45093
934.4778, 18.25244
934.9599, 29.48291
935.4420, 43.83472
935.9241, 52.40613
936.4063, 58.00122
936.8884, 66.34863
937.3705, 76.01294
937.8526, 81.96204
938.3347, 82.75281
938.8168, 79.76282
939.2990, 72.98462
939.7811, 65.52222
940.2632, 65.31274
940.7453, 68.80591
941.2274, 63.07739
941.7095, 48.13770
942.1917, 31.90430
942.6738, 17.80469
943.1559, 10.14209
943.6380, 15.01343
944.1201, 29.74561
944.6022, 48.10132
945.0844, 68.99609
945.5665, 80.79175
946.0486, 81.50977
946.5307, 79.83911
947.0128, 80.81592
947.4949, 81.49585
947.9771, 74.48193
948.4592, 61.07275
948.9413, 65.15454
949.4234, 88.29150
949.9055, 111.2258
950.3876, 131.2722
950.8698, 139.5361
951.3519, 125.5293
951.8340, 102.5991
952.3161, 108.9753
952.7982, 152.3572
953.2803, 166.1270
953.7625, 139.7822
954.2446, 124.6514
954.7267, 140.0129
955.2088, 162.8396
955.6909, 171.8464
956.1730, 170.0637
956.6552, 170.5471
957.1373, 171.9231
957.6194, 180.7646
958.1015, 202.0864
958.5836, 220.6980
959.0657, 230.9685
959.5479, 235.5344
960.0300, 236.5679
960.5121, 234.3518
960.9942, 232.7336
961.4763, 230.8298
961.9584, 231.8745
962.4406, 238.0100
962.9227, 243.0271
963.4048, 243.7844
963.8869, 243.4409
964.3690, 245.9226
964.8511, 250.5857
965.3333, 258.3391
965.8154, 279.4368
966.2975, 288.3860
966.7796, 267.4451
967.2617, 249.9468
967.7438, 259.8098
968.2260, 282.9570
968.7081, 295.0181
969.1902, 294.2563
969.6723, 289.5999
970.1544, 278.2395
970.6365, 267.6362
971.1187, 259.7314
971.6008, 239.3889
972.0829, 249.9426
972.5650, 253.3015
973.0471, 249.8545
973.5292, 219.1958
974.0114, 223.6907
974.4935, 214.1084
974.9756, 203.9563
975.4577, 213.4216
975.9398, 206.8171
976.4219, 205.7759
976.9041, 200.8228
977.3862, 190.0127
977.8683, 169.3044
978.3504, 155.8115
978.8325, 159.6182
979.3146, 164.0811
979.7968, 164.3362
980.2789, 159.7043
980.7610, 148.1218
981.2431, 131.2202
981.7252, 113.9233
982.2073, 93.36768
982.6895, 83.63086
983.1716, 98.71167
983.6537, 113.8357
984.1358, 114.6978
984.6179, 108.3735
985.1000, 103.1306
985.5822, 99.56909
986.0643, 94.88794
986.5464, 88.30591
987.0285, 80.57739
987.5106, 69.87012
987.9927, 60.15430
988.4749, 55.00000
988.9570, 51.68018
989.4391, 49.04932
989.9212, 45.27759
990.4033, 31.57886
990.8854, 6.510254
991.3676, 33.28564
991.8497, 28.81445
992.3318, 12.57910
992.8139, 7.216553
993.2960, 26.33569
993.7781, 40.51147
994.2603, 49.13135
994.7424, 54.26074
995.2245, 59.45947
995.7066, 56.67065
996.1887, 33.21729
996.6708, 8.999268
997.1530, 1.795166
997.6351, 1.664795
998.1172, 6.192627
998.5993, 19.96533
999.0814, 31.10718
999.5635, 37.40527
1000.046, 38.40503
1000.528, 26.59155
1001.010, 16.28174
1001.492, 22.45898
1001.974, 37.37183
1002.456, 46.37061
1002.938, 47.19653
1003.420, 49.06494
1003.903, 62.25854
1004.385, 69.05835
1004.867, 52.10327
1005.349, 33.18140
1005.831, 33.30469
1006.313, 44.31201
1006.795, 48.27661
1007.277, 42.35425
1007.759, 40.65527
1008.242, 54.52197
1008.724, 67.17822
1009.206, 72.68140
1009.688, 71.73633
1010.170, 61.42529
1010.652, 46.53052
1011.134, 32.76416
1011.616, 21.87988
1012.099, 20.15942
1012.581, 43.16772
1013.063, 58.91602
1013.545, 42.08203
1014.027, 21.97607
1014.509, 25.42871
1014.991, 42.68408
1015.473, 54.50635
1015.955, 57.09448
1016.438, 54.10425
1016.920, 42.25586
1017.402, 31.19312
1017.884, 28.20093
1018.366, 24.51538
1018.848, 7.931641
1019.330, 12.09058
1019.812, 15.93579
1020.294, 0.7893070
1020.777, 7.512939
1021.259, 7.728760
1021.741, 19.87231
1022.223, 17.65820
1022.705, 10.56177
1023.187, 3.261230
1023.669, 2.981689
1024.151, 5.538818
1024.634, 4.219238
1025.116, 8.466553
1025.598, 32.74219
1026.080, 46.06299
1026.562, 27.33472
1027.044, 7.288086
1027.526, 8.208252
1028.008, 20.68384
1028.490, 28.82031
1028.973, 30.93408
1029.455, 32.98486
1029.937, 37.96240
1030.419, 40.26758
1030.901, 33.00879
1031.383, 28.86011
1031.865, 43.95337
1032.347, 62.16553
1032.830, 54.72144
1033.312, 20.40137
1033.794, 2.226807
1034.276, 14.34009
1034.758, 28.61841
1035.240, 50.59155
1035.722, 63.50244
1036.204, 49.82373
1036.687, 27.84692
1037.169, 25.18018
1037.651, 41.68188
1038.133, 45.97583
1038.615, 27.30542
1039.097, 12.30298
1039.579, 0.5207520
1040.061, 6.156250
1040.543, 1.805176
1041.026, 14.45654
1041.508, 20.69336
1041.990, 21.35596
1042.472, 26.69604
1042.954, 46.21338
1043.436, 48.86914
1043.918, 16.74121
1044.400, 1.679199
1044.882, 19.59863
1045.365, 53.13525
1045.847, 71.73096
1046.329, 76.52881
1046.811, 73.85596
1047.293, 60.69434
1047.775, 49.27148
1048.257, 38.87158
1048.739, 32.86035
1049.222, 30.68799
1049.704, 34.24585
1050.186, 48.12817
1050.668, 66.23584
1051.150, 65.11963
1051.632, 40.83838
1052.114, 21.47974
1052.596, 6.808594
1053.078, 1.515381
1053.561, 7.236328
1054.043, 24.04102
1054.525, 55.83521
1055.007, 90.16565
1055.489, 92.45447
1055.971, 62.75867
1056.453, 42.29724
1056.935, 31.57129
1057.417, 26.31555
1057.900, 25.54236
1058.382, 29.16895
1058.864, 37.90869
1059.346, 46.78455
1059.828, 45.33594
1060.310, 35.83105
1060.792, 32.61731
1061.274, 34.38818
1061.757, 29.29932
1062.239, 16.14197
1062.721, 9.877930
1063.203, 19.17297
1063.685, 32.05359
1064.167, 31.91736
1064.649, 23.87219
1065.131, 19.45142
1065.614, 18.02991
1066.096, 19.51550
1066.578, 22.45984
1067.060, 19.12109
1067.542, 6.534302
1068.024, 1.565552
1068.506, 14.41418
1068.988, 35.55237
1069.470, 31.08459
1069.953, 15.90027
1070.435, 13.61499
1070.917, 22.61499
1071.399, 33.34729
1071.881, 42.07031
1072.363, 47.37134
1072.845, 45.48254
1073.327, 44.23730
1073.809, 56.57593
1074.292, 67.82300
1074.774, 48.90601
1075.256, 21.85120
1075.738, 39.54138
1076.220, 102.0487
1076.702, 137.1083
1077.184, 93.77588
1077.666, 57.53589
1078.148, 82.63110
1078.631, 116.2339
1079.113, 121.4388
1079.595, 113.6423
1080.077, 114.6469
1080.559, 123.6808
1081.041, 125.4656
1081.523, 106.7073
1082.005, 106.6173
1082.488, 153.9280
1082.970, 197.1006
1083.452, 209.3531
1083.934, 212.1302
1084.416, 225.3914
1084.898, 245.7124
1085.380, 260.1113
1085.862, 266.5178
1086.344, 274.1155
1086.827, 291.1301
1087.309, 295.8545
1087.791, 279.4188
1088.273, 256.1862
1088.755, 233.3795
1089.237, 210.7157
1089.719, 187.4907
1090.201, 163.7817
1090.683, 138.8593
1091.166, 109.8521
1091.648, 93.76843
1092.130, 96.79333
1092.612, 95.14246
1093.094, 76.00989
1093.576, 52.67395
1094.058, 40.88770
1094.540, 38.69324
1095.023, 39.97742
1095.505, 44.62659
1095.987, 39.60034
1096.469, 24.37659
1096.951, 15.95508
1097.433, 19.79663
1097.915, 24.57227
1098.397, 21.29407
1098.880, 14.61108
1099.362, 11.37488
1099.844, 12.44019
1100.326, 23.06067
1100.808, 38.70740
1101.290, 42.01538
1101.772, 32.27563
1102.254, 23.74048
1102.736, 23.78101
1103.219, 29.16382
1103.701, 45.03979
1104.183, 58.19727
1104.665, 47.30566
1105.147, 24.90234
1105.629, 6.321777
1106.111, 4.635010
1106.593, 3.146118
1107.075, 12.66687
1107.558, 24.78809
1108.040, 17.58630
1108.522, 12.63135
1109.004, 26.70947
1109.486, 42.46924
1109.968, 44.52283
1110.450, 38.88574
1110.932, 36.79553
1111.415, 39.10022
1111.897, 38.61768
1112.379, 28.84644
1112.861, 24.34778
1113.343, 32.04980
1113.825, 39.31677
1114.307, 42.08569
1114.789, 41.19421
1115.271, 34.22974
1115.754, 25.33606
1116.236, 31.54504
1116.718, 63.35864
1117.200, 68.98865
1117.682, 36.35132
1118.164, 15.29834
1118.646, 19.34424
1119.128, 28.45032
1119.610, 30.08496
1120.093, 28.82837
1120.575, 33.05078
1121.057, 41.43005
1121.539, 43.15662
1122.021, 38.44495
1122.503, 27.93738
1122.985, 12.79932
1123.467, 11.43701
1123.950, 31.15198
1124.432, 54.09937
1124.914, 64.92920
1125.396, 64.38855
1125.878, 48.27991
1126.360, 24.33972
1126.842, 4.710938
1127.324, 7.318481
1127.807, 3.803955
1128.289, 14.58728
1128.771, 37.47266
1129.253, 61.55554
1129.735, 75.78210
1130.217, 63.09692
1130.699, 45.96631
1131.181, 42.02722
1131.663, 45.89929
1132.146, 53.57397
1132.628, 61.99634
1133.110, 66.19617
1133.592, 65.04114
1134.074, 61.38513
1134.556, 55.30835
1135.038, 48.00952
1135.520, 40.41724
1136.002, 31.06140
1136.485, 13.51331
1136.967, 2.359375
1137.449, 1.760254
1137.931, 12.73218
1138.413, 21.97864
1138.895, 27.12585
1139.377, 22.04370
1139.859, 0.1042480
1140.342, 11.29797
1140.824, 2.165771
1141.306, 11.66394
1141.788, 18.83557
1142.270, 21.90906
1142.752, 27.10962
1143.234, 33.08313
1143.716, 23.83069
1144.198, 2.369019
1144.681, 1.544067
1145.163, 23.08984
1145.645, 36.09460
1146.127, 28.13074
1146.609, 21.31653
1147.091, 40.92456
1147.573, 64.73901
1148.055, 56.83167
1148.537, 34.77515
1149.020, 23.22864
1149.502, 21.10010
1149.984, 22.15991
1150.466, 24.86926
1150.948, 30.73254
1151.430, 42.87988
1151.912, 47.17200
1152.394, 27.14954
1152.877, 8.293335
1153.359, 6.830933
1153.841, 11.18982
1154.323, 9.474976
1154.805, 5.585205
1155.287, 12.01147
1155.769, 31.57080
1156.251, 36.40222
1156.734, 12.41980
1157.216, 5.1879998E-02
1157.698, 9.461670
1158.180, 15.52197
1158.662, 7.083130
1159.144, 6.672241
1159.626, 18.82812
1160.108, 26.39868
1160.590, 16.68689
1161.073, 10.25891
1161.555, 21.93506
1162.037, 18.75928
1162.519, 22.79419
1163.001, 37.33130
1163.483, 40.36682
1163.965, 19.57947
1164.447, 2.017090
1164.929, 3.135498
1165.412, 20.35376
1165.894, 28.71082
1166.376, 31.15222
1166.858, 31.23877
1167.340, 30.25146
1167.822, 30.66150
1168.304, 32.20691
1168.786, 29.68750
1169.269, 17.92236
1169.751, 10.59229
1170.233, 17.09277
1170.715, 26.53674
1171.197, 40.98840
1171.679, 48.49097
1172.161, 28.74976
1172.643, 3.688599
1173.125, 11.75867
1173.608, 8.283569
1174.090, 24.26660
1174.572, 37.06836
1175.054, 43.48035
1175.536, 40.95520
1176.018, 38.03723
1176.500, 36.29932
1176.982, 38.74048
1177.464, 50.31653
1177.947, 63.45667
1178.429, 54.35950
1178.911, 28.06384
1179.393, 20.12976
1179.875, 28.43250
1180.357, 39.41541
1180.839, 50.67346
1181.321, 54.80200
1181.804, 47.76392
1182.286, 38.13452
1182.768, 32.97632
1183.250, 29.32446
1183.732, 21.79224
1184.214, 16.26904
1184.696, 20.22986
1185.178, 29.41431
1185.661, 41.18567
1186.143, 54.23035
1186.625, 60.50317
1187.107, 55.69141
1187.589, 52.40002
1188.071, 45.90186
1188.553, 45.23364
1189.035, 60.76794
1189.517, 71.56628
1190.000, 57.75073
1190.482, 35.78967
1190.964, 29.81628
1191.446, 37.99390
1191.928, 49.78662
1192.410, 66.22766
1192.892, 65.68970
1193.374, 45.82190
1193.856, 35.11780
1194.339, 40.45068
1194.821, 48.35828
1195.303, 46.57654
1195.785, 43.90662
1196.267, 46.46008
1196.749, 48.90088
1197.231, 59.29993
1197.713, 71.38831
1198.196, 72.46252
1198.678, 64.14087
1199.160, 47.74060
1199.642, 30.21191
1200.124, 23.70251
1200.606, 41.35815
1201.088, 53.27942
1201.570, 21.84033
1202.052, 36.56836
1202.535, 44.53149
1203.017, 43.80481
1203.499, 14.17566
1203.981, 22.96277
1204.463, 17.82483
1204.945, 12.04810
1205.427, 25.87231
1205.909, 3.534912
1206.391, 16.46826
1206.874, 15.39221
1207.356, 21.03857
1207.838, 12.43054
1208.320, 47.15710
1208.802, 33.62280
1209.284, 7.520752
1209.766, 4.075684
1210.248, 13.47925
1210.731, 23.84387
1211.213, 32.24902
1211.695, 30.16577
1212.177, 22.59814
1212.659, 29.39954
1213.141, 52.86035
1213.623, 60.68787
1214.105, 23.58765
1214.588, 0.9133300
1215.070, 21.20569
1215.552, 40.14282
1216.034, 24.77014
1216.516, 4.962402
1216.998, 5.656982
1217.480, 18.93579
1217.962, 29.96387
1218.444, 38.60168
1218.927, 38.25317
1219.409, 27.28992
1219.891, 25.39380
1220.373, 35.40564
1220.855, 45.16199
1221.337, 50.52075
1221.819, 45.31519
1222.301, 23.68213
1222.783, 0.9913330
1223.266, 0.2685550
1223.748, 8.532715
1224.230, 14.69897
1224.712, 17.98596
1225.194, 13.90356
1225.676, 6.607544
1226.158, 4.773193
1226.640, 9.916626
1227.122, 17.38184
1227.605, 28.88428
1228.087, 36.87842
1228.569, 40.71399
1229.051, 39.66650
1229.533, 29.34265
1230.015, 20.71509
1230.497, 23.36230
1230.979, 28.75427
1231.462, 20.73889
1231.944, 2.847290
1232.426, 0.1481930
1232.908, 0.0000000E+00
##END=



