##NAMES=Winchite
##RRUFFID=R061124
##IDEAL CHEMISTRY=[box]NaCa(Mg_4_Al)Si_8_O_22_(OH)_2_
##LOCALITY=Iratuyama, Ehime Prefecture, Japan
##OWNER=RRUFF
##SOURCE=Michael Scott
##DESCRIPTION=Dark green prismatic crystals frozen in a matrix of calcite and mica
##STATUS=The identification of this mineral is confirmed by single-crystal X-ray diffraction and chemical analysis.
##URL=rruff.info/R061124
##MEASURED CHEMISTRY=([box]_0.65_Na_0.31_K_0.04_)_Σ=1_Na_1.00_(Ca_0.97_Mn_0.03_)_Σ=1_[(Mg_3.36_Fe^2+^_0.64_)_Σ=4_(Al_0.55_Fe^3+^_0.35_)_Σ=1_](Si_7.65_Al_0.35_)_Σ=8_O_22_((OH)_1.87_F_0.13_)_Σ=2_
145.3605, 0.0000000E+00
145.8426, 4.9072001E-02
146.3247, 7.137207
146.8068, 13.26550
147.2890, 8.474243
147.7711, 0.5937500
148.2532, 4.334595
148.7353, 0.2719730
149.2174, 6.677002
149.6995, 11.94312
150.1817, 10.29724
150.6638, 14.00830
151.1459, 24.00464
151.6280, 39.70715
152.1101, 58.14685
152.5922, 82.82751
153.0744, 107.6967
153.5565, 129.5176
154.0386, 145.2579
154.5207, 160.2375
155.0028, 174.9628
155.4849, 189.4374
155.9671, 204.4696
156.4492, 222.8542
156.9313, 240.7614
157.4134, 254.5391
157.8955, 254.3347
158.3777, 257.9188
158.8598, 274.3851
159.3419, 307.0626
159.8240, 335.5027
160.3061, 350.6250
160.7882, 358.1368
161.2704, 366.1409
161.7525, 376.2253
162.2346, 388.4321
162.7167, 402.5348
163.1988, 418.4469
163.6809, 437.1714
164.1631, 460.6161
164.6452, 487.4967
165.1273, 515.0237
165.6094, 540.6434
166.0915, 566.6624
166.5736, 595.2026
167.0558, 628.4678
167.5379, 661.6289
168.0200, 687.6384
168.5021, 709.2256
168.9842, 736.8943
169.4663, 781.6145
169.9485, 834.4270
170.4306, 885.2678
170.9127, 932.1348
171.3948, 974.4830
171.8769, 1011.688
172.3590, 1043.825
172.8412, 1069.535
173.3233, 1089.817
173.8054, 1102.609
174.2875, 1104.147
174.7696, 1091.421
175.2517, 1067.208
175.7339, 1035.157
176.2160, 995.0936
176.6981, 946.0936
177.1802, 881.8484
177.6623, 806.5013
178.1444, 732.6003
178.6266, 666.6194
179.1087, 604.8335
179.5908, 538.7712
180.0729, 466.5931
180.5550, 398.8167
181.0371, 351.1108
181.5193, 320.3716
182.0014, 294.0771
182.4835, 265.7705
182.9656, 236.6863
183.4477, 208.9091
183.9298, 182.3688
184.4120, 158.2087
184.8941, 138.6934
185.3762, 123.4885
185.8583, 110.4957
186.3404, 98.57983
186.8225, 87.77380
187.3047, 77.66162
187.7868, 67.95569
188.2689, 59.32275
188.7510, 52.67041
189.2331, 47.97241
189.7152, 46.25781
190.1974, 50.08960
190.6795, 58.73901
191.1616, 65.74316
191.6437, 70.14575
192.1258, 71.79712
192.6080, 67.91406
193.0901, 57.29236
193.5722, 49.04395
194.0543, 54.39575
194.5364, 73.17188
195.0185, 88.10095
195.5007, 93.17297
195.9828, 90.59595
196.4649, 92.40759
196.9470, 99.48193
197.4291, 108.0776
197.9112, 112.3790
198.3934, 111.5195
198.8755, 116.2726
199.3576, 132.5768
199.8397, 159.4189
200.3218, 178.3893
200.8039, 187.3885
201.2861, 192.9429
201.7682, 205.4883
202.2503, 227.2079
202.7324, 243.9736
203.2145, 244.8384
203.6966, 229.3250
204.1788, 232.5411
204.6609, 260.3374
205.1430, 298.4611
205.6251, 322.1240
206.1072, 327.4353
206.5893, 331.9067
207.0715, 343.7969
207.5536, 365.1151
208.0357, 380.5977
208.5178, 387.1284
208.9999, 390.4100
209.4820, 404.5588
209.9642, 433.5912
210.4463, 462.1654
210.9284, 480.8906
211.4105, 485.2205
211.8926, 501.9954
212.3747, 536.7534
212.8569, 581.5408
213.3390, 615.1996
213.8211, 633.5826
214.3032, 648.8479
214.7853, 667.6211
215.2674, 690.8423
215.7496, 715.7223
216.2317, 742.6718
216.7138, 771.0261
217.1959, 798.9720
217.6780, 826.9830
218.1601, 852.9503
218.6423, 875.6794
219.1244, 896.1528
219.6065, 912.7866
220.0886, 924.3953
220.5707, 931.7474
221.0528, 939.8615
221.5350, 948.5840
222.0171, 957.6744
222.4992, 968.6948
222.9813, 987.1179
223.4634, 995.5782
223.9455, 988.9094
224.4277, 968.3838
224.9098, 952.3972
225.3919, 944.4316
225.8740, 936.3828
226.3561, 920.9883
226.8382, 893.4280
227.3204, 868.5477
227.8025, 851.9727
228.2846, 843.6621
228.7667, 820.6389
229.2488, 772.1477
229.7310, 721.1841
230.2131, 690.2009
230.6952, 692.9790
231.1773, 689.2737
231.6594, 668.3081
232.1415, 628.8666
232.6237, 602.7388
233.1058, 601.0574
233.5879, 602.1233
234.0700, 582.2361
234.5521, 529.5737
235.0342, 477.7218
235.5164, 432.3916
235.9985, 393.3213
236.4806, 364.0864
236.9627, 348.7101
237.4448, 339.9834
237.9269, 329.7952
238.4091, 316.9399
238.8912, 304.8369
239.3733, 294.4711
239.8554, 286.1174
240.3375, 277.2466
240.8196, 266.3234
241.3018, 256.0966
241.7839, 250.6501
242.2660, 254.5356
242.7481, 255.0248
243.2302, 247.1771
243.7123, 228.4827
244.1945, 215.8904
244.6766, 208.5359
245.1587, 207.9557
245.6408, 217.8085
246.1229, 246.1786
246.6050, 270.5743
247.0872, 282.9594
247.5693, 279.6198
248.0514, 283.0680
248.5335, 297.2893
249.0156, 315.5654
249.4977, 327.6489
249.9799, 331.4401
250.4620, 332.8114
250.9441, 332.5438
251.4262, 329.3872
251.9083, 330.9467
252.3904, 340.5439
252.8726, 352.4913
253.3547, 357.1846
253.8368, 351.8458
254.3189, 344.6263
254.8010, 337.7916
255.2831, 331.3232
255.7653, 325.7697
256.2474, 323.1960
256.7295, 320.0137
257.2116, 309.2141
257.6937, 286.3337
258.1758, 265.3701
258.6580, 252.5679
259.1401, 250.6373
259.6222, 243.4778
260.1043, 231.0007
260.5864, 213.3744
261.0685, 189.4869
261.5507, 155.0486
262.0328, 124.5214
262.5149, 103.8114
262.9970, 95.04285
263.4791, 84.84534
263.9612, 72.68640
264.4434, 59.47791
264.9255, 46.40356
265.4076, 33.04810
265.8897, 20.97241
266.3718, 10.18799
266.8539, 0.3649900
267.3361, 4.455688
267.8182, 1.132324
268.3003, 3.783936
268.7824, 2.672363
269.2645, 25.29224
269.7466, 44.12878
270.2288, 50.93481
270.7109, 44.24048
271.1930, 37.81921
271.6751, 30.72803
272.1572, 25.05334
272.6393, 24.99194
273.1215, 31.84131
273.6036, 38.79712
274.0857, 44.09363
274.5678, 47.87451
275.0499, 46.43970
275.5320, 37.89832
276.0142, 27.21326
276.4963, 22.72827
276.9784, 25.46631
277.4605, 28.14624
277.9426, 28.57349
278.4247, 26.76318
278.9069, 21.11230
279.3890, 10.56787
279.8711, 1.508301
280.3532, 10.43652
280.8354, 16.08423
281.3175, 20.23633
281.7996, 24.65723
282.2817, 28.92139
282.7638, 25.67627
283.2459, 12.94897
283.7281, 1.459717
284.2102, 6.812744
284.6923, 3.086426
285.1744, 2.902100
285.6565, 9.654297
286.1386, 16.73315
286.6208, 21.43213
287.1029, 23.69482
287.5850, 23.83301
288.0671, 19.12451
288.5492, 10.46704
289.0313, 8.636963
289.5135, 23.93921
289.9956, 49.66528
290.4777, 59.27539
290.9598, 51.16162
291.4419, 39.19263
291.9240, 38.30176
292.4062, 47.21606
292.8883, 58.60425
293.3704, 71.96387
293.8525, 85.46948
294.3346, 94.41113
294.8167, 98.47217
295.2989, 101.2654
295.7810, 104.0518
296.2631, 107.9836
296.7452, 117.3296
297.2273, 137.8589
297.7094, 162.4507
298.1916, 180.7659
298.6737, 192.6313
299.1558, 197.5925
299.6379, 189.5701
300.1200, 174.1948
300.6021, 164.3469
301.0843, 169.3230
301.5664, 178.3699
302.0485, 176.2395
302.5306, 163.7310
303.0127, 151.3311
303.4948, 149.4380
303.9770, 152.4736
304.4591, 150.9014
304.9412, 136.5876
305.4233, 121.6333
305.9054, 121.1465
306.3875, 132.7153
306.8697, 140.9458
307.3518, 130.5793
307.8339, 112.6980
308.3160, 100.9189
308.7981, 101.7180
309.2802, 106.0825
309.7624, 109.9841
310.2445, 112.6572
310.7266, 110.7393
311.2087, 96.12109
311.6908, 79.08691
312.1729, 69.31641
312.6551, 71.63354
313.1372, 77.35889
313.6193, 85.80078
314.1014, 94.63940
314.5835, 96.74268
315.0656, 79.02466
315.5478, 59.71948
316.0299, 52.44067
316.5120, 66.75488
316.9941, 79.61987
317.4762, 78.86060
317.9583, 70.33740
318.4405, 66.76587
318.9226, 73.64209
319.4047, 85.45264
319.8868, 100.7529
320.3689, 122.8132
320.8510, 139.8921
321.3332, 146.2822
321.8153, 146.2761
322.2974, 147.5562
322.7795, 155.2595
323.2616, 161.2622
323.7437, 160.0071
324.2259, 144.2378
324.7080, 141.7131
325.1901, 167.1353
325.6722, 204.8879
326.1543, 232.7012
326.6364, 241.4495
327.1186, 246.2837
327.6007, 250.6304
328.0828, 255.3706
328.5649, 259.9561
329.0470, 260.5388
329.5291, 263.0586
330.0113, 274.5947
330.4934, 309.0562
330.9755, 331.6077
331.4576, 331.7644
331.9397, 308.3889
332.4218, 293.2695
332.9040, 292.3232
333.3861, 294.6824
333.8682, 290.3115
334.3503, 276.0151
334.8324, 260.4026
335.3145, 242.8181
335.7967, 224.4138
336.2788, 216.3259
336.7609, 224.4214
337.2430, 232.2302
337.7251, 225.4548
338.2072, 200.1331
338.6894, 177.0442
339.1715, 158.0857
339.6536, 143.2405
340.1357, 133.3274
340.6178, 128.8806
341.0999, 126.7175
341.5821, 125.8098
342.0642, 126.2341
342.5463, 122.4922
343.0284, 112.6895
343.5105, 100.6353
343.9926, 94.57837
344.4748, 94.55322
344.9569, 95.86523
345.4390, 95.82935
345.9211, 94.86621
346.4032, 94.88379
346.8853, 95.96948
347.3675, 98.09375
347.8496, 101.7729
348.3317, 106.6709
348.8138, 111.2073
349.2959, 115.2236
349.7780, 118.1572
350.2602, 118.3140
350.7423, 115.3738
351.2244, 112.4294
351.7065, 109.8357
352.1887, 109.4097
352.6708, 115.3240
353.1529, 138.2683
353.6350, 163.2974
354.1171, 170.2515
354.5992, 160.2866
355.0814, 154.0500
355.5635, 167.8225
356.0456, 193.5852
356.5277, 221.3284
357.0098, 253.6003
357.4919, 281.0347
357.9741, 292.5393
358.4562, 291.8145
358.9383, 297.4192
359.4204, 326.4924
359.9025, 361.4102
360.3846, 386.9841
360.8668, 389.3557
361.3489, 398.1582
361.8310, 430.0574
362.3131, 477.3176
362.7952, 520.0361
363.2773, 551.8403
363.7595, 577.5273
364.2416, 597.3240
364.7237, 604.7915
365.2058, 621.6497
365.6879, 659.4775
366.1700, 707.2705
366.6522, 746.9531
367.1343, 770.5232
367.6164, 791.7527
368.0985, 815.8171
368.5806, 845.3018
369.0627, 866.3730
369.5449, 874.1514
370.0270, 876.2766
370.5091, 881.0979
370.9912, 892.2249
371.4733, 900.4097
371.9554, 904.7075
372.4376, 905.0850
372.9197, 897.9214
373.4018, 880.0886
373.8839, 859.3892
374.3660, 841.2014
374.8481, 825.4998
375.3303, 814.6921
375.8124, 814.8877
376.2945, 818.0466
376.7766, 790.5669
377.2587, 725.1135
377.7408, 660.3176
378.2230, 620.1638
378.7051, 604.7156
379.1872, 596.4272
379.6693, 596.4548
380.1514, 598.3220
380.6335, 587.8926
381.1157, 565.7646
381.5978, 547.9966
382.0799, 548.7329
382.5620, 560.4524
383.0441, 557.0535
383.5262, 535.7217
384.0084, 513.5034
384.4905, 509.6492
384.9726, 519.9880
385.4547, 531.8491
385.9368, 542.1602
386.4189, 550.4233
386.9011, 557.5120
387.3832, 563.2603
387.8653, 564.6567
388.3474, 553.9192
388.8295, 534.7769
389.3116, 515.4773
389.7938, 496.1641
390.2759, 481.9993
390.7580, 483.5879
391.2401, 497.1875
391.7222, 501.4907
392.2043, 475.0125
392.6865, 438.8892
393.1686, 409.0942
393.6507, 392.3599
394.1328, 378.0903
394.6149, 366.0332
395.0970, 353.7156
395.5792, 336.6516
396.0613, 305.1721
396.5434, 275.8787
397.0255, 256.7668
397.5076, 253.1785
397.9897, 243.8125
398.4719, 212.5508
398.9540, 180.1328
399.4361, 167.7908
399.9182, 196.8691
400.4003, 217.2708
400.8824, 218.4661
401.3646, 201.3267
401.8467, 187.3374
402.3288, 175.8269
402.8109, 169.5566
403.2930, 170.9910
403.7751, 181.7141
404.2573, 195.2776
404.7394, 212.7188
405.2215, 231.6641
405.7036, 244.6147
406.1857, 250.6226
406.6678, 257.3840
407.1500, 268.7244
407.6321, 284.8569
408.1142, 298.3472
408.5963, 309.1726
409.0784, 316.3997
409.5605, 314.1897
410.0427, 304.6152
410.5248, 303.2488
411.0069, 319.8005
411.4890, 347.2214
411.9711, 373.7063
412.4532, 399.2620
412.9354, 417.3306
413.4175, 414.5100
413.8996, 401.4021
414.3817, 397.3450
414.8638, 414.0208
415.3459, 432.5112
415.8281, 432.2981
416.3102, 418.4744
416.7923, 408.3794
417.2744, 424.8665
417.7565, 441.1228
418.2386, 432.7146
418.7208, 387.6797
419.2029, 344.7109
419.6850, 323.0154
420.1671, 312.8638
420.6492, 299.2583
421.1313, 273.3445
421.6135, 247.8879
422.0956, 227.1287
422.5777, 211.8857
423.0598, 196.4976
423.5420, 174.5420
424.0241, 155.7930
424.5062, 147.9565
424.9883, 166.7144
425.4704, 174.5581
425.9525, 163.4380
426.4347, 138.4624
426.9168, 122.9880
427.3989, 123.3501
427.8810, 122.7712
428.3631, 110.3005
428.8452, 79.89795
429.3274, 64.50269
429.8095, 69.09497
430.2916, 82.67554
430.7737, 87.90601
431.2558, 84.17432
431.7379, 78.21655
432.2201, 69.53662
432.7022, 60.34595
433.1843, 64.17261
433.6664, 82.15015
434.1485, 101.3628
434.6306, 112.5078
435.1128, 115.3799
435.5949, 107.4417
436.0770, 82.38696
436.5591, 54.80737
437.0412, 48.18433
437.5233, 58.24878
438.0055, 67.28760
438.4876, 64.31836
438.9697, 54.76050
439.4518, 42.63232
439.9339, 26.81348
440.4160, 16.08203
440.8982, 21.91943
441.3803, 35.03687
441.8624, 41.84082
442.3445, 29.43848
442.8266, 17.06030
443.3087, 16.30444
443.7909, 26.98608
444.2730, 28.90747
444.7551, 3.019287
445.2372, 24.18359
445.7193, 35.47803
446.2014, 9.774170
446.6836, 8.042480
447.1657, 17.42188
447.6478, 18.02295
448.1299, 7.007324
448.6120, 29.41211
449.0941, 56.92651
449.5763, 59.23096
450.0584, 30.48779
450.5405, 14.65845
451.0226, 14.87500
451.5047, 22.74902
451.9868, 29.80908
452.4690, 36.32520
452.9511, 39.41846
453.4332, 36.24951
453.9153, 30.22681
454.3974, 34.90894
454.8795, 50.76196
455.3617, 64.51147
455.8438, 65.25781
456.3259, 56.27515
456.8080, 47.38306
457.2901, 40.29785
457.7722, 32.49512
458.2544, 19.06812
458.7365, 2.466309
459.2186, 10.60425
459.7007, 14.02905
460.1828, 14.57788
460.6649, 19.65820
461.1471, 29.29321
461.6292, 35.57202
462.1113, 32.76904
462.5934, 25.34204
463.0755, 17.09424
463.5576, 1.126221
464.0398, 5.924072
464.5219, 8.298584
465.0040, 35.97217
465.4861, 54.27515
465.9682, 50.78247
466.4503, 45.14648
466.9325, 44.93213
467.4146, 52.96631
467.8967, 56.81836
468.3788, 53.77148
468.8609, 48.64624
469.3430, 46.66479
469.8252, 48.47241
470.3073, 51.80933
470.7894, 56.44043
471.2715, 62.26416
471.7536, 69.61670
472.2357, 79.26025
472.7179, 86.94775
473.2000, 87.65649
473.6821, 82.46924
474.1642, 84.46924
474.6463, 96.86377
475.1284, 109.1650
475.6106, 102.9182
476.0927, 82.77222
476.5748, 68.25537
477.0569, 74.38818
477.5390, 87.14209
478.0211, 85.05444
478.5033, 69.57397
478.9854, 57.58936
479.4675, 63.68066
479.9496, 77.86401
480.4317, 89.84766
480.9138, 95.52295
481.3960, 101.9529
481.8781, 118.3796
482.3602, 137.4265
482.8423, 144.1833
483.3244, 120.4539
483.8065, 97.03369
484.2887, 85.56055
484.7708, 88.67456
485.2529, 90.64453
485.7350, 88.56299
486.2171, 86.88867
486.6992, 89.73926
487.1814, 102.3669
487.6635, 107.8093
488.1456, 99.67358
488.6277, 85.25317
489.1098, 88.08813
489.5919, 113.2390
490.0741, 136.2556
490.5562, 144.0679
491.0383, 137.7478
491.5204, 137.4346
492.0026, 144.4045
492.4847, 150.9377
492.9668, 142.8508
493.4489, 125.8853
493.9310, 123.4744
494.4131, 151.3652
494.8953, 184.3589
495.3774, 183.9514
495.8595, 157.3674
496.3416, 135.2971
496.8237, 135.7573
497.3058, 148.2507
497.7880, 166.5271
498.2701, 191.4858
498.7522, 210.8818
499.2343, 212.3970
499.7164, 207.4302
500.1985, 208.7261
500.6807, 218.6348
501.1628, 235.9802
501.6449, 266.6973
502.1270, 307.5596
502.6091, 337.4470
503.0912, 350.2297
503.5734, 355.9944
504.0555, 358.6951
504.5376, 352.5303
505.0197, 340.9631
505.5018, 378.8062
505.9839, 405.9065
506.4661, 420.8384
506.9482, 393.5911
507.4303, 418.3960
507.9124, 424.0681
508.3945, 429.8628
508.8766, 464.7627
509.3588, 445.4812
509.8409, 459.9932
510.3230, 489.7820
510.8051, 508.6729
511.2872, 517.6321
511.7693, 486.5281
512.2515, 507.3396
512.7336, 506.2209
513.2157, 503.3789
513.6978, 529.6177
514.1799, 502.7371
514.6620, 529.6323
515.1442, 535.7327
515.6263, 552.0432
516.1084, 548.1460
516.5905, 551.7966
517.0726, 576.9963
517.5547, 590.5669
518.0369, 585.8188
518.5190, 605.1875
519.0011, 581.5076
519.4832, 595.6067
519.9653, 626.0042
520.4474, 622.3406
520.9296, 642.0928
521.4117, 652.6387
521.8938, 622.2087
522.3759, 662.9397
522.8580, 663.4185
523.3401, 681.9729
523.8223, 691.1887
524.3044, 692.3574
524.7865, 696.3857
525.2686, 703.7332
525.7507, 714.1643
526.2328, 731.2117
526.7150, 751.4146
527.1971, 764.6558
527.6792, 757.6108
528.1613, 752.0317
528.6434, 775.2468
529.1255, 820.5537
529.6077, 861.5981
530.0898, 877.9387
530.5719, 889.7817
531.0540, 911.1179
531.5361, 945.0862
532.0182, 982.5205
532.5004, 1029.066
532.9825, 1074.495
533.4646, 1107.170
533.9467, 1117.336
534.4288, 1126.353
534.9109, 1132.161
535.3931, 1138.188
535.8752, 1160.877
536.3573, 1210.753
536.8394, 1253.042
537.3215, 1268.535
537.8036, 1256.290
538.2858, 1255.227
538.7679, 1267.692
539.2500, 1281.932
539.7321, 1279.850
540.2142, 1266.679
540.6964, 1270.328
541.1785, 1306.099
541.6606, 1345.926
542.1427, 1348.630
542.6248, 1322.770
543.1069, 1296.198
543.5891, 1289.203
544.0712, 1283.713
544.5533, 1261.581
545.0354, 1221.667
545.5175, 1189.674
545.9996, 1181.030
546.4818, 1179.006
546.9639, 1171.303
547.4460, 1153.440
547.9281, 1133.491
548.4102, 1111.718
548.8923, 1088.403
549.3745, 1063.305
549.8566, 1033.303
550.3387, 1006.705
550.8208, 984.9897
551.3029, 968.2754
551.7850, 961.6033
552.2672, 968.7158
552.7493, 971.7681
553.2314, 953.0012
553.7135, 915.6614
554.1956, 881.3425
554.6777, 853.0999
555.1599, 828.1973
555.6420, 805.0833
556.1241, 780.6716
556.6062, 757.9819
557.0883, 738.9319
557.5704, 725.1958
558.0526, 712.8350
558.5347, 703.2664
559.0168, 696.9409
559.4989, 700.5122
559.9810, 702.8657
560.4631, 689.9575
560.9453, 655.6052
561.4274, 627.9834
561.9095, 617.2136
562.3916, 613.0027
562.8737, 606.2312
563.3558, 593.0725
563.8380, 584.3972
564.3201, 582.8259
564.8022, 586.0234
565.2843, 584.6960
565.7664, 579.0435
566.2485, 567.4731
566.7307, 543.9907
567.2128, 512.9399
567.6949, 498.7896
568.1770, 502.2961
568.6591, 504.5125
569.1412, 481.0483
569.6234, 446.2224
570.1055, 426.4131
570.5876, 430.6143
571.0697, 442.1145
571.5518, 453.9636
572.0339, 463.6924
572.5161, 466.8088
572.9982, 457.3748
573.4803, 445.3025
573.9624, 431.4680
574.4445, 416.4678
574.9266, 409.3450
575.4088, 422.1189
575.8909, 431.6077
576.3730, 425.0393
576.8551, 394.4119
577.3372, 378.8931
577.8193, 384.3215
578.3015, 395.9692
578.7836, 395.6516
579.2657, 382.8574
579.7478, 372.7974
580.2299, 370.0911
580.7120, 369.6431
581.1942, 359.5063
581.6763, 341.7227
582.1584, 327.4524
582.6405, 326.1438
583.1226, 329.8813
583.6047, 328.3235
584.0869, 321.4675
584.5690, 318.8489
585.0511, 335.9932
585.5332, 353.6438
586.0153, 355.0452
586.4974, 327.2588
586.9796, 302.0752
587.4617, 284.7720
587.9438, 273.3813
588.4259, 265.1611
588.9080, 263.5618
589.3901, 259.3425
589.8723, 249.9631
590.3544, 236.6548
590.8365, 226.1111
591.3186, 219.0173
591.8007, 210.9556
592.2828, 200.2651
592.7650, 186.7227
593.2471, 166.2043
593.7292, 137.6101
594.2113, 113.2759
594.6934, 105.9702
595.1755, 110.4192
595.6577, 118.9578
596.1398, 134.4080
596.6219, 143.2476
597.1040, 132.7026
597.5862, 109.5845
598.0683, 86.08765
598.5504, 61.30200
599.0325, 41.89673
599.5146, 31.10596
599.9968, 28.71387
600.4789, 29.88770
600.9610, 42.50146
601.4431, 48.64697
601.9252, 36.29028
602.4073, 0.1992190
602.8895, 19.46240
603.3716, 19.23999
603.8537, 11.26245
604.3358, 7.491211
604.8179, 7.639160
605.3000, 9.367188
605.7822, 12.94238
606.2643, 16.40405
606.7464, 17.40796
607.2285, 16.21021
607.7106, 13.54297
608.1927, 6.414307
608.6749, 0.6127930
609.1570, 2.843994
609.6391, 11.88232
610.1212, 16.68091
610.6033, 6.885498
611.0854, 3.060059
611.5676, 4.751221
612.0497, 5.911133
612.5318, 15.28198
613.0139, 52.32666
613.4960, 26.38696
613.9781, 11.16846
614.4603, 6.089111
614.9424, 41.46069
615.4245, 24.65332
615.9066, 28.79541
616.3887, 33.82446
616.8708, 9.751953
617.3530, 39.37671
617.8351, 15.81812
618.3172, 13.52319
618.7993, 1.183838
619.2814, 4.403809
619.7635, 2.961914
620.2457, 8.708496
620.7278, 18.14868
621.2099, 12.43579
621.6920, 14.48389
622.1741, 33.59131
622.6563, 28.87573
623.1384, 17.77661
623.6205, 16.46216
624.1026, 35.70972
624.5847, 45.51807
625.0668, 39.10840
625.5490, 26.06665
626.0311, 25.38745
626.5132, 38.15845
626.9953, 55.53906
627.4774, 78.32617
627.9595, 101.5669
628.4417, 110.0732
628.9238, 104.8713
629.4059, 97.12500
629.8880, 91.56226
630.3701, 88.80273
630.8522, 89.91016
631.3344, 95.00635
631.8165, 102.4158
632.2986, 114.7334
632.7807, 127.0510
633.2628, 134.8840
633.7449, 134.8638
634.2271, 134.5957
634.7092, 133.3367
635.1913, 132.9329
635.6734, 135.9470
636.1555, 142.6304
636.6376, 152.4270
637.1198, 167.1460
637.6019, 183.7478
638.0840, 190.9893
638.5661, 188.6067
639.0482, 192.1335
639.5303, 213.3984
640.0125, 245.5894
640.4946, 278.4551
640.9767, 311.0969
641.4588, 332.9717
641.9409, 325.9678
642.4230, 310.2468
642.9052, 305.1780
643.3873, 316.2964
643.8694, 329.9163
644.3515, 335.2825
644.8336, 344.1113
645.3157, 370.9482
645.7979, 441.5928
646.2800, 486.2227
646.7621, 487.4353
647.2442, 466.2285
647.7263, 468.2964
648.2084, 495.6938
648.6906, 535.2102
649.1727, 588.8872
649.6548, 647.4978
650.1369, 678.7568
650.6190, 685.5205
651.1011, 695.0740
651.5833, 726.2708
652.0654, 769.3728
652.5475, 816.4270
653.0296, 867.0056
653.5117, 912.0989
653.9938, 941.0090
654.4760, 966.5652
654.9581, 997.7942
655.4402, 1032.054
655.9223, 1080.059
656.4044, 1149.551
656.8865, 1227.519
657.3687, 1297.671
657.8508, 1358.196
658.3329, 1416.445
658.8150, 1470.051
659.2971, 1526.279
659.7792, 1604.918
660.2614, 1704.867
660.7435, 1804.818
661.2256, 1895.393
661.7077, 1982.480
662.1898, 2070.064
662.6719, 2159.435
663.1541, 2258.984
663.6362, 2389.104
664.1183, 2519.812
664.6004, 2624.593
665.0825, 2694.350
665.5646, 2780.139
666.0468, 2911.624
666.5289, 3047.035
667.0110, 3159.153
667.4931, 3240.486
667.9752, 3316.383
668.4573, 3387.927
668.9395, 3455.656
669.4216, 3521.823
669.9037, 3584.628
670.3858, 3634.274
670.8679, 3668.221
671.3500, 3686.930
671.8322, 3681.716
672.3143, 3655.472
672.7964, 3614.998
673.2785, 3578.437
673.7606, 3521.536
674.2427, 3427.115
674.7249, 3299.765
675.2070, 3157.984
675.6891, 3000.699
676.1712, 2842.196
676.6533, 2686.648
677.1354, 2533.974
677.6176, 2389.415
678.0997, 2256.130
678.5818, 2124.990
679.0639, 1986.605
679.5460, 1843.784
680.0281, 1713.438
680.5103, 1597.903
680.9924, 1491.292
681.4745, 1389.343
681.9566, 1292.591
682.4387, 1204.539
682.9208, 1127.318
683.4030, 1054.616
683.8851, 985.1499
684.3672, 917.2070
684.8493, 847.9077
685.3314, 763.5137
685.8135, 692.5076
686.2957, 643.3152
686.7778, 611.3538
687.2599, 576.8215
687.7420, 537.8511
688.2241, 501.8779
688.7062, 471.4397
689.1884, 446.3804
689.6705, 430.3613
690.1526, 423.2158
690.6347, 412.8040
691.1168, 386.0959
691.5989, 352.5876
692.0811, 323.8601
692.5632, 300.8657
693.0453, 285.1248
693.5274, 281.3320
694.0095, 282.7083
694.4916, 284.4089
694.9738, 293.1765
695.4559, 287.7192
695.9380, 260.2542
696.4201, 224.1577
696.9022, 192.5095
697.3843, 163.8958
697.8665, 149.1680
698.3486, 155.1501
698.8307, 167.4434
699.3128, 154.7173
699.7949, 122.2646
700.2770, 96.60278
700.7592, 91.06738
701.2413, 72.20190
701.7234, 95.74219
702.2055, 108.5923
702.6876, 111.3250
703.1697, 73.62817
703.6519, 88.14722
704.1340, 81.74512
704.6161, 74.49072
705.0982, 96.37061
705.5803, 64.57593
706.0624, 86.00317
706.5446, 86.19678
707.0267, 96.12598
707.5088, 85.01270
707.9909, 80.40796
708.4730, 81.28003
708.9551, 73.86475
709.4373, 63.52295
709.9194, 58.60327
710.4015, 61.31079
710.8836, 62.91357
711.3657, 54.85278
711.8478, 42.99927
712.3300, 34.11084
712.8121, 30.55029
713.2942, 28.86792
713.7763, 30.70703
714.2584, 33.22705
714.7405, 31.81616
715.2227, 23.56519
715.7048, 20.52905
716.1869, 28.33667
716.6690, 39.02710
717.1511, 29.25342
717.6332, 1.181641
718.1154, 19.72949
718.5975, 19.13110
719.0796, 8.200684
719.5617, 1.216309
720.0438, 9.054932
720.5259, 15.44824
721.0081, 21.72998
721.4902, 25.31958
721.9723, 25.52881
722.4544, 22.23413
722.9365, 12.68359
723.4186, 11.10669
723.9008, 30.34009
724.3829, 34.16406
724.8650, 21.33228
725.3471, 16.44287
725.8292, 21.39575
726.3113, 23.86890
726.7935, 7.592773
727.2756, 18.68530
727.7577, 33.42505
728.2398, 33.06421
728.7219, 27.62134
729.2040, 19.73535
729.6862, 13.14624
730.1683, 11.91455
730.6504, 18.04907
731.1325, 27.78760
731.6146, 47.33960
732.0967, 66.65967
732.5789, 72.45874
733.0610, 58.15112
733.5431, 51.32666
734.0252, 57.11328
734.5073, 70.66724
734.9894, 88.29004
735.4716, 107.8208
735.9537, 114.0281
736.4358, 92.12012
736.9179, 65.62964
737.4000, 63.77563
737.8821, 78.70728
738.3643, 90.03979
738.8464, 87.24438
739.3286, 81.34839
739.8107, 71.85840
740.2928, 61.01904
740.7749, 66.51318
741.2570, 101.1145
741.7391, 128.8103
742.2213, 133.6348
742.7034, 118.7854
743.1855, 109.2566
743.6676, 105.0544
744.1497, 103.9348
744.6318, 105.0996
745.1140, 107.9360
745.5961, 111.6428
746.0782, 116.1431
746.5603, 121.3606
747.0424, 131.8311
747.5245, 139.7229
748.0067, 137.3445
748.4888, 117.0439
748.9709, 109.5376
749.4530, 126.0918
749.9351, 143.4189
750.4172, 138.8018
750.8994, 108.2280
751.3815, 98.43945
751.8636, 115.9436
752.3457, 138.5928
752.8278, 139.7651
753.3099, 126.5710
753.7921, 115.0515
754.2742, 107.6692
754.7563, 105.7500
755.2384, 116.0647
755.7205, 130.6521
756.2026, 139.4246
756.6848, 126.6533
757.1669, 122.2390
757.6490, 134.2214
758.1311, 153.0681
758.6132, 162.5122
759.0953, 161.4375
759.5775, 157.3911
760.0596, 151.2847
760.5417, 144.0422
761.0238, 134.6958
761.5059, 125.2812
761.9880, 123.3174
762.4702, 143.0186
762.9523, 161.6760
763.4344, 161.2708
763.9165, 146.9639
764.3986, 132.6599
764.8807, 113.6016
765.3629, 99.90405
765.8450, 94.97021
766.3271, 98.64209
766.8092, 112.1499
767.2913, 139.5991
767.7734, 159.0007
768.2556, 156.5457
768.7377, 139.7002
769.2198, 128.0415
769.7019, 119.7776
770.1840, 110.7473
770.6661, 94.44751
771.1483, 79.28760
771.6304, 72.74316
772.1125, 75.33105
772.5946, 80.73462
773.0767, 91.75488
773.5588, 101.1812
774.0410, 104.5017
774.5231, 101.0369
775.0052, 98.81714
775.4873, 97.22290
775.9694, 99.38965
776.4515, 115.7549
776.9337, 140.8096
777.4158, 145.9478
777.8979, 126.5227
778.3800, 105.1550
778.8621, 99.48071
779.3442, 102.4124
779.8264, 106.9895
780.3085, 111.9456
780.7906, 119.3440
781.2727, 140.3660
781.7548, 157.4863
782.2369, 153.0916
782.7191, 116.4656
783.2012, 101.1519
783.6833, 115.3591
784.1654, 135.1482
784.6475, 127.0649
785.1296, 101.2776
785.6118, 96.51318
786.0939, 125.2471
786.5760, 153.4565
787.0581, 143.1658
787.5402, 118.1494
788.0223, 107.3757
788.5045, 132.8093
788.9866, 150.9792
789.4687, 155.3125
789.9508, 149.5264
790.4329, 134.6665
790.9150, 106.9673
791.3972, 91.78467
791.8793, 94.45435
792.3614, 106.6951
792.8435, 123.8484
793.3256, 140.1396
793.8077, 137.6887
794.2899, 97.00977
794.7720, 60.70215
795.2541, 66.23730
795.7362, 92.32275
796.2183, 102.6682
796.7004, 67.66040
797.1826, 49.22729
797.6647, 57.05225
798.1468, 80.07812
798.6289, 89.66846
799.1110, 84.86035
799.5931, 81.90894
800.0753, 87.24097
800.5574, 92.53271
801.0395, 81.13599
801.5216, 59.82446
802.0037, 45.33838
802.4858, 46.84033
802.9680, 55.97192
803.4501, 75.41675
803.9322, 99.11792
804.4143, 108.4211
804.8964, 90.25708
805.3785, 79.45996
805.8607, 87.65088
806.3428, 105.2498
806.8249, 102.4358
807.3070, 79.80396
807.7891, 59.41748
808.2712, 50.31860
808.7534, 48.21655
809.2355, 49.26465
809.7176, 52.70630
810.1997, 56.26367
810.6818, 61.95093
811.1639, 64.54419
811.6461, 62.91187
812.1282, 56.45483
812.6103, 41.72559
813.0924, 11.90649
813.5745, 9.018311
814.0566, 11.56470
814.5388, 0.8359380
815.0209, 10.46436
815.5030, 21.96484
815.9851, 30.37280
816.4672, 30.85767
816.9493, 30.03516
817.4315, 36.12524
817.9136, 46.62134
818.3957, 51.87866
818.8778, 43.67310
819.3599, 35.63574
819.8420, 34.07520
820.3242, 36.54565
820.8063, 26.24048
821.2884, 1.035889
821.7705, 17.82764
822.2526, 6.479736
822.7347, 19.72559
823.2169, 32.54541
823.6990, 33.44849
824.1811, 29.97632
824.6632, 24.41943
825.1453, 17.43677
825.6274, 5.560059
826.1096, 9.211182
826.5917, 12.18774
827.0738, 5.065918
827.5559, 22.41333
828.0380, 34.94263
828.5201, 42.38354
829.0023, 40.80322
829.4844, 30.35400
829.9665, 19.73462
830.4486, 9.693604
830.9307, 4.670166
831.4128, 17.64819
831.8950, 42.87988
832.3771, 56.98853
832.8592, 43.89575
833.3413, 23.11279
833.8234, 6.055908
834.3055, 38.76538
834.7877, 45.49219
835.2698, 17.75635
835.7519, 9.822510
836.2340, 23.54175
836.7161, 26.83740
837.1982, 31.80249
837.6804, 36.85181
838.1625, 33.03491
838.6446, 1.699463
839.1267, 28.72534
839.6088, 33.45166
840.0909, 17.21851
840.5731, 7.175049
841.0552, 19.01221
841.5373, 23.17920
842.0194, 6.671143
842.5015, 22.93604
842.9836, 26.82764
843.4658, 4.033203
843.9479, 14.04321
844.4300, 6.389404
844.9121, 10.00269
845.3942, 7.135010
845.8763, 8.802979
846.3585, 17.31079
846.8406, 0.4216310
847.3227, 16.53418
847.8048, 23.87720
848.2869, 22.74219
848.7690, 17.38062
849.2512, 5.783936
849.7333, 3.772217
850.2154, 8.620117
850.6975, 9.839844
851.1796, 11.11230
851.6617, 11.52368
852.1439, 6.956055
852.6260, 17.32544
853.1081, 35.46631
853.5902, 17.25830
854.0723, 21.55566
854.5544, 35.90845
855.0366, 11.39258
855.5187, 42.85791
856.0008, 40.40479
856.4829, 16.90381
856.9650, 2.288330
857.4471, 3.360596
857.9293, 1.743896
858.4114, 25.72876
858.8935, 49.46606
859.3756, 42.88647
859.8577, 18.33154
860.3398, 2.470947
860.8220, 25.59424
861.3041, 43.01978
861.7862, 50.31470
862.2683, 17.16333
862.7504, 36.21436
863.2325, 34.32837
863.7147, 31.57812
864.1968, 57.94385
864.6789, 30.62109
865.1610, 56.50537
865.6431, 61.07471
866.1252, 75.31763
866.6074, 53.53882
867.0895, 60.74072
867.5716, 55.00366
868.0537, 45.08423
868.5358, 44.66113
869.0179, 60.50928
869.5001, 73.50610
869.9822, 81.90186
870.4643, 87.54810
870.9464, 91.93018
871.4285, 94.59155
871.9106, 97.21631
872.3928, 100.8696
872.8749, 105.1990
873.3570, 109.3701
873.8391, 113.9060
874.3212, 119.8923
874.8033, 132.3967
875.2855, 136.7974
875.7676, 129.7837
876.2497, 117.1606
876.7318, 100.0522
877.2139, 77.69800
877.6960, 77.13599
878.1782, 103.4971
878.6603, 129.9392
879.1424, 123.7627
879.6245, 103.4417
880.1067, 96.24561
880.5888, 108.1240
881.0709, 122.8472
881.5530, 134.7107
882.0352, 147.8552
882.5173, 165.4714
882.9994, 188.4565
883.4815, 209.7192
883.9636, 229.3384
884.4457, 244.5627
884.9279, 254.6426
885.4100, 258.8665
885.8921, 252.3232
886.3742, 235.6992
886.8563, 225.3452
887.3384, 241.0166
887.8206, 256.1338
888.3027, 249.2344
888.7848, 219.6516
889.2669, 211.5144
889.7490, 230.9790
890.2311, 253.9966
890.7133, 269.7471
891.1954, 278.9839
891.6775, 280.7834
892.1596, 275.5098
892.6417, 272.7288
893.1238, 280.0945
893.6060, 292.5588
894.0881, 308.5090
894.5702, 326.2742
895.0523, 338.4446
895.5344, 342.6404
896.0165, 345.7610
896.4987, 350.3276
896.9808, 352.1416
897.4629, 341.2375
897.9450, 321.2856
898.4271, 306.5127
898.9092, 303.7048
899.3914, 304.8533
899.8735, 305.3306
900.3556, 305.8418
900.8377, 306.2500
901.3198, 307.6362
901.8019, 305.4863
902.2841, 281.3259
902.7662, 302.1824
903.2483, 312.2712
903.7304, 311.3755
904.2125, 269.5330
904.6946, 280.9824
905.1768, 272.1177
905.6589, 262.5310
906.1410, 282.0757
906.6231, 247.8733
907.1052, 266.6160
907.5873, 263.6323
908.0695, 270.0920
908.5516, 255.4453
909.0337, 247.2456
909.5158, 260.1062
909.9979, 261.6189
910.4800, 245.7803
910.9622, 254.0757
911.4443, 219.3186
911.9264, 220.5190
912.4085, 237.1460
912.8906, 222.3650
913.3727, 231.0798
913.8549, 230.8804
914.3370, 190.1499
914.8191, 219.6951
915.3012, 218.4575
915.7833, 186.2446
916.2654, 213.6309
916.7476, 185.9614
917.2297, 177.9546
917.7118, 167.8083
918.1939, 187.9158
918.6760, 197.8779
919.1581, 197.9290
919.6403, 157.7549
920.1224, 170.0015
920.6045, 161.5344
921.0866, 152.4189
921.5687, 172.6448
922.0508, 139.3992
922.5330, 159.5833
923.0151, 158.7334
923.4972, 167.8157
923.9793, 156.0566
924.4614, 151.0110
924.9435, 167.2363
925.4257, 172.0120
925.9078, 158.6741
926.3899, 169.6421
926.8720, 137.7712
927.3541, 143.8884
927.8362, 166.5173
928.3184, 155.2971
928.8005, 167.7109
929.2826, 171.4255
929.7647, 134.8220
930.2468, 168.9368
930.7289, 172.7766
931.2111, 145.5276
931.6932, 177.8689
932.1753, 155.3618
932.6574, 152.7231
933.1395, 165.0896
933.6216, 162.2495
934.1038, 183.9348
934.5859, 182.4126
935.0680, 179.0125
935.5501, 184.9583
936.0322, 165.2432
936.5143, 193.7471
936.9965, 189.6816
937.4786, 165.5569
937.9607, 194.6118
938.4428, 202.4399
938.9249, 220.0056
939.4070, 216.5312
939.8892, 215.3691
940.3713, 214.2737
940.8534, 213.2898
941.3355, 213.3013
941.8176, 217.6453
942.2997, 232.4514
942.7819, 254.6921
943.2640, 277.9785
943.7461, 300.2695
944.2282, 319.4238
944.7103, 336.5671
945.1924, 352.2107
945.6746, 366.2136
946.1567, 378.5610
946.6388, 395.1802
947.1209, 417.4124
947.6030, 440.1953
948.0851, 459.8232
948.5673, 476.2607
949.0494, 488.6978
949.5315, 495.8787
950.0136, 504.7449
950.4957, 513.4646
950.9778, 526.8618
951.4600, 550.0459
951.9421, 583.8293
952.4242, 608.1919
952.9063, 622.5820
953.3884, 644.8347
953.8705, 698.0366
954.3527, 757.4236
954.8348, 794.6899
955.3169, 811.8411
955.7990, 823.7000
956.2811, 828.2993
956.7632, 832.7881
957.2454, 838.1824
957.7275, 846.1980
958.2096, 859.3499
958.6917, 877.9854
959.1738, 912.7847
959.6559, 977.7021
960.1381, 1037.580
960.6202, 1041.272
961.1023, 1019.644
961.5844, 1018.219
962.0665, 1075.503
962.5486, 1108.931
963.0308, 1103.190
963.5129, 1087.821
963.9950, 1095.169
964.4771, 1122.246
964.9592, 1134.594
965.4413, 1129.672
965.9235, 1120.893
966.4056, 1117.082
966.8877, 1115.382
967.3698, 1111.695
967.8519, 1105.308
968.3340, 1109.154
968.8162, 1131.643
969.2983, 1148.620
969.7804, 1150.700
970.2625, 1139.481
970.7446, 1116.068
971.2267, 1082.866
971.7089, 1052.654
972.1910, 1036.220
972.6731, 1020.124
973.1552, 995.0229
973.6373, 965.1494
974.1194, 939.4832
974.6016, 918.0439
975.0837, 902.8203
975.5658, 896.7869
976.0479, 890.6523
976.5300, 870.6243
977.0121, 840.9165
977.4943, 810.2898
977.9764, 779.6550
978.4585, 753.1228
978.9406, 739.7227
979.4227, 725.8667
979.9048, 701.8037
980.3870, 666.9316
980.8691, 629.6099
981.3512, 588.8608
981.8333, 552.9741
982.3154, 533.6538
982.7975, 519.0151
983.2797, 487.1570
983.7618, 442.4209
984.2439, 401.9387
984.7260, 371.9958
985.2081, 348.0847
985.6902, 330.6365
986.1724, 316.8450
986.6545, 299.3872
987.1366, 278.4224
987.6187, 265.3101
988.1008, 265.9155
988.5829, 263.5020
989.0651, 233.6719
989.5472, 193.4583
990.0293, 165.5205
990.5114, 162.7021
990.9935, 147.4695
991.4756, 105.7771
991.9578, 69.91113
992.4399, 68.36719
992.9220, 95.11060
993.4041, 105.7954
993.8862, 100.7207
994.3683, 88.67603
994.8505, 67.45410
995.3326, 48.19385
995.8147, 38.75269
996.2968, 38.35547
996.7789, 42.41553
997.2610, 57.33032
997.7432, 56.19385
998.2253, 26.87622
998.7074, 11.23633
999.1895, 24.48193
999.6716, 21.00952
1000.154, 22.07861
1000.636, 40.41040
1001.118, 45.75342
1001.600, 2.265381
1002.082, 42.20020
1002.564, 43.85156
1003.046, 7.988281
1003.529, 33.01001
1004.011, 29.71387
1004.493, 15.82471
1004.975, 3.709229
1005.457, 20.59839
1005.939, 22.95215
1006.421, 12.34253
1006.903, 0.7192380
1007.385, 16.25732
1007.868, 23.03174
1008.350, 11.00269
1008.832, 9.295654
1009.314, 10.08496
1009.796, 5.766357
1010.278, 20.16748
1010.760, 29.35620
1011.242, 31.55713
1011.725, 17.10449
1012.207, 0.7421880
1012.689, 4.250977
1013.171, 19.97192
1013.653, 17.92212
1014.135, 20.66260
1014.617, 55.56860
1015.099, 44.99194
1015.581, 10.60229
1016.064, 8.545166
1016.546, 35.17358
1017.028, 56.60864
1017.510, 50.48169
1017.992, 42.14331
1018.474, 42.47119
1018.956, 47.81738
1019.438, 48.29004
1019.921, 43.56079
1020.403, 39.27612
1020.885, 35.89990
1021.367, 36.33740
1021.849, 49.09863
1022.331, 65.30566
1022.813, 52.64307
1023.295, 78.41211
1023.778, 93.50537
1024.260, 98.48853
1024.742, 63.05176
1025.224, 79.84253
1025.706, 75.72070
1026.188, 70.75537
1026.670, 94.93457
1027.152, 65.44678
1027.634, 89.19092
1028.117, 91.70654
1028.599, 103.9568
1029.081, 95.16528
1029.563, 92.88916
1030.045, 111.6890
1030.527, 118.8403
1031.009, 107.6804
1031.491, 120.6277
1031.974, 90.54053
1032.456, 98.24121
1032.938, 122.2544
1033.420, 112.2192
1033.902, 125.6194
1034.384, 130.1108
1034.866, 94.07544
1035.348, 128.5544
1035.830, 132.5566
1036.313, 105.2688
1036.795, 137.3699
1037.277, 114.4199
1037.759, 111.1416
1038.241, 122.6765
1038.723, 118.8074
1039.205, 139.2622
1039.687, 123.5120
1040.169, 135.8508
1040.652, 148.8394
1041.134, 158.9165
1041.616, 164.7727
1042.098, 163.2136
1042.580, 158.7002
1043.062, 151.3110
1043.544, 142.1880
1044.026, 141.5498
1044.509, 166.6667
1044.991, 185.4692
1045.473, 178.0984
1045.955, 152.1440
1046.437, 140.5132
1046.919, 141.8455
1047.401, 139.1143
1047.883, 120.6868
1048.365, 103.0625
1048.848, 100.0281
1049.330, 105.8738
1049.812, 112.9260
1050.294, 120.7090
1050.776, 129.0125
1051.258, 139.4128
1051.740, 145.0798
1052.222, 136.5444
1052.704, 120.2913
1053.187, 107.1064
1053.669, 97.69189
1054.151, 91.53857
1054.633, 90.75635
1055.115, 90.54175
1055.597, 90.28784
1056.079, 89.01880
1056.561, 80.06860
1057.044, 64.82690
1057.526, 64.26343
1058.008, 87.18335
1058.490, 111.8259
1058.972, 125.9424
1059.454, 132.9319
1059.936, 129.5645
1060.418, 111.1191
1060.901, 109.8550
1061.383, 131.0237
1061.865, 146.5784
1062.347, 131.1260
1062.829, 103.0842
1063.311, 96.84961
1063.793, 107.0625
1064.275, 116.8401
1064.757, 118.2322
1065.240, 120.2898
1065.722, 124.9563
1066.204, 132.0984
1066.686, 142.6992
1067.168, 155.2705
1067.650, 161.2119
1068.132, 159.3577
1068.614, 148.6558
1069.096, 114.1968
1069.579, 83.47876
1070.061, 82.17334
1070.543, 106.1221
1071.025, 114.0986
1071.507, 103.7568
1071.989, 97.74463
1072.471, 104.0935
1072.953, 115.9133
1073.436, 126.5818
1073.918, 135.2056
1074.400, 139.2498
1074.882, 127.8621
1075.364, 136.0000
1075.846, 177.4717
1076.328, 218.9744
1076.810, 233.0007
1077.292, 225.6030
1077.775, 219.5608
1078.257, 215.8914
1078.739, 219.2058
1079.221, 232.9666
1079.703, 253.3311
1080.185, 282.1221
1080.667, 315.0586
1081.149, 348.8745
1081.631, 383.5403
1082.114, 401.6575
1082.596, 398.7520
1083.078, 393.3875
1083.560, 410.4260
1084.042, 429.7192
1084.524, 427.2622
1085.006, 398.3291
1085.488, 387.6128
1085.971, 403.9329
1086.453, 416.8950
1086.935, 416.3540
1087.417, 403.4131
1087.899, 374.5649
1088.381, 334.7930
1088.863, 297.4292
1089.345, 269.1816
1089.828, 239.1697
1090.310, 202.0347
1090.792, 165.5264
1091.274, 135.2842
1091.756, 111.0593
1092.238, 95.30005
1092.720, 87.27344
1093.202, 77.51465
1093.684, 50.56006
1094.167, 29.10229
1094.649, 35.01147
1095.131, 55.53320
1095.613, 58.95459
1096.095, 40.15601
1096.577, 21.19092
1097.059, 5.554199
1097.541, 6.855469
1098.024, 36.03003
1098.506, 10.30542
1098.988, 4.858887
1099.470, 9.747559
1099.952, 25.88940
1100.434, 9.287109
1100.916, 13.44897
1101.398, 17.92114
1101.880, 8.152832
1102.363, 18.81738
1102.845, 6.637451
1103.327, 10.82959
1103.809, 23.28223
1104.291, 14.32739
1104.773, 11.79517
1105.255, 31.61963
1105.737, 38.90625
1106.219, 28.01758
1106.702, 41.52808
1107.184, 11.20581
1107.666, 19.83691
1108.148, 43.73096
1108.630, 33.52197
1109.112, 46.51807
1109.594, 50.76099
1110.076, 14.52490
1110.559, 48.48047
1111.041, 51.86523
1111.523, 24.09619
1112.005, 55.54736
1112.487, 32.46582
1112.969, 28.87354
1113.451, 39.70874
1113.933, 35.26123
1114.416, 54.96899
1114.898, 51.22583
1115.380, 46.00269
1115.862, 49.32886
1116.344, 26.75659
1116.826, 52.71973
1117.308, 45.94971
1117.790, 55.44653
1118.272, 68.52637
1118.755, 53.17261
1119.237, 67.59985
1119.719, 52.35327
1120.201, 53.64453
1120.683, 55.08496
1121.165, 52.52588
1121.647, 46.65381
1122.129, 41.04980
1122.611, 33.36694
1123.094, 31.46997
1123.576, 42.23584
1124.058, 57.55737
1124.540, 72.39990
1125.022, 86.80664
1125.504, 84.41260
1125.986, 65.48193
1126.468, 49.09961
1126.951, 52.97778
1127.433, 60.01929
1127.915, 56.38794
1128.397, 46.88428
1128.879, 46.67944
1129.361, 57.73096
1129.843, 66.98071
1130.325, 72.80396
1130.807, 75.05176
1131.290, 69.63965
1131.772, 63.12573
1132.254, 64.73779
1132.736, 75.47144
1133.218, 77.25098
1133.700, 63.96533
1134.182, 57.96118
1134.664, 69.63672
1135.146, 86.33105
1135.629, 86.29175
1136.111, 76.53198
1136.593, 70.17139
1137.075, 74.63892
1137.557, 67.52490
1138.039, 34.90552
1138.521, 9.947266
1139.003, 17.63013
1139.486, 45.27319
1139.968, 49.85669
1140.450, 37.34131
1140.932, 28.54639
1141.414, 38.81299
1141.896, 46.06641
1142.378, 40.98462
1142.860, 34.17017
1143.343, 38.12671
1143.825, 50.94873
1144.307, 47.02734
1144.789, 27.38965
1145.271, 14.92285
1145.753, 36.34302
1146.235, 55.98608
1146.717, 50.23804
1147.199, 31.81421
1147.682, 22.25806
1148.164, 21.63794
1148.646, 28.24316
1149.128, 42.91260
1149.610, 53.39551
1150.092, 43.50537
1150.574, 29.98877
1151.056, 30.31226
1151.538, 41.45850
1152.021, 32.43164
1152.503, 2.297607
1152.985, 17.63379
1153.467, 3.428467
1153.949, 34.44751
1154.431, 52.15942
1154.913, 58.73950
1155.395, 53.58911
1155.878, 31.61719
1156.360, 23.31323
1156.842, 32.07129
1157.324, 39.04248
1157.806, 34.58130
1158.288, 23.79272
1158.770, 2.638916
1159.252, 21.03833
1159.734, 31.13086
1160.217, 19.34790
1160.699, 19.07812
1161.181, 6.410889
1161.663, 21.24023
1162.145, 26.07129
1162.627, 9.497559
1163.109, 7.049316
1163.591, 2.594482
1164.073, 2.779541
1164.556, 20.93677
1165.038, 9.125732
1165.520, 14.08496
1166.002, 16.03320
1166.484, 27.68823
1166.966, 18.27222
1167.448, 15.34326
1167.930, 33.41284
1168.413, 39.85645
1168.895, 27.95459
1169.377, 40.15088
1169.859, 9.333008
1170.341, 16.26587
1170.823, 39.44971
1171.305, 28.55029
1171.787, 41.07495
1172.270, 44.64551
1172.752, 7.631592
1173.234, 41.10205
1173.716, 44.06763
1174.198, 10.71143
1174.680, 8.189453
1175.162, 9.312012
1175.644, 13.76025
1176.126, 20.67554
1176.609, 31.66040
1177.091, 37.41895
1177.573, 19.50879
1178.055, 4.526367
1178.537, 15.98413
1179.019, 49.43774
1179.501, 64.58569
1179.983, 62.08960
1180.465, 54.09790
1180.948, 40.84546
1181.430, 32.03467
1181.912, 42.99316
1182.394, 56.73340
1182.876, 50.81128
1183.358, 21.38354
1183.840, 26.72925
1184.322, 67.33789
1184.805, 98.97510
1185.287, 87.56201
1185.769, 65.85400
1186.251, 56.19727
1186.733, 55.04297
1187.215, 57.17432
1187.697, 62.75732
1188.179, 69.87622
1188.661, 79.02979
1189.144, 82.85278
1189.626, 71.23657
1190.108, 55.88623
1190.590, 45.52026
1191.072, 39.93115
1191.554, 36.51221
1192.036, 33.05811
1192.518, 43.19141
1193.000, 70.63037
1193.483, 94.76050
1193.965, 92.64893
1194.447, 81.33960
1194.929, 76.54492
1195.411, 78.19604
1195.893, 80.47998
1196.375, 83.18823
1196.857, 84.00415
1197.340, 81.76733
1197.822, 80.28540
1198.304, 90.64624
1198.786, 99.82886
1199.268, 87.44678
1199.750, 53.31274
1200.232, 40.24390
1200.714, 51.98438
1201.197, 70.38965
1201.679, 93.97949
1202.161, 111.9253
1202.643, 105.5789
1203.125, 87.05688
1203.607, 70.10474
1204.089, 55.64551
1204.571, 54.47949
1205.053, 70.67749
1205.536, 82.27563
1206.018, 79.05884
1206.500, 71.62573
1206.982, 79.42065
1207.464, 91.16138
1207.946, 87.66309
1208.428, 56.23828
1208.910, 48.50439
1209.392, 73.58252
1209.875, 90.79126
1210.357, 71.18506
1210.839, 40.86084
1211.321, 41.77808
1211.803, 62.20044
1212.285, 82.92480
1212.767, 103.8308
1213.249, 113.0156
1213.732, 107.7856
1214.214, 99.89648
1214.696, 97.19409
1215.178, 96.75952
1215.660, 91.50586
1216.142, 85.32080
1216.624, 87.11890
1217.106, 107.0884
1217.589, 117.8552
1218.071, 121.4348
1218.553, 112.6653
1219.035, 75.54443
1219.517, 33.57349
1219.999, 23.51758
1220.481, 36.23462
1220.963, 49.65771
1221.445, 58.74805
1221.927, 66.50830
1222.410, 73.64771
1222.892, 80.72241
1223.374, 99.98608
1223.856, 116.7500
1224.338, 107.1973
1224.820, 77.57471
1225.302, 60.93628
1225.784, 66.20776
1226.267, 64.48730
1226.749, 52.39648
1227.231, 40.50879
1227.713, 41.89185
1228.195, 48.79712
1228.677, 48.10474
1229.159, 42.21240
1229.641, 47.26831
1230.124, 67.21411
1230.606, 81.45215
1231.088, 85.32397
1231.570, 84.92798
1232.052, 93.45703
1232.534, 99.16431
1233.016, 82.32861
1233.498, 45.57471
1233.980, 18.53418
1234.463, 0.5429690
1234.945, 1.446045
1235.427, 28.12207
1235.909, 56.82495
1236.391, 60.20898
1236.873, 50.21851
1237.355, 33.48438
1237.837, 13.01245
1238.320, 19.17041
1238.802, 57.65649
1239.284, 84.26367
1239.766, 85.32422
1240.248, 74.19995
1240.730, 54.71362
1241.212, 37.45386
1241.694, 38.12500
1242.177, 56.69629
1242.659, 69.24414
1243.141, 75.69482
1243.623, 69.19678
1244.105, 40.90259
1244.587, 18.01050
1245.069, 33.05396
1245.551, 62.16431
1246.033, 85.96509
1246.516, 102.7610
1246.998, 103.4141
1247.480, 88.14062
1247.962, 80.58789
1248.444, 96.85620
1248.926, 108.0542
1249.408, 79.57446
1249.890, 44.32495
1250.372, 36.02051
1250.855, 53.57520
1251.337, 49.73975
1251.819, 27.78906
1252.301, 18.72168
1252.783, 45.59473
1253.265, 70.70337
1253.747, 67.14185
1254.229, 53.90747
1254.712, 47.05127
1255.194, 46.32861
1255.676, 47.27026
1256.158, 48.75146
1256.640, 41.55444
1257.122, 7.230713
1257.604, 14.16211
1258.086, 9.652344
1258.568, 39.80127
1259.051, 50.84961
1259.533, 44.31421
1260.015, 38.41040
1260.497, 33.31348
1260.979, 25.85522
1261.461, 4.892578
1261.943, 4.753662
1262.425, 1.493408
1262.907, 23.44678
1263.390, 37.42285
1263.872, 41.46851
1264.354, 5.166260
1264.836, 21.09277
1265.318, 16.09424
1265.800, 10.24121
1266.282, 33.51904
1266.764, 3.132568
1267.247, 25.71460
1267.729, 27.29980
1268.211, 38.60034
1268.693, 28.85010
1269.175, 25.60596
1269.657, 42.96655
1270.139, 44.39771
1270.621, 32.07446
1271.104, 43.85522
1271.586, 12.58887
1272.068, 16.88916
1272.550, 38.57056
1273.032, 27.11426
1273.514, 38.53638
1273.996, 41.00366
1274.478, 2.653564
1274.960, 35.33423
1275.443, 37.42480
1275.925, 8.085938
1276.407, 38.40576
1276.889, 13.48267
1277.371, 8.448486
1277.853, 18.22876
1278.335, 12.15796
1278.817, 30.94336
1279.299, 26.31323
1279.782, 19.79590
1280.264, 22.57593
1280.746, 0.2358400
1281.228, 16.56641
1281.710, 0.0000000E+00
##END=



