##NAMES=Winchite
##RRUFFID=R060704
##IDEAL CHEMISTRY=[box]NaCa(Mg_4_Al)Si_8_O_22_(OH)_2_
##LOCALITY=Tirodi mines, Central Provinces, India
##OWNER=RRUFF
##SOURCE=Michael Scott
##DESCRIPTION=Matted group of tan colored bladed crystals
##STATUS=The identification of this mineral is confirmed by single-crystal X-ray diffraction and chemical analysis.
##URL=rruff.info/R060704
##MEASURED CHEMISTRY=gray phase: ([box]_0.85_Na_0.09_K_0.06_)_Σ=1_(Ca_1.36_Na_0.64_)_Σ=2_(Mg_4.12_Fe^3+^_0.38_Mn_0.23_Fe^2+^_0.16_Al_0.11_)_Σ=5_Si_8.00_O_22_((OH)_1.90_F_0.10_)_Σ=2_ ; bright phase is ferriwinchite
208.3040, 0.0000000E+00
208.7860, 66.30859
209.2680, 87.23438
209.7500, 75.41797
210.2320, 70.19141
210.7140, 71.79297
211.1970, 73.74219
211.6790, 65.76562
212.1610, 37.97266
212.6430, 55.20703
213.1250, 131.1914
213.6070, 242.6953
214.0890, 351.5039
214.5720, 460.3945
215.0540, 555.9180
215.5360, 626.5703
216.0180, 662.2070
216.5000, 724.6797
216.9820, 807.2656
217.4640, 901.9062
217.9460, 1026.086
218.4280, 1202.059
218.9110, 1354.203
219.3930, 1436.746
219.8750, 1412.039
220.3570, 1424.805
220.8390, 1499.414
221.3210, 1610.945
221.8030, 1684.434
222.2850, 1707.953
222.7670, 1722.508
223.2500, 1754.133
223.7320, 1839.457
224.2140, 1994.309
224.6960, 2130.719
225.1780, 2240.660
225.6600, 2324.531
226.1420, 2422.559
226.6240, 2517.941
227.1070, 2532.945
227.5890, 2437.375
228.0710, 2375.000
228.5530, 2367.840
229.0350, 2402.148
229.5170, 2407.445
229.9990, 2368.484
230.4810, 2319.094
230.9630, 2282.395
231.4450, 2272.371
231.9280, 2245.934
232.4100, 2206.379
232.8920, 2154.012
233.3740, 2060.031
233.8560, 1904.875
234.3380, 1732.426
234.8200, 1567.883
235.3030, 1412.211
235.7850, 1240.383
236.2670, 1050.668
236.7490, 845.2109
237.2310, 657.6406
237.7130, 498.3164
238.1950, 354.8438
238.6770, 205.8828
239.1590, 31.55469
239.6410, 100.4961
240.1240, 172.7383
240.6060, 184.7031
241.0880, 171.4648
241.5700, 152.5195
242.0520, 128.4570
242.5340, 54.29688
243.0160, 134.2891
243.4980, 275.8047
243.9810, 300.5508
244.4630, 239.9180
244.9450, 261.3672
245.4270, 400.8203
245.9090, 563.9258
246.3910, 673.6992
246.8730, 703.6758
247.3550, 737.4375
247.8370, 781.4766
248.3200, 836.4180
248.8020, 898.0977
249.2840, 977.2148
249.7660, 1051.246
250.2480, 1099.430
250.7300, 1106.223
251.2120, 1126.531
251.6940, 1188.945
252.1760, 1291.887
252.6590, 1323.262
253.1410, 1253.852
253.6230, 1151.980
254.1050, 1080.250
254.5870, 1062.930
255.0690, 1028.605
255.5510, 964.8164
256.0330, 872.7344
256.5160, 764.7852
256.9980, 618.6211
257.4800, 482.4062
257.9620, 406.1953
258.4440, 418.4062
258.9260, 415.6875
259.4080, 370.3516
259.8900, 282.9062
260.3720, 216.8555
260.8550, 160.0664
261.3370, 137.4180
261.8190, 186.3867
262.3010, 350.7188
262.7830, 465.3984
263.2650, 488.0430
263.7470, 423.1367
264.2290, 373.4609
264.7110, 338.9805
265.1940, 319.2266
265.6760, 325.2891
266.1580, 393.6523
266.6400, 412.9922
267.1220, 343.4609
267.6040, 197.8281
268.0860, 131.4102
268.5690, 175.4883
269.0510, 243.0820
269.5330, 253.8906
270.0150, 196.4141
270.4970, 133.0156
270.9790, 72.73047
271.4610, 16.76953
271.9430, 24.21094
272.4250, 43.14844
272.9080, 61.04297
273.3900, 105.8359
273.8720, 187.3633
274.3540, 234.7188
274.8360, 225.3359
275.3180, 170.5977
275.8000, 133.9961
276.2820, 118.2070
276.7640, 115.1250
277.2470, 127.8203
277.7290, 162.3320
278.2110, 163.0430
278.6930, 106.5391
279.1750, 13.18359
279.6570, 30.36719
280.1390, 14.82812
280.6210, 15.53125
281.1030, 33.77734
281.5860, 41.11328
282.0680, 15.27734
282.5500, 56.03516
283.0320, 158.1719
283.5140, 260.1719
283.9960, 368.8555
284.4780, 435.8164
284.9600, 388.0938
285.4430, 233.3750
285.9250, 149.0547
286.4070, 183.9023
286.8890, 288.9883
287.3710, 342.4258
287.8530, 341.9492
288.3350, 339.6758
288.8170, 365.9922
289.2990, 421.3750
289.7820, 516.8359
290.2640, 666.2930
290.7460, 833.7305
291.2280, 939.3672
291.7100, 984.3086
292.1920, 1025.359
292.6740, 1114.949
293.1560, 1235.715
293.6380, 1312.816
294.1210, 1317.699
294.6030, 1307.695
295.0850, 1388.336
295.5670, 1550.336
296.0490, 1709.430
296.5310, 1798.863
297.0130, 1841.664
297.4960, 1902.496
297.9780, 2000.770
298.4600, 2105.430
298.9420, 2181.895
299.4240, 2229.219
299.9060, 2238.910
300.3880, 2209.867
300.8700, 2145.766
301.3520, 2023.984
301.8350, 1824.340
302.3170, 1611.594
302.7990, 1449.258
303.2810, 1329.855
303.7630, 1225.539
304.2450, 1106.336
304.7270, 995.7500
305.2090, 935.4297
305.6910, 935.8828
306.1740, 938.3398
306.6560, 884.2227
307.1380, 795.8086
307.6200, 719.7773
308.1020, 681.8008
308.5840, 666.1211
309.0660, 658.7344
309.5480, 660.1758
310.0300, 677.1172
310.5130, 735.6602
310.9950, 811.0273
311.4770, 863.5430
311.9590, 851.6758
312.4410, 830.7188
312.9230, 839.9883
313.4050, 882.3320
313.8870, 923.0078
314.3700, 931.7695
314.8520, 933.7656
315.3340, 958.5195
315.8160, 1058.523
316.2980, 1146.992
316.7800, 1174.883
317.2620, 1143.598
317.7440, 1118.391
318.2260, 1136.359
318.7090, 1167.695
319.1910, 1187.281
319.6730, 1178.297
320.1550, 1170.789
320.6370, 1193.977
321.1190, 1237.680
321.6010, 1225.086
322.0830, 1057.445
322.5650, 874.1562
323.0480, 762.9062
323.5300, 822.9102
324.0120, 858.5312
324.4940, 824.2422
324.9760, 735.3945
325.4580, 664.8906
325.9400, 614.6055
326.4220, 589.3867
326.9050, 591.4922
327.3870, 642.1680
327.8690, 688.7969
328.3510, 728.0273
328.8330, 761.5703
329.3150, 795.4414
329.7970, 808.6602
330.2790, 842.4336
330.7620, 918.5391
331.2440, 1073.109
331.7260, 1184.633
332.2080, 1251.191
332.6900, 1284.309
333.1720, 1295.184
333.6540, 1248.617
334.1360, 1233.254
334.6180, 1287.352
335.1000, 1427.516
335.5830, 1541.031
336.0650, 1625.906
336.5470, 1694.531
337.0290, 1760.023
337.5110, 1814.355
337.9930, 1868.270
338.4750, 1928.973
338.9570, 1994.109
339.4400, 2024.473
339.9220, 2011.758
340.4040, 1982.551
340.8860, 1972.949
341.3680, 1988.586
341.8500, 1966.207
342.3320, 1870.500
342.8140, 1727.973
343.2970, 1664.867
343.7790, 1691.828
344.2610, 1745.891
344.7430, 1779.086
345.2250, 1793.965
345.7070, 1812.156
346.1890, 1846.586
346.6710, 1880.309
347.1530, 1866.980
347.6350, 1807.570
348.1180, 1755.840
348.6000, 1771.348
349.0820, 1824.074
349.5640, 1820.207
350.0460, 1735.129
350.5280, 1610.586
351.0100, 1484.281
351.4920, 1359.582
351.9750, 1253.727
352.4570, 1195.508
352.9390, 1155.988
353.4210, 1091.695
353.9030, 996.9531
354.3850, 889.3984
354.8670, 766.8984
355.3490, 645.3906
355.8320, 556.6406
356.3140, 532.1406
356.7960, 539.4883
357.2780, 550.9883
357.7600, 566.4727
358.2420, 600.8594
358.7240, 683.3359
359.2060, 784.6562
359.6880, 869.1992
360.1710, 887.8281
360.6530, 918.2188
361.1350, 993.7812
361.6170, 1113.855
362.0990, 1264.656
362.5810, 1469.844
363.0630, 1686.895
363.5450, 1884.195
364.0270, 2040.750
364.5100, 2191.129
364.9920, 2337.383
365.4740, 2482.062
365.9560, 2635.441
366.4380, 2786.059
366.9200, 2955.438
367.4020, 3158.609
367.8840, 3431.754
368.3660, 3682.016
368.8490, 3883.199
369.3310, 4064.574
369.8130, 4280.676
370.2950, 4610.820
370.7770, 4882.406
371.2590, 5034.277
371.7410, 5036.504
372.2240, 5042.207
372.7060, 5071.852
373.1880, 5086.203
373.6700, 5037.004
374.1520, 4916.695
374.6340, 4744.691
375.1160, 4520.109
375.5980, 4242.973
376.0800, 3932.934
376.5620, 3578.629
377.0450, 3220.629
377.5270, 2901.633
378.0090, 2623.500
378.4910, 2348.574
378.9730, 2065.090
379.4550, 1786.777
379.9370, 1558.246
380.4190, 1380.098
380.9020, 1243.887
381.3840, 1148.422
381.8660, 1093.207
382.3480, 1073.312
382.8300, 1099.188
383.3120, 1134.363
383.7940, 1100.910
384.2760, 1015.496
384.7590, 969.0625
385.2410, 1030.211
385.7230, 1156.547
386.2050, 1271.684
386.6870, 1370.730
387.1690, 1455.484
387.6510, 1506.289
388.1330, 1541.070
388.6150, 1596.902
389.0980, 1715.855
389.5800, 1843.582
390.0620, 1929.820
390.5440, 1976.500
391.0260, 2005.109
391.5080, 2038.207
391.9900, 2060.477
392.4720, 2053.219
392.9540, 1995.723
393.4370, 1927.832
393.9190, 1876.996
394.4010, 1831.332
394.8830, 1756.730
395.3650, 1631.184
395.8470, 1489.652
396.3290, 1344.199
396.8110, 1189.645
397.2930, 1053.445
397.7760, 932.9570
398.2580, 833.2891
398.7400, 760.9922
399.2220, 738.5859
399.7040, 725.2383
400.1860, 708.2305
400.6680, 683.5781
401.1510, 650.8711
401.6330, 592.6523
402.1150, 544.3242
402.5970, 542.4727
403.0790, 622.5156
403.5610, 684.4414
404.0430, 700.4648
404.5250, 679.8516
405.0070, 683.0156
405.4900, 719.4766
405.9720, 773.1641
406.4540, 831.8789
406.9360, 893.3984
407.4180, 957.4414
407.9000, 1025.523
408.3820, 1093.566
408.8640, 1151.320
409.3460, 1198.445
409.8280, 1256.871
410.3110, 1337.512
410.7930, 1437.176
411.2750, 1558.820
411.7570, 1708.172
412.2390, 1837.988
412.7210, 1889.176
413.2030, 1882.363
413.6850, 1876.230
414.1680, 1906.840
414.6500, 1932.438
415.1320, 1891.055
415.6140, 1790.477
416.0960, 1684.125
416.5780, 1594.305
417.0600, 1520.203
417.5420, 1468.531
418.0250, 1461.016
418.5070, 1428.719
418.9890, 1298.852
419.4710, 1116.531
419.9530, 972.4141
420.4350, 951.1172
420.9170, 939.0156
421.3990, 869.2812
421.8810, 722.1172
422.3640, 611.9688
422.8460, 598.5156
423.3280, 621.6875
423.8100, 621.4453
424.2920, 563.2500
424.7740, 514.7344
425.2560, 501.2266
425.7380, 517.3359
426.2200, 488.1641
426.7030, 357.8438
427.1850, 243.3984
427.6670, 215.5625
428.1490, 313.0547
428.6310, 398.6250
429.1130, 467.9609
429.5950, 522.6719
430.0770, 562.9062
430.5600, 583.1562
431.0420, 607.9531
431.5240, 659.6016
432.0060, 734.3281
432.4880, 742.1484
432.9700, 670.2500
433.4520, 583.5469
433.9340, 562.9219
434.4170, 599.2734
434.8990, 615.0859
435.3810, 582.1016
435.8630, 526.3516
436.3450, 504.4844
436.8270, 511.6484
437.3090, 500.9297
437.7910, 423.6797
438.2730, 313.4062
438.7550, 218.8281
439.2380, 150.4766
439.7200, 105.4844
440.2020, 82.60938
440.6840, 74.21094
441.1660, 71.37500
441.6480, 80.70312
442.1300, 92.88281
442.6120, 106.4141
443.0950, 120.8828
443.5770, 120.4141
444.0590, 81.67188
444.5410, 35.46875
445.0230, 6.773438
445.5050, 37.33594
445.9870, 45.71094
446.4690, 7.445313
446.9520, 63.89062
447.4340, 120.2734
447.9160, 144.8438
448.3980, 168.6562
448.8800, 207.0547
449.3620, 273.7500
449.8440, 307.8281
450.3260, 305.3281
450.8080, 274.8750
451.2900, 220.9453
451.7730, 134.8125
452.2550, 64.31250
452.7370, 29.28125
453.2190, 20.67188
453.7010, 25.48438
454.1830, 117.5312
454.6650, 192.8281
455.1470, 197.9844
455.6300, 141.2656
456.1120, 70.11719
456.5940, 17.78906
457.0760, 93.67969
457.5580, 105.1250
458.0400, 63.96875
458.5220, 19.84375
459.0040, 21.62500
459.4870, 44.52344
459.9690, 12.78125
460.4510, 73.66406
460.9330, 144.6172
461.4150, 129.6797
461.8970, 78.88281
462.3790, 49.91406
462.8610, 96.96094
463.3430, 122.6406
463.8260, 70.55469
464.3080, 39.17969
464.7900, 149.6406
465.2720, 272.7109
465.7540, 367.0312
466.2360, 404.0078
466.7180, 352.4531
467.2000, 334.8203
467.6820, 376.2422
468.1650, 445.7578
468.6470, 512.1094
469.1290, 560.5469
469.6110, 629.3125
470.0930, 743.5156
470.5750, 886.9375
471.0570, 946.9688
471.5390, 886.3438
472.0220, 824.8984
472.5040, 843.6406
472.9860, 947.9531
473.4680, 1042.109
473.9500, 1125.164
474.4320, 1184.805
474.9140, 1198.617
475.3960, 1169.961
475.8780, 1120.367
476.3610, 1043.320
476.8430, 960.7812
477.3250, 922.7891
477.8070, 928.5625
478.2890, 942.4219
478.7710, 947.3828
479.2530, 942.7734
479.7350, 919.0156
480.2170, 854.2031
480.7000, 816.8828
481.1820, 899.4844
481.6640, 1039.766
482.1460, 1114.250
482.6280, 991.6641
483.1100, 856.8750
483.5920, 792.2188
484.0740, 804.3516
484.5560, 830.9219
485.0390, 869.1875
485.5210, 906.2422
486.0030, 932.8906
486.4850, 958.8047
486.9670, 958.6562
487.4490, 930.2188
487.9310, 876.3203
488.4140, 799.8125
488.8960, 692.1875
489.3780, 588.3438
489.8600, 503.8906
490.3420, 441.7891
490.8240, 383.0703
491.3060, 330.1953
491.7880, 280.7266
492.2700, 228.9609
492.7530, 176.7891
493.2350, 135.2969
493.7170, 105.1484
494.1990, 88.26562
494.6810, 107.1562
495.1630, 150.2109
495.6450, 160.9453
496.1270, 52.17969
496.6090, 87.66406
497.0920, 139.9531
497.5740, 93.03906
498.0560, 6.976563
498.5380, 127.8828
499.0200, 262.8281
499.5020, 337.4453
499.9840, 287.1562
500.4660, 223.7344
500.9480, 175.3750
501.4310, 144.5312
501.9130, 139.2969
502.3950, 155.4297
502.8770, 203.5312
503.3590, 300.7031
503.8410, 479.0078
504.3230, 593.7891
504.8050, 603.6328
505.2880, 573.9297
505.7700, 575.8359
506.2520, 615.1328
506.7340, 665.2266
507.2160, 725.3203
507.6980, 789.5000
508.1800, 825.4453
508.6620, 830.3125
509.1450, 854.9219
509.6270, 954.0234
510.1090, 1104.727
510.5910, 1205.727
511.0730, 1248.227
511.5550, 1267.508
512.0370, 1279.547
512.5190, 1295.188
513.0010, 1336.484
513.4840, 1415.164
513.9660, 1519.039
514.4480, 1656.672
514.9300, 1811.062
515.4120, 1934.781
515.8940, 1977.734
516.3760, 2004.633
516.8580, 2050.125
517.3410, 2115.211
517.8230, 2197.859
518.3050, 2311.930
518.7870, 2430.805
519.2690, 2531.562
519.7510, 2624.125
520.2330, 2688.055
520.7150, 2710.570
521.1970, 2698.648
521.6800, 2672.445
522.1620, 2625.594
522.6440, 2584.867
523.1260, 2564.656
523.6080, 2565.805
524.0900, 2585.523
524.5720, 2629.945
525.0540, 2674.391
525.5360, 2667.789
526.0190, 2628.406
526.5010, 2662.312
526.9830, 2822.648
527.4650, 3024.625
527.9470, 3141.625
528.4290, 3191.773
528.9110, 3255.773
529.3930, 3386.172
529.8750, 3543.484
530.3580, 3704.281
530.8400, 3866.320
531.3220, 4000.133
531.8040, 4060.312
532.2860, 4101.016
532.7680, 4168.570
533.2500, 4291.211
533.7320, 4423.391
534.2140, 4573.359
534.6970, 4730.484
535.1790, 4870.445
535.6610, 4983.367
536.1430, 5093.711
536.6250, 5196.016
537.1070, 5290.648
537.5890, 5457.570
538.0710, 5725.117
538.5540, 5993.336
539.0360, 6167.320
539.5180, 6248.461
540.0000, 6310.945
540.4820, 6365.172
540.9640, 6407.289
541.4460, 6427.695
541.9280, 6427.234
542.4110, 6407.719
542.8930, 6399.766
543.3750, 6360.289
543.8570, 6208.156
544.3390, 5945.891
544.8210, 5653.953
545.3030, 5338.766
545.7850, 5035.219
546.2680, 4777.102
546.7500, 4595.906
547.2320, 4398.047
547.7140, 4143.164
548.1960, 3864.398
548.6780, 3600.711
549.1600, 3342.539
549.6420, 3121.719
550.1240, 2961.922
550.6060, 2850.430
551.0890, 2697.227
551.5710, 2483.094
552.0530, 2268.477
552.5350, 2084.906
553.0170, 1931.914
553.4990, 1811.375
553.9810, 1727.781
554.4630, 1640.742
554.9450, 1492.180
555.4280, 1308.992
555.9100, 1194.484
556.3920, 1207.148
556.8740, 1246.328
557.3560, 1178.461
557.8380, 1039.227
558.3200, 933.1484
558.8020, 964.3359
559.2840, 1014.281
559.7670, 986.7422
560.2490, 871.8281
560.7310, 779.5938
561.2130, 750.8281
561.6950, 755.8125
562.1770, 772.4688
562.6590, 832.1719
563.1410, 856.0625
563.6240, 827.7734
564.1060, 766.9531
564.5880, 702.9844
565.0700, 622.8672
565.5520, 570.6875
566.0340, 560.1406
566.5160, 587.2656
566.9980, 647.1406
567.4810, 745.2031
567.9630, 822.0859
568.4450, 828.8203
568.9270, 781.2578
569.4090, 725.0547
569.8910, 663.0234
570.3730, 604.2422
570.8550, 535.6797
571.3380, 480.8594
571.8200, 482.6875
572.3020, 605.5312
572.7840, 729.9844
573.2660, 798.2578
573.7480, 817.0156
574.2300, 809.3594
574.7120, 774.4609
575.1940, 720.5312
575.6770, 631.8984
576.1590, 496.6641
576.6410, 449.2891
577.1230, 568.1562
577.6050, 690.6797
578.0870, 684.1797
578.5690, 497.2578
579.0510, 378.4375
579.5330, 354.2031
580.0160, 400.6172
580.4980, 489.1953
580.9800, 619.9766
581.4620, 750.5859
581.9440, 878.6953
582.4260, 985.7031
582.9080, 1019.195
583.3900, 987.9688
583.8720, 954.1719
584.3550, 953.8750
584.8370, 968.8906
585.3190, 977.6953
585.8010, 972.4453
586.2830, 991.2422
586.7650, 1098.656
587.2470, 1212.812
587.7290, 1259.094
588.2110, 1153.781
588.6940, 1069.617
589.1760, 1034.773
589.6580, 1025.680
590.1400, 993.3125
590.6220, 940.0781
591.1040, 856.3125
591.5860, 723.2188
592.0680, 553.9141
592.5510, 456.4297
593.0330, 439.6094
593.5150, 423.9141
593.9970, 330.4609
594.4790, 191.0156
594.9610, 104.9609
595.4430, 85.99219
595.9250, 85.50781
596.4070, 67.67969
596.8900, 36.59375
597.3720, 4.039063
597.8540, 91.59375
598.3360, 139.8750
598.8180, 51.04688
599.3000, 112.1406
599.7820, 182.5859
600.2650, 11.59375
600.7470, 145.2266
601.2290, 206.0703
601.7110, 170.0938
602.1930, 117.1406
602.6750, 30.56250
603.1570, 43.82031
603.6390, 64.77344
604.1210, 24.27344
604.6040, 31.71875
605.0860, 104.2188
605.5680, 186.2969
606.0500, 198.8125
606.5320, 157.2656
607.0140, 127.2109
607.4960, 123.6094
607.9780, 144.8828
608.4600, 216.5391
608.9430, 314.9766
609.4250, 370.8672
609.9070, 312.3438
610.3890, 234.2109
610.8710, 196.5391
611.3530, 202.6797
611.8350, 188.3828
612.3170, 117.3203
612.7990, 42.03125
613.2820, 11.53125
613.7640, 48.00000
614.2460, 40.20312
614.7280, 35.37500
615.2100, 127.9922
615.6920, 173.2266
616.1740, 169.7422
616.6560, 153.8672
617.1380, 122.9609
617.6210, 100.1406
618.1030, 146.7891
618.5850, 247.6875
619.0670, 329.8594
619.5490, 330.3594
620.0310, 307.3125
620.5130, 331.3125
620.9950, 395.8125
621.4770, 435.9219
621.9600, 386.1016
622.4420, 321.2578
622.9240, 294.3750
623.4060, 329.1719
623.8880, 347.8906
624.3700, 322.3203
624.8520, 289.2734
625.3340, 286.6953
625.8170, 336.6406
626.2990, 357.3672
626.7810, 331.1094
627.2630, 282.2969
627.7450, 263.2969
628.2270, 274.5234
628.7090, 288.8984
629.1910, 309.6875
629.6740, 319.7500
630.1560, 264.4453
630.6380, 156.2422
631.1200, 69.04688
631.6020, 82.32031
632.0840, 118.6719
632.5660, 100.0469
633.0480, 11.17969
633.5310, 58.72656
634.0130, 53.40625
634.4950, 27.54688
634.9770, 25.24219
635.4590, 104.5469
635.9410, 124.2656
636.4230, 44.89062
636.9050, 64.78125
637.3870, 86.66406
637.8700, 4.703125
638.3520, 67.85938
638.8340, 66.47656
639.3160, 20.16406
639.7980, 37.94531
640.2800, 105.2734
640.7620, 152.8984
641.2440, 134.7109
641.7260, 105.2031
642.2090, 152.2891
642.6910, 274.1484
643.1730, 383.4766
643.6550, 424.8672
644.1370, 442.9844
644.6190, 471.0859
645.1010, 515.7656
645.5830, 568.0781
646.0650, 624.0625
646.5480, 688.6719
647.0300, 763.3828
647.5120, 842.9922
647.9940, 941.6719
648.4760, 1060.492
648.9580, 1194.398
649.4400, 1347.891
649.9220, 1516.281
650.4040, 1663.820
650.8870, 1771.141
651.3690, 1853.562
651.8510, 1937.867
652.3330, 2029.141
652.8150, 2115.586
653.2970, 2182.586
653.7790, 2249.039
654.2610, 2340.281
654.7440, 2461.656
655.2260, 2559.414
655.7080, 2590.383
656.1900, 2615.195
656.6720, 2672.906
657.1540, 2746.430
657.6360, 2880.016
658.1180, 3107.914
658.6010, 3346.977
659.0830, 3482.906
659.5650, 3506.438
660.0470, 3617.680
660.5290, 3883.812
661.0110, 4200.156
661.4930, 4365.742
661.9750, 4420.414
662.4580, 4506.328
662.9400, 4702.398
663.4220, 4953.094
663.9040, 5214.047
664.3860, 5491.344
664.8680, 5798.000
665.3500, 6181.258
665.8320, 6564.148
666.3140, 6898.680
666.7970, 7166.891
667.2790, 7481.352
667.7610, 7879.312
668.2430, 8269.828
668.7250, 8569.328
669.2070, 8743.875
669.6890, 9043.859
670.1710, 9509.195
670.6530, 9982.039
671.1350, 10252.38
671.6180, 10363.10
672.1000, 10488.20
672.5820, 10697.59
673.0640, 10874.27
673.5460, 10907.24
674.0280, 10831.33
674.5100, 10711.68
674.9920, 10608.70
675.4740, 10439.42
