##NAMES=Witherite
##RRUFFID=R050267
##IDEAL CHEMISTRY=BaCO_3_
##LOCALITY=Fallowfields mine, Alston Moor, England
##OWNER=RRUFF
##SOURCE=Marcus Origlieri
##DESCRIPTION=Colorless granular aggregate
##STATUS=The identification of this mineral has been confirmed by X-ray diffraction and chemical analysis
##URL=rruff.info/R050267
##MEASURED CHEMISTRY=(Ba_0.96_Sr_0.04_)CO_3_
106.1721, 0.0000000E+00
106.6542, 2.341187
107.1364, 4.108643
107.6185, 4.915405
108.1006, 3.593506
108.5827, 2.408936
109.0648, 1.171875
109.5469, 4.6021000E-02
110.0291, 0.4206540
110.5112, 0.6220700
110.9933, 1.751099
111.4754, 1.625366
111.9575, 0.8632810
112.4396, 5.303223
112.9218, 10.36438
113.4039, 14.66138
113.8860, 17.73950
114.3681, 22.72461
114.8502, 31.14697
115.3323, 40.28381
115.8144, 48.22388
116.2966, 54.61182
116.7787, 59.78955
117.2608, 63.73950
117.7429, 66.40295
118.2250, 69.27979
118.7071, 71.97388
119.1893, 75.12329
119.6714, 80.34863
120.1535, 88.60303
120.6356, 98.33142
121.1177, 107.5236
121.5998, 116.1274
122.0820, 125.1053
122.5641, 134.9128
123.0462, 145.5187
123.5283, 157.3640
124.0104, 172.1619
124.4925, 187.3191
124.9747, 200.6610
125.4568, 211.7424
125.9389, 222.9542
126.4210, 238.2839
126.9031, 259.3317
127.3852, 281.4780
127.8674, 303.8182
128.3495, 326.7833
128.8316, 350.7855
129.3137, 375.8734
129.7958, 402.3563
130.2780, 430.9149
130.7601, 460.1815
131.2422, 493.6132
131.7243, 532.5834
132.2064, 575.7743
132.6885, 622.0939
133.1707, 671.1116
133.6528, 722.3601
134.1349, 769.2996
134.6170, 817.6660
135.0991, 857.7595
135.5812, 885.0040
136.0633, 899.7896
136.5455, 904.7189
137.0276, 898.1613
137.5097, 882.0648
137.9918, 870.0178
138.4739, 864.7140
138.9560, 862.8440
139.4382, 860.1639
139.9203, 855.5861
140.4024, 854.4700
140.8845, 863.3466
141.3666, 878.4564
141.8487, 893.7834
142.3309, 905.9113
142.8130, 916.0814
143.2951, 928.5603
143.7772, 943.6025
144.2593, 960.9146
144.7414, 979.3232
145.2236, 999.7207
145.7057, 1023.605
146.1878, 1052.167
146.6699, 1085.441
147.1520, 1122.466
147.6341, 1164.591
148.1163, 1209.255
148.5984, 1254.062
149.0805, 1299.570
149.5626, 1349.246
150.0447, 1406.288
150.5268, 1472.847
151.0090, 1542.033
151.4911, 1615.325
151.9732, 1689.198
152.4553, 1761.151
152.9374, 1830.445
153.4195, 1899.250
153.9017, 1969.666
154.3838, 2038.541
154.8659, 2116.635
155.3480, 2205.863
155.8301, 2303.527
156.3122, 2409.685
156.7944, 2524.832
157.2765, 2642.570
157.7586, 2757.965
158.2407, 2885.998
158.7228, 2969.084
159.2049, 2996.858
159.6871, 2967.983
160.1692, 2874.628
160.6513, 2703.656
161.1334, 2476.451
161.6155, 2226.708
162.0976, 1949.470
162.5798, 1677.221
163.0619, 1425.530
163.5440, 1194.816
164.0261, 993.2975
164.5082, 832.7139
164.9903, 701.5493
165.4725, 589.4525
165.9546, 496.5724
166.4367, 418.3247
166.9188, 352.0931
167.4009, 298.5985
167.8830, 253.7673
168.3652, 219.1802
168.8473, 190.7748
169.3294, 166.5258
169.8115, 145.7902
170.2936, 128.2013
170.7757, 113.3295
171.2579, 102.7559
171.7400, 92.26526
172.2221, 79.95581
172.7042, 67.98828
173.1863, 58.80713
173.6684, 53.49011
174.1506, 50.56775
174.6327, 45.52100
175.1148, 32.90271
175.5969, 24.39807
176.0790, 23.69189
176.5611, 26.85156
177.0433, 28.40320
177.5254, 25.29761
178.0075, 19.08569
178.4896, 17.54895
178.9717, 25.36243
179.4538, 32.00452
179.9360, 35.24133
180.4181, 35.54565
180.9002, 33.95337
181.3823, 30.97156
181.8644, 26.52795
182.3465, 20.72559
182.8287, 11.33752
183.3108, 2.952271
183.7929, 1.897217
184.2750, 3.646729
184.7571, 4.574951
185.2392, 5.751221
185.7214, 7.115356
186.2035, 8.465393
186.6856, 9.978638
187.1677, 11.30334
187.6498, 12.12512
188.1319, 12.43994
188.6141, 12.48602
189.0962, 12.71649
189.5783, 12.61932
190.0604, 11.40143
190.5425, 8.607849
191.0246, 4.926819
191.5068, 1.083435
191.9889, 3.113037
192.4710, 6.825806
192.9531, 8.654663
193.4352, 10.14996
193.9173, 13.18341
194.3995, 18.84521
194.8816, 25.95026
195.3637, 31.52875
195.8458, 33.77850
196.3279, 37.94067
196.8100, 47.30798
197.2922, 58.50769
197.7743, 67.25745
198.2564, 71.03058
198.7385, 71.50012
199.2206, 75.13745
199.7027, 84.37744
200.1849, 93.99811
200.6670, 103.3424
201.1491, 112.2560
201.6312, 120.5126
202.1133, 127.8671
202.5954, 134.5638
203.0776, 141.8826
203.5597, 148.3864
204.0418, 157.1445
204.5239, 169.9437
205.0060, 185.2472
205.4881, 200.4203
205.9703, 214.0051
206.4524, 226.4128
206.9345, 240.4432
207.4166, 257.1920
207.8987, 273.9462
208.3808, 289.8240
208.8630, 305.0743
209.3451, 320.2065
209.8272, 335.4656
210.3093, 350.8713
210.7914, 367.2833
211.2735, 382.8949
211.7557, 400.9598
212.2378, 423.8285
212.7199, 450.3738
213.2020, 477.5856
213.6841, 503.8466
214.1662, 529.6617
214.6484, 556.8267
215.1305, 587.5982
215.6126, 617.5152
216.0947, 645.0731
216.5768, 670.1360
217.0589, 691.5965
217.5410, 709.7099
218.0232, 722.4947
218.5053, 727.4518
218.9874, 721.3113
219.4695, 711.3954
219.9516, 702.8680
220.4337, 695.6651
220.9159, 688.7006
221.3980, 681.6985
221.8801, 674.6699
222.3622, 667.6288
222.8443, 660.5118
223.3264, 653.4974
223.8086, 647.3924
224.2907, 642.3140
224.7728, 634.8473
225.2549, 625.9660
225.7370, 612.7205
226.2191, 590.9443
226.7013, 558.7114
227.1834, 521.7781
227.6655, 486.9886
228.1476, 454.7313
228.6297, 422.9954
229.1118, 390.6555
229.5940, 359.0801
230.0761, 328.6331
230.5582, 299.6107
231.0403, 272.7122
231.5224, 249.4764
232.0045, 230.6152
232.4867, 213.7963
232.9688, 197.9779
233.4509, 183.7941
233.9330, 172.1901
234.4151, 163.3517
234.8972, 156.0158
235.3794, 148.1906
235.8615, 139.8477
236.3436, 130.6609
236.8257, 118.0389
237.3078, 106.3076
237.7899, 99.52203
238.2721, 98.32397
238.7542, 99.11615
239.2363, 95.70789
239.7184, 84.63159
240.2005, 76.19757
240.6826, 71.89282
241.1648, 68.96649
241.6469, 65.67621
242.1290, 61.53485
242.6111, 56.83740
243.0932, 51.98804
243.5753, 46.82794
244.0575, 41.76996
244.5396, 35.51984
245.0217, 30.19092
245.5038, 27.94336
245.9859, 28.91254
246.4680, 30.93610
246.9502, 31.02625
247.4323, 28.08783
247.9144, 25.95306
248.3965, 25.95496
248.8786, 25.97400
249.3607, 23.81018
249.8429, 19.27856
250.3250, 14.63330
250.8071, 12.74200
251.2892, 14.81396
251.7713, 15.46002
252.2534, 13.61310
252.7356, 11.15137
253.2177, 9.489197
253.6998, 8.768005
254.1819, 8.117737
254.6640, 6.575317
255.1461, 3.932983
255.6283, 2.025818
256.1104, 1.297363
256.5925, 0.9859010
257.0746, 0.4943850
257.5567, 0.2023930
258.0388, 0.7215580
258.5210, 0.8182370
259.0031, 0.3986820
259.4852, 0.6866460
259.9673, 4.079102
260.4494, 6.930786
260.9315, 6.343140
261.4137, 2.485535
261.8958, 1.016968
262.3779, 1.350586
262.8600, 1.104492
263.3421, 2.471558
263.8242, 0.8557130
264.3064, 0.3884280
264.7885, 2.398071
265.2706, 8.727295
265.7527, 13.03503
266.2348, 10.84802
266.7169, 4.496399
267.1991, 1.183594
267.6812, 3.036072
268.1633, 5.477539
268.6454, 4.766541
269.1275, 1.273193
269.6096, 1.442627
270.0918, 1.697510
270.5739, 9.6619003E-02
271.0560, 2.090942
271.5381, 5.431580
272.0202, 8.019653
272.5023, 8.056213
272.9845, 5.842773
273.4666, 3.588806
273.9487, 1.569275
274.4308, 0.3706050
274.9129, 0.9032590
275.3951, 3.532959
275.8772, 5.745972
276.3593, 5.357239
276.8414, 2.817200
277.3235, 1.055664
277.8056, 1.361633
278.2878, 1.984680
278.7699, 1.171265
279.2520, 1.048279
279.7341, 3.530701
280.2162, 6.246582
280.6983, 8.864319
281.1805, 9.444458
281.6626, 6.754639
282.1447, 3.267273
282.6268, 0.6663820
283.1089, 1.100525
283.5910, 2.214172
284.0732, 1.917847
284.5553, 0.9001460
285.0374, 2.242371
285.5195, 8.115479
286.0016, 12.75818
286.4837, 11.74805
286.9659, 7.139526
287.4480, 3.198242
287.9301, 2.489624
288.4122, 3.828308
288.8943, 3.763428
289.3764, 1.308716
289.8586, 0.3770750
290.3407, 1.232788
290.8228, 4.176147
291.3049, 5.595581
291.7870, 3.703430
292.2691, 0.5130000
292.7513, 0.1914060
293.2334, 3.999390
293.7155, 7.131531
294.1976, 7.407227
294.6797, 6.403259
295.1618, 5.435486
295.6440, 4.908813
296.1261, 4.552063
296.6082, 3.626343
297.0903, 1.635620
297.5724, 1.187012
298.0545, 5.384827
298.5367, 9.885742
299.0188, 11.26483
299.5009, 8.923584
299.9830, 5.788208
300.4651, 5.525513
300.9472, 8.697083
301.4294, 10.31909
301.9115, 7.252258
302.3936, 4.346741
302.8757, 4.959595
303.3578, 8.752380
303.8399, 12.26965
304.3221, 11.95526
304.8042, 7.728516
305.2863, 4.633301
305.7684, 3.052734
306.2505, 2.502136
306.7326, 3.371033
307.2148, 5.114990
307.6969, 6.424683
308.1790, 6.214417
308.6611, 4.764771
309.1432, 3.820007
309.6253, 3.511963
310.1075, 3.597778
310.5896, 4.234863
311.0717, 5.099670
311.5538, 5.670776
312.0359, 5.588318
312.5180, 5.173523
313.0002, 5.352478
313.4823, 6.502747
313.9644, 7.465515
314.4465, 7.768066
314.9286, 7.796143
315.4107, 8.006042
315.8929, 8.600525
316.3750, 9.140625
316.8571, 8.812622
317.3392, 7.326721
317.8213, 6.001892
318.3034, 5.433838
318.7856, 4.850830
319.2677, 3.241577
319.7498, 0.4749760
320.2319, 1.661560
320.7140, 0.4870610
321.1961, 4.480652
321.6783, 7.717468
322.1604, 7.780396
322.6425, 6.794861
323.1246, 4.867737
323.6067, 2.423767
324.0888, 0.5396120
324.5710, 9.6619003E-02
325.0531, 0.4996950
325.5352, 2.799011
326.0173, 9.684570
326.4994, 14.42035
326.9815, 12.66302
327.4637, 7.073669
327.9458, 2.848145
328.4279, 3.194336
328.9100, 6.723633
329.3921, 9.179932
329.8742, 10.22906
330.3564, 10.80566
330.8385, 11.09308
331.3206, 11.19098
331.8027, 11.29315
332.2848, 11.52783
332.7669, 11.45599
333.2491, 9.903442
333.7312, 6.119690
334.2133, 3.539001
334.6954, 3.298401
335.1775, 4.350159
335.6596, 6.711792
336.1418, 10.27081
336.6239, 13.64514
337.1060, 15.46899
337.5881, 15.68176
338.0702, 14.92865
338.5523, 12.43536
339.0345, 9.993103
339.5165, 8.712036
339.9987, 8.390930
340.4808, 8.665710
340.9629, 9.468384
341.4450, 10.56976
341.9271, 11.07922
342.4092, 10.83173
342.8914, 10.24292
343.3735, 8.997559
343.8556, 7.620972
344.3377, 7.124268
344.8198, 8.316772
345.3019, 10.10638
345.7841, 10.47528
346.2662, 9.150391
346.7483, 7.602844
347.2304, 5.120605
347.7125, 3.252380
348.1946, 4.144714
348.6768, 8.517944
349.1589, 13.43964
349.6410, 16.23718
350.1231, 16.85651
350.6052, 16.13574
351.0873, 13.46472
351.5695, 10.35193
352.0516, 7.793884
352.5337, 5.798035
353.0158, 5.342529
353.4979, 8.544800
353.9800, 13.90106
354.4622, 16.14038
354.9443, 13.74347
355.4264, 10.47852
355.9085, 8.650635
356.3906, 7.996826
356.8727, 8.239014
357.3549, 10.12012
357.8370, 12.36078
358.3191, 12.90747
358.8012, 11.56415
359.2833, 10.21173
359.7654, 10.02844
360.2476, 10.33496
360.7297, 9.930847
361.2118, 8.182495
361.6939, 6.846313
362.1760, 8.089355
362.6581, 11.29071
363.1403, 12.68628
363.6224, 10.14093
364.1045, 6.600464
364.5866, 6.282349
365.0687, 9.324341
365.5508, 11.99188
366.0330, 12.63715
366.5151, 11.94446
366.9972, 11.04980
367.4793, 10.11426
367.9614, 9.019958
368.4435, 7.199707
368.9257, 4.939636
369.4078, 4.050842
369.8899, 6.169128
370.3720, 8.738953
370.8541, 9.372803
371.3362, 8.264282
371.8184, 7.370361
372.3005, 7.935059
372.7826, 9.383179
373.2647, 9.704102
373.7468, 7.166260
374.2289, 6.293152
374.7111, 11.39935
375.1932, 19.10962
375.6753, 22.29547
376.1574, 18.18408
376.6395, 10.81274
377.1216, 6.328613
377.6038, 5.087402
378.0859, 5.121521
378.5680, 8.198425
379.0501, 11.59589
379.5322, 12.40741
380.0143, 10.48138
380.4965, 7.912231
380.9786, 6.515930
381.4607, 6.316345
381.9428, 5.641724
382.4249, 3.432251
382.9070, 1.955750
383.3892, 2.943176
383.8713, 5.329468
384.3534, 6.700684
384.8355, 5.720215
385.3176, 3.360962
385.7997, 2.483093
386.2819, 5.040588
386.7640, 6.742615
387.2461, 6.354980
387.7282, 5.653015
388.2103, 6.771423
388.6924, 9.971252
389.1746, 13.27985
389.6567, 14.22400
390.1388, 12.25775
390.6209, 9.951965
391.1030, 6.135742
391.5851, 3.130737
392.0673, 2.176331
392.5494, 2.903076
393.0315, 4.316406
393.5136, 5.830811
393.9957, 7.327881
394.4778, 8.169189
394.9600, 8.765991
395.4421, 7.990540
395.9242, 3.569885
396.4063, 1.200134
396.8884, 2.369324
397.3705, 1.191956
397.8527, 6.360046
398.3348, 8.030701
398.8169, 4.821472
399.2990, 3.045166
399.7811, 4.807251
400.2632, 6.644104
400.7454, 6.448914
401.2275, 4.680237
401.7096, 3.444519
402.1917, 4.735962
402.6738, 7.982910
403.1559, 9.774414
403.6381, 9.716858
404.1202, 8.779724
404.6023, 6.439331
405.0844, 3.874817
405.5665, 2.582031
406.0486, 3.169617
406.5308, 4.846008
407.0129, 7.448730
407.4950, 11.23486
407.9771, 12.11353
408.4592, 6.737854
408.9413, 7.9773001E-02
409.4235, 3.799438
409.9056, 4.857849
410.3877, 4.539063
410.8698, 3.110107
411.3519, 0.9633790
411.8340, 1.055786
412.3162, 3.043640
412.7983, 4.352295
413.2804, 3.680176
413.7625, 2.015930
414.2446, 1.730347
414.7267, 4.708374
415.2089, 7.604797
415.6910, 6.858398
416.1731, 3.241089
416.6552, 1.074646
417.1373, 2.552734
417.6194, 5.660278
418.1016, 6.520386
418.5837, 4.761475
419.0658, 3.185120
419.5479, 2.685913
420.0300, 2.704407
420.5121, 2.535889
420.9943, 2.076843
421.4764, 1.677368
421.9585, 1.617310
422.4406, 1.919128
422.9227, 2.579285
423.4048, 4.372681
423.8870, 5.695251
424.3691, 5.281738
424.8512, 3.907166
425.3333, 3.395447
425.8154, 4.667969
426.2975, 6.682068
426.7797, 7.019287
427.2618, 4.092224
427.7439, 1.791260
428.2260, 0.1173100
428.7081, 0.9451290
429.1902, 1.405945
429.6724, 1.273621
430.1545, 0.5581670
430.6366, 0.7992550
431.1187, 2.871521
431.6008, 5.016968
432.0829, 7.411987
432.5651, 9.392944
433.0472, 11.66003
433.5293, 13.29419
434.0114, 12.65753
434.4935, 8.986206
434.9756, 4.147827
435.4578, 1.771606
435.9399, 2.717407
436.4220, 3.357666
436.9041, 2.887573
437.3862, 2.252319
437.8683, 1.679688
438.3505, 1.339478
438.8326, 1.693359
439.3147, 3.805786
439.7968, 6.967468
440.2789, 7.878906
440.7610, 5.643433
441.2432, 3.194641
441.7253, 1.685913
442.2074, 0.9285280
442.6895, 0.8253170
443.1716, 1.446533
443.6537, 2.578552
444.1359, 3.986755
444.6180, 5.451660
445.1001, 6.928833
445.5822, 8.702515
446.0643, 9.904968
446.5464, 8.999634
447.0286, 6.258423
447.5107, 4.265076
447.9928, 4.255188
448.4749, 4.999573
448.9570, 5.241272
449.4391, 4.946716
449.9213, 4.576477
450.4034, 4.393860
450.8855, 4.350830
451.3676, 4.268005
451.8497, 4.149475
452.3318, 3.998352
452.8140, 3.636475
453.2961, 3.314026
453.7782, 3.493774
454.2603, 4.215576
454.7424, 4.875000
455.2245, 4.934448
455.7067, 4.094238
456.1888, 3.688599
456.6709, 3.699585
457.1530, 4.069153
457.6351, 5.179626
458.1172, 6.570007
458.5994, 7.320801
459.0815, 6.919617
459.5636, 5.944702
460.0457, 5.929504
460.5278, 7.545593
461.0099, 8.759277
461.4921, 9.915955
461.9742, 10.31732
462.4563, 8.839355
462.9384, 5.901489
463.4205, 3.502563
463.9026, 3.733032
464.3848, 6.051514
464.8669, 6.532593
465.3490, 3.817444
465.8311, 1.873169
466.3132, 3.419800
466.7953, 6.048462
467.2775, 6.512329
467.7596, 3.857117
468.2417, 0.8188480
468.7238, 6.1218001E-02
469.2059, 1.383423
469.6880, 3.150146
470.1702, 5.403320
470.6523, 7.333740
471.1344, 7.935181
471.6165, 7.492615
472.0986, 7.062988
472.5807, 6.882751
473.0629, 6.848145
473.5450, 6.496460
474.0271, 6.041199
474.5092, 7.061646
474.9913, 10.97864
475.4734, 15.81238
475.9556, 16.50806
476.4377, 11.26758
476.9198, 7.131958
477.4019, 5.859924
477.8840, 5.736450
478.3661, 5.235535
478.8483, 4.185852
479.3304, 3.164124
479.8125, 2.621521
480.2946, 2.547058
480.7767, 2.665039
481.2589, 2.546082
481.7410, 3.143066
482.2231, 5.609619
482.7052, 8.400024
483.1873, 9.667786
483.6694, 8.950012
484.1516, 7.391052
484.6337, 6.567566
485.1158, 6.706848
485.5979, 6.158630
486.0800, 4.168518
486.5621, 2.251709
487.0443, 1.105286
487.5264, 0.4779660
488.0085, 0.2593990
488.4906, 1.621521
488.9727, 2.753967
489.4548, 1.809937
489.9370, 1.408630
490.4191, 3.521484
490.9012, 2.823730
491.3833, 1.730225
491.8654, 3.185913
492.3475, 6.889038
492.8297, 9.086243
493.3118, 6.303345
493.7939, 2.112305
494.2760, 1.872253
494.7581, 5.594543
495.2402, 8.647583
495.7224, 8.252197
496.2045, 5.530640
496.6866, 3.834900
497.1687, 3.345825
497.6508, 3.647644
498.1329, 5.535767
498.6151, 7.573853
499.0972, 7.846130
499.5793, 6.162292
500.0614, 3.626038
500.5435, 1.007385
501.0256, 1.683044
501.5078, 2.139160
501.9899, 2.704224
502.4720, 6.154724
502.9541, 5.986328
503.4362, 4.324890
503.9183, 3.734680
504.4004, 4.936096
504.8825, 6.595337
505.3647, 6.893799
505.8468, 5.647705
506.3289, 4.504456
506.8110, 2.792847
507.2931, 2.090210
507.7752, 4.236450
508.2574, 7.546753
508.7395, 8.873169
509.2216, 6.470947
509.7037, 2.972107
510.1858, 1.595337
510.6679, 2.256836
511.1501, 3.577026
511.6322, 5.900757
512.1143, 7.757568
512.5964, 6.812622
513.0786, 3.536865
513.5607, 1.584473
514.0428, 3.062561
514.5249, 5.368286
515.0070, 6.089661
515.4891, 5.497131
515.9713, 5.209839
516.4534, 6.090027
516.9355, 7.425232
517.4176, 7.616211
517.8997, 5.831726
518.3818, 4.561707
518.8640, 4.381104
519.3461, 4.310608
519.8282, 3.127686
520.3103, 1.296997
520.7924, 0.6214600
521.2745, 2.471619
521.7567, 6.167786
522.2388, 8.867676
522.7209, 10.67767
523.2030, 11.22021
523.6851, 9.695313
524.1672, 7.625061
524.6494, 5.877258
525.1315, 4.647522
525.6136, 3.998047
526.0957, 3.932373
526.5778, 4.477600
527.0599, 6.201050
527.5421, 9.834045
528.0242, 12.01880
528.5063, 10.11676
528.9884, 6.397766
529.4705, 3.559753
529.9526, 1.656128
530.4348, 1.374817
530.9169, 4.910645
531.3990, 9.700562
531.8811, 10.98083
532.3632, 8.143433
532.8453, 4.578247
533.3275, 2.604492
533.8096, 2.159790
534.2917, 2.842773
534.7738, 6.312439
535.2559, 8.630798
535.7380, 8.177612
536.2202, 6.517090
536.7023, 5.190979
537.1844, 4.605103
537.6665, 4.552246
538.1486, 4.921082
538.6307, 5.719299
539.1129, 6.146790
539.5950, 6.265503
540.0771, 5.889160
540.5592, 4.509583
541.0413, 2.873840
541.5234, 1.775269
542.0056, 1.425354
542.4877, 1.535339
542.9698, 2.077515
543.4519, 2.934875
543.9340, 3.175232
544.4161, 2.528320
544.8983, 1.751953
545.3804, 1.174744
545.8625, 0.8293460
546.3446, 0.8701780
546.8267, 1.850830
547.3088, 2.373108
547.7910, 0.7046510
548.2731, 1.928223
548.7552, 2.819824
549.2373, 1.363586
549.7194, 1.030212
550.2015, 3.160645
550.6837, 5.032471
551.1658, 6.165955
551.6479, 6.232849
552.1300, 6.077576
552.6121, 6.372986
553.0942, 6.383728
553.5764, 4.606628
554.0585, 0.8858030
554.5406, 2.616516
555.0227, 2.958435
555.5048, 0.1318970
555.9869, 1.826721
556.4691, 1.059998
556.9512, 0.3391110
557.4333, 0.9456180
557.9154, 1.949646
558.3975, 1.908325
558.8796, 0.1636350
559.3618, 1.370178
559.8439, 0.1522220
560.3260, 2.793396
560.8081, 3.846008
561.2902, 2.134399
561.7723, 0.2040410
562.2545, 2.0081000E-02
562.7366, 1.253967
563.2187, 2.052795
563.7008, 2.098572
564.1829, 2.375244
564.6650, 2.845886
565.1472, 3.265076
565.6293, 3.755798
566.1114, 4.416443
566.5935, 5.189758
567.0756, 6.061340
567.5577, 7.027405
568.0399, 7.595459
568.5220, 7.608948
569.0041, 7.369995
569.4862, 6.907776
569.9683, 6.221558
570.4504, 4.933044
570.9326, 3.125916
571.4147, 2.016357
571.8968, 3.473450
572.3789, 6.921631
572.8610, 8.339355
573.3431, 6.936890
573.8253, 5.811340
574.3074, 7.499329
574.7895, 9.897400
575.2716, 9.601501
575.7537, 5.556824
576.2358, 2.312622
576.7180, 3.132324
577.2001, 5.576904
577.6822, 5.976929
578.1643, 4.100647
578.6464, 2.197083
579.1285, 1.785889
579.6107, 2.596191
580.0928, 3.462769
580.5749, 4.655457
581.0570, 5.539246
581.5391, 5.957764
582.0212, 6.168396
582.5034, 6.343323
582.9855, 6.581238
583.4676, 6.828857
583.9497, 7.223816
584.4318, 7.777649
584.9139, 8.305176
585.3961, 8.873718
585.8782, 9.158203
586.3602, 8.646545
586.8423, 8.205139
587.3245, 8.826050
587.8066, 10.34973
588.2887, 11.01300
588.7708, 8.977295
589.2529, 6.392761
589.7350, 6.364380
590.2172, 8.371765
590.6993, 8.957458
591.1814, 6.439758
591.6635, 2.862915
592.1456, 1.511475
592.6277, 3.005066
593.1099, 4.990906
593.5920, 8.672974
594.0741, 11.64069
594.5562, 12.16547
595.0383, 11.20392
595.5204, 10.76276
596.0026, 11.69061
596.4847, 12.75635
596.9668, 11.72418
597.4489, 8.089417
597.9310, 5.566650
598.4131, 4.408264
598.8953, 4.517334
599.3774, 7.158508
599.8595, 10.54663
600.3416, 11.26373
600.8237, 7.493896
601.3058, 3.749146
601.7880, 4.074341
602.2701, 7.011475
602.7522, 9.183899
603.2343, 10.03259
603.7164, 9.685425
604.1985, 7.762817
604.6807, 4.655884
605.1628, 3.671692
605.6449, 6.839905
606.1270, 8.996094
606.6091, 9.290710
607.0912, 8.511536
607.5734, 6.643005
608.0555, 4.053040
608.5376, 2.154663
609.0197, 2.267944
609.5018, 3.857666
609.9839, 4.691101
610.4661, 4.526062
610.9482, 4.304138
611.4303, 3.745605
611.9124, 3.652649
612.3945, 5.039978
612.8766, 7.783325
613.3588, 9.716187
613.8409, 8.495605
614.3230, 6.565125
614.8051, 7.266785
615.2872, 9.877930
615.7693, 10.84387
616.2515, 8.666321
616.7336, 5.192017
617.2157, 2.845825
617.6978, 1.844666
618.1799, 1.960449
618.6620, 4.345703
619.1442, 6.403076
619.6263, 7.722778
620.1084, 7.863220
620.5905, 5.543457
621.0726, 0.5808110
621.5547, 4.117493
622.0369, 4.733521
622.5190, 1.449463
623.0011, 1.695740
623.4832, 4.955872
623.9653, 7.395935
624.4474, 7.978577
624.9296, 7.703674
625.4117, 7.921448
625.8938, 8.876160
626.3759, 9.666992
626.8580, 9.843384
627.3401, 9.671082
627.8223, 9.182983
628.3044, 8.549500
628.7865, 8.760986
629.2686, 10.57330
629.7507, 12.92175
630.2328, 12.87872
630.7150, 7.867615
631.1971, 5.579956
631.6792, 7.860291
632.1613, 10.68237
632.6434, 12.59448
633.1255, 13.42188
633.6077, 13.06445
634.0898, 11.33789
634.5719, 9.173279
635.0540, 7.638306
635.5361, 6.714783
636.0182, 6.393860
636.5004, 6.832336
636.9825, 7.427124
637.4646, 8.101501
637.9467, 8.548279
638.4288, 7.714539
638.9109, 4.627014
639.3931, 1.774292
639.8752, 0.9541020
640.3573, 2.536865
640.8394, 0.9718630
641.3215, 3.236267
641.8036, 7.076721
642.2858, 8.416748
642.7679, 7.668274
643.2500, 5.845337
643.7321, 1.606079
644.2142, 0.2357790
644.6964, 3.560486
645.1785, 7.721558
645.6606, 9.137146
646.1427, 8.461304
646.6248, 8.193787
647.1069, 9.922180
647.5891, 11.49463
648.0712, 10.27899
648.5533, 7.163208
649.0354, 4.821655
649.5175, 3.827209
649.9996, 4.005676
650.4818, 5.434753
650.9639, 8.011841
651.4460, 9.980896
651.9281, 12.42871
652.4102, 12.87378
652.8923, 9.331299
653.3745, 4.743652
653.8566, 1.213013
654.3387, 0.8150630
654.8208, 1.265686
655.3029, 0.3374630
655.7850, 2.964844
656.2672, 3.869812
656.7493, 2.834412
657.2314, 2.716736
657.7135, 4.564087
658.1956, 7.081482
658.6777, 9.277527
659.1599, 11.13159
659.6420, 12.36212
660.1241, 12.46521
660.6062, 12.02301
661.0883, 11.51056
661.5704, 10.75842
662.0526, 9.084167
662.5347, 6.561157
663.0168, 4.800720
663.4989, 5.592346
663.9810, 8.381348
664.4631, 8.589355
664.9453, 4.124939
665.4274, 1.536194
665.9095, 3.489075
666.3916, 6.852539
666.8737, 9.989319
667.3558, 12.66241
667.8380, 14.58502
668.3201, 15.91949
668.8022, 16.19806
669.2843, 13.46271
669.7664, 9.193909
670.2485, 7.925598
670.7307, 10.91827
671.2128, 16.90173
671.6949, 24.61285
672.1770, 34.02496
672.6591, 46.20477
673.1412, 62.00525
673.6234, 79.58490
674.1055, 101.1061
674.5876, 122.7502
675.0697, 141.6343
675.5518, 156.9225
676.0339, 168.8502
676.5161, 177.0283
676.9982, 182.1913
677.4803, 184.3820
677.9624, 183.8681
678.4445, 185.8948
678.9266, 191.9386
679.4088, 200.4743
679.8909, 210.5403
680.3730, 222.4886
680.8551, 236.6382
681.3372, 254.3314
681.8193, 272.3545
682.3015, 287.5930
682.7836, 304.0846
683.2657, 325.6417
683.7478, 353.0621
684.2299, 384.7218
684.7120, 418.8810
685.1942, 457.3771
685.6763, 505.2167
686.1584, 562.3353
686.6405, 630.5806
687.1226, 714.3111
687.6047, 803.8400
688.0869, 901.0737
688.5690, 999.4581
689.0511, 1068.526
689.5332, 1111.993
690.0153, 1115.245
690.4974, 1063.369
690.9796, 971.5664
691.4617, 847.1606
691.9438, 698.6697
692.4259, 552.5754
692.9080, 427.3322
693.3901, 322.7634
693.8723, 240.3502
694.3544, 182.2923
694.8365, 137.8029
695.3186, 110.2308
695.8007, 91.23834
696.2828, 76.22949
696.7650, 64.98340
697.2471, 57.05066
697.7292, 53.56317
698.2113, 50.84021
698.6934, 46.60718
699.1755, 41.77081
699.6577, 38.10059
700.1398, 35.66223
700.6219, 32.48737
701.1040, 26.90491
701.5861, 20.18182
702.0682, 16.91931
702.5504, 19.84271
703.0325, 20.40057
703.5146, 15.80096
703.9967, 10.81042
704.4788, 6.441528
704.9609, 3.478699
705.4431, 3.822815
705.9252, 9.151367
706.4073, 13.90900
706.8894, 12.94189
707.3715, 8.754883
707.8536, 5.998352
708.3358, 5.126526
708.8179, 4.561279
709.3000, 3.295532
709.7821, 1.909912
710.2642, 2.017273
710.7463, 5.013611
711.2285, 6.258728
711.7106, 3.647827
712.1927, 1.562012
712.6748, 2.725830
713.1569, 5.401794
713.6390, 6.400818
714.1212, 4.777039
714.6033, 3.103271
715.0854, 4.356140
715.5675, 6.677368
716.0496, 5.649292
716.5317, 1.396240
717.0139, 1.720520
717.4960, 1.578552
717.9781, 0.5056150
718.4602, 2.530823
718.9423, 4.853394
719.4244, 5.574402
719.9066, 3.155762
720.3887, 1.064514
720.8708, 0.1826170
721.3529, 0.2786870
721.8350, 1.541626
722.3171, 3.778015
722.7993, 5.255249
723.2814, 3.766052
723.7635, 1.100525
724.2456, 0.8586430
724.7277, 2.710815
725.2098, 3.799866
725.6920, 3.065430
726.1741, 1.817017
726.6562, 1.490601
727.1383, 2.102356
727.6204, 3.266907
728.1025, 6.887268
728.5847, 8.566772
729.0668, 5.725586
729.5489, 1.978577
730.0310, 0.8674320
730.5131, 2.113770
730.9952, 2.581421
731.4774, 0.2421880
731.9595, 3.601868
732.4416, 3.170105
732.9237, 0.2781370
733.4058, 3.310425
733.8879, 5.310486
734.3701, 6.048767
734.8522, 4.987488
735.3343, 2.626526
735.8164, 1.552551
736.2985, 3.159973
736.7806, 4.018494
737.2628, 3.751465
737.7449, 3.035889
738.2270, 2.026978
738.7091, 0.9384770
739.1912, 9.5519997E-02
739.6733, 0.3979490
740.1555, 0.5393680
740.6376, 0.1206670
741.1197, 0.5448610
741.6018, 0.8717040
742.0839, 0.8231810
742.5660, 1.232178
743.0482, 2.710815
743.5303, 4.420410
744.0124, 4.587463
744.4945, 2.290527
744.9766, 1.406128
745.4587, 3.845154
745.9409, 5.383606
746.4230, 3.316467
746.9051, 0.2486570
747.3872, 0.4854740
747.8693, 1.670898
748.3514, 4.406067
748.8336, 6.596924
749.3157, 7.932861
749.7978, 7.530762
750.2799, 5.730286
750.7620, 4.236816
751.2441, 3.618225
751.7263, 3.019165
752.2084, 1.258301
752.6905, 1.573730
753.1726, 2.135071
753.6547, 1.893311
754.1368, 4.668640
754.6190, 4.973267
755.1011, 4.256897
755.5832, 3.031433
756.0653, 1.653809
756.5474, 0.9287110
757.0295, 1.356201
757.5117, 2.148499
757.9938, 3.066956
758.4759, 3.715881
758.9580, 2.856995
759.4401, 0.5775150
759.9222, 1.147339
760.4044, 1.012329
760.8865, 0.4013670
761.3686, 1.696777
761.8507, 2.864380
762.3328, 3.964783
762.8149, 5.130615
763.2971, 6.055298
763.7792, 6.654236
764.2613, 6.947876
764.7434, 6.966370
765.2255, 6.716248
765.7076, 6.219116
766.1898, 5.207825
766.6719, 4.057251
767.1540, 3.120911
767.6361, 2.416748
768.1182, 2.006042
768.6003, 1.891296
769.0825, 1.824036
769.5646, 1.388733
770.0467, 0.7466430
770.5288, 1.747253
771.0109, 5.297485
771.4930, 7.598267
771.9752, 7.340698
772.4573, 5.940735
772.9394, 3.926758
773.4215, 1.696472
773.9036, 1.017151
774.3857, 3.860474
774.8679, 5.713196
775.3500, 3.889282
775.8321, 1.229187
776.3142, 0.4838870
776.7963, 1.551819
777.2784, 2.860962
777.7606, 3.561035
778.2427, 4.118286
778.7248, 5.742371
779.2069, 8.278381
779.6890, 8.701538
780.1711, 6.347900
780.6533, 3.836426
781.1354, 2.132813
781.6175, 1.305298
782.0996, 1.812866
782.5817, 4.198486
783.0638, 5.303345
783.5460, 3.378357
784.0281, 2.002869
784.5102, 3.568787
784.9923, 5.932007
785.4744, 6.195618
785.9565, 4.181763
786.4387, 2.273926
786.9208, 2.283386
787.4029, 3.158508
787.8850, 3.020508
788.3671, 2.182983
788.8492, 2.429810
789.3314, 4.166748
789.8135, 5.638916
790.2956, 5.859192
790.7777, 5.213074
791.2598, 4.290100
791.7419, 2.753662
792.2241, 1.546082
792.7062, 0.2163090
793.1883, 0.3044430
793.6704, 0.9011230
794.1525, 3.032166
794.6346, 4.937378
795.1168, 6.408997
795.5989, 7.161926
796.0810, 7.045288
796.5631, 6.098022
797.0452, 3.381348
797.5273, 0.1365360
798.0095, 1.223694
798.4916, 1.062134
798.9737, 3.690552
799.4558, 3.005554
799.9379, 0.2839970
800.4200, 0.3441160
800.9022, 4.090637
801.3843, 7.272522
801.8664, 7.754089
802.3485, 6.924561
802.8306, 5.359802
803.3127, 3.396790
803.7949, 2.089478
804.2770, 2.042725
804.7591, 1.757202
805.2412, 8.0871999E-02
805.7233, 1.498169
806.2054, 0.7144780
806.6876, 1.675964
807.1697, 4.399170
807.6518, 6.922363
808.1339, 8.467651
808.6160, 7.253723
809.0981, 4.399841
809.5803, 4.317627
810.0624, 7.066223
810.5445, 8.239807
811.0266, 6.049316
811.5087, 3.086182
811.9908, 1.958252
812.4730, 2.668091
812.9551, 3.884033
813.4372, 6.552063
813.9193, 8.373474
814.4014, 9.034485
814.8835, 8.856506
815.3657, 7.546387
815.8478, 5.608276
816.3299, 4.317261
816.8120, 4.237549
817.2941, 4.387329
817.7762, 4.030884
818.2584, 3.529663
818.7405, 3.343323
819.2226, 3.359070
819.7047, 3.162842
820.1868, 2.571716
820.6689, 2.314270
821.1511, 3.904541
821.6332, 7.115662
822.1153, 6.985962
822.5974, 2.282532
823.0795, 1.119690
823.5616, 1.203735
824.0438, 0.3639530
824.5259, 2.580750
825.0080, 5.205017
825.4901, 6.196899
825.9722, 3.017700
826.4543, 1.571899
826.9365, 5.238342
827.4186, 9.269775
827.9007, 9.382263
828.3828, 6.784485
828.8649, 5.044067
829.3470, 5.561646
829.8292, 7.045410
830.3113, 9.178284
830.7934, 11.02960
831.2755, 10.04578
831.7576, 6.584595
832.2397, 3.528809
832.7219, 1.899170
833.2040, 1.473572
833.6861, 2.155273
834.1682, 3.853027
834.6503, 4.807922
835.1324, 4.477356
835.6146, 4.652954
836.0967, 6.224670
836.5788, 7.912231
837.0609, 8.870972
837.5430, 8.969360
838.0251, 8.441406
838.5073, 6.891235
838.9894, 5.705261
839.4715, 5.505859
839.9536, 5.702332
840.4357, 5.810181
840.9178, 5.937622
841.4000, 6.429810
841.8821, 7.395996
842.3642, 8.545776
842.8463, 9.360168
843.3284, 10.09430
843.8105, 12.06763
844.2927, 14.90552
844.7748, 14.34558
845.2569, 8.901306
845.7390, 3.527954
846.2211, 2.678650
846.7032, 5.309509
847.1854, 6.538208
847.6675, 5.279114
848.1496, 5.003113
848.6317, 7.427429
849.1138, 9.071838
849.5959, 7.837830
850.0781, 5.174622
850.5602, 3.041138
851.0423, 1.643799
851.5244, 1.088196
852.0065, 1.438232
852.4886, 2.568420
852.9708, 5.394287
853.4529, 8.474243
853.9350, 9.397217
854.4171, 8.078247
854.8992, 6.616638
855.3813, 6.521301
855.8635, 6.932190
856.3456, 6.517029
856.8277, 5.355103
857.3098, 3.932068
857.7919, 2.247253
858.2740, 1.816772
858.7562, 3.818298
859.2383, 6.705658
859.7204, 7.553192
860.2025, 5.862671
860.6846, 4.986267
861.1667, 5.470337
861.6489, 5.948364
862.1310, 6.083130
862.6131, 6.066040
863.0952, 6.264984
863.5773, 6.493744
864.0594, 6.009979
864.5416, 3.431427
865.0237, 1.413605
865.5058, 1.318054
865.9879, 2.124786
866.4700, 3.128723
866.9521, 4.144928
867.4343, 5.100983
867.9164, 6.004028
868.3985, 6.626801
868.8806, 6.851593
869.3627, 6.644592
869.8448, 5.082306
870.3270, 2.452728
870.8091, 1.605011
871.2912, 3.459229
871.7733, 5.777924
872.2554, 6.606628
872.7375, 6.096039
873.2197, 4.754639
873.7018, 1.743591
874.1839, 0.4020390
874.6660, 2.120697
875.1481, 3.976135
875.6302, 4.219940
876.1124, 3.765625
876.5945, 4.025024
877.0766, 5.314514
877.5587, 6.163086
878.0408, 6.231628
878.5229, 5.677460
879.0051, 3.354095
879.4872, 1.185425
879.9693, 2.327911
880.4514, 6.000793
880.9335, 7.553894
881.4156, 3.854706
881.8978, 0.3784790
882.3799, 0.7140810
882.8620, 4.714447
883.3441, 6.422729
883.8262, 5.755768
884.3083, 4.799652
884.7905, 4.451050
885.2726, 4.215363
885.7547, 3.251801
886.2368, 1.780762
886.7189, 2.268738
887.2010, 5.361053
887.6832, 7.230011
888.1653, 6.707062
888.6474, 5.384308
889.1295, 4.146393
889.6116, 3.164948
890.0938, 3.208405
890.5759, 5.450348
891.0580, 6.317688
891.5401, 4.587006
892.0222, 2.754089
892.5043, 2.056580
892.9865, 1.769958
893.4686, 0.5181880
893.9507, 1.631592
894.4328, 2.392334
894.9149, 0.5321960
895.3970, 3.737640
895.8792, 4.633026
896.3613, 4.415924
896.8434, 4.953613
897.3255, 6.059113
897.8076, 6.043854
898.2897, 4.051422
898.7719, 1.470734
899.2540, 0.3258060
899.7361, 1.221222
900.2182, 0.1921690
900.7003, 2.631897
901.1824, 4.215668
901.6646, 3.548798
902.1467, 2.061981
902.6288, 0.9738770
903.1109, 0.3689580
903.5930, 0.7756650
904.0751, 2.628967
904.5573, 4.267029
905.0394, 5.708649
905.5215, 6.709137
906.0036, 7.154388
906.4857, 7.150818
906.9678, 6.883789
907.4500, 6.385864
907.9321, 5.431396
908.4142, 3.317657
908.8963, 1.588989
909.3784, 0.8159180
909.8605, 0.6510620
910.3427, 1.006836
910.8248, 1.654663
911.3069, 2.117065
911.7890, 2.229980
912.2711, 2.024902
912.7532, 1.191254
913.2354, 0.3016050
913.7175, 0.1566470
914.1996, 0.5626830
914.6817, 0.8975830
915.1638, 1.001099
915.6459, 1.221893
916.1280, 1.946350
916.6101, 2.854706
917.0922, 3.087708
917.5743, 2.737366
918.0565, 2.710846
918.5386, 3.143280
919.0207, 3.807678
919.5028, 4.778778
919.9849, 5.283203
920.4670, 3.668701
920.9492, 0.4244380
921.4313, 1.966309
921.9134, 0.1616520
922.3955, 2.215363
922.8776, 3.837952
923.3597, 4.587036
923.8419, 3.563965
924.3240, 1.375488
924.8061, 0.2266540
925.2882, 1.523193
925.7703, 1.430878
926.2524, 1.877319
926.7346, 4.751526
927.2167, 5.076874
927.6988, 4.012115
928.1809, 3.413666
928.6630, 3.493134
929.1451, 3.425171
929.6273, 2.522156
930.1094, 2.027069
930.5915, 3.517426
931.0736, 5.279633
931.5557, 4.984436
932.0378, 3.175201
932.5200, 2.286652
933.0021, 3.199066
933.4842, 3.988037
933.9663, 1.925995
934.4484, 1.356781
934.9305, 1.677399
935.4127, 0.4760130
935.8948, 2.712585
936.3769, 4.524689
936.8590, 5.512878
937.3411, 5.288696
937.8232, 4.520416
938.3054, 5.004303
938.7875, 7.067017
939.2696, 6.547699
939.7517, 2.223602
940.2338, 0.2254940
940.7159, 1.631561
941.1981, 5.099030
941.6802, 8.019257
942.1623, 10.20071
942.6444, 10.04031
943.1265, 5.046021
943.6086, 1.836029
944.0908, 1.396484
944.5729, 1.726166
945.0550, 2.504761
945.5371, 3.269501
946.0192, 3.214142
946.5013, 2.327240
946.9835, 2.313416
947.4656, 3.668121
947.9477, 5.314240
948.4298, 7.825562
948.9119, 9.705261
949.3940, 9.035187
949.8762, 6.750916
950.3583, 5.084229
950.8404, 4.775482
951.3225, 4.647339
951.8046, 3.195679
952.2867, 1.938843
952.7689, 3.491455
953.2510, 6.243927
953.7331, 7.102386
954.2152, 5.824951
954.6973, 4.344391
955.1794, 3.792603
955.6616, 3.731049
956.1437, 3.233734
956.6258, 2.706482
957.1079, 4.149414
957.5900, 7.293823
958.0721, 9.007599
958.5543, 8.214722
959.0364, 6.728668
959.5185, 6.211151
960.0006, 6.363922
960.4827, 6.282196
960.9648, 6.024689
961.4470, 4.732605
961.9291, 1.730560
962.4112, 0.1998900
962.8933, 2.308228
963.3754, 5.255463
963.8575, 5.152161
964.3397, 2.078308
964.8218, 0.4557800
965.3039, 0.5919800
965.7860, 1.668121
966.2681, 5.257202
966.7502, 7.880066
967.2324, 7.093750
967.7145, 4.519409
968.1966, 2.533173
968.6787, 1.214691
969.1608, 0.7267460
969.6429, 1.143188
970.1251, 2.317444
970.6072, 5.380341
971.0893, 8.152985
971.5714, 8.689545
972.0535, 7.517670
972.5356, 5.914337
973.0178, 4.029419
973.4999, 3.210663
973.9820, 5.593872
974.4641, 7.761475
974.9462, 6.335114
975.4283, 3.495270
975.9105, 2.404755
976.3926, 3.169037
976.8747, 4.126282
977.3568, 4.553284
977.8389, 4.339783
978.3210, 2.146027
978.8032, 1.5807999E-02
979.2853, 2.279388
979.7674, 7.374115
980.2495, 9.043762
980.7316, 6.196808
981.2137, 2.884033
981.6959, 2.012482
982.1780, 2.906982
982.6601, 5.640625
983.1422, 9.096619
983.6243, 7.673370
984.1064, 1.701355
984.5886, 1.521973
985.0707, 0.7875060
985.5528, 4.087463
986.0349, 3.684814
986.5170, 0.6261900
986.9991, 1.408142
987.4813, 2.438232
987.9634, 1.939453
988.4455, 0.4552000
988.9276, 2.796814
989.4097, 4.286469
989.8918, 5.081207
990.3740, 5.323059
990.8561, 5.049316
991.3382, 4.764374
991.8203, 4.101776
992.3024, 4.419891
992.7845, 7.203186
993.2667, 9.105957
993.7488, 7.232452
994.2309, 3.875885
994.7130, 3.147247
995.1951, 5.523712
995.6772, 6.155487
996.1594, 2.815765
996.6415, 0.9335630
997.1236, 2.682373
997.6057, 4.566772
998.0878, 3.707550
998.5699, 1.836365
999.0521, 2.474182
999.5342, 6.452728
1000.016, 8.539581
1000.498, 6.426270
1000.981, 3.962433
1001.463, 1.457001
1001.945, 7.5409003E-02
1002.427, 2.258606
1002.909, 5.996521
1003.391, 6.213959
1003.873, 1.198273
1004.355, 2.961060
1004.837, 3.055725
1005.320, 1.988586
1005.802, 1.448425
1006.284, 0.9543760
1006.766, 4.6599999E-02
1007.248, 1.634613
1007.730, 4.079681
1008.212, 7.692993
1008.694, 10.20554
1009.177, 8.707977
1009.659, 6.375946
1010.141, 7.083038
1010.623, 9.133911
1011.105, 9.029266
1011.587, 6.791840
1012.069, 5.291260
1012.551, 6.098938
1013.033, 7.252686
1013.516, 6.282196
1013.998, 4.454590
1014.480, 4.125519
1014.962, 4.809814
1015.444, 4.846039
1015.926, 3.990417
1016.408, 3.104736
1016.890, 2.666382
1017.372, 3.044159
1017.855, 5.778687
1018.337, 9.594574
1018.819, 9.615265
1019.301, 6.536072
1019.783, 5.651947
1020.265, 8.141266
1020.747, 10.49283
1021.229, 9.939667
1021.712, 7.833160
1022.194, 6.512573
1022.676, 6.013245
1023.158, 7.505035
1023.640, 10.98160
1024.122, 11.85690
1024.604, 8.593170
1025.086, 5.424164
1025.568, 5.954651
1026.051, 8.899078
1026.533, 11.10754
1027.015, 12.57620
1027.497, 13.26996
1027.979, 13.11780
1028.461, 12.55640
1028.943, 11.55011
1029.425, 10.81555
1029.908, 11.04767
1030.390, 11.97910
1030.872, 12.79535
1031.354, 13.53580
1031.836, 13.70447
1032.318, 12.68457
1032.800, 13.16199
1033.282, 16.56268
1033.765, 20.60614
1034.247, 22.99091
1034.729, 24.22766
1035.211, 26.23849
1035.693, 29.39447
1036.175, 32.11472
1036.657, 33.77380
1037.139, 36.30023
1037.621, 40.86325
1038.104, 45.70773
1038.586, 49.94952
1039.068, 53.05963
1039.550, 52.51404
1040.032, 45.96118
1040.514, 41.43604
1040.996, 38.88974
1041.478, 38.44489
1041.960, 40.61993
1042.443, 44.33395
1042.925, 47.03381
1043.407, 50.41565
1043.889, 61.78299
1044.371, 79.35013
1044.853, 108.8413
1045.335, 141.3470
1045.817, 197.7373
1046.300, 287.9932
1046.782, 401.6227
1047.264, 547.9142
1047.746, 710.2765
1048.228, 833.3014
1048.710, 914.5688
1049.192, 951.8909
1049.674, 902.0566
1050.156, 862.2803
1050.639, 858.5657
1051.121, 885.7639
1051.603, 941.8958
1052.085, 1024.100
1052.567, 1125.696
1053.049, 1249.746
1053.531, 1380.532
1054.013, 1514.286
1054.495, 1656.617
1054.978, 1801.728
1055.460, 1963.449
1055.942, 2131.882
1056.424, 2329.455
1056.906, 2593.771
1057.388, 2905.688
1057.870, 3406.869
1058.352, 4316.370
1058.835, 5195.806
1059.317, 6168.416
1059.799, 6756.856
1060.281, 6403.643
1060.763, 5343.077
1061.245, 4135.477
1061.727, 2852.837
1062.209, 1799.737
1062.692, 1116.227
1063.174, 644.7109
1063.656, 388.0459
1064.138, 246.9438
1064.620, 163.9607
1065.102, 118.0547
1065.584, 89.13290
1066.066, 73.34967
1066.548, 61.27759
1067.031, 49.74768
1067.513, 40.46722
1067.995, 35.21484
1068.477, 31.72198
1068.959, 28.14340
1069.441, 24.70126
1069.923, 22.31525
1070.405, 21.17664
1070.887, 20.29297
1071.370, 19.14148
1071.852, 18.26962
1072.334, 18.62149
1072.816, 18.70618
1073.298, 16.69879
1073.780, 13.77817
1074.262, 12.23297
1074.744, 12.39487
1075.227, 12.47101
1075.709, 12.36685
1076.191, 11.10193
1076.673, 6.657227
1077.155, 2.356750
1077.637, 1.052643
1078.119, 1.714874
1078.601, 2.488312
1079.083, 3.060760
1079.566, 4.000061
1080.048, 5.961060
1080.530, 7.528473
1081.012, 7.794281
1081.494, 7.662354
1081.976, 8.153351
1082.458, 8.500885
1082.940, 7.035553
1083.422, 4.088501
1083.905, 2.330414
1084.387, 2.949615
1084.869, 4.207367
1085.351, 5.762695
1085.833, 7.177673
1086.315, 8.884338
1086.797, 9.792297
1087.279, 7.651978
1087.761, 3.404236
1088.244, 1.144287
1088.726, 2.650299
1089.208, 3.994385
1089.690, 3.494415
1090.172, 2.373901
1090.654, 0.4499820
1091.136, 1.011200
1091.618, 0.2123720
1092.101, 2.096283
1092.583, 3.493805
1093.065, 3.225708
1093.547, 3.357269
1094.029, 5.563354
1094.511, 7.232666
1094.993, 7.013306
1095.475, 5.754944
1095.958, 3.285706
1096.440, 0.7174990
1096.922, 0.4410710
1097.404, 2.961884
1097.886, 4.586060
1098.368, 2.932983
1098.850, 1.766968
1099.332, 3.202545
1099.814, 4.870575
1100.297, 5.181976
1100.779, 4.477264
1101.261, 3.004089
1101.743, 0.9704900
1102.225, 0.3049620
1102.707, 2.791962
1103.189, 4.688934
1103.671, 5.003510
1104.153, 4.544434
1104.636, 3.077576
1105.118, 1.535278
1105.600, 1.309784
1106.082, 2.163605
1106.564, 2.209869
1107.046, 0.3199160
1107.528, 0.5422360
1108.010, 0.9230350
1108.493, 2.491791
1108.975, 3.928864
1109.457, 4.535736
1109.939, 2.974304
1110.421, 0.1168520
1110.903, 1.317688
1111.385, 0.7831730
1111.867, 0.3552250
1112.349, 2.759430
1112.832, 4.043213
1113.314, 2.809540
1113.796, 1.058960
1114.278, 0.1200560
1114.760, 0.7371220
1115.242, 0.7410580
1115.724, 3.1158000E-02
1116.206, 0.5522160
1116.688, 1.543335
1117.171, 1.475189
1117.653, 1.121002
1118.135, 3.069214
1118.617, 2.558228
1119.099, 0.7286990
1119.581, 1.351410
1120.063, 3.563629
1120.545, 3.920105
1121.028, 1.019012
1121.510, 0.4635310
1121.992, 0.4216000
1122.474, 1.183289
1122.956, 0.6321110
1123.438, 0.1062320
1123.920, 1.132782
1124.402, 3.116089
1124.885, 3.733948
1125.367, 2.477295
1125.849, 2.268066
1126.331, 3.712952
1126.813, 4.071106
1127.295, 2.296448
1127.777, 0.3806760
1128.259, 0.2553710
1128.741, 0.1612550
1129.224, 0.4867550
1129.706, 1.274536
1130.188, 0.7662660
1130.670, 1.318878
1131.152, 2.171326
1131.634, 1.059601
1132.116, 1.253082
1132.598, 4.681427
1133.080, 8.567749
1133.563, 9.485107
1134.045, 7.971222
1134.527, 5.700378
1135.009, 2.764984
1135.491, 1.535492
1135.973, 2.166962
1136.455, 3.746063
1136.937, 5.970825
1137.420, 6.988373
1137.902, 4.966431
1138.384, 1.858643
1138.866, 1.700592
1139.348, 3.700165
1139.830, 4.850525
1140.312, 5.183075
1140.794, 5.320953
1141.276, 5.369537
1141.759, 4.869568
1142.241, 3.546631
1142.723, 2.487854
1143.205, 3.594818
1143.687, 5.391754
1144.169, 4.784515
1144.651, 2.788818
1145.133, 1.506195
1145.615, 1.129181
1146.098, 1.282135
1146.580, 1.821564
1147.062, 2.740295
1147.544, 4.318176
1148.026, 5.669006
1148.508, 5.697968
1148.990, 5.029999
1149.472, 4.262482
1149.955, 3.691498
1150.437, 4.101654
1150.919, 5.257477
1151.401, 5.586243
1151.883, 4.237091
1152.365, 2.840942
1152.847, 2.370087
1153.329, 2.305023
1153.812, 2.477448
1154.294, 2.685822
1154.776, 2.573090
1155.258, 2.385925
1155.740, 2.836395
1156.222, 4.091187
1156.704, 4.958069
1157.186, 4.340515
1157.668, 4.258545
1158.151, 6.609375
1158.633, 8.371857
1159.115, 6.980988
1159.597, 4.276672
1160.079, 2.658844
1160.561, 2.177094
1161.043, 1.755127
1161.525, 0.7239690
1162.007, 0.9389340
1162.490, 4.064819
1162.972, 6.328644
1163.454, 6.566345
1163.936, 5.740997
1164.418, 3.757660
1164.900, 1.650543
1165.382, 1.939362
1165.864, 5.014557
1166.347, 6.960815
1166.829, 7.727509
1167.311, 7.469910
1167.793, 6.055573
1168.275, 3.727325
1168.757, 0.2197270
1169.239, 2.627319
1169.721, 0.7144470
1170.203, 7.798248
1170.686, 9.891998
1171.168, 6.795319
1171.650, 5.722717
1172.132, 7.026001
1172.614, 6.509674
1173.096, 3.007690
1173.578, 1.293854
1174.060, 4.806488
1174.542, 9.716003
1175.025, 9.668884
1175.507, 6.368408
1175.989, 5.002716
1176.471, 5.168396
1176.953, 6.790771
1177.435, 9.398224
1177.917, 10.79611
1178.399, 10.26752
1178.882, 9.133698
1179.364, 8.331757
1179.846, 7.722870
1180.328, 6.761414
1180.810, 5.985077
1181.292, 6.558289
1181.774, 7.793427
1182.256, 8.233734
1182.739, 7.761444
1183.221, 7.183472
1183.703, 6.835724
1184.185, 7.000183
1184.667, 9.326874
1185.149, 10.40121
1185.631, 6.417786
1186.113, 1.656586
1186.595, 0.2018740
1187.078, 0.3131100
1187.560, 2.072601
1188.042, 4.845459
1188.524, 7.530212
1189.006, 10.68405
1189.488, 12.13641
1189.970, 10.33371
1190.452, 8.317932
1190.934, 6.766663
1191.417, 5.950317
1191.899, 6.372589
1192.381, 7.575348
1192.863, 8.605652
1193.345, 9.674469
1193.827, 8.712372
1194.309, 4.298431
1194.791, 2.101227
1195.274, 3.510559
1195.756, 5.332123
1196.238, 6.189819
1196.720, 6.425018
1197.202, 6.315308
1197.684, 6.051117
1198.166, 6.437744
1198.648, 7.428436
1199.130, 7.723267
1199.613, 7.316833
1200.095, 6.778442
1200.577, 6.260315
1201.059, 6.233795
1201.541, 6.986481
1202.023, 7.699463
1202.505, 7.216888
1202.987, 6.166687
1203.469, 5.928955
1203.952, 6.017181
1204.434, 4.783661
1204.916, 3.029144
1205.398, 3.927185
1205.880, 7.634644
1206.362, 10.06967
1206.844, 8.846161
1207.326, 6.687134
1207.809, 4.953888
1208.291, 3.805664
1208.773, 3.649231
1209.255, 3.922241
1209.737, 4.074615
1210.219, 4.116058
1210.701, 4.223083
1211.183, 4.428619
1211.666, 4.689240
1212.148, 4.266235
1212.630, 5.016571
1213.112, 9.801453
1213.594, 12.69467
1214.076, 9.354614
1214.558, 4.595428
1215.040, 2.350250
1215.522, 2.191925
1216.005, 3.081909
1216.487, 5.231873
1216.969, 6.656494
1217.451, 7.246887
1217.933, 7.516510
1218.415, 7.526947
1218.897, 7.285675
1219.379, 6.775604
1219.861, 6.085266
1220.344, 5.214966
1220.826, 4.354889
1221.308, 4.099518
1221.790, 4.289124
1222.272, 4.098633
1222.754, 3.584229
1223.236, 3.276733
1223.718, 3.191803
1224.201, 2.513000
1224.683, 0.9192200
1225.165, 4.3029999E-03
1225.647, 1.841156
1226.129, 4.419250
1226.611, 5.417847
1227.093, 5.685120
1227.575, 6.760834
1228.057, 8.145050
1228.540, 9.485168
1229.022, 10.39716
1229.504, 9.589050
1229.986, 6.068695
1230.468, 3.394958
1230.950, 3.592041
1231.432, 3.735260
1231.914, 2.870209
1232.396, 1.487213
1232.879, 1.651703
1233.361, 4.043579
1233.843, 1.149384
1234.325, 6.027557
1234.807, 9.491089
1235.289, 7.955109
1235.771, 6.763580
1236.253, 6.019440
1236.736, 5.326630
1237.218, 4.765289
1237.700, 3.990082
1238.182, 2.722473
1238.664, 1.282593
1239.146, 1.1292000E-02
1239.628, 0.9515990
1240.110, 0.7906190
1240.593, 0.3179630
1241.075, 2.073059
1241.557, 4.154510
1242.039, 5.331451
1242.521, 5.421753
1243.003, 5.348267
1243.485, 5.632202
1243.967, 5.559021
1244.449, 3.488190
1244.932, 1.891144
1245.414, 3.270203
1245.896, 6.176208
1246.378, 10.88394
1246.860, 14.94125
1247.342, 13.02463
1247.824, 5.895142
1248.306, 2.535370
1248.788, 7.067871
1249.271, 9.566376
1249.753, 6.124725
1250.235, 3.618713
1250.717, 4.142792
1251.199, 5.628571
1251.681, 7.430298
1252.163, 9.005859
1252.645, 9.555115
1253.128, 9.233551
1253.610, 9.124725
1254.092, 9.346375
1254.574, 7.699341
1255.056, 4.005493
1255.538, 3.249603
1256.020, 6.405273
1256.502, 9.005829
1256.984, 8.370758
1257.467, 6.972565
1257.949, 7.869080
1258.431, 9.382538
1258.913, 8.459015
1259.395, 6.337952
1259.877, 4.444458
1260.359, 2.710449
1260.841, 2.946655
1261.323, 3.922272
1261.806, 4.049561
1262.288, 2.670105
1262.770, 1.455597
1263.252, 0.9414980
1263.734, 0.7655330
1264.216, 0.3914490
1264.698, 0.7565920
1265.180, 3.972351
1265.663, 7.269684
1266.145, 6.379486
1266.627, 2.907623
1267.109, 2.851410
1267.591, 7.323914
1268.073, 8.010742
1268.555, 3.658691
1269.037, 1.655243
1269.520, 3.323120
1270.002, 5.991272
1270.484, 8.651123
1270.966, 9.708771
1271.448, 7.362946
1271.930, 3.658752
1272.412, 2.181061
1272.894, 2.253693
1273.376, 2.280518
1273.859, 2.573334
1274.341, 4.552734
1274.823, 7.389526
1275.305, 8.154572
1275.787, 6.167450
1276.269, 3.748718
1276.751, 1.206207
1277.233, 7.4160001E-03
1277.715, 1.985535
1278.198, 4.051270
1278.680, 4.398315
1279.162, 4.135620
1279.644, 4.450409
1280.126, 4.828278
1280.608, 4.007355
1281.090, 2.052063
1281.572, 0.7265630
1282.055, 0.4379580
1282.537, 1.131958
1283.019, 6.198456
1283.501, 8.651520
1283.983, 6.726196
1284.465, 3.050049
1284.947, 2.338287
1285.429, 2.056854
1285.911, 1.148224
1286.394, 0.0000000E+00
##END=



