##NAMES=Wollastonite
##RRUFFID=R120122
##IDEAL CHEMISTRY=CaSiO_3_
##LOCALITY=Fuka mine, Bicchu-cho, Okayama Prefecture, Japan
##OWNER=RRUFF
##SOURCE=Marcus Origlieri
##DESCRIPTION=Colorless platy, frozen in matrix, polytype 2M, associated with perovskite R120121, spurrite and gehlenite
##STATUS=The identification of this mineral has been confirmed by single-crystal X-ray diffraction.
##URL=rruff.info/R120122
141.8218, 9.8876998E-02
142.3039, 1.672241
142.7860, 3.318237
143.2681, 5.096313
143.7503, 7.316284
144.2324, 10.31812
144.7145, 13.46545
145.1966, 16.13501
145.6787, 18.31213
146.1608, 20.48010
146.6430, 23.38782
147.1251, 27.22705
147.6072, 29.97217
148.0893, 29.32642
148.5714, 28.70215
149.0535, 30.15894
149.5357, 34.08276
150.0178, 39.25562
150.4999, 43.75610
150.9820, 46.91602
151.4641, 51.04590
151.9462, 57.31641
152.4284, 63.96484
152.9105, 69.90601
153.3926, 74.53320
153.8747, 78.07715
154.3568, 81.69043
154.8389, 86.78174
155.3211, 89.42993
155.8032, 88.21265
156.2853, 85.37207
156.7674, 83.07861
157.2495, 82.53906
157.7316, 83.31714
158.2138, 84.91089
158.6959, 88.01855
159.1780, 91.40723
159.6601, 94.23657
160.1422, 98.09839
160.6243, 103.6741
161.1065, 111.7676
161.5886, 122.3337
162.0707, 134.1597
162.5528, 148.4915
163.0349, 162.7380
163.5170, 176.8132
163.9991, 190.4082
164.4813, 199.8772
164.9634, 201.8389
165.4455, 197.9077
165.9276, 192.3767
166.4097, 183.4634
166.8918, 174.8420
167.3740, 170.9985
167.8561, 172.5840
168.3382, 175.8650
168.8203, 181.3723
169.3024, 186.6792
169.7845, 188.3220
170.2667, 184.0432
170.7488, 175.8181
171.2309, 167.9160
171.7130, 159.7378
172.1951, 152.8547
172.6772, 148.1775
173.1594, 145.0098
173.6415, 142.4963
174.1236, 140.6155
174.6057, 138.8230
175.0878, 133.6965
175.5699, 122.3870
176.0521, 110.6985
176.5342, 99.49780
177.0163, 89.08228
177.4984, 79.81421
177.9805, 71.92285
178.4626, 65.40381
178.9448, 59.95801
179.4269, 55.52466
179.9090, 52.15918
180.3911, 50.28271
180.8732, 49.56982
181.3553, 49.22583
181.8375, 48.50049
182.3196, 47.20947
182.8017, 47.54712
183.2838, 50.19116
183.7659, 53.37109
184.2480, 56.61670
184.7301, 59.68066
185.2123, 62.15625
185.6944, 63.31030
186.1765, 62.81201
186.6586, 63.03931
187.1407, 64.85986
187.6228, 66.86304
188.1050, 67.89746
188.5871, 67.74219
189.0692, 67.17480
189.5513, 67.36450
190.0334, 68.43359
190.5155, 69.04126
190.9977, 69.55737
191.4798, 69.20312
191.9619, 66.94189
192.4440, 62.54834
192.9261, 57.27197
193.4082, 51.80762
193.8904, 46.23633
194.3725, 40.93774
194.8546, 35.56934
195.3367, 30.60962
195.8188, 27.17236
196.3009, 25.80957
196.7831, 24.99365
197.2652, 23.69897
197.7473, 22.01294
198.2294, 20.12939
198.7115, 18.02710
199.1936, 15.87793
199.6758, 14.25098
200.1579, 13.46460
200.6400, 12.75220
201.1221, 12.06665
201.6042, 11.16528
202.0863, 9.420898
202.5685, 5.757324
203.0506, 5.401136
203.5327, 3.205566
204.0148, 3.520996
204.4969, 3.291504
204.9790, 3.422852
205.4612, 3.872559
205.9433, 4.348145
206.4254, 4.682861
206.9075, 4.885498
207.3896, 4.500000
207.8717, 2.531250
208.3539, 0.8684080
208.8360, 0.2470700
209.3181, 0.4980470
209.8002, 1.027100
210.2823, 1.299561
210.7644, 1.271729
211.2466, 1.465820
211.7287, 2.547363
212.2108, 3.209717
212.6929, 2.445068
213.1750, 0.6450200
213.6571, 0.9001460
214.1393, 0.9084470
214.6214, 0.9506840
215.1035, 1.954834
215.5856, 1.308838
216.0677, 0.6940920
216.5498, 1.288330
217.0320, 2.861084
217.5141, 4.123047
217.9962, 3.930664
218.4783, 2.106934
218.9604, 0.2753910
219.4425, 4.115479
219.9247, 7.738281
220.4068, 9.670410
220.8889, 10.08154
221.3710, 10.77954
221.8531, 13.49805
222.3352, 18.39038
222.8174, 22.25806
223.2995, 24.40161
223.7816, 26.04883
224.2637, 28.28076
224.7458, 31.11304
225.2279, 33.50024
225.7100, 34.69312
226.1922, 34.59277
226.6743, 33.50293
227.1564, 30.46191
227.6385, 27.03882
228.1206, 24.63647
228.6027, 23.33643
229.0849, 22.55005
229.5670, 21.99390
230.0491, 21.64697
230.5312, 21.45728
231.0133, 21.42993
231.4954, 21.54639
231.9776, 21.61035
232.4597, 21.52710
232.9418, 22.07104
233.4239, 24.62500
233.9060, 27.99365
234.3881, 30.33325
234.8703, 31.00806
235.3524, 30.59570
235.8345, 29.72339
236.3166, 28.27661
236.7987, 26.87866
237.2808, 25.77637
237.7630, 24.92969
238.2451, 24.38403
238.7272, 24.21606
239.2093, 24.26001
239.6914, 24.19946
240.1735, 23.95972
240.6557, 23.90747
241.1378, 24.70435
241.6199, 25.54639
242.1020, 25.59229
242.5841, 24.46997
243.0662, 22.69019
243.5484, 21.14233
244.0305, 20.01294
244.5126, 18.61621
244.9947, 15.92114
245.4768, 13.32349
245.9589, 12.32153
246.4410, 13.49683
246.9232, 15.51074
247.4053, 15.98901
247.8874, 14.11914
248.3695, 12.59619
248.8516, 11.44141
249.3337, 10.99365
249.8159, 11.82764
250.2980, 14.07739
250.7801, 16.83691
251.2622, 18.62646
251.7443, 19.02832
252.2264, 19.28613
252.7086, 19.72363
253.1907, 19.95264
253.6728, 19.67334
254.1549, 18.82324
254.6370, 17.59302
255.1191, 16.12231
255.6013, 13.74780
256.0834, 12.67773
256.5655, 13.73096
257.0476, 15.27637
257.5297, 16.69556
258.0118, 17.66479
258.4940, 17.73022
258.9761, 16.07031
259.4582, 11.54028
259.9403, 8.193604
260.4224, 5.848877
260.9045, 4.508301
261.3867, 4.252686
261.8688, 5.145020
262.3509, 6.729980
262.8330, 8.585205
263.3151, 11.06079
263.7972, 12.33057
264.2794, 11.13306
264.7615, 10.03198
265.2436, 10.71704
265.7257, 13.12695
266.2078, 15.80762
266.6899, 17.18433
267.1721, 16.75610
267.6542, 18.02539
268.1363, 22.47339
268.6184, 26.93335
269.1005, 29.98193
269.5826, 31.55981
270.0648, 32.20361
270.5469, 32.30127
271.0290, 31.83838
271.5111, 31.81006
271.9932, 32.47876
272.4753, 33.11133
272.9575, 32.91772
273.4396, 32.43335
273.9217, 32.97290
274.4038, 35.50781
274.8859, 39.79639
275.3680, 43.32690
275.8501, 46.01123
276.3322, 48.48657
276.8144, 51.02661
277.2965, 53.45776
277.7786, 55.40088
278.2607, 56.56299
278.7428, 57.18530
279.2249, 58.41382
279.7071, 61.05518
280.1892, 63.27881
280.6713, 64.17773
281.1534, 64.38916
281.6355, 65.13477
282.1176, 66.99023
282.5998, 69.49707
283.0819, 71.31592
283.5640, 71.87695
284.0461, 72.97339
284.5282, 74.88574
285.0103, 77.58105
285.4925, 81.09253
285.9746, 85.47632
286.4567, 90.49438
286.9388, 95.98462
287.4209, 102.1799
287.9030, 107.9333
288.3852, 112.2559
288.8673, 116.3203
289.3494, 121.4568
289.8315, 127.9695
290.3136, 135.3982
290.7957, 143.3992
291.2779, 151.9451
291.7600, 160.9990
292.2421, 170.7546
292.7242, 180.9351
293.2063, 191.5134
293.6884, 202.5090
294.1706, 213.1982
294.6527, 223.0474
295.1348, 231.9602
295.6169, 239.8904
296.0990, 246.8252
296.5811, 252.8838
297.0633, 258.2891
297.5454, 263.0330
298.0275, 266.7241
298.5096, 268.3499
298.9917, 268.6804
299.4738, 272.0537
299.9560, 280.0261
300.4381, 289.0598
300.9202, 297.8682
301.4023, 306.3088
301.8844, 314.3469
302.3665, 323.1033
302.8487, 330.4375
303.3308, 330.8230
303.8129, 323.0728
304.2950, 311.3079
304.7771, 295.9141
305.2592, 277.9375
305.7414, 259.5078
306.2235, 240.8867
306.7056, 223.0564
307.1877, 208.0376
307.6698, 195.4250
308.1519, 185.6086
308.6341, 179.6445
309.1162, 176.4917
309.5983, 174.3831
310.0804, 172.7910
310.5625, 171.7375
311.0446, 171.4553
311.5268, 171.9570
312.0089, 173.2744
312.4910, 175.3608
312.9731, 178.2798
313.4552, 182.2268
313.9373, 187.2256
314.4195, 192.9836
314.9016, 199.6003
315.3837, 206.8972
315.8658, 213.8950
316.3479, 220.6406
316.8300, 227.0378
317.3121, 233.1270
317.7943, 238.8767
318.2764, 243.8235
318.7585, 247.8401
319.2406, 250.6687
319.7227, 251.9924
320.2048, 251.5862
320.6870, 250.0334
321.1691, 247.1946
321.6512, 243.3511
322.1333, 239.4207
322.6154, 235.5991
323.0975, 232.2703
323.5797, 230.4048
324.0618, 230.2708
324.5439, 230.6736
325.0260, 230.3818
325.5081, 230.4495
325.9902, 232.9280
326.4724, 238.5344
326.9545, 246.5186
327.4366, 256.3242
327.9187, 268.2217
328.4008, 279.8174
328.8829, 290.2908
329.3651, 300.3472
329.8472, 310.7480
330.3293, 321.6130
330.8114, 332.8320
331.2935, 344.7168
331.7756, 357.2856
332.2578, 368.2009
332.7399, 377.0273
333.2220, 384.3416
333.7041, 391.4768
334.1862, 397.9700
334.6683, 401.2349
335.1505, 399.5002
335.6326, 392.7126
336.1147, 382.4299
336.5968, 367.2024
337.0789, 350.4446
337.5610, 332.8450
338.0432, 314.7620
338.5253, 296.9756
339.0074, 279.7390
339.4895, 263.3032
339.9716, 248.6572
340.4537, 236.9790
340.9359, 224.7283
341.4180, 210.7705
341.9001, 196.0374
342.3822, 181.7141
342.8643, 168.1816
343.3464, 155.1687
343.8286, 142.3906
344.3107, 129.9812
344.7928, 117.3936
345.2749, 103.6414
345.7570, 90.46313
346.2391, 79.28442
346.7213, 70.19727
347.2034, 62.31494
347.6855, 55.11719
348.1676, 48.65381
348.6497, 41.48828
349.1318, 31.84448
349.6140, 23.40210
350.0961, 18.14600
350.5782, 15.39526
351.0603, 13.60718
351.5424, 12.03052
352.0245, 10.44067
352.5067, 7.826904
352.9888, 6.218003
353.4709, 2.210693
353.9530, 2.744873
354.4351, 1.659912
354.9172, 1.105225
355.3994, 1.854736
355.8815, 3.546387
356.3636, 5.674316
356.8457, 9.348145
357.3278, 11.05981
357.8099, 9.585938
358.2920, 7.287354
358.7741, 5.609863
359.2563, 4.749268
359.7384, 4.315674
360.2205, 3.947510
360.7026, 3.661621
361.1847, 3.245361
361.6668, 1.976074
362.1490, 1.324707
362.6311, 2.246338
363.1132, 4.104980
363.5953, 5.742920
364.0774, 6.447021
364.5595, 6.409912
365.0417, 6.420410
365.5238, 6.333252
366.0059, 6.537109
366.4880, 8.114014
366.9701, 9.494385
367.4522, 8.932373
367.9344, 5.956299
368.4165, 1.746582
368.8986, 2.187988
369.3807, 6.380127
369.8628, 8.719482
370.3449, 8.654541
370.8271, 7.309570
371.3092, 4.374268
371.7913, 4.706923
372.2734, 2.690186
372.7555, 3.389648
373.2376, 1.709229
373.7198, 0.1413570
374.2019, 2.011963
374.6840, 4.336182
375.1661, 7.701660
375.6482, 11.50195
376.1303, 14.74780
376.6125, 16.95508
377.0946, 18.44214
377.5767, 19.65137
378.0588, 20.00586
378.5409, 21.72632
379.0230, 26.55493
379.5052, 32.26489
379.9873, 37.24634
380.4694, 41.17017
380.9515, 44.60718
381.4336, 47.43286
381.9157, 49.69897
382.3979, 54.11841
382.8800, 62.24805
383.3621, 71.25903
383.8442, 79.34668
384.3263, 86.60376
384.8084, 93.78101
385.2906, 101.0859
385.7727, 108.5054
386.2548, 115.8120
386.7369, 122.5923
387.2190, 130.6482
387.7011, 142.7690
388.1833, 156.4189
388.6654, 167.8596
389.1475, 175.6575
389.6296, 182.4807
390.1117, 190.4626
390.5938, 199.5623
391.0760, 208.7986
391.5581, 217.1592
392.0402, 226.5334
392.5223, 239.8374
393.0044, 257.2600
393.4865, 274.9873
393.9687, 291.0002
394.4508, 306.5481
394.9329, 323.4192
395.4150, 342.0989
395.8971, 361.6177
396.3792, 381.9839
396.8614, 402.8523
397.3435, 421.4309
397.8256, 436.1348
398.3077, 449.9890
398.7898, 464.8562
399.2719, 480.5613
399.7540, 496.1060
400.2361, 510.7087
400.7183, 525.2273
401.2004, 542.1746
401.6825, 563.0010
402.1646, 583.2883
402.6467, 601.4575
403.1288, 619.0984
403.6110, 637.6116
404.0931, 657.3215
404.5752, 678.5415
405.0573, 701.6597
405.5394, 726.6687
406.0215, 753.3257
406.5037, 780.6609
406.9858, 810.1929
407.4679, 843.0544
407.9500, 878.8403
408.4321, 917.3289
408.9142, 959.3584
409.3964, 1002.822
409.8785, 1038.997
410.3606, 1069.390
410.8427, 1088.987
411.3248, 1098.455
411.8069, 1096.635
412.2891, 1082.016
412.7712, 1054.329
413.2533, 1015.090
413.7354, 965.6304
414.2175, 904.4019
414.6996, 837.8743
415.1818, 759.1287
415.6639, 682.1750
416.1460, 610.8237
416.6281, 545.4531
417.1102, 486.8108
417.5923, 435.1609
418.0745, 390.1702
418.5566, 350.2048
419.0387, 316.2349
419.5208, 285.8633
420.0029, 259.0200
420.4850, 234.7991
420.9672, 212.6143
421.4493, 192.3574
421.9314, 174.4949
422.4135, 160.4333
422.8956, 149.9868
423.3777, 138.6431
423.8599, 124.5159
424.3420, 111.0122
424.8241, 101.0400
425.3062, 94.00391
425.7883, 87.44287
426.2704, 79.61597
426.7526, 71.98291
427.2347, 66.67432
427.7168, 63.74390
428.1989, 62.37231
428.6810, 63.05396
429.1631, 64.59448
429.6453, 64.26318
430.1274, 61.13574
430.6095, 57.85840
431.0916, 55.83057
431.5737, 54.65088
432.0558, 53.56592
432.5380, 52.40942
433.0201, 50.87354
433.5022, 48.40454
433.9843, 44.77612
434.4664, 41.80444
434.9485, 39.24365
435.4307, 37.56592
435.9128, 37.91455
436.3949, 39.57300
436.8770, 39.96411
437.3591, 37.27124
437.8412, 32.74390
438.3234, 31.16748
438.8055, 35.97217
439.2876, 39.42065
439.7697, 40.03174
440.2518, 39.63403
440.7339, 40.13306
441.2160, 41.78931
441.6982, 43.32959
442.1803, 43.27539
442.6624, 41.52246
443.1445, 39.09253
443.6266, 34.14282
444.1087, 30.45386
444.5909, 30.09595
445.0730, 31.61841
445.5551, 32.59644
446.0372, 31.71826
446.5193, 29.85034
447.0014, 29.05322
447.4836, 29.92334
447.9657, 30.07471
448.4478, 28.01172
448.9299, 25.88623
449.4120, 25.14673
449.8941, 25.81274
450.3763, 26.83423
450.8584, 27.56445
451.3405, 28.00879
451.8226, 28.06787
452.3047, 27.67041
452.7868, 26.99072
453.2690, 26.09155
453.7511, 24.95386
454.2332, 23.44287
454.7153, 21.23706
455.1974, 19.16675
455.6795, 17.99463
456.1617, 17.56445
456.6438, 17.10718
457.1259, 16.14307
457.6080, 15.67090
458.0901, 17.46460
458.5722, 21.48901
459.0544, 25.13599
459.5365, 28.22168
460.0186, 30.55688
460.5007, 31.37378
460.9828, 31.04297
461.4649, 31.27026
461.9471, 32.95337
462.4292, 36.19727
462.9113, 41.64014
463.3934, 52.36597
463.8755, 61.11377
464.3576, 65.89233
464.8398, 69.03589
465.3219, 73.10693
465.8040, 78.51440
466.2861, 83.63086
466.7682, 86.75000
467.2503, 87.85156
467.7325, 87.29541
468.2146, 83.76855
468.6967, 79.89893
469.1788, 76.12109
469.6609, 72.50195
470.1430, 68.76660
470.6252, 64.73340
471.1073, 61.36523
471.5894, 60.53223
472.0715, 62.74805
472.5536, 65.85156
473.0357, 71.25635
473.5179, 75.94238
474.0000, 77.11182
474.4821, 75.78809
474.9642, 76.18311
475.4463, 81.74121
475.9284, 90.10449
476.4106, 96.09180
476.8927, 99.35498
477.3748, 103.3882
477.8569, 109.4727
478.3390, 117.4990
478.8211, 127.2207
479.3033, 138.9019
479.7854, 150.5142
480.2675, 161.2324
480.7496, 171.2461
481.2317, 180.7739
481.7138, 189.8013
482.1959, 198.6675
482.6780, 208.0630
483.1602, 217.9067
483.6423, 226.0132
484.1244, 233.5547
484.6065, 238.1973
485.0886, 239.3018
485.5707, 236.8423
486.0529, 230.4443
486.5350, 220.1138
487.0171, 206.9917
487.4992, 192.7705
487.9813, 176.4282
488.4634, 161.6479
488.9456, 148.7666
489.4277, 136.8691
489.9098, 125.2061
490.3919, 114.2065
490.8740, 104.9185
491.3561, 98.02979
491.8383, 93.18945
492.3204, 89.57324
492.8025, 87.45996
493.2846, 85.86523
493.7667, 84.54004
494.2488, 83.70898
494.7310, 83.90771
495.2131, 84.98877
495.6952, 85.77441
496.1773, 84.99658
496.6594, 83.30469
497.1415, 82.71338
497.6237, 83.60498
498.1058, 83.99854
498.5879, 82.51709
499.0700, 79.97070
499.5521, 77.80322
500.0342, 75.89111
500.5164, 74.87109
500.9985, 75.64697
501.4806, 77.38037
501.9627, 78.30322
502.4448, 78.02344
502.9269, 78.45361
503.4091, 81.91113
503.8912, 88.59033
504.3733, 92.00195
504.8554, 90.49707
505.3375, 87.99316
505.8196, 84.99072
506.3018, 82.15625
506.7839, 80.75049
507.2660, 81.14941
507.7481, 81.81934
508.2302, 80.18945
508.7123, 75.34668
509.1945, 71.45947
509.6766, 68.01562
510.1587, 66.08057
510.6408, 68.24805
511.1229, 71.94092
511.6050, 72.17920
512.0872, 66.07666
512.5693, 56.69873
513.0514, 48.98975
513.5335, 42.85352
514.0156, 39.19873
514.4977, 39.86035
514.9799, 41.48438
515.4620, 41.82959
515.9441, 40.80811
516.4262, 38.13623
516.9083, 31.34912
517.3904, 24.17432
517.8726, 21.79102
518.3547, 23.99561
518.8368, 27.43652
519.3189, 31.32715
519.8010, 34.57617
520.2831, 34.04834
520.7653, 28.45654
521.2474, 23.73291
521.7295, 21.50195
522.2116, 20.07764
522.6937, 17.82471
523.1758, 14.81836
523.6580, 12.33350
524.1401, 11.34082
524.6222, 11.54199
525.1043, 11.49756
525.5864, 11.64697
526.0685, 10.81738
526.5507, 7.823730
527.0328, 4.642090
527.5149, 3.144043
527.9970, 3.346680
528.4791, 3.637207
528.9612, 2.550293
529.4434, 0.3159180
529.9255, 1.582031
530.4076, 2.750977
530.8897, 4.471680
531.3718, 8.985352
531.8539, 13.49365
532.3361, 14.36768
532.8182, 10.50342
533.3003, 6.958008
533.7824, 7.322754
534.2645, 10.27734
534.7466, 13.49512
535.2288, 16.80322
535.7109, 18.66748
536.1930, 17.48730
536.6751, 13.79346
537.1572, 11.25684
537.6393, 11.45996
538.1215, 10.77148
538.6036, 7.006836
539.0857, 2.317383
539.5678, 0.6987300
540.0499, 1.518555
540.5320, 1.385254
541.0142, 1.522949
541.4963, 1.933105
541.9784, 2.086914
542.4604, 0.9575200
542.9426, 0.7836910
543.4247, 3.003906
543.9068, 5.899902
544.3889, 7.396484
544.8710, 6.973145
545.3531, 5.939941
545.8353, 5.074707
546.3174, 4.530762
546.7995, 6.482910
547.2816, 12.38037
547.7637, 17.89355
548.2458, 19.46729
548.7280, 19.03320
549.2101, 19.79102
549.6922, 22.84619
550.1743, 25.87988
550.6564, 27.47510
551.1385, 28.03662
551.6207, 28.29541
552.1028, 28.40674
552.5849, 28.67578
553.0670, 29.76514
553.5491, 31.70215
554.0313, 30.72559
554.5134, 22.87939
554.9955, 17.34912
555.4776, 19.06689
555.9597, 23.41895
556.4418, 24.12842
556.9240, 19.86816
557.4061, 14.69043
557.8882, 13.66748
558.3703, 16.99658
558.8524, 17.89697
559.3345, 14.54004
559.8167, 11.16455
560.2988, 8.611816
560.7809, 7.035645
561.2630, 6.857422
561.7451, 8.244629
562.2272, 10.00342
562.7094, 10.96387
563.1915, 11.42969
563.6736, 12.68604
564.1557, 15.12891
564.6378, 17.10400
565.1199, 16.85938
565.6021, 15.20557
566.0842, 15.68945
566.5663, 20.62695
567.0484, 24.45947
567.5305, 24.65820
568.0126, 23.06006
568.4948, 22.01611
568.9769, 21.90283
569.4590, 21.65918
569.9411, 20.16650
570.4232, 17.54639
570.9053, 15.63428
571.3875, 13.71875
571.8696, 13.64795
572.3517, 17.20654
572.8338, 21.71777
573.3159, 24.31934
573.7980, 24.80420
574.2802, 25.65283
574.7623, 29.44238
575.2444, 35.44873
575.7265, 40.96973
576.2086, 46.25146
576.6907, 49.88574
577.1729, 49.73877
577.6550, 48.28857
578.1371, 50.00977
578.6192, 56.04248
579.1013, 60.41553
579.5834, 60.09424
580.0656, 57.38281
580.5477, 54.43311
581.0298, 51.59180
581.5119, 49.21338
581.9940, 47.61035
582.4761, 46.46240
582.9583, 44.64795
583.4404, 40.25049
583.9225, 38.14551
584.4046, 40.34766
584.8867, 43.03564
585.3688, 43.97900
585.8510, 43.11719
586.3331, 41.10400
586.8152, 38.02246
587.2973, 34.49805
587.7794, 32.28613
588.2615, 31.62549
588.7437, 30.88623
589.2258, 29.39648
589.7079, 27.68506
590.1900, 27.11719
590.6721, 27.61230
591.1542, 26.43750
591.6364, 20.30371
592.1185, 13.68701
592.6006, 10.88232
593.0827, 10.89062
593.5648, 11.02002
594.0469, 10.55176
594.5291, 9.256348
595.0112, 6.165527
595.4933, 8.5449003E-02
595.9754, 2.910156
596.4575, 0.1645510
596.9396, 3.076172
597.4218, 2.913086
597.9039, 1.212402
598.3860, 0.5087890
598.8681, 1.691895
599.3502, 3.555664
599.8323, 4.496094
600.3145, 4.507813
600.7966, 5.184570
601.2787, 6.633789
601.7608, 8.744629
602.2429, 11.65820
602.7250, 15.08984
603.2072, 18.57715
603.6893, 22.11523
604.1714, 25.55811
604.6535, 29.47607
605.1356, 33.02539
605.6177, 34.16895
606.0999, 32.99170
606.5820, 32.56494
607.0641, 35.09180
607.5462, 40.12744
608.0283, 45.73535
608.5104, 53.78564
608.9926, 59.63330
609.4747, 61.69238
609.9568, 62.76953
610.4389, 64.17627
610.9210, 66.39355
611.4031, 70.01318
611.8853, 75.73096
612.3674, 82.59033
612.8495, 88.30371
613.3316, 92.75439
613.8137, 98.53320
614.2958, 106.0435
614.7780, 115.4585
615.2601, 127.6079
615.7422, 142.1250
616.2243, 156.7979
616.7064, 170.2998
617.1885, 184.6011
617.6707, 200.1289
618.1528, 217.5059
618.6349, 238.8467
619.1170, 264.6235
619.5991, 291.2329
620.0812, 313.8916
620.5634, 332.1255
621.0455, 355.0513
621.5276, 387.1367
622.0097, 418.6597
622.4918, 447.9971
622.9739, 475.4561
623.4561, 499.5718
623.9382, 520.5938
624.4203, 544.3721
624.9023, 576.9209
625.3845, 615.4971
625.8666, 651.7935
626.3487, 685.2729
626.8308, 722.0000
627.3129, 765.0454
627.7950, 812.8882
628.2772, 863.5190
628.7593, 916.3691
629.2414, 972.5586
629.7235, 1030.099
630.2056, 1093.155
630.6877, 1167.246
631.1699, 1249.273
631.6520, 1333.388
632.1341, 1416.529
632.6162, 1497.502
633.0983, 1576.364
633.5804, 1656.827
634.0626, 1718.452
634.5447, 1764.792
635.0268, 1785.063
635.5089, 1776.816
635.9910, 1741.921
636.4731, 1681.503
636.9553, 1594.242
637.4374, 1489.607
637.9195, 1367.249
638.4016, 1235.106
638.8837, 1102.914
639.3658, 972.9419
639.8480, 853.5093
640.3301, 750.0381
640.8122, 661.1743
641.2943, 581.7666
641.7764, 513.9268
642.2585, 453.7544
642.7407, 400.6099
643.2228, 355.7183
643.7049, 321.4551
644.1870, 296.0015
644.6691, 275.4087
645.1512, 258.2095
645.6334, 243.0801
646.1155, 227.3428
646.5976, 210.8833
647.0797, 197.1978
647.5618, 187.1328
648.0439, 179.7559
648.5261, 175.1499
649.0082, 172.6079
649.4903, 170.1387
649.9724, 166.8467
650.4545, 165.1787
650.9366, 166.9414
651.4188, 170.0146
651.9009, 172.1519
652.3830, 173.1206
652.8651, 173.9893
653.3472, 174.9102
653.8293, 175.8008
654.3115, 178.0024
654.7936, 183.4395
655.2757, 185.6387
655.7578, 181.6216
656.2399, 175.3828
656.7220, 168.4619
657.2042, 161.0601
657.6863, 153.5498
658.1684, 146.8057
658.6505, 138.8584
659.1326, 126.5439
659.6147, 111.5156
660.0969, 98.12012
660.5790, 87.29883
661.0611, 78.94873
661.5432, 73.24219
662.0253, 70.00000
662.5074, 67.04639
662.9896, 64.24365
663.4717, 62.10596
663.9538, 60.09912
664.4359, 58.99512
664.9180, 60.02051
665.4001, 62.74121
665.8823, 65.36035
666.3644, 66.75879
666.8465, 67.53516
667.3286, 69.14941
667.8107, 71.57520
668.2928, 72.52881
668.7750, 70.67578
669.2571, 68.81592
669.7392, 70.25928
670.2213, 74.60791
670.7034, 76.53613
671.1855, 73.84473
671.6677, 70.86768
672.1498, 68.50879
672.6319, 66.83936
673.1140, 66.65381
673.5961, 67.59570
674.0782, 67.56494
674.5604, 64.64355
675.0425, 59.44873
675.5246, 52.79590
676.0067, 43.68457
676.4888, 37.90527
676.9709, 38.48828
677.4531, 40.68604
677.9352, 41.22754
678.4173, 40.32031
678.8994, 38.41553
679.3815, 35.14453
679.8636, 31.64893
680.3458, 28.32178
680.8279, 25.19287
681.3100, 21.59766
681.7921, 17.78955
682.2742, 16.39941
682.7563, 19.97266
683.2385, 27.28711
683.7206, 32.48828
684.2027, 35.30615
684.6848, 36.45410
685.1669, 33.70654
685.6490, 31.29150
686.1312, 32.08691
686.6133, 35.22803
687.0954, 37.78955
687.5775, 38.70996
688.0596, 38.65039
688.5417, 37.65430
689.0239, 36.14990
689.5060, 35.20410
689.9881, 35.05029
690.4702, 35.22510
690.9523, 35.53564
691.4344, 35.81201
691.9166, 35.22119
692.3987, 33.69678
692.8808, 31.37402
693.3629, 27.34375
693.8450, 23.40332
694.3271, 20.13965
694.8093, 17.88330
695.2914, 17.65137
695.7735, 20.82129
696.2556, 23.38037
696.7377, 18.97070
697.2198, 9.956543
697.7020, 5.425781
698.1841, 6.988281
698.6662, 9.533691
699.1483, 9.812988
699.6304, 8.157227
700.1125, 5.697266
700.5947, 1.345215
701.0768, 1.978516
701.5589, 3.529297
702.0410, 4.595215
702.5231, 6.895996
703.0052, 9.479980
703.4874, 10.44727
703.9695, 8.880371
704.4516, 6.448242
704.9337, 5.384277
705.4158, 5.341309
705.8979, 4.378906
706.3801, 2.144531
706.8622, 0.5244140
707.3442, 1.089355
707.8264, 2.682617
708.3085, 1.944336
708.7906, 3.122559
709.2727, 5.129883
709.7548, 2.0508001E-02
710.2369, 4.856934
710.7191, 4.296875
711.2012, 0.5180660
711.6833, 1.499023
712.1654, 0.1425780
712.6475, 1.681641
713.1296, 0.1074220
713.6118, 4.137207
714.0939, 7.264648
714.5760, 9.280762
715.0581, 9.293945
715.5402, 5.660645
716.0223, 1.140625
716.5045, 0.8427730
716.9866, 5.354004
717.4687, 8.681152
717.9508, 10.96387
718.4329, 11.52979
718.9150, 9.233887
719.3972, 5.591309
719.8793, 2.270020
720.3614, 6.0547002E-02
720.8435, 0.9995120
721.3256, 0.5439450
721.8077, 3.881836
722.2899, 6.140625
722.7720, 7.258301
723.2541, 8.005859
723.7362, 8.824707
724.2183, 9.026855
724.7004, 7.262695
725.1826, 3.625977
725.6647, 1.415527
726.1468, 2.654785
726.6289, 3.216309
727.1110, 0.1376950
727.5931, 3.872559
728.0753, 3.381348
728.5574, 1.316406
729.0395, 6.522949
729.5216, 9.952148
730.0037, 11.35791
730.4858, 8.705566
730.9680, 1.703613
731.4501, 0.3188480
731.9322, 6.408691
732.4143, 13.76904
732.8964, 14.73291
733.3785, 10.51758
733.8607, 8.165527
734.3428, 7.471680
734.8249, 8.830566
735.3070, 16.21289
735.7891, 22.54541
736.2712, 19.72852
736.7534, 10.73193
737.2355, 5.208984
737.7176, 8.163574
738.1997, 14.46436
738.6818, 16.80762
739.1639, 15.52051
739.6461, 13.58740
740.1282, 10.98486
740.6103, 8.948242
741.0924, 8.494629
741.5745, 8.826660
742.0566, 7.815918
742.5388, 4.339355
743.0209, 3.521973
743.5030, 9.280762
743.9851, 14.18311
744.4672, 13.29443
744.9493, 9.504883
745.4315, 7.277344
745.9136, 7.976074
746.3957, 10.35156
746.8778, 14.24023
747.3599, 18.84082
747.8420, 20.91113
748.3242, 20.40186
748.8063, 19.03662
749.2884, 16.84717
749.7705, 15.32666
750.2526, 16.78760
750.7347, 21.46387
751.2169, 23.75537
751.6990, 23.59619
752.1811, 21.34033
752.6632, 14.43213
753.1453, 7.390625
753.6274, 4.446777
754.1096, 5.454102
754.5917, 7.816406
755.0738, 10.80176
755.5559, 13.30322
756.0380, 12.02832
756.5201, 7.825195
757.0023, 5.828613
757.4844, 6.975098
757.9665, 7.886230
758.4486, 5.584473
758.9307, 8.504395
759.4128, 2.362305
759.8950, 11.85010
760.3771, 17.77881
760.8592, 18.92725
761.3413, 18.04004
761.8234, 15.11230
762.3055, 11.66113
762.7877, 9.916504
763.2698, 10.50098
763.7519, 11.27441
764.2340, 10.27246
764.7161, 8.679688
765.1982, 8.518555
765.6804, 9.542480
766.1625, 10.53711
766.6446, 11.16064
767.1267, 10.67334
767.6088, 7.790527
768.0909, 2.066406
768.5731, 0.8007810
769.0552, 0.9125980
769.5373, 3.047363
770.0194, 4.878418
770.5015, 6.408203
770.9836, 8.207520
771.4658, 9.976074
771.9479, 10.45117
772.4300, 8.705078
772.9121, 6.199707
773.3942, 2.665527
773.8763, 0.4257810
774.3585, 0.7812500
774.8406, 0.1937618
775.3227, 7.973145
775.8048, 2.970703
776.2869, 5.548340
776.7690, 8.674805
777.2512, 5.662109
777.7333, 1.912109
778.2154, 2.826660
778.6975, 7.170898
779.1796, 11.23535
779.6617, 14.19678
780.1439, 13.54346
780.6260, 7.695313
781.1081, 5.749023
781.5902, 14.02539
782.0723, 22.63770
782.5544, 24.98682
783.0366, 23.28271
783.5187, 21.45508
784.0008, 20.75391
784.4829, 20.23535
784.9650, 18.52246
785.4471, 16.31787
785.9293, 16.47705
786.4114, 19.26270
786.8935, 23.10791
787.3756, 28.47949
787.8577, 31.89453
788.3398, 29.11719
788.8220, 21.07227
789.3040, 16.35352
789.7861, 17.60742
790.2682, 18.94189
790.7504, 20.25488
791.2325, 21.21582
791.7146, 21.61230
792.1967, 21.55273
792.6788, 21.18701
793.1609, 20.48389
793.6431, 20.13672
794.1252, 21.06299
794.6073, 22.61621
795.0894, 23.71387
795.5715, 24.34375
796.0536, 24.05859
796.5358, 22.54980
797.0179, 20.92285
797.5000, 20.64844
797.9821, 21.74512
798.4642, 23.93311
798.9464, 29.86523
799.4285, 32.10938
799.9106, 26.45068
800.3927, 18.21289
800.8748, 10.14160
801.3569, 2.881348
801.8391, 2.007813
802.3212, 3.535645
802.8033, 3.443359
803.2854, 3.595703
803.7675, 1.913574
804.2496, 6.292480
804.7318, 19.00537
805.2139, 28.58496
805.6960, 30.73828
806.1781, 28.87109
806.6602, 28.02881
807.1423, 28.11719
807.6245, 27.62988
808.1066, 26.47070
808.5887, 24.96094
809.0708, 23.26221
809.5529, 21.19336
810.0350, 18.13281
810.5172, 13.64648
810.9993, 11.15088
811.4814, 8.725137
811.9635, 6.374609
812.4456, 5.265137
812.9277, 4.687012
813.4099, 3.812012
813.8920, 6.454590
814.3741, 15.42578
814.8562, 17.45947
815.3383, 16.99023
815.8204, 18.47363
816.3026, 20.72607
816.7847, 20.87842
817.2668, 18.65234
817.7489, 17.25439
818.2310, 18.15918
818.7131, 20.20361
819.1953, 21.12305
819.6774, 20.66357
820.1595, 20.28027
820.6416, 18.83154
821.1237, 19.63623
821.6058, 25.46973
822.0880, 33.05615
822.5701, 39.10645
823.0522, 43.57910
823.5343, 46.65479
824.0164, 47.72461
824.4985, 48.12256
824.9807, 47.18408
825.4628, 46.74805
825.9449, 49.82031
826.4270, 55.45801
826.9091, 59.66943
827.3912, 60.03613
827.8734, 58.21240
828.3555, 55.70752
828.8376, 52.97168
829.3197, 52.22803
829.8018, 53.65820
830.2839, 55.43457
830.7661, 56.80664
831.2482, 57.44336
831.7303, 56.73193
832.2124, 54.61963
832.6945, 52.96582
833.1766, 50.89014
833.6588, 50.22314
834.1409, 52.53662
834.6230, 54.87842
835.1051, 55.25586
835.5872, 53.72070
836.0693, 51.21338
836.5515, 47.01074
837.0336, 42.99219
837.5157, 40.04346
837.9978, 37.97705
838.4799, 37.18799
838.9620, 37.11670
839.4442, 35.98242
839.9263, 32.94092
840.4084, 29.61182
840.8905, 28.82910
841.3726, 29.87988
841.8547, 27.32959
842.3369, 20.65088
842.8190, 18.29834
843.3011, 24.44922
843.7832, 32.67578
844.2653, 35.14111
844.7474, 32.03418
845.2296, 31.74268
845.7117, 36.94971
846.1938, 40.94482
846.6759, 43.77051
847.1580, 44.62451
847.6401, 42.24609
848.1223, 37.65918
848.6044, 32.57471
849.0865, 26.66846
849.5686, 23.72656
850.0507, 28.98779
850.5328, 35.69922
851.0150, 37.19922
851.4971, 34.47998
851.9792, 30.46729
852.4613, 26.31201
852.9434, 22.13281
853.4255, 17.21973
853.9077, 12.79150
854.3898, 13.94189
854.8719, 20.87451
855.3540, 25.64209
855.8361, 25.96729
856.3182, 25.37354
856.8004, 26.49609
857.2825, 28.89551
857.7646, 31.12207
858.2467, 33.63770
858.7288, 34.77100
859.2109, 34.20898
859.6931, 32.53027
860.1752, 28.53418
860.6573, 24.71973
861.1394, 24.65479
861.6215, 28.47900
862.1036, 30.76123
862.5858, 29.25928
863.0679, 25.54980
863.5500, 17.97363
864.0321, 10.85742
864.5142, 10.51904
864.9963, 15.88037
865.4785, 20.75049
865.9606, 21.65039
866.4427, 20.54248
866.9248, 20.30566
867.4069, 20.63525
867.8890, 19.88281
868.3712, 17.79248
868.8533, 15.98535
869.3354, 15.05176
869.8175, 15.53271
870.2996, 18.45898
870.7817, 23.55615
871.2639, 26.92236
871.7459, 27.25879
872.2280, 28.44189
872.7101, 31.20703
873.1923, 34.93457
873.6744, 40.39941
874.1565, 46.40186
874.6386, 49.91260
875.1207, 49.21582
875.6028, 49.70117
876.0850, 54.39551
876.5671, 59.80469
877.0492, 62.45264
877.5313, 64.52783
878.0134, 69.54785
878.4955, 78.04639
878.9777, 88.07520
879.4598, 99.54346
879.9419, 110.2437
880.4240, 113.9819
880.9061, 113.7300
881.3882, 121.5762
881.8704, 139.0098
882.3525, 156.6509
882.8346, 168.3794
883.3167, 177.2148
883.7988, 189.1841
884.2809, 204.5381
884.7631, 221.3643
885.2452, 239.8335
885.7273, 259.4722
886.2094, 281.2129
886.6915, 302.9644
887.1736, 322.1016
887.6558, 338.8101
888.1379, 357.3438
888.6200, 382.8799
889.1021, 403.0078
889.5842, 413.7051
890.0663, 420.2373
890.5485, 428.6997
891.0306, 435.0259
891.5127, 430.0283
891.9948, 410.9463
892.4769, 387.4360
892.9590, 367.5908
893.4412, 344.7539
893.9233, 308.8877
894.4054, 265.3887
894.8875, 224.2163
895.3696, 188.5557
895.8517, 160.1367
896.3339, 141.0947
896.8160, 127.7554
897.2981, 112.6030
897.7802, 96.10596
898.2623, 83.01172
898.7444, 73.92920
899.2266, 65.75000
899.7087, 56.74951
900.1908, 48.54688
900.6729, 43.84961
901.1550, 42.84326
901.6371, 40.51953
902.1193, 36.67725
902.6014, 31.77881
903.0835, 23.40576
903.5656, 16.47510
904.0477, 15.57324
904.5298, 18.52930
905.0120, 19.70898
905.4941, 18.03223
905.9762, 16.04883
906.4583, 14.66211
906.9404, 12.92627
907.4225, 9.814941
907.9047, 6.289551
908.3868, 3.765137
908.8689, 2.388184
909.3510, 1.134277
909.8331, 1.029297
910.3152, 2.641113
910.7974, 0.9067380
911.2795, 1.892578
911.7616, 0.4570310
912.2437, 4.611816
912.7258, 7.749512
913.2079, 6.345703
913.6901, 3.102539
914.1722, 1.471680
914.6543, 1.226074
915.1364, 0.7299800
915.6185, 3.9059999E-03
916.1006, 0.9853520
916.5828, 2.478027
917.0649, 3.188477
917.5470, 1.756836
918.0291, 0.9570310
918.5112, 1.881348
918.9933, 0.8232420
919.4755, 2.096680
919.9576, 2.474505
920.4397, 5.200870
920.9218, 5.582031
921.4039, 9.036621
921.8860, 8.122574
922.3682, 10.12256
922.8503, 7.038086
923.3324, 6.873535
923.8145, 7.149902
924.2966, 8.395020
924.7787, 8.775879
925.2609, 6.675781
925.7430, 2.689453
926.2251, 2.220703
926.7072, 7.812500
927.1893, 12.07227
927.6714, 12.66309
928.1536, 12.04199
928.6357, 13.37402
929.1178, 15.14844
929.5999, 13.70703
930.0820, 9.105469
930.5641, 5.161133
931.0463, 4.366211
931.5284, 5.161133
932.0105, 5.253906
932.4926, 4.843750
932.9747, 5.192383
933.4568, 6.238281
933.9390, 4.822266
934.4211, 6.378855
934.9032, 5.769531
935.3853, 6.735352
935.8674, 3.958984
936.3495, 0.5498050
936.8317, 4.149414
937.3138, 6.470703
937.7959, 4.911133
938.2780, 3.281250
938.7601, 3.164063
939.2422, 4.655273
939.7244, 8.400391
940.2065, 15.01465
940.6886, 19.73438
941.1707, 21.13086
941.6528, 22.52539
942.1349, 25.73438
942.6171, 27.99414
943.0992, 25.05371
943.5813, 19.81738
944.0634, 20.23730
944.5455, 29.40234
945.0276, 38.44434
945.5098, 45.31152
945.9919, 50.09961
946.4740, 51.69141
946.9561, 51.89160
947.4382, 52.19238
947.9203, 53.42090
948.4025, 57.34961
948.8846, 65.64355
949.3667, 75.17188
949.8488, 83.41699
950.3309, 90.72754
950.8130, 96.15234
951.2952, 101.1953
951.7773, 110.3262
952.2594, 125.0107
952.7415, 143.3369
953.2236, 163.4365
953.7057, 186.1084
954.1878, 213.6416
954.6699, 245.7510
955.1520, 280.9111
955.6342, 319.1299
956.1163, 358.6562
956.5984, 398.6182
957.0805, 440.5381
957.5626, 487.2031
958.0447, 538.8564
958.5269, 586.5527
959.0090, 630.2207
959.4911, 670.1797
959.9732, 702.5527
960.4553, 740.1475
960.9374, 792.5332
961.4196, 856.6143
961.9017, 923.3838
962.3838, 989.9775
962.8659, 1067.405
963.3480, 1150.873
963.8301, 1251.478
964.3123, 1370.572
964.7944, 1508.122
965.2765, 1665.402
965.7586, 1841.916
966.2407, 2035.532
966.7228, 2254.204
967.2050, 2474.112
967.6871, 2730.499
968.1692, 2943.438
968.6513, 3093.062
969.1334, 3156.535
969.6155, 3097.752
970.0977, 2919.892
970.5798, 2672.541
971.0619, 2341.803
971.5440, 2006.664
972.0261, 1699.413
972.5082, 1426.189
972.9904, 1198.186
973.4725, 1010.689
973.9546, 854.6807
974.4367, 726.5137
974.9188, 620.0879
975.4009, 533.5928
975.8831, 463.7598
976.3652, 410.6650
976.8473, 369.7285
977.3294, 329.9795
977.8115, 290.9229
978.2936, 260.0850
978.7758, 240.8398
979.2579, 227.3008
979.7400, 213.1436
980.2221, 199.8848
980.7042, 192.1299
981.1863, 189.0352
981.6685, 184.0576
982.1506, 175.9336
982.6327, 169.3467
983.1148, 167.4736
983.5969, 169.2881
984.0790, 173.8887
984.5612, 181.2246
985.0433, 181.4502
985.5254, 173.5762
986.0075, 163.6709
986.4896, 152.1143
986.9717, 142.7949
987.4539, 139.9219
987.9360, 140.6572
988.4181, 136.0410
988.9002, 124.7363
989.3823, 112.4463
989.8644, 98.21289
990.3466, 84.61816
990.8287, 71.32227
991.3108, 60.18457
991.7929, 52.98145
992.2750, 49.52246
992.7571, 48.64746
993.2393, 53.24121
993.7214, 56.02051
994.2035, 57.07617
994.6856, 56.11133
995.1677, 51.04492
995.6498, 45.31738
996.1320, 42.75195
996.6141, 43.15332
997.0962, 43.58691
997.5783, 43.48340
998.0604, 43.29590
998.5425, 44.63477
999.0247, 44.21094
999.5068, 38.07715
999.9889, 29.72559
1000.471, 23.56055
1000.953, 20.34473
1001.435, 19.86426
1001.917, 24.62012
1002.399, 28.08105
1002.882, 24.90723
1003.364, 20.35938
1003.846, 19.96680
1004.328, 21.91797
1004.810, 21.60840
1005.292, 18.17969
1005.774, 15.22656
1006.256, 14.72656
1006.739, 16.17773
1007.221, 20.63965
1007.703, 25.85840
1008.185, 29.39355
1008.667, 30.63867
1009.149, 27.40820
1009.631, 19.57422
1010.113, 14.71680
1010.595, 22.06348
1011.078, 33.33887
1011.560, 35.20508
1012.042, 31.39941
1012.524, 30.50000
1013.006, 33.10059
1013.488, 35.85449
1013.970, 37.32715
1014.452, 39.70410
1014.935, 46.65723
1015.417, 55.36035
1015.899, 58.05078
1016.381, 55.96973
1016.863, 55.37207
1017.345, 56.89551
1017.827, 55.86035
1018.309, 49.75586
1018.791, 42.55957
1019.274, 40.44727
1019.756, 35.22852
1020.238, 30.54297
1020.720, 28.86914
1021.202, 22.48730
1021.684, 20.18359
1022.166, 18.18457
1022.648, 14.18848
1023.130, 9.951172
1023.613, 8.605469
1024.095, 9.866211
1024.577, 8.720703
1025.059, 4.483398
1025.541, 3.497070
1026.023, 7.764648
1026.505, 10.94043
1026.987, 8.232422
1027.469, 3.779297
1027.952, 5.683594
1028.434, 14.32227
1028.916, 20.20312
1029.398, 22.64551
1029.880, 24.91309
1030.362, 27.94141
1030.844, 30.38086
1031.326, 31.69238
1031.809, 31.57227
1032.291, 28.97656
1032.773, 23.41113
1033.255, 20.23828
1033.737, 19.55957
1034.219, 21.44727
1034.701, 26.65137
1035.183, 33.47266
1035.666, 40.90820
1036.148, 49.07227
1036.630, 58.87109
1037.112, 71.58594
1037.594, 78.42969
1038.076, 69.83496
1038.558, 69.29004
1039.040, 86.54688
1039.522, 106.3643
1040.005, 118.4854
1040.487, 133.1094
1040.969, 146.1914
1041.451, 154.4590
1041.933, 166.4033
1042.415, 171.5137
1042.897, 174.7939
1043.379, 180.0889
1043.861, 181.5498
1044.344, 172.0566
1044.826, 156.1787
1045.308, 144.0664
1045.790, 137.8994
1046.272, 128.0693
1046.754, 106.8955
1047.236, 90.51367
1047.718, 85.93164
1048.201, 84.12598
1048.683, 79.05664
1049.165, 72.43066
1049.647, 68.27734
1050.129, 67.31055
1050.611, 64.25977
1051.093, 55.41992
1051.575, 47.93262
1052.057, 42.53418
1052.540, 40.39160
1053.022, 45.25488
1053.504, 52.56152
1053.986, 53.15137
1054.468, 45.51660
1054.950, 40.55371
1055.432, 44.09375
1055.914, 46.78027
1056.396, 45.00391
1056.879, 41.69043
1057.361, 37.91113
1057.843, 35.02148
1058.325, 34.54199
1058.807, 36.76367
1059.289, 38.03809
1059.771, 36.49707
1060.253, 35.23633
1060.736, 36.52930
1061.218, 37.10742
1061.700, 32.69629
1062.182, 26.56055
1062.664, 24.87988
1063.146, 28.23145
1063.628, 29.00488
1064.110, 22.04590
1064.593, 15.07422
1065.075, 10.65137
1065.557, 8.234375
1066.039, 8.276367
1066.521, 9.612305
1067.003, 10.59375
1067.485, 11.00000
1067.967, 11.65039
1068.449, 12.99121
1068.932, 14.33594
1069.414, 15.36523
1069.896, 16.39160
1070.378, 18.27246
1070.860, 19.93750
1071.342, 19.55762
1071.824, 17.23145
1072.306, 14.96777
1072.788, 12.00781
1073.271, 12.50000
1073.753, 22.76660
1074.235, 32.54590
1074.717, 35.31934
1075.199, 32.48535
1075.681, 23.26270
1076.163, 10.42480
1076.645, 4.569336
1077.127, 11.82324
1077.610, 18.25586
1078.092, 16.30664
1078.574, 12.62012
1079.056, 11.13965
1079.538, 10.95898
1080.020, 11.61426
1080.502, 12.33594
1080.984, 10.67773
1081.467, 4.904297
1081.949, 1.808594
1082.431, 5.934570
1082.913, 11.93359
1083.395, 19.70898
1083.877, 25.16211
1084.359, 21.53613
1084.841, 12.30371
1085.323, 7.357422
1085.806, 9.506836
1086.288, 13.31250
1086.770, 19.38086
1087.252, 22.83594
1087.734, 17.95215
1088.216, 12.07031
1088.698, 12.44141
1089.180, 17.17383
1089.662, 21.73926
1090.145, 25.25781
1090.627, 26.23535
1091.109, 21.16797
1091.591, 17.44922
1092.073, 20.31836
1092.555, 23.78613
1093.037, 24.00879
1093.519, 21.04102
1094.002, 13.60352
1094.484, 2.369141
1094.966, 3.358398
1095.448, 2.900391
1095.930, 9.845703
1096.412, 16.09180
1096.894, 19.37207
1097.376, 15.48535
1097.859, 9.530273
1098.341, 9.064453
1098.823, 13.72070
1099.305, 16.18848
1099.787, 14.75586
1100.269, 11.07324
1100.751, 1.823242
1101.233, 5.155273
1101.715, 2.588867
1102.198, 1.567383
1102.680, 2.372070
1103.162, 12.39941
1103.644, 19.06836
1104.126, 20.65137
1104.608, 19.91602
1105.090, 15.01562
1105.572, 10.82129
1106.054, 9.740234
1106.537, 9.317383
1107.019, 7.389648
1107.501, 4.564453
1107.983, 2.855469
1108.465, 2.958008
1108.947, 1.028320
1109.429, 6.695313
1109.911, 11.50098
1110.394, 8.921875
1110.876, 5.672852
1111.358, 5.692383
1111.840, 7.607422
1112.322, 9.052734
1112.804, 9.892578
1113.286, 11.70117
1113.768, 10.17651
1114.250, 8.238002
1114.733, 7.635742
1115.215, 1.423828
1115.697, 1.469727
1116.179, -2.011782
1116.661, 7.223633
1117.143, 1.013672
1117.625, 3.612305
1118.107, 7.385742
1118.589, 7.156250
1119.072, 1.215820
1119.554, 5.026367
1120.036, 3.112305
1120.518, 11.39062
1121.000, 9.379883
1121.482, 13.86381
1121.964, 9.098633
1122.446, 18.43457
1122.929, 22.28711
1123.411, 18.99121
1123.893, 15.65137
1124.375, 13.66016
1124.857, 11.73730
1125.339, 8.377930
1125.821, 6.123047
1126.303, 10.27246
1126.786, 20.17090
1127.268, 23.38965
1127.750, 18.81445
1128.232, 17.69824
1128.714, 22.10742
1129.196, 24.94043
1129.678, 22.80371
1130.160, 18.65332
1130.642, 15.23828
1131.125, 13.50488
1131.607, 17.84570
1132.089, 27.83203
1132.571, 35.49902
1133.053, 40.42383
1133.535, 41.11133
1134.017, 37.13965
1134.499, 31.47656
1134.981, 26.26270
1135.464, 21.48145
1135.946, 14.69922
1136.428, 8.571289
1136.910, 17.80371
1137.392, 37.99219
1137.874, 45.11230
1138.356, 36.87012
1138.838, 32.66797
1139.321, 42.47949
1139.803, 54.16602
1140.285, 53.21094
1140.767, 46.06836
1141.249, 44.82910
1141.731, 46.64258
1142.213, 44.21094
1142.695, 38.74805
1143.177, 37.98340
1143.660, 43.57812
1144.142, 47.43066
1144.624, 42.68164
1145.106, 36.67090
1145.588, 38.13770
1146.070, 42.03320
1146.552, 42.06934
1147.034, 39.63281
1147.516, 37.03516
1147.999, 35.35742
1148.481, 36.95703
1148.963, 43.83496
1149.445, 47.84277
1149.927, 38.74902
1150.409, 30.63379
1150.891, 36.55957
1151.373, 46.39453
1151.856, 47.49023
1152.338, 43.33496
1152.820, 45.52148
1153.302, 56.98926
1153.784, 63.89355
1154.266, 56.89648
1154.748, 51.38965
1155.230, 54.35059
1155.713, 58.26172
1156.195, 58.72070
1156.677, 57.30859
1157.159, 56.22656
1157.641, 55.60254
1158.123, 54.92871
1158.605, 54.28125
1159.087, 53.05664
1159.569, 51.36719
1160.052, 50.49023
1160.534, 49.63281
1161.016, 49.66016
1161.498, 53.47559
1161.980, 50.89981
1162.462, 57.08594
1162.944, 49.04102
1163.426, 44.79492
1163.908, 44.80469
1164.391, 46.55664
1164.873, 50.45703
1165.355, 54.24316
1165.837, 56.94238
1166.319, 58.00391
1166.801, 56.26367
1167.283, 53.43164
1167.765, 57.37891
1168.247, 56.97461
1168.730, 56.42773
1169.212, 62.08105
1169.694, 58.21680
1170.176, 62.94727
1170.658, 70.02051
1171.140, 75.27051
1171.622, 79.86035
1172.104, 86.45117
1172.587, 93.66309
1173.069, 96.53125
1173.551, 96.07812
1174.033, 94.16992
1174.515, 91.04395
1174.997, 85.47656
1175.479, 77.40234
1175.961, 73.27051
1176.443, 80.01172
1176.926, 90.79199
1177.408, 96.51172
1177.890, 99.20703
1178.372, 104.3223
1178.854, 109.0039
1179.336, 104.4697
1179.818, 91.64453
1180.300, 81.73340
1180.782, 79.65527
1181.265, 79.31543
1181.747, 77.13574
1182.229, 75.48730
1182.711, 77.96875
1183.193, 79.96777
1183.675, 75.28223
1184.157, 67.63477
1184.639, 64.75879
1185.122, 67.50488
1185.604, 69.21973
1186.086, 69.40625
1186.568, 66.94336
1187.050, 56.13086
1187.532, 49.47754
1188.014, 55.27539
1188.496, 64.91406
1188.979, 71.28418
1189.461, 74.91504
1189.943, 77.42578
1190.425, 79.51855
1190.907, 75.43066
1191.389, 60.52441
1191.871, 52.96875
1192.353, 57.75391
1192.835, 63.94922
1193.318, 66.22559
1193.800, 66.88281
1194.282, 68.43359
1194.764, 71.02148
1195.246, 76.35156
1195.728, 84.10352
1196.210, 82.43555
1196.692, 71.55859
1197.174, 69.37305
1197.657, 79.64648
1198.139, 85.06250
1198.621, 74.36035
1199.103, 60.63770
1199.585, 62.28809
1200.067, 72.29883
1200.549, 78.69043
1201.031, 81.59473
1201.514, 81.15918
1201.996, 77.67676
1202.478, 69.64355
1202.960, 58.16309
1203.442, 53.13477
1203.924, 63.25684
1204.406, 72.81055
1204.888, 68.87012
1205.370, 60.29297
1205.853, 51.89551
1206.335, 45.25781
1206.817, 41.56445
1207.299, 40.92773
1207.781, 44.19434
1208.263, 51.93945
1208.745, 56.57520
1209.227, 53.77246
1209.709, 51.25000
1210.192, 49.10645
1210.674, 49.28027
1211.156, 55.37109
1211.638, 61.71094
1212.120, 61.91113
1212.602, 57.61328
1213.084, 54.94238
1213.566, 53.70312
1214.049, 54.88086
1214.531, 58.77930
1215.013, 64.67969
1215.495, 73.72266
1215.977, 78.43555
1216.459, 74.49316
1216.941, 66.35449
1217.423, 58.34375
1217.906, 52.33398
1218.388, 56.97852
1218.870, 55.01074
1219.352, 56.87012
1219.834, 63.90723
1220.316, 64.07910
1220.798, 73.66309
1221.280, 81.91406
1221.762, 83.04785
1222.245, 81.27637
1222.727, 79.44727
1223.209, 77.91992
1223.691, 76.34277
1224.173, 75.85449
1224.655, 78.87695
1225.137, 83.75586
1225.619, 87.23730
1226.101, 88.82324
1226.584, 89.89062
1227.066, 91.51172
1227.548, 91.89160
1228.030, 90.61426
1228.512, 87.96777
1228.994, 80.75488
1229.476, 75.62402
1229.958, 79.91016
1230.441, 88.79980
1230.923, 93.40625
1231.405, 93.89160
1231.887, 94.71387
1232.369, 95.13086
1232.851, 98.41895
1233.333, 106.3398
1233.815, 110.6123
1234.297, 108.0488
1234.780, 104.0186
1235.262, 102.3711
1235.744, 101.5479
1236.226, 98.20703
1236.708, 93.81836
1237.190, 96.81250
1237.672, 104.6387
1238.154, 105.7695
1238.636, 100.0820
1239.119, 92.47949
1239.601, 85.00977
1240.083, 79.84277
1240.565, 78.52832
1241.047, 79.43945
1241.529, 83.56348
1242.011, 86.58984
1242.493, 82.68066
1242.975, 76.60547
1243.458, 73.42383
1243.940, 73.43652
1244.422, 76.86133
1244.904, 83.33789
1245.386, 87.41699
1245.868, 88.91992
1246.350, 85.77246
1246.832, 69.62109
1247.315, 59.69434
1247.797, 66.04297
1248.279, 76.35352
1248.761, 83.72559
1249.243, 87.55957
1249.725, 85.82617
1250.207, 89.51562
1250.689, 78.72852
1251.172, 86.13086
1251.654, 85.20801
1252.136, 74.32031
1252.618, 64.26465
1253.100, 58.27637
1253.582, 57.04004
1254.064, 61.34082
1254.546, 67.37793
1255.028, 72.32520
1255.510, 73.53418
1255.993, 61.95020
1256.475, 45.17383
1256.957, 36.80469
1257.439, 36.14160
1257.921, 39.88477
1258.403, 45.60352
1258.885, 46.38574
1259.367, 38.19531
1259.850, 29.08887
1260.332, 22.75098
1260.814, 16.51855
1261.296, 6.182617
1261.778, 1.638672
1262.260, 0.2236330
1262.742, 6.106445
1263.224, 11.45312
1263.707, 15.38770
1264.189, 14.11621
1264.671, 5.132813
1265.153, 0.6152340
1265.635, 2.635742
1266.117, 3.348633
1266.599, 3.172852
1267.081, 2.787109
1267.563, 2.672852
1268.046, 1.708008
1268.528, 1.866211
1269.010, 6.542969
1269.492, 8.548828
1269.974, 9.028320
1270.456, 10.22754
1270.938, 12.75879
1271.420, 19.57031
1271.902, 28.99316
1272.385, 33.48633
1272.867, 30.00098
1273.349, 23.45312
1273.831, 15.95703
1274.313, 11.85938
1274.795, 12.14453
1275.277, 13.79492
1275.759, 24.12012
1276.242, 33.24316
1276.724, 29.56934
1277.206, 15.88184
1277.688, 10.10449
1278.170, 13.98926
1278.652, 13.22852
1279.134, 4.855469
1279.616, 0.2177730
1280.099, 2.566406
1280.581, 8.104492
1281.063, 13.48535
1281.545, 16.21094
1282.027, 8.938477
1282.509, 1.813477
1282.991, 0.8613280
1283.473, 1.793945
1283.955, 0.0000000E+00
##END=



