##NAMES=Wollastonite
##RRUFFID=R040131
##IDEAL CHEMISTRY=CaSiO_3_
##LOCALITY=In-Ne-Koh-Pah Gorge, Jacumba, San Diego County, California, USA
##OWNER=RRUFF
##SOURCE=University of Arizona Mineral Museum
##DESCRIPTION=White coarsely crystalline massive
##STATUS=The identification of this mineral has been confirmed by X-ray diffraction and chemical analysis
##URL=rruff.info/R040131
##MEASURED CHEMISTRY=Ca_1.01_Si_1.00_O_3_
152.8650, 0.0000000E+00
153.3470, 3.168610
153.8290, 6.292908
154.3110, 8.105194
154.7930, 8.533600
155.2760, 8.805908
155.7580, 6.725555
156.2400, 4.899567
156.7220, 4.499146
157.2040, 13.19754
157.6860, 13.62881
158.1680, 11.89133
158.6500, 8.553131
159.1330, 6.315308
159.6150, 7.170441
160.0970, 8.047028
160.5790, 5.105316
161.0610, 1.344666
161.5430, 4.559540
162.0250, 4.167725
162.5070, 27.18082
162.9890, 48.26083
163.4720, 62.05896
163.9540, 75.93643
164.4360, 95.90839
164.9180, 121.8987
165.4000, 146.4211
165.8820, 160.2844
166.3640, 161.6778
166.8460, 159.8930
167.3290, 154.0218
167.8110, 146.8931
168.2930, 137.8863
168.7750, 127.8428
169.2570, 119.3291
169.7390, 116.5479
170.2210, 122.4621
170.7030, 124.7993
171.1850, 119.3208
171.6670, 112.8065
172.1500, 105.5988
172.6320, 99.21707
173.1140, 100.1653
173.5960, 121.6375
174.0780, 178.7921
174.5600, 215.0717
175.0420, 230.0244
175.5250, 225.3074
176.0070, 191.2528
176.4890, 130.4295
176.9710, 65.68741
177.4530, 31.33646
177.9350, 42.91287
178.4170, 49.31653
178.8990, 46.31989
179.3810, 40.46109
179.8630, 35.34360
180.3460, 32.33316
180.8280, 31.91574
181.3100, 29.91940
181.7920, 19.85880
182.2740, 16.64316
182.7560, 22.04494
183.2380, 28.90027
183.7210, 35.04095
184.2030, 40.12784
184.6850, 44.57846
185.1670, 48.19388
185.6490, 48.68799
186.1310, 53.42667
186.6130, 64.53894
187.0950, 77.47467
187.5770, 89.88672
188.0590, 101.1068
188.5420, 110.9559
189.0240, 118.8617
189.5060, 122.2529
189.9880, 129.8792
190.4700, 148.2766
190.9520, 165.3738
191.4340, 174.4077
191.9170, 173.8571
192.3990, 165.0649
192.8810, 148.4503
193.3630, 118.6488
193.8450, 95.37061
194.3270, 80.73660
194.8090, 69.69360
195.2910, 59.16638
195.7730, 48.78851
196.2550, 40.16934
196.7380, 35.42868
197.2200, 36.01819
197.7020, 36.45718
198.1840, 37.47781
198.6660, 37.83618
199.1480, 36.43744
199.6300, 33.41660
200.1120, 30.02869
200.5950, 27.83490
201.0770, 27.59622
201.5590, 25.64880
202.0410, 21.00467
202.5230, 15.84601
203.0050, 10.89185
203.4870, 6.421295
203.9690, 2.773499
204.4520, 0.3135380
204.9340, 0.8255920
205.4160, 1.337830
205.8980, 0.6271670
206.3800, 6.4544998E-02
206.8620, 0.5448910
207.3440, 0.5541080
207.8260, 0.6636660
208.3080, 4.311768
208.7910, 11.31970
209.2730, 13.59192
209.7550, 6.038910
210.2370, 0.7794800
210.7190, 2.004456
211.2010, 1.599213
211.6830, 5.632080
212.1650, 6.487335
212.6480, 4.025726
213.1300, 0.9071660
213.6120, 3.313568
214.0940, 7.800476
214.5760, 12.84882
215.0580, 17.49493
215.5400, 19.90121
216.0220, 17.88745
216.5040, 11.68164
216.9860, 9.929352
217.4690, 15.70221
217.9510, 23.08215
218.4330, 31.19077
218.9150, 39.63062
219.3970, 47.47733
219.8790, 54.56747
220.3610, 60.93787
220.8440, 69.37729
221.3260, 83.21378
221.8080, 95.74033
222.2900, 103.7731
222.7720, 110.1060
223.2540, 119.1923
223.7360, 133.6076
224.2180, 151.9997
224.7000, 168.1770
225.1820, 183.6906
225.6650, 194.4559
226.1470, 201.9258
226.6290, 203.8162
227.1110, 195.5347
227.5930, 174.6673
228.0750, 146.5172
228.5570, 125.9467
229.0400, 120.0919
229.5220, 112.0839
230.0040, 96.53384
230.4860, 80.04492
230.9680, 69.74417
231.4500, 68.15079
231.9320, 71.26279
232.4140, 70.89438
232.8960, 64.04053
233.3780, 59.10837
233.8610, 55.79803
234.3430, 54.77554
234.8250, 57.85699
235.3070, 65.06445
235.7890, 73.04324
236.2710, 76.07404
236.7530, 70.88187
237.2360, 68.92133
237.7180, 75.60617
238.2000, 81.58746
238.6820, 79.80020
239.1640, 70.02890
239.6460, 58.45496
240.1280, 52.76816
240.6100, 55.03598
241.0920, 55.58832
241.5740, 51.25198
242.0570, 47.84369
242.5390, 48.63370
243.0210, 53.19785
243.5030, 58.60452
243.9850, 62.52612
244.4670, 64.97772
244.9490, 65.71072
245.4320, 61.49823
245.9140, 58.66226
246.3960, 59.57623
246.8780, 63.75137
247.3600, 69.71304
247.8420, 77.03323
248.3240, 85.43201
248.8060, 91.72433
249.2880, 94.20197
249.7700, 96.79340
250.2530, 101.3028
250.7350, 106.8432
251.2170, 111.8445
251.6990, 115.2178
252.1810, 117.5886
252.6630, 121.5855
253.1450, 129.9917
253.6270, 134.1497
254.1100, 130.2543
254.5920, 121.1758
255.0740, 109.5119
255.5560, 95.49271
256.0380, 81.03619
256.5200, 69.45041
257.0020, 61.39032
257.4840, 53.93634
257.9660, 44.08295
258.4490, 35.40729
258.9310, 32.08698
259.4130, 35.86380
259.8950, 41.08875
260.3770, 41.42102
260.8590, 36.63965
261.3410, 31.11157
261.8230, 24.39380
262.3060, 18.61505
262.7880, 15.38870
263.2700, 14.91302
263.7520, 16.81888
264.2340, 22.84494
264.7160, 31.88571
265.1980, 36.69382
265.6800, 33.97385
266.1630, 28.91595
266.6450, 26.32739
267.1270, 26.27841
267.6090, 27.30692
268.0910, 30.52890
268.5730, 33.46930
269.0550, 30.26727
269.5370, 18.72000
270.0190, 5.535126
270.5010, 4.844971
270.9840, 12.38834
271.4660, 14.97086
271.9480, 8.415222
272.4300, 1.348145
272.9120, 7.700409
273.3940, 10.27023
273.8760, 9.649719
274.3580, 3.018158
274.8410, 6.714966
275.3230, 7.288483
275.8050, 11.20358
276.2870, 31.16949
276.7690, 38.99908
277.2510, 36.90518
277.7330, 36.51822
278.2150, 44.72794
278.6980, 58.55939
279.1800, 67.71454
279.6620, 70.89047
280.1440, 71.96915
280.6260, 71.34161
281.1080, 69.63586
281.5900, 67.99500
282.0720, 66.83789
282.5550, 66.05966
283.0370, 65.69034
283.5190, 67.41895
284.0010, 66.12842
284.4830, 60.27594
284.9650, 51.61044
285.4470, 39.86792
285.9290, 25.47241
286.4110, 13.57401
286.8930, 11.39560
287.3760, 23.32837
287.8580, 31.78116
288.3400, 36.38416
288.8220, 38.23022
289.3040, 35.73648
289.7860, 30.35190
290.2680, 27.25351
290.7500, 31.43631
291.2330, 43.46738
291.7150, 52.47165
292.1970, 53.53918
292.6790, 56.94101
293.1610, 68.72714
293.6430, 85.00650
294.1250, 97.93719
294.6070, 102.6393
295.0900, 101.0908
295.5720, 101.9757
296.0540, 105.5392
296.5360, 111.5812
297.0180, 119.1908
297.5000, 129.4082
297.9820, 143.4607
298.4640, 161.8669
298.9460, 183.8506
299.4290, 207.9105
299.9110, 235.1721
300.3930, 260.5995
300.8750, 281.2576
301.3570, 301.8335
301.8390, 326.5754
302.3210, 354.6830
302.8030, 380.9802
303.2850, 402.9811
303.7680, 420.8856
304.2500, 424.9825
304.7320, 408.1507
305.2140, 383.3587
305.6960, 357.4464
306.1780, 330.2430
306.6600, 300.4536
307.1420, 263.0309
307.6250, 222.8431
308.1070, 192.4135
308.5890, 171.8326
309.0710, 161.1440
309.5530, 167.4057
310.0350, 182.3026
310.5170, 193.8446
310.9990, 197.1945
311.4820, 198.8284
311.9640, 204.0355
312.4460, 212.5667
312.9280, 225.1306
313.4100, 242.2683
313.8920, 263.5306
314.3740, 287.7807
314.8560, 316.4690
315.3380, 344.6223
315.8200, 369.2281
316.3030, 391.4424
316.7850, 415.3073
317.2670, 442.9591
317.7490, 468.2344
318.2310, 481.7820
318.7130, 482.3466
319.1950, 479.9591
319.6770, 474.7126
320.1600, 467.4652
320.6420, 460.0750
321.1240, 452.3313
321.6060, 440.5668
322.0880, 420.3654
322.5700, 391.2308
323.0520, 370.9020
323.5340, 362.3105
324.0170, 357.9581
324.4990, 357.9597
324.9810, 359.8399
325.4630, 358.6656
325.9450, 351.4201
326.4270, 340.5861
326.9090, 334.9997
327.3910, 343.7845
327.8740, 345.7522
328.3560, 332.6176
328.8380, 315.5050
329.3200, 305.3972
329.8020, 305.6424
330.2840, 311.4105
330.7660, 314.6526
331.2480, 312.2449
331.7300, 317.7782
332.2120, 339.0006
332.6950, 361.3463
333.1770, 379.4918
333.6590, 393.6888
334.1410, 405.1851
334.6230, 414.8723
335.1050, 422.9198
335.5870, 430.4884
336.0690, 439.3452
336.5520, 444.3892
337.0340, 439.0504
337.5160, 430.1607
337.9980, 427.9463
338.4800, 437.5010
338.9620, 452.4171
339.4440, 464.3032
339.9260, 472.9697
340.4090, 482.4043
340.8910, 496.7743
341.3730, 510.1444
341.8550, 516.4109
342.3370, 515.2837
342.8190, 507.5458
343.3010, 493.5979
343.7830, 473.3156
344.2650, 445.9905
344.7480, 410.6347
345.2300, 370.4483
345.7120, 325.2702
346.1940, 275.3404
346.6760, 234.5820
347.1580, 209.6660
347.6400, 191.0172
348.1220, 172.5269
348.6040, 153.6210
349.0870, 134.7015
349.5690, 115.7572
350.0510, 96.99951
350.5330, 79.66019
351.0150, 61.50934
351.4970, 47.18185
351.9790, 36.84091
352.4610, 31.12241
352.9440, 33.51938
353.4260, 44.82785
353.9080, 57.20685
354.3900, 56.66431
354.8720, 35.12033
355.3540, 17.97781
355.8360, 3.241791
356.3180, 6.347687
356.8010, 6.007751
357.2830, 1.887817
357.7650, 8.584930
358.2470, 5.625580
358.7290, 5.838165
359.2110, 10.54416
359.6930, 2.966431
360.1750, 3.537262
360.6570, 2.885590
361.1400, 0.9043880
361.6220, 1.795563
362.1040, 3.335754
362.5860, 9.712799
363.0680, 9.809570
363.5500, 2.997101
364.0320, 2.806702
364.5140, 5.252228
364.9960, 5.831482
365.4790, 6.100739
365.9610, 6.101044
366.4430, 5.703369
366.9250, 3.759552
367.4070, 1.576691
367.8890, 2.955963
368.3710, 9.164856
368.8530, 13.82797
369.3360, 10.03644
369.8180, 1.237549
370.3000, 8.333466
370.7820, 8.780182
371.2640, 6.670807
371.7460, 3.040344
372.2280, 1.277222
372.7100, 4.088715
373.1930, 4.202118
373.6750, 2.517487
374.1570, 1.436096
374.6390, 1.005646
375.1210, 1.164856
375.6030, 3.183807
376.0850, 5.024261
376.5670, 5.159882
377.0490, 3.207764
377.5310, 0.6939700
378.0140, 6.548553
378.4960, 14.44806
378.9780, 23.09244
379.4600, 34.89777
379.9420, 44.96704
380.4240, 50.12115
380.9060, 52.83823
381.3880, 57.48920
381.8710, 66.45908
382.3530, 78.18884
382.8350, 88.31549
383.3170, 94.84399
383.7990, 107.5544
384.2810, 137.8536
384.7630, 169.8876
385.2450, 188.8265
385.7280, 192.9471
386.2100, 198.5398
386.6920, 222.0533
387.1740, 255.7301
387.6560, 275.9208
388.1380, 277.8472
388.6200, 273.3944
389.1020, 273.4245
389.5840, 275.6824
390.0670, 268.6482
390.5490, 242.2061
391.0310, 213.9047
391.5130, 196.7920
391.9950, 187.8131
392.4770, 175.4590
392.9590, 153.3768
393.4410, 128.1583
393.9230, 115.6967
394.4060, 124.3289
394.8880, 132.7148
395.3700, 138.1785
395.8520, 144.3640
396.3340, 153.9303
396.8160, 167.3564
397.2980, 184.1392
397.7800, 204.4159
398.2630, 228.2722
398.7450, 249.7403
399.2270, 267.5322
399.7090, 284.1991
400.1910, 299.3151
400.6730, 313.9001
401.1550, 329.6960
401.6370, 347.7077
402.1200, 365.3393
402.6020, 377.9641
403.0840, 384.7140
403.5660, 393.4237
404.0480, 406.2362
404.5300, 420.9994
405.0120, 435.9363
405.4940, 451.0085
405.9760, 466.7958
406.4590, 483.2822
406.9410, 500.7196
407.4230, 518.6959
407.9050, 537.1724
408.3870, 559.8434
408.8690, 591.9548
409.3510, 629.5264
409.8330, 656.6028
410.3150, 665.2540
410.7980, 674.6841
411.2800, 697.8316
411.7620, 723.8828
412.2440, 737.3885
412.7260, 733.9780
413.2080, 716.8288
413.6900, 689.6378
414.1720, 650.3375
414.6550, 606.5270
415.1370, 556.1502
415.6190, 504.3818
416.1010, 451.8679
416.5830, 400.0814
417.0650, 351.5602
417.5470, 308.5992
418.0290, 270.3872
418.5120, 234.4614
418.9940, 199.6763
419.4760, 170.5450
419.9580, 150.6093
420.4400, 135.3862
420.9220, 123.0134
421.4040, 113.0847
421.8860, 103.9380
422.3680, 93.40436
422.8500, 83.04993
423.3330, 78.08994
423.8150, 80.21509
424.2970, 82.25568
424.7790, 80.02438
425.2610, 73.66415
425.7430, 64.25107
426.2250, 46.45810
426.7070, 31.17542
427.1900, 25.67694
427.6720, 27.06653
428.1540, 28.68964
428.6360, 28.52429
429.1180, 27.92371
429.6000, 28.93982
430.0820, 32.31573
430.5640, 34.75885
431.0470, 35.67850
431.5290, 36.64056
432.0110, 38.30219
432.4930, 40.58517
432.9750, 43.41837
433.4570, 46.90305
433.9390, 50.25009
434.4210, 50.52606
434.9030, 45.67007
435.3860, 43.24551
435.8680, 44.39456
436.3500, 48.59912
436.8320, 57.35052
437.3140, 70.30640
437.7960, 81.69370
438.2780, 85.71237
438.7600, 85.24515
439.2420, 89.12399
439.7250, 99.04089
440.2070, 107.3060
440.6890, 107.8860
441.1710, 102.9221
441.6530, 100.3311
442.1350, 101.4521
442.6170, 103.4822
443.0990, 107.0097
443.5820, 110.1681
444.0640, 109.5684
444.5460, 104.2787
445.0280, 96.24164
445.5100, 87.54132
445.9920, 77.58478
446.4740, 69.80396
446.9560, 66.66980
447.4390, 62.73529
447.9210, 54.67145
448.4030, 44.50620
448.8850, 36.22556
449.3670, 31.98044
449.8490, 29.54483
450.3310, 24.17874
450.8130, 14.83511
451.2950, 7.462982
451.7780, 3.301270
452.2600, 1.433960
452.7420, 1.745056
453.2240, 3.963470
453.7060, 6.572235
454.1880, 7.558319
454.6700, 9.109711
455.1520, 16.20435
455.6340, 28.69922
456.1170, 37.94733
456.5990, 38.28265
457.0810, 33.51422
457.5630, 33.98453
458.0450, 41.61719
458.5270, 49.35034
459.0090, 54.57349
459.4910, 60.12292
459.9740, 68.29962
460.4560, 79.62238
460.9380, 94.33157
461.4200, 113.6852
461.9020, 137.2477
462.3840, 156.3782
462.8660, 164.6133
463.3480, 177.1838
463.8310, 200.2715
464.3130, 227.0519
464.7950, 251.7620
465.2770, 272.6150
465.7590, 289.4726
466.2410, 305.0395
466.7230, 317.9323
467.2050, 316.2107
467.6870, 295.6100
468.1690, 266.7907
468.6520, 234.3466
469.1340, 199.8228
469.6160, 167.3944
470.0980, 135.8302
470.5800, 108.3502
471.0620, 87.68994
471.5440, 72.53000
472.0260, 59.97363
472.5090, 49.01532
472.9910, 39.32776
473.4730, 30.87833
473.9550, 23.82730
474.4370, 19.49524
474.9190, 17.80692
475.4010, 17.54291
475.8830, 20.64310
476.3660, 24.88477
476.8480, 26.16080
477.3300, 21.65311
477.8120, 14.19559
478.2940, 9.361450
478.7760, 7.335297
479.2580, 7.880402
479.7400, 13.11670
480.2220, 19.32803
480.7050, 24.33475
481.1870, 27.73587
481.6690, 28.99792
482.1510, 24.30725
482.6330, 19.72583
483.1150, 23.46564
483.5970, 34.02893
484.0790, 43.32730
484.5610, 47.82178
485.0440, 49.99112
485.5260, 54.63843
486.0080, 64.77750
486.4900, 70.24902
486.9720, 67.46634
487.4540, 62.84100
487.9360, 59.81741
488.4180, 58.51425
488.9010, 58.23944
489.3830, 58.77167
489.8650, 59.39551
490.3470, 58.42297
490.8290, 55.97427
491.3110, 50.70898
491.7930, 36.85873
492.2750, 24.51083
492.7580, 21.77737
493.2400, 27.81821
493.7220, 34.21243
494.2040, 36.63516
494.6860, 37.01440
495.1680, 38.02628
495.6500, 39.34525
496.1320, 38.69992
496.6140, 34.04257
497.0970, 27.93018
497.5790, 26.47513
498.0610, 32.57666
498.5430, 36.42603
499.0250, 34.80533
499.5070, 32.42346
499.9890, 34.32004
500.4710, 39.40823
500.9530, 41.45062
501.4360, 34.74994
501.9180, 22.65292
502.4000, 19.07358
502.8820, 28.68488
503.3640, 35.34073
503.8460, 31.53522
504.3280, 26.78128
504.8100, 28.45389
505.2930, 36.33206
505.7750, 43.54971
506.2570, 45.62189
506.7390, 45.04852
507.2210, 46.42166
507.7030, 49.63321
508.1850, 49.95422
508.6670, 44.17264
509.1500, 35.34048
509.6320, 30.63266
510.1140, 32.09921
510.5960, 32.98111
511.0780, 32.77539
511.5600, 31.76294
512.0420, 30.50681
512.5240, 28.68796
513.0060, 24.93942
513.4890, 17.97812
513.9710, 9.420990
514.4530, 4.298157
514.9350, 3.478058
515.4170, 3.703430
515.8990, 6.016388
516.3810, 7.845184
516.8630, 6.234100
517.3460, 1.764801
517.8280, 0.4815980
518.3100, 4.834839
518.7920, 11.89987
519.2740, 12.50095
519.7560, 7.390137
520.2380, 3.089142
520.7200, 2.642303
521.2020, 4.104401
521.6850, 3.722839
522.1670, 7.4459999E-03
522.6490, 2.289185
523.1310, 2.319275
523.6130, 1.711884
524.0950, 2.470734
524.5770, 3.354187
525.0590, 0.7228390
525.5410, 7.923859
526.0240, 18.78815
526.5060, 24.29742
526.9880, 24.05862
527.4700, 20.69083
527.9520, 12.19095
528.4340, 3.412048
528.9160, 2.476013
529.3980, 5.596924
529.8800, 6.563293
530.3630, 2.883667
530.8450, 0.6078490
531.3270, 1.634857
531.8090, 7.279022
532.2910, 8.957611
532.7730, 3.824554
533.2550, 2.441895
533.7370, 1.142883
534.2190, 10.84112
534.7020, 16.60648
535.1840, 11.43716
535.6660, 5.657440
536.1480, 1.387360
536.6300, 0.7304990
537.1120, 0.6728520
537.5940, 6.333069
538.0760, 12.11218
538.5590, 13.21118
539.0410, 9.896576
539.5230, 3.310699
540.0050, 8.436981
540.4870, 17.83224
540.9690, 17.63049
541.4510, 10.28455
541.9330, 5.941467
542.4160, 7.430756
542.8980, 8.853699
543.3800, 6.719299
543.8620, 3.859497
544.3440, 4.574951
544.8260, 9.255768
545.3080, 14.50134
545.7900, 17.36691
546.2730, 17.84241
546.7550, 15.31384
547.2370, 6.468231
547.7190, 0.3672490
548.2010, 1.190613
548.6830, 4.267670
549.1650, 5.473267
549.6470, 4.274567
550.1300, 2.760468
550.6120, 2.377747
551.0940, 2.435455
551.5760, 0.9271850
552.0580, 1.955963
552.5400, 1.961395
553.0220, 4.036041
553.5040, 12.72430
553.9860, 16.14978
554.4690, 9.814484
554.9510, 6.380371
555.4330, 8.732330
555.9150, 11.38953
556.3970, 11.29501
556.8790, 8.644104
557.3610, 3.928680
557.8430, 3.343597
558.3250, 9.442566
558.8080, 5.534363
559.2900, 9.129150
559.7720, 18.69604
560.2540, 18.53140
560.7360, 15.49112
561.2180, 15.65732
561.7000, 18.11398
562.1820, 19.14413
562.6640, 15.45874
563.1470, 13.11597
563.6290, 17.89667
564.1110, 25.33600
564.5930, 27.22784
565.0750, 21.85034
565.5570, 14.89642
566.0390, 12.62015
566.5210, 15.04959
567.0030, 17.11472
567.4860, 18.55548
567.9680, 20.02002
568.4500, 21.85834
568.9320, 23.71844
569.4140, 24.86035
569.8960, 25.17511
570.3780, 26.54575
570.8600, 29.54724
571.3430, 34.61472
571.8250, 44.02213
572.3070, 57.26431
572.7890, 67.64789
573.2710, 70.81033
573.7530, 71.05530
574.2350, 78.86441
574.7170, 102.1534
575.2000, 117.2792
575.6820, 115.1491
576.1640, 114.2327
576.6460, 126.7239
577.1280, 147.8935
577.6100, 166.4541
578.0920, 177.2633
578.5740, 182.7112
579.0570, 184.4930
579.5390, 183.0421
580.0210, 184.3369
580.5030, 190.5427
580.9850, 196.4782
581.4670, 198.6034
581.9490, 196.4978
582.4310, 190.2567
582.9130, 176.7449
583.3960, 163.5298
583.8780, 152.3055
584.3600, 142.4941
584.8420, 124.3956
585.3240, 102.6578
585.8060, 94.62598
586.2880, 94.08853
586.7700, 91.39792
587.2520, 86.76343
587.7350, 75.08743
588.2170, 72.65182
588.6990, 66.82327
589.1810, 60.70435
589.6630, 59.25714
590.1450, 51.79263
590.6270, 51.44879
591.1090, 49.37195
591.5910, 46.92075
592.0740, 44.89673
592.5560, 43.29706
593.0380, 41.92444
593.5200, 40.48953
594.0020, 38.72775
594.4840, 36.33395
594.9660, 33.13583
595.4480, 28.05704
595.9300, 16.29242
596.4130, 9.840027
596.8950, 17.08322
597.3770, 29.77258
597.8590, 37.58185
598.3410, 37.77951
598.8230, 36.60458
599.3050, 37.08780
599.7870, 38.92218
600.2700, 42.72614
600.7520, 48.03839
601.2340, 51.21304
601.7160, 49.84857
602.1980, 46.41852
602.6800, 47.17444
603.1620, 57.03226
603.6440, 60.44989
604.1270, 49.49237
604.6090, 40.58569
605.0910, 43.57025
605.5730, 53.64954
606.0550, 61.01474
606.5370, 61.26157
607.0190, 60.37265
607.5010, 66.07181
607.9840, 75.59955
608.4660, 79.40967
608.9480, 75.94336
609.4300, 72.17929
609.9120, 72.87778
610.3940, 77.18359
610.8760, 81.32944
611.3580, 83.14435
611.8400, 87.45892
612.3230, 97.09122
612.8050, 107.1754
613.2870, 113.7467
613.7690, 117.5494
614.2510, 122.0866
614.7330, 129.3740
615.2150, 137.8440
615.6970, 144.0658
616.1790, 148.4256
616.6620, 157.0497
617.1440, 172.5736
617.6260, 187.4280
618.1080, 193.0353
618.5900, 190.3852
619.0720, 199.4708
619.5540, 229.9421
620.0360, 258.5923
620.5180, 277.6662
621.0010, 294.5939
621.4830, 316.3805
621.9650, 343.7369
622.4470, 373.5711
622.9290, 403.2724
623.4110, 434.2884
623.8930, 468.0783
624.3750, 504.5854
624.8570, 552.4222
625.3400, 616.1641
625.8220, 687.5342
626.3040, 756.1720
626.7860, 821.9439
627.2680, 900.8431
627.7500, 996.1884
628.2320, 1101.011
628.7140, 1213.598
629.1970, 1334.318
629.6790, 1463.893
630.1610, 1601.989
630.6430, 1749.761
631.1250, 1912.378
631.6070, 2082.500
632.0890, 2234.011
632.5710, 2364.468
633.0540, 2502.972
633.5360, 2667.537
634.0180, 2832.252
634.5000, 2977.304
634.9820, 3105.643
635.4640, 3160.964
635.9460, 3115.430
636.4280, 3022.654
636.9110, 2900.506
637.3930, 2747.736
637.8750, 2551.650
638.3570, 2313.502
638.8390, 2065.481
639.3210, 1834.234
639.8030, 1618.092
640.2850, 1405.043
640.7680, 1191.993
641.2500, 1009.668
641.7320, 873.9121
642.2140, 769.4550
642.6960, 679.4122
643.1780, 604.1631
643.6600, 536.9607
644.1420, 478.5592
644.6240, 426.3553
645.1070, 380.0557
645.5890, 338.7576
646.0710, 301.4850
646.5530, 267.8083
647.0350, 238.1039
647.5170, 214.0811
647.9990, 194.2357
648.4810, 170.7822
648.9630, 142.5000
649.4460, 120.6133
649.9280, 111.0056
650.4100, 107.8670
650.8920, 104.3474
651.3740, 100.9571
651.8560, 93.17126
652.3380, 74.00610
652.8200, 57.79303
653.3020, 52.05450
653.7850, 52.52908
654.2670, 54.21509
654.7490, 55.42163
655.2310, 55.36194
655.7130, 53.14407
656.1950, 49.07791
656.6770, 43.25189
657.1590, 35.36115
657.6410, 31.11765
658.1240, 34.64050
658.6060, 38.99622
659.0880, 33.14877
659.5700, 13.71826
660.0520, 4.262360
660.5340, 14.22318
661.0160, 23.10172
661.4980, 22.89291
661.9810, 18.02176
662.4630, 13.68771
662.9450, 11.28320
663.4270, 9.321533
663.9090, 7.057922
664.3910, 4.664490
664.8730, 2.776123
665.3550, 1.324738
665.8380, 1.630432
666.3200, 7.525848
666.8020, 12.77280
667.2840, 12.39636
667.7660, 5.507538
668.2480, 0.6913150
668.7300, 0.8584900
669.2120, 0.3165890
669.6950, 5.718628
670.1770, 11.60031
670.6590, 9.956635
671.1410, 1.481750
671.6230, 5.048248
672.1050, 2.744507
672.5870, 3.581177
673.0690, 8.292847
673.5510, 11.59528
674.0340, 13.49399
674.5160, 13.79803
674.9980, 15.28326
675.4800, 21.65372
675.9620, 32.69736
676.4440, 38.33121
676.9260, 30.32822
677.4080, 29.35138
677.8900, 44.82071
678.3730, 63.17416
678.8550, 72.81570
679.3370, 74.77740
679.8190, 78.85019
680.3010, 90.89703
680.7830, 105.0240
681.2650, 114.8780
681.7470, 123.1101
682.2290, 135.8753
682.7120, 154.2705
683.1940, 174.8548
683.6760, 194.9985
684.1580, 213.9775
684.6400, 230.1821
685.1220, 242.4822
685.6040, 255.2873
686.0860, 270.5773
686.5680, 285.2206
687.0510, 298.2458
687.5330, 309.0701
688.0150, 316.0381
688.4970, 319.9108
688.9790, 318.2194
689.4610, 311.8198
689.9430, 298.3097
690.4250, 269.9067
690.9080, 229.8153
691.3900, 193.9666
691.8720, 172.6756
692.3540, 160.8669
692.8360, 149.4417
693.3180, 138.4785
693.8000, 125.4478
694.2820, 109.1968
694.7650, 92.76321
695.2470, 76.63898
695.7290, 62.20139
696.2110, 53.90329
696.6930, 54.56458
697.1750, 55.07825
697.6570, 54.79733
698.1390, 53.21878
698.6220, 48.71753
699.1040, 42.90460
699.5860, 39.36389
700.0680, 39.65350
700.5500, 40.21436
701.0320, 35.25281
701.5140, 27.38708
701.9960, 26.24649
702.4780, 32.48706
702.9610, 38.61877
703.4430, 41.29849
703.9250, 41.32132
704.4070, 39.91321
704.8890, 36.51904
705.3710, 33.67584
705.8530, 31.26859
706.3350, 29.52225
706.8170, 28.34076
707.3000, 27.94211
707.7820, 28.15326
708.2640, 29.04123
708.7460, 32.39319
709.2280, 41.69656
709.7100, 52.03958
710.1920, 57.89822
710.6740, 60.20444
711.1570, 62.88141
711.6390, 66.91974
712.1210, 67.45517
712.6030, 58.42145
713.0850, 41.02115
713.5670, 26.26321
714.0490, 14.20679
714.5310, 7.354095
715.0130, 5.894226
715.4960, 6.795776
715.9780, 9.201935
716.4600, 13.36746
716.9420, 15.57895
717.4240, 11.73257
717.9060, 8.180725
718.3880, 8.888489
718.8700, 10.27444
719.3520, 7.243195
719.8350, 0.8237300
720.3170, 2.785095
720.7990, 0.7940980
721.2810, 6.970673
721.7630, 8.130859
722.2450, 4.924072
722.7270, 1.808807
723.2090, 0.6669620
723.6920, 2.272980
724.1740, 2.745941
724.6560, 2.588898
725.1380, 3.214844
725.6200, 7.041840
726.1020, 6.330292
726.5840, 5.706482
727.0660, 14.40619
727.5490, 10.40607
728.0310, 0.1122740
728.5130, 6.714661
728.9950, 7.842316
729.4770, 5.958099
729.9590, 8.2947001E-02
730.4410, 6.594208
730.9230, 8.587830
731.4060, 7.205872
731.8880, 6.549408
732.3700, 8.052185
732.8520, 9.968170
733.3340, 10.14731
733.8160, 8.741547
734.2980, 7.524933
734.7800, 6.487335
735.2620, 5.569824
735.7450, 4.333374
736.2270, 3.692963
736.7090, 4.942535
737.1910, 7.958099
737.6730, 10.67172
738.1550, 14.06201
738.6370, 15.75870
739.1190, 15.08508
739.6010, 12.43240
740.0840, 6.352356
740.5660, 1.555725
741.0480, 6.370483
741.5300, 5.257477
742.0120, 0.7279970
742.4940, 5.015259
742.9760, 11.63132
743.4580, 19.84055
743.9400, 29.50427
744.4230, 32.77942
744.9050, 23.88577
745.3870, 8.928802
745.8690, 2.481598
746.3510, 8.049042
746.8330, 9.882813
747.3150, 4.052429
747.7970, 8.2001001E-02
748.2790, 4.823914
748.7620, 12.32687
749.2440, 14.03839
749.7260, 8.459473
750.2080, 5.688019
750.6900, 12.29916
751.1720, 18.74719
751.6540, 17.25363
752.1360, 12.32852
752.6190, 11.66180
753.1010, 16.57248
753.5830, 22.14151
754.0650, 24.26288
754.5470, 24.35562
755.0290, 26.08371
755.5110, 29.00607
755.9930, 28.70975
756.4760, 23.89468
756.9580, 18.16394
757.4400, 14.10141
757.9220, 11.98312
758.4040, 13.53494
758.8860, 21.03488
759.3680, 27.71005
759.8500, 34.29242
760.3330, 38.76291
760.8150, 39.67856
761.2970, 37.90436
761.7790, 34.33823
762.2610, 27.84323
762.7430, 24.61130
763.2250, 29.67642
763.7070, 37.03763
764.1890, 44.56284
764.6720, 49.56476
765.1540, 44.92609
765.6360, 29.11740
766.1180, 14.19678
766.6000, 15.63501
767.0820, 27.66116
767.5640, 30.13330
768.0460, 23.25146
768.5280, 17.03253
769.0110, 14.11951
769.4930, 14.38229
769.9750, 19.38788
770.4570, 28.07333
770.9390, 25.42477
771.4210, 2.028961
771.9030, 17.63469
772.3850, 5.236694
772.8670, 8.607513
773.3500, 3.955597
773.8320, 11.28668
774.3140, 15.10802
774.7960, 1.503510
775.2780, 19.08377
775.7600, 32.56305
776.2420, 40.15390
776.7240, 37.94339
777.2060, 29.23175
777.6890, 20.93231
778.1710, 15.64499
778.6530, 12.88843
779.1350, 11.31711
779.6170, 11.41595
780.0990, 16.93188
780.5810, 27.40738
781.0630, 31.92728
781.5460, 26.09103
782.0280, 18.08841
782.5100, 16.99991
782.9920, 22.37439
783.4740, 26.62363
783.9560, 28.72260
784.4380, 32.99677
784.9200, 45.61578
785.4030, 54.33963
785.8850, 46.11514
786.3670, 27.57727
786.8490, 19.77548
787.3310, 32.16727
787.8130, 42.76370
788.2950, 42.45099
788.7770, 38.32132
789.2600, 34.91251
789.7420, 32.48279
790.2240, 30.24377
790.7060, 27.97464
791.1880, 27.04337
791.6700, 30.11200
792.1520, 34.87244
792.6340, 36.51273
793.1170, 35.35587
793.5990, 33.55685
794.0810, 31.74872
794.5630, 29.71536
795.0450, 26.73944
795.5270, 23.96204
796.0090, 27.92529
796.4910, 42.24649
796.9730, 48.17435
797.4560, 36.46490
797.9380, 24.98959
798.4200, 28.90131
798.9020, 42.35297
799.3840, 46.77090
799.8660, 39.08002
800.3480, 29.67365
800.8300, 13.97983
801.3120, 2.550751
801.7950, 3.826843
802.2770, 12.10339
802.7590, 18.77414
803.2410, 21.88412
803.7230, 24.26669
804.2050, 27.47754
804.6870, 31.44479
805.1690, 37.95358
805.6510, 44.32156
806.1340, 43.98349
806.6160, 36.09464
807.0980, 27.43109
807.5800, 22.88129
808.0620, 22.01523
808.5440, 25.17950
809.0260, 32.26050
809.5080, 36.22125
809.9900, 35.89871
810.4730, 34.09610
810.9550, 32.04901
811.4370, 30.12372
811.9190, 29.12607
812.4010, 29.05426
812.8830, 29.94611
813.3650, 33.52377
813.8470, 35.80914
814.3300, 34.96423
814.8120, 32.78912
815.2940, 30.67679
815.7760, 28.81012
816.2580, 27.93091
816.7400, 27.09888
817.2220, 28.67712
817.7040, 37.52155
818.1870, 46.58279
818.6690, 47.55185
819.1510, 41.73666
819.6330, 36.15829
820.1150, 34.26389
820.5970, 33.15228
821.0790, 28.73047
821.5610, 23.24026
822.0440, 21.64731
822.5260, 23.72235
823.0080, 26.54330
823.4900, 29.01035
823.9720, 31.14291
824.4540, 33.21628
824.9360, 33.02701
825.4180, 34.57303
825.9000, 31.31830
826.3830, 28.51566
826.8650, 26.44025
827.3470, 26.12317
827.8290, 29.16159
828.3110, 34.62189
828.7930, 37.99109
829.2750, 37.39206
829.7570, 35.80252
830.2390, 34.56448
830.7220, 34.43622
831.2040, 38.02048
831.6860, 40.03262
832.1680, 32.27197
832.6500, 14.10333
833.1320, 2.090271
833.6140, 6.273834
834.0960, 13.71799
834.5780, 18.53333
835.0610, 20.58801
835.5430, 17.70901
836.0250, 11.67130
836.5070, 11.00702
836.9890, 23.06006
837.4710, 36.42197
837.9530, 35.47449
838.4350, 25.69641
838.9170, 19.18518
839.4000, 17.07819
839.8820, 17.87570
840.3640, 21.00833
840.8460, 24.29236
841.3280, 24.24783
841.8100, 21.15558
842.2920, 19.07880
842.7740, 18.24741
843.2570, 16.63055
843.7390, 13.18338
844.2210, 10.06577
844.7030, 9.628815
845.1850, 11.33508
845.6670, 11.37204
846.1490, 7.279388
846.6310, 6.039917
847.1140, 10.34833
847.5960, 15.05823
848.0780, 18.64163
848.5600, 20.84061
849.0420, 20.68811
849.5240, 17.51318
850.0060, 16.24283
850.4880, 21.36407
850.9710, 24.84494
851.4530, 22.40442
851.9350, 16.33548
852.4170, 7.627136
852.8990, 2.216736
853.3810, 8.847382
853.8630, 10.16431
854.3450, 7.515106
854.8270, 1.443634
855.3100, 11.66046
855.7920, 14.46899
856.2740, 11.02249
856.7560, 7.367096
857.2380, 6.147491
857.7200, 6.962585
858.2020, 10.52512
858.6840, 15.26862
859.1660, 17.13626
859.6490, 16.49200
860.1310, 13.44498
860.6130, 7.657745
861.0950, 1.677155
861.5770, 2.898804
862.0590, 5.161407
862.5410, 0.4177250
863.0230, 16.32947
863.5050, 23.17645
863.9880, 15.93652
864.4700, 9.860474
864.9520, 13.21353
865.4340, 20.64148
865.9160, 23.86087
866.3980, 22.32068
866.8800, 20.58533
867.3620, 18.18384
867.8440, 16.22720
868.3270, 14.84549
868.8090, 14.04361
869.2910, 13.99667
869.7730, 14.52960
870.2550, 15.08850
870.7370, 15.34534
871.2190, 16.17413
871.7010, 18.94690
872.1840, 21.36359
872.6660, 22.06635
873.1480, 21.11111
873.6300, 17.99191
874.1120, 13.01877
874.5940, 9.183716
875.0760, 8.961670
875.5580, 10.15460
876.0410, 10.25571
876.5230, 12.20993
877.0050, 12.52121
877.4870, 16.70770
877.9690, 20.73633
878.4510, 23.65207
878.9330, 24.40793
879.4150, 18.01129
879.8980, 8.306335
880.3800, 10.77991
880.8620, 24.49133
881.3440, 37.35431
881.8260, 45.70569
882.3080, 50.26080
882.7900, 50.79666
883.2720, 49.34760
883.7550, 54.90424
884.2370, 68.64987
884.7190, 78.72974
885.2010, 82.52130
885.6830, 87.82510
886.1650, 99.75311
886.6470, 114.2324
887.1290, 124.1725
887.6110, 128.7234
888.0940, 134.7770
888.5760, 146.6173
889.0580, 152.6512
889.5400, 148.4154
890.0220, 139.3040
890.5040, 128.2914
890.9860, 115.7130
891.4680, 103.4604
891.9500, 90.76169
892.4330, 80.02539
892.9150, 73.77151
893.3970, 67.05219
893.8790, 54.69092
894.3610, 41.87997
894.8430, 37.14487
895.3250, 40.64160
895.8070, 41.16104
896.2890, 29.84201
896.7720, 19.89160
897.2540, 21.02280
897.7360, 25.08771
898.2180, 22.75040
898.7000, 15.86862
899.1820, 11.64456
899.6640, 12.78909
900.1460, 15.58231
900.6280, 18.30417
901.1110, 20.04779
901.5930, 18.60886
902.0750, 15.53183
902.5570, 14.50302
903.0390, 15.96136
903.5210, 17.28387
904.0030, 16.32193
904.4850, 15.49979
904.9680, 20.06427
905.4500, 27.77267
905.9320, 31.06393
906.4140, 29.91699
906.8960, 28.43494
907.3780, 28.20370
907.8600, 28.53445
908.3420, 29.18704
908.8250, 29.35855
909.3070, 23.87201
909.7890, 12.52838
910.2710, 7.976105
910.7530, 12.75919
911.2350, 17.56839
911.7170, 17.33154
912.1990, 13.71982
912.6820, 9.279266
913.1640, 3.180481
913.6460, 0.7655940
914.1280, 3.748901
914.6100, 5.002655
915.0920, 0.9115300
915.5740, 2.371796
916.0560, 1.750336
916.5380, 11.06757
917.0210, 15.36441
917.5030, 11.02365
917.9850, 8.982513
918.4670, 14.14911
918.9490, 15.17755
919.4310, 1.772705
919.9130, 14.13065
920.3950, 17.40961
920.8770, 8.344604
921.3600, 1.703308
921.8420, 2.6366999E-02
922.3240, 1.051819
922.8060, 1.494019
923.2880, 2.133759
923.7700, 2.641083
924.2520, 4.002014
924.7340, 9.031525
925.2160, 18.79169
925.6990, 24.63956
926.1810, 18.75909
926.6630, 14.25034
927.1450, 20.19434
927.6270, 28.97208
928.1090, 34.15860
928.5910, 34.56793
929.0730, 28.37103
929.5550, 12.28995
930.0380, 1.926758
930.5200, 15.45541
931.0020, 31.12900
931.4840, 25.83545
931.9660, 9.947815
932.4480, 2.455627
932.9300, 5.787018
933.4120, 8.854248
933.8950, 4.471436
934.3770, 6.417694
934.8590, 0.2661130
935.3410, 2.814911
935.8230, 1.214935
936.3050, 3.888977
936.7870, 7.653290
937.2690, 8.499481
937.7520, 7.866425
938.2340, 6.656708
938.7160, 5.189423
939.1980, 3.862823
939.6800, 2.743439
940.1620, 2.197784
940.6440, 2.124664
941.1260, 1.957977
941.6090, 1.439728
942.0910, 0.2523190
942.5730, 4.833649
943.0550, 11.29727
943.5370, 16.04825
944.0190, 19.28763
944.5010, 22.89435
944.9830, 27.16351
945.4650, 28.85504
945.9480, 25.55597
946.4300, 19.75235
946.9120, 15.73016
947.3940, 13.49142
947.8760, 13.50107
948.3580, 15.81857
948.8400, 19.20004
949.3220, 23.32944
949.8040, 27.64233
950.2870, 31.48767
950.7690, 35.54163
951.2510, 42.71631
951.7330, 53.70059
952.2150, 60.08450
952.6970, 59.94989
953.1790, 62.86087
953.6610, 73.54633
954.1440, 85.48349
954.6260, 90.82346
955.1080, 90.70044
955.5900, 96.73410
956.0720, 108.5717
956.5540, 128.4521
957.0360, 159.1816
957.5180, 191.8840
958.0000, 222.9684
958.4830, 253.0488
958.9650, 281.9903
959.4470, 309.7161
959.9290, 344.6783
960.4110, 383.0783
960.8930, 436.6144
961.3750, 503.1920
961.8570, 591.2768
962.3390, 707.7875
962.8220, 847.9613
963.3040, 1003.349
963.7860, 1174.371
964.2680, 1357.904
964.7500, 1540.454
965.2320, 1756.731
965.7140, 2019.016
966.1960, 2311.562
966.6790, 2635.842
967.1610, 2980.557
967.6430, 3325.122
968.1250, 3693.614
968.6070, 3986.893
969.0890, 4255.303
969.5710, 4376.774
970.0530, 4299.963
970.5360, 4080.818
971.0180, 3722.813
971.5000, 3259.649
971.9820, 2792.142
972.4640, 2297.176
972.9460, 1876.951
973.4280, 1556.765
973.9100, 1293.906
974.3930, 1081.540
974.8750, 908.5339
975.3570, 771.5325
975.8390, 665.5775
976.3210, 576.7626
976.8030, 505.0311
977.2850, 444.9319
977.7670, 397.5035
978.2490, 357.8218
978.7320, 327.3988
979.2140, 301.9440
979.6960, 276.1754
980.1780, 250.2089
980.6600, 228.4027
981.1420, 215.0414
981.6240, 200.7038
982.1060, 177.7883
982.5880, 158.4850
983.0710, 153.7846
983.5530, 155.4181
984.0350, 151.2252
984.5170, 140.1801
984.9990, 129.8934
985.4810, 122.3041
985.9630, 116.3945
986.4450, 113.3791
986.9270, 110.4026
987.4100, 102.4080
987.8920, 94.41043
988.3740, 95.10413
988.8560, 105.5959
989.3380, 118.3168
989.8200, 134.3409
990.3020, 146.9901
990.7840, 150.7158
991.2660, 152.3959
991.7490, 156.2693
992.2310, 162.7953
992.7130, 171.4652
993.1950, 182.2758
993.6770, 197.1085
994.1590, 225.5924
994.6410, 246.7578
995.1230, 242.7778
995.6060, 233.7822
996.0880, 239.0475
996.5700, 253.2168
997.0520, 264.5959
997.5340, 270.4874
998.0160, 265.0507
998.4980, 240.8515
998.9800, 210.6507
999.4630, 173.6398
999.9450, 139.8765
1000.427, 120.7686
1000.909, 112.2538
1001.391, 104.6606
1001.873, 95.68295
1002.355, 83.97668
1002.837, 66.32907
1003.319, 48.89658
1003.802, 34.14764
1004.284, 22.02045
1004.766, 12.52396
1005.248, 5.476868
1005.730, 0.4145510
1006.212, 2.869019
1006.694, 3.177277
1007.176, 2.042358
1007.659, 7.975006
1008.141, 12.93817
1008.623, 16.52127
1009.105, 17.87375
1009.587, 17.66400
1010.069, 18.21381
1010.551, 20.58398
1011.033, 18.64590
1011.515, 1.626923
1011.998, 10.49341
1012.480, 1.631012
1012.962, 13.09091
1013.444, 18.48938
1013.926, 16.80188
1014.408, 17.37296
1014.890, 22.76193
1015.372, 28.31995
1015.854, 33.22409
1016.337, 36.61478
1016.819, 37.99811
1017.301, 37.62061
1017.783, 33.41299
1018.265, 28.12000
1018.747, 28.84720
1019.229, 38.15662
1019.711, 45.97684
1020.194, 48.84906
1020.676, 49.34250
1021.158, 47.82416
1021.640, 45.21466
1022.122, 41.44501
1022.604, 37.38226
1023.086, 35.41696
1023.568, 36.59387
1024.051, 35.40350
1024.533, 27.99091
1025.015, 20.87701
1025.497, 15.60178
1025.979, 12.61108
1026.461, 14.16696
1026.943, 17.77426
1027.425, 17.08701
1027.907, 10.09204
1028.390, 6.444397
1028.872, 9.519928
1029.354, 14.51294
1029.836, 20.88608
1030.318, 27.65530
1030.800, 34.97183
1031.282, 41.87616
1031.764, 45.59351
1032.246, 44.84637
1032.729, 48.05151
1033.211, 62.50229
1033.693, 72.51349
1034.175, 64.90659
1034.657, 60.87531
1035.139, 79.44193
1035.621, 110.1531
1036.103, 130.5855
1036.586, 137.3452
1037.068, 151.5849
1037.550, 172.5705
1038.032, 203.6852
1038.514, 254.3280
1038.996, 306.2827
1039.478, 341.6284
1039.960, 405.0008
1040.443, 432.9569
1040.925, 520.7520
1041.407, 596.3845
1041.889, 654.8740
1042.371, 709.5692
1042.853, 769.4422
1043.335, 814.9448
1043.817, 836.7336
1044.299, 837.7195
1044.781, 822.8654
1045.264, 791.8678
1045.746, 735.1846
1046.228, 642.2851
1046.710, 551.3821
1047.192, 462.2308
1047.674, 384.0974
1048.156, 320.6210
1048.638, 271.1649
1049.121, 236.9501
1049.603, 216.2413
1050.085, 191.0613
1050.567, 159.4395
1051.049, 132.2321
1051.531, 109.9044
1052.013, 94.30829
1052.495, 86.49905
1052.978, 84.31580
1053.460, 87.24231
1053.942, 92.98938
1054.424, 88.63074
1054.906, 73.43765
1055.388, 66.07529
1055.870, 67.10242
1056.352, 74.45038
1056.834, 88.69974
1057.317, 100.4781
1057.799, 99.88000
1058.281, 92.60519
1058.763, 95.01511
1059.245, 105.4439
1059.727, 110.6168
1060.209, 110.1388
1060.691, 105.5025
1061.173, 97.27145
1061.656, 88.06464
1062.138, 79.44745
1062.620, 72.12476
1063.102, 68.02164
1063.584, 65.63321
1064.066, 60.52872
1064.548, 52.70776
1065.030, 40.48532
1065.513, 25.21823
1065.995, 19.31772
1066.477, 31.10434
1066.959, 47.32010
1067.441, 52.75342
1067.923, 50.26703
1068.405, 42.44547
1068.887, 31.88834
1069.370, 23.43719
1069.852, 17.80527
1070.334, 15.42007
1070.816, 16.18918
1071.298, 17.26346
1071.780, 15.83279
1072.262, 13.85590
1072.744, 14.21484
1073.226, 14.79984
1073.708, 9.991547
1074.191, 3.128510
1074.673, 5.058197
1075.155, 18.74936
1075.637, 30.82251
1076.119, 33.17001
1076.601, 31.92987
1077.083, 26.26303
1077.565, 22.91531
1078.048, 31.93167
1078.530, 46.25919
1079.012, 51.93896
1079.494, 47.30487
1079.976, 43.86887
1080.458, 40.12247
1080.940, 45.98752
1081.422, 69.56052
1081.905, 97.80688
1082.387, 123.6782
1082.869, 149.5777
1083.351, 177.4559
1083.833, 208.3646
1084.315, 248.0807
1084.797, 311.5260
1085.279, 357.0882
1085.761, 390.6704
1086.244, 394.6773
1086.726, 352.2413
1087.208, 290.1432
1087.690, 225.1882
1088.172, 160.8257
1088.654, 107.4780
1089.136, 63.51480
1089.618, 39.09607
1090.101, 41.76971
1090.583, 43.39355
1091.065, 36.67770
1091.547, 30.76974
1092.029, 32.81091
1092.511, 26.40396
1092.993, 22.35480
1093.475, 20.49710
1093.958, 13.12442
1094.440, 11.14841
1094.922, 9.762482
1095.404, 8.402161
1095.886, 3.942078
1096.368, 5.589203
1096.850, 13.51129
1097.332, 10.79089
1097.814, 1.620087
1098.297, 1.436127
1098.779, 6.6220001E-03
1099.261, 2.123688
1099.743, 7.354034
1100.225, 8.321808
1100.707, 3.068634
1101.189, 2.938019
1101.671, 6.031464
1102.153, 5.803650
1102.636, 0.8162230
1103.118, 9.437622
1103.600, 12.92020
1104.082, 12.38980
1104.564, 10.38525
1105.046, 7.872437
1105.528, 6.021332
1106.010, 5.516724
1106.493, 4.880554
1106.975, 2.994751
1107.457, 0.6518860
1107.939, 1.709381
1108.421, 4.058350
1108.903, 7.512543
1109.385, 10.71683
1109.867, 9.887024
1110.349, 3.898590
1110.832, 1.290588
1111.314, 5.397949
1111.796, 6.191986
1112.278, 2.659851
1112.760, 9.075104
1113.242, 1.996460
1113.724, 10.59610
1114.206, 17.20517
1114.688, 17.47903
1115.171, 14.19580
1115.653, 3.518494
1116.135, 2.930206
1116.617, 2.820618
1117.099, 2.351318
1117.581, 3.617981
1118.063, 5.408508
1118.545, 7.205200
1119.028, 8.067993
1119.510, 4.266937
1119.992, 3.381592
1120.474, 0.9533080
1120.956, 4.805084
1121.438, 5.646179
1121.920, 13.60995
1122.402, 19.77948
1122.885, 18.73279
1123.367, 13.49356
1123.849, 7.232758
1124.331, 1.133698
1124.813, 1.369720
1125.295, 0.7189940
1125.777, 1.895264
1126.259, 5.844330
1126.741, 10.18930
1127.224, 13.76547
1127.706, 18.01840
1128.188, 25.00970
1128.670, 30.76993
1129.152, 29.23727
1129.634, 25.44250
1130.116, 25.85037
1130.598, 28.31973
1131.080, 27.74780
1131.563, 24.95914
1132.045, 26.28040
1132.527, 34.61349
1133.009, 44.68921
1133.491, 57.79852
1133.973, 67.58575
1134.455, 69.29300
1134.937, 67.71829
1135.420, 65.19482
1135.902, 63.19366
1136.384, 64.09387
1136.866, 68.11368
1137.348, 74.54025
1137.830, 85.52869
1138.312, 94.68353
1138.794, 102.2641
1139.276, 106.0841
1139.759, 104.4130
1140.241, 99.10260
1140.723, 90.88141
1141.205, 85.09982
1141.687, 86.49078
1142.169, 95.54633
1142.651, 109.5410
1143.133, 128.7350
1143.615, 137.3970
1144.098, 129.9731
1144.580, 122.2711
1145.062, 124.4856
1145.544, 131.3877
1146.026, 137.3292
1146.508, 139.9678
1146.990, 131.6512
1147.472, 120.1846
1147.955, 117.5562
1148.437, 121.0037
1148.919, 129.1362
1149.401, 139.1041
1149.883, 144.6186
1150.365, 139.7624
1150.847, 132.4968
1151.329, 126.1716
1151.812, 120.7827
1152.294, 117.3131
1152.776, 114.9689
1153.258, 111.6203
1153.740, 107.0950
1154.222, 102.2615
1154.704, 97.10205
1155.186, 93.12830
1155.668, 93.26691
1156.151, 89.38507
1156.633, 72.58710
1157.115, 59.12170
1157.597, 60.87689
1158.079, 69.18970
1158.561, 71.98553
1159.043, 69.45044
1159.525, 65.05554
1160.008, 57.72235
1160.490, 55.69135
1160.972, 60.22333
1161.454, 63.95178
1161.936, 64.67096
1162.418, 61.53003
1162.900, 53.06677
1163.382, 44.10443
1163.865, 44.55920
1164.347, 50.92206
1164.829, 54.04639
1165.311, 54.25439
1165.793, 51.49896
1166.275, 47.04443
1166.757, 45.63995
1167.239, 48.82782
1167.721, 52.36743
1168.203, 54.92554
1168.686, 54.14551
1169.168, 41.23901
1169.650, 31.28461
1170.132, 43.27576
1170.614, 63.23303
1171.096, 69.94061
1171.578, 64.24982
1172.060, 62.82935
1172.543, 73.40649
1173.025, 72.96552
1173.507, 45.87262
1173.989, 26.80096
1174.471, 23.86548
1174.953, 28.56934
1175.435, 39.61603
1175.917, 50.46393
1176.400, 50.16443
1176.882, 55.79865
1177.364, 58.25690
1177.846, 54.13000
1178.328, 56.91809
1178.810, 49.36841
1179.292, 39.55566
1179.774, 30.03827
1180.256, 22.93207
1180.739, 20.06793
1181.221, 18.02814
1181.703, 10.51495
1182.185, 2.179810
1182.667, 0.5126950
1183.149, 2.707825
1183.631, 0.0000000E+00
##END=



