##NAMES=Woodhouseite
##RRUFFID=R060520
##IDEAL CHEMISTRY=CaAl_3_(SO_4_)(PO_4_)(OH)_6_
##LOCALITY=Champion mine, Mono County, California, USA
##OWNER=RRUFF
##SOURCE=Michael Scott
##DESCRIPTION=Colorless cubes, with striations that display the rhombohedral symmetry
##STATUS=The identification of this mineral has been confirmed by X-ray diffraction and chemical analysis
##URL=rruff.info/R060520
##MEASURED CHEMISTRY=darker phase: (Ca_0.98_Sr_0.02_)_Σ=1_Al_3.00_[(P_0.53_S_0.47_)_Σ=1_O_4_]_2_((OH)_5.94_(H_2_O)_0.06_)_Σ=6_ ;  lighter phase: (Ca_0.94_Sr_0.06_)_Σ=1_Al_3.00_[(P_0.52_S_0.48_)O_4_]_2_((OH)_5.96_(H_2_O)_0.04_)_Σ=6
91.07782, 0.0000000E+00
91.55994, 0.4934080
92.04205, 47.60645
92.52417, 118.0771
93.00629, 194.3098
93.48840, 253.8855
93.97052, 276.0164
94.45264, 253.9817
94.93475, 228.1838
95.41687, 202.6995
95.89898, 180.9900
96.38110, 161.4924
96.86321, 142.8330
97.34533, 122.5869
97.82745, 99.09229
98.30956, 78.45410
98.79168, 60.39893
99.27380, 46.25439
99.75591, 35.86523
100.2380, 28.76367
100.7201, 23.86719
101.2023, 20.66089
101.6844, 17.95288
102.1665, 14.49634
102.6486, 9.089355
103.1307, 3.594482
103.6128, 1.182861
104.0950, 5.784912
104.5771, 8.009521
105.0592, 6.146729
105.5413, 1.880859
106.0234, 3.305420
106.5055, 8.800781
106.9877, 14.49121
107.4698, 21.71484
107.9519, 33.10425
108.4340, 42.44482
108.9161, 46.89502
109.3982, 47.00415
109.8804, 44.44946
110.3625, 39.78223
110.8446, 31.89917
111.3267, 28.05151
111.8088, 30.89893
112.2909, 35.16406
112.7731, 39.00903
113.2552, 41.89746
113.7373, 43.90356
114.2194, 45.05591
114.7015, 44.23755
115.1836, 44.67236
115.6658, 47.51099
116.1479, 51.00635
116.6300, 53.65430
117.1121, 54.94873
117.5942, 54.94360
118.0763, 53.38232
118.5584, 49.35815
119.0406, 46.47290
119.5227, 46.84497
120.0048, 50.38940
120.4869, 57.71704
120.9690, 68.47217
121.4511, 81.29736
121.9333, 99.74902
122.4154, 124.7251
122.8975, 151.6367
123.3796, 176.1907
123.8617, 198.3943
124.3438, 217.7041
124.8260, 233.8677
125.3081, 244.4109
125.7902, 247.2776
126.2723, 243.5444
126.7544, 236.0159
127.2365, 229.8406
127.7187, 225.7148
128.2008, 222.7346
128.6829, 221.3413
129.1650, 220.7764
129.6471, 220.0273
130.1292, 218.3994
130.6114, 215.9917
131.0935, 214.1685
131.5756, 213.4749
132.0577, 212.9153
132.5398, 211.9365
133.0219, 210.8613
133.5041, 210.5054
133.9862, 211.6902
134.4683, 214.7788
134.9504, 217.1287
135.4325, 217.7788
135.9146, 218.5876
136.3968, 220.6282
136.8789, 223.9807
137.3610, 228.0049
137.8431, 231.8330
138.3252, 235.2822
138.8073, 240.0095
139.2895, 245.2590
139.7716, 252.1631
140.2537, 261.8560
140.7358, 274.4160
141.2179, 290.3088
141.7000, 312.1697
142.1821, 339.4302
142.6643, 364.7666
143.1464, 393.4194
143.6285, 419.6941
144.1106, 421.9387
144.5927, 387.3862
145.0748, 333.9304
145.5570, 275.4263
146.0391, 212.5120
146.5212, 154.3818
147.0033, 109.5530
147.4854, 78.85815
147.9675, 52.86914
148.4497, 32.51416
148.9318, 17.11597
149.4139, 2.489258
149.8960, 11.31567
150.3781, 23.50513
150.8602, 32.23413
151.3424, 35.82812
151.8245, 39.63477
152.3066, 44.90259
152.7887, 50.20557
153.2708, 54.70215
153.7529, 58.00757
154.2351, 60.01392
154.7172, 60.38843
155.1993, 57.57153
155.6814, 54.80225
156.1635, 52.89697
156.6456, 50.91479
157.1278, 47.83398
157.6099, 43.16406
158.0920, 36.97021
158.5741, 29.35474
159.0562, 20.30347
159.5383, 10.14502
160.0205, 1.080811
160.5026, 13.32373
160.9847, 26.55200
161.4668, 40.66479
161.9489, 55.65186
162.4310, 71.34131
162.9131, 87.92749
163.3953, 105.3003
163.8774, 123.1167
164.3595, 141.3701
164.8416, 160.2705
165.3237, 179.9099
165.8058, 200.4514
166.2880, 221.9099
166.7701, 243.3137
167.2522, 266.4980
167.7343, 293.6404
168.2164, 325.0249
168.6985, 358.7739
169.1807, 392.6548
169.6628, 428.3149
170.1449, 468.7258
170.6270, 515.4866
171.1091, 567.1992
171.5912, 620.6260
172.0734, 675.3040
172.5555, 732.9326
173.0376, 792.5503
173.5197, 855.5361
174.0018, 924.2559
174.4839, 999.8108
174.9661, 1082.015
175.4482, 1169.122
175.9303, 1264.547
176.4124, 1361.855
176.8945, 1460.630
177.3766, 1559.860
177.8588, 1658.419
178.3409, 1757.677
178.8230, 1857.927
179.3051, 1936.799
179.7872, 1996.474
180.2693, 2033.349
180.7515, 2044.536
181.2336, 2031.026
181.7157, 1994.602
182.1978, 1935.762
182.6799, 1852.972
183.1620, 1759.338
183.6441, 1648.293
184.1263, 1534.956
184.6084, 1423.393
185.0905, 1315.586
185.5726, 1215.049
186.0547, 1125.202
186.5368, 1047.438
187.0190, 980.6221
187.5011, 927.7922
187.9832, 883.6052
188.4653, 844.8865
188.9474, 811.3484
189.4296, 782.9209
189.9117, 760.4346
190.3938, 744.0723
190.8759, 730.4602
191.3580, 720.0691
191.8401, 711.9990
192.3223, 705.7334
192.8044, 701.5017
193.2865, 697.5244
193.7686, 690.6072
194.2507, 682.0339
194.7328, 676.6982
195.2150, 678.1533
195.6971, 683.5010
196.1792, 686.9924
196.6613, 687.6475
197.1434, 687.5352
197.6255, 687.9717
198.1077, 688.8608
198.5898, 690.0237
199.0719, 690.6060
199.5540, 691.1904
200.0361, 694.4351
200.5182, 701.6294
201.0004, 710.0295
201.4825, 718.3337
201.9646, 726.5215
202.4467, 734.5061
202.9288, 742.4448
203.4109, 750.3071
203.8930, 756.9810
204.3752, 760.1775
204.8573, 764.3892
205.3394, 771.8054
205.8215, 781.6350
206.3036, 791.9844
206.7857, 801.3665
207.2679, 809.5305
207.7500, 816.5579
208.2321, 821.4802
208.7142, 826.5713
209.1963, 832.7908
209.6784, 840.0437
210.1606, 847.8940
210.6427, 856.1934
211.1248, 865.0527
211.6069, 873.1592
212.0890, 879.8232
212.5711, 886.6399
213.0533, 894.5386
213.5354, 903.3762
214.0175, 912.6030
214.4996, 921.6897
214.9817, 930.5767
215.4638, 940.6873
215.9460, 952.5691
216.4281, 965.2786
216.9102, 978.6448
217.3923, 992.5947
217.8744, 1007.207
218.3565, 1022.009
218.8387, 1036.836
219.3208, 1051.841
219.8029, 1067.141
220.2850, 1082.508
220.7671, 1097.238
221.2492, 1111.524
221.7314, 1126.772
222.2135, 1144.186
222.6956, 1163.978
223.1777, 1184.703
223.6598, 1207.347
224.1419, 1230.219
224.6240, 1252.160
225.1062, 1273.129
225.5883, 1293.105
226.0704, 1311.760
226.5525, 1329.197
227.0346, 1347.077
227.5167, 1364.409
227.9989, 1382.884
228.4810, 1404.213
228.9631, 1428.494
229.4452, 1453.869
229.9273, 1479.609
230.4094, 1505.271
230.8916, 1529.784
231.3737, 1551.233
231.8558, 1572.316
232.3379, 1596.293
232.8200, 1623.458
233.3021, 1651.355
233.7843, 1678.441
234.2664, 1705.381
234.7485, 1733.240
235.2306, 1761.964
235.7127, 1791.982
236.1948, 1824.428
236.6770, 1859.998
237.1591, 1895.918
237.6412, 1931.061
238.1233, 1965.851
238.6054, 2000.856
239.0875, 2035.883
239.5697, 2071.903
240.0518, 2109.887
240.5339, 2149.754
241.0160, 2192.358
241.4981, 2240.508
241.9802, 2290.773
242.4624, 2340.207
242.9445, 2387.760
243.4266, 2432.737
243.9087, 2474.220
244.3908, 2512.248
244.8729, 2546.389
245.3550, 2577.597
245.8372, 2604.365
246.3193, 2625.677
246.8014, 2641.265
247.2835, 2650.326
247.7656, 2651.708
248.2477, 2645.311
248.7299, 2630.683
249.2120, 2607.342
249.6941, 2577.158
250.1762, 2540.749
250.6583, 2498.265
251.1404, 2451.034
251.6226, 2400.579
252.1047, 2346.578
252.5868, 2290.641
253.0689, 2231.723
253.5510, 2172.017
254.0331, 2112.309
254.5153, 2053.106
254.9974, 1994.724
255.4795, 1937.563
255.9616, 1883.389
256.4437, 1826.859
256.9258, 1764.199
257.4080, 1702.289
257.8901, 1645.751
258.3722, 1595.423
258.8543, 1548.260
259.3364, 1500.115
259.8185, 1449.621
260.3007, 1401.638
260.7828, 1355.266
261.2649, 1310.946
261.7470, 1269.317
262.2291, 1230.189
262.7112, 1193.229
263.1934, 1157.895
263.6755, 1124.477
264.1576, 1091.794
264.6397, 1058.761
265.1218, 1027.245
265.6039, 998.6936
266.0861, 972.9417
266.5682, 948.4985
267.0503, 923.7971
267.5324, 898.5640
268.0145, 876.0137
268.4966, 857.2710
268.9788, 839.6797
269.4609, 822.6755
269.9430, 805.8704
270.4251, 788.4922
270.9072, 769.6758
271.3893, 749.3508
271.8715, 731.0037
272.3536, 715.9277
272.8357, 701.1665
273.3178, 685.1353
273.7999, 668.4614
274.2820, 653.2698
274.7642, 641.3357
275.2463, 632.0935
275.7284, 619.2329
276.2105, 600.9546
276.6926, 581.9666
277.1747, 562.6360
277.6568, 543.6716
278.1389, 526.9922
278.6211, 514.1448
279.1032, 503.8904
279.5853, 490.4734
280.0674, 471.2192
280.5495, 452.5918
281.0316, 436.9224
281.5138, 422.8787
281.9959, 408.2029
282.4780, 391.9956
282.9601, 374.4460
283.4422, 356.1956
283.9243, 336.8406
284.4065, 317.5786
284.8886, 298.0571
285.3707, 278.9285
285.8528, 261.3157
286.3349, 245.6404
286.8170, 231.0950
287.2992, 216.1372
287.7813, 200.4534
288.2634, 185.6094
288.7455, 171.9670
289.2276, 159.3201
289.7097, 147.5972
290.1919, 136.7893
290.6740, 126.7095
291.1561, 117.2302
291.6382, 108.5029
292.1203, 99.36719
292.6024, 88.73682
293.0846, 78.19287
293.5667, 69.43799
294.0488, 62.64209
294.5309, 56.64429
295.0130, 50.50610
295.4951, 44.21533
295.9773, 37.91504
296.4594, 30.77246
296.9415, 24.21313
297.4236, 19.96387
297.9057, 17.84546
298.3878, 15.24268
298.8700, 9.878418
299.3521, 2.394043
299.8342, 2.967773
300.3163, 4.504639
300.7984, 5.512451
301.2805, 8.341064
301.7627, 12.49463
302.2448, 15.59277
302.7269, 16.17383
303.2090, 14.96118
303.6911, 14.19922
304.1732, 13.36304
304.6554, 13.64990
305.1375, 16.55615
305.6196, 21.04517
306.1017, 24.46045
306.5838, 25.78540
307.0659, 25.57495
307.5481, 24.53271
308.0302, 22.23022
308.5123, 20.77759
308.9944, 21.46338
309.4765, 23.31616
309.9586, 24.77271
310.4408, 25.46436
310.9229, 25.61621
311.4050, 25.50610
311.8871, 25.18164
312.3692, 24.37769
312.8513, 22.70752
313.3335, 20.70215
313.8156, 18.76514
314.2977, 16.95117
314.7798, 15.72437
315.2619, 15.68579
315.7440, 16.78833
316.2262, 17.86792
316.7083, 19.10132
317.1904, 20.10156
317.6725, 20.33887
318.1546, 19.86377
318.6367, 19.51831
319.1188, 19.86523
319.6010, 20.82251
320.0831, 21.76147
320.5652, 22.63135
321.0473, 23.52051
321.5294, 24.70654
322.0115, 26.00903
322.4937, 26.79907
322.9758, 26.82690
323.4579, 26.09082
323.9400, 24.53516
324.4221, 21.55103
324.9042, 19.13525
325.3864, 18.17798
325.8685, 18.22046
326.3506, 18.36938
326.8327, 18.32617
327.3148, 18.37012
327.7969, 19.26196
328.2791, 21.39185
328.7612, 22.11865
329.2433, 19.20703
329.7254, 15.44165
330.2075, 14.45142
330.6896, 16.85938
331.1718, 20.04419
331.6539, 21.67114
332.1360, 21.56738
332.6181, 20.18066
333.1002, 16.34204
333.5823, 12.14600
334.0645, 9.689209
334.5466, 8.713379
335.0287, 6.508057
335.5108, 0.8522950
335.9929, 7.678955
336.4750, 14.34180
336.9572, 18.56421
337.4393, 21.85254
337.9214, 24.29248
338.4035, 26.27271
338.8856, 28.69409
339.3677, 32.04272
339.8499, 35.90015
340.3320, 39.05493
340.8141, 40.76855
341.2962, 43.16602
341.7783, 47.23730
342.2604, 52.01050
342.7426, 56.13745
343.2247, 59.20557
343.7068, 61.91650
344.1889, 65.31055
344.6710, 69.96729
345.1531, 73.50342
345.6353, 74.46436
346.1174, 75.26831
346.5995, 77.78564
347.0816, 82.10059
347.5637, 87.36621
348.0458, 92.91772
348.5280, 98.82812
349.0101, 103.7954
349.4922, 106.9912
349.9743, 110.2583
350.4564, 114.2246
350.9385, 118.8328
351.4207, 123.9109
351.9028, 129.3545
352.3849, 135.1045
352.8670, 140.9956
353.3491, 147.1948
353.8312, 153.2476
354.3134, 157.5417
354.7955, 162.1650
355.2776, 170.7432
355.7597, 184.3970
356.2418, 199.2673
356.7239, 208.5955
357.2061, 207.9360
357.6882, 210.1775
358.1703, 216.7239
358.6524, 225.2297
359.1345, 234.4033
359.6166, 243.8147
360.0987, 253.1763
360.5808, 262.4631
361.0630, 271.8582
361.5451, 280.4631
362.0272, 288.8171
362.5093, 295.8027
362.9914, 300.3794
363.4735, 303.1279
363.9557, 305.3008
364.4378, 307.8313
364.9199, 310.4143
365.4020, 311.4167
365.8841, 311.2131
366.3662, 308.7346
366.8484, 302.5452
367.3305, 294.5969
367.8126, 287.2310
368.2947, 281.1406
368.7768, 274.6497
369.2589, 264.9446
369.7411, 251.0833
370.2232, 236.5425
370.7053, 220.7346
371.1874, 205.0171
371.6695, 190.0049
372.1516, 175.7158
372.6338, 161.4746
373.1159, 146.1150
373.5980, 129.7078
374.0801, 116.7891
374.5622, 109.6584
375.0443, 103.4375
375.5265, 97.03589
376.0086, 90.37573
376.4907, 83.23022
376.9728, 75.22559
377.4549, 67.08472
377.9370, 60.34790
378.4192, 54.94556
378.9013, 51.24097
379.3834, 50.68091
379.8655, 50.99487
380.3476, 50.13843
380.8297, 47.78003
381.3119, 46.09839
381.7940, 48.35352
382.2761, 54.50684
382.7582, 57.73828
383.2403, 54.39990
383.7224, 51.03125
384.2046, 51.99390
384.6867, 56.64014
385.1688, 62.52930
385.6509, 68.06519
386.1330, 73.81445
386.6151, 81.44678
387.0973, 91.32910
387.5794, 102.4387
388.0615, 114.0564
388.5436, 126.3315
389.0257, 139.7559
389.5078, 154.4458
389.9900, 170.4905
390.4721, 188.5027
390.9542, 208.3760
391.4363, 227.7283
391.9184, 244.6746
392.4005, 262.0027
392.8827, 284.1018
393.3648, 311.2805
393.8469, 338.4690
394.3290, 362.3008
394.8111, 385.3264
395.2932, 411.3425
395.7754, 441.2285
396.2575, 473.1267
396.7396, 505.8323
397.2217, 539.4668
397.7038, 574.4028
398.1859, 609.5901
398.6681, 647.4253
399.1501, 690.6235
399.6323, 738.1377
400.1144, 785.8831
400.5965, 831.3257
401.0786, 876.3994
401.5607, 926.4746
402.0428, 983.5923
402.5250, 1041.239
403.0071, 1098.785
403.4892, 1156.085
403.9713, 1213.114
404.4534, 1269.534
404.9355, 1324.693
405.4177, 1378.441
405.8998, 1431.669
406.3819, 1475.726
406.8640, 1508.020
407.3461, 1534.806
407.8282, 1558.938
408.3104, 1580.236
408.7925, 1597.954
409.2746, 1612.030
409.7567, 1621.651
410.2388, 1623.321
410.7209, 1612.035
411.2031, 1598.535
411.6852, 1580.979
412.1673, 1563.146
412.6494, 1547.812
413.1315, 1535.974
413.6136, 1527.968
414.0958, 1524.084
414.5779, 1524.065
415.0600, 1529.294
415.5421, 1541.315
416.0242, 1557.371
416.5063, 1576.865
416.9885, 1599.750
417.4706, 1625.680
417.9527, 1654.373
418.4348, 1686.214
418.9169, 1723.049
419.3990, 1765.074
419.8812, 1811.544
420.3633, 1864.835
420.8454, 1920.483
421.3275, 1973.955
421.8096, 2024.025
422.2917, 2073.643
422.7739, 2125.340
423.2560, 2179.004
423.7381, 2234.623
424.2202, 2292.195
424.7023, 2351.698
425.1844, 2413.945
425.6666, 2478.200
426.1487, 2542.346
426.6308, 2604.986
427.1129, 2667.338
427.5950, 2730.142
428.0771, 2793.658
428.5593, 2859.852
429.0414, 2930.916
429.5235, 3004.657
430.0056, 3075.817
430.4877, 3144.163
430.9698, 3210.653
431.4520, 3274.360
431.9341, 3336.478
432.4162, 3400.060
432.8983, 3465.732
433.3804, 3531.838
433.8625, 3596.560
434.3447, 3659.667
434.8268, 3721.771
435.3089, 3782.726
435.7910, 3842.820
436.2731, 3902.200
436.7552, 3960.676
437.2374, 4017.915
437.7195, 4073.829
438.2016, 4128.055
438.6837, 4178.296
439.1658, 4222.887
439.6479, 4265.630
440.1301, 4306.133
440.6122, 4345.145
441.0943, 4384.386
441.5764, 4423.855
442.0585, 4460.386
442.5406, 4489.692
443.0227, 4511.121
443.5049, 4530.129
443.9870, 4546.656
444.4691, 4560.857
444.9512, 4574.018
445.4333, 4584.375
445.9154, 4589.251
446.3976, 4587.188
446.8797, 4579.109
447.3618, 4566.917
447.8439, 4550.356
448.3260, 4530.684
448.8081, 4508.563
449.2903, 4482.392
449.7724, 4451.205
450.2545, 4414.734
450.7366, 4372.572
451.2187, 4323.780
451.7008, 4268.990
452.1830, 4212.283
452.6651, 4154.832
453.1472, 4093.221
453.6293, 4023.843
454.1114, 3949.380
454.5935, 3872.708
455.0757, 3794.275
455.5578, 3714.599
456.0399, 3633.774
456.5220, 3551.760
457.0041, 3467.207
457.4862, 3379.154
457.9684, 3289.536
458.4505, 3200.452
458.9326, 3112.031
459.4147, 3023.917
459.8968, 2936.593
460.3789, 2849.316
460.8611, 2760.693
461.3432, 2671.269
461.8253, 2583.679
462.3074, 2498.759
462.7895, 2417.148
463.2716, 2339.280
463.7538, 2267.823
464.2359, 2196.543
464.7180, 2121.502
465.2001, 2047.330
465.6822, 1978.936
466.1643, 1916.948
466.6465, 1859.723
467.1286, 1805.933
467.6107, 1755.459
468.0928, 1704.949
468.5749, 1653.189
469.0570, 1602.601
469.5392, 1552.665
470.0213, 1504.745
470.5034, 1461.436
470.9855, 1423.917
471.4676, 1390.174
471.9497, 1356.742
472.4319, 1323.414
472.9140, 1291.554
473.3961, 1261.378
473.8782, 1233.067
474.3603, 1206.699
474.8424, 1182.457
475.3246, 1160.153
475.8067, 1140.089
476.2888, 1121.969
476.7709, 1104.648
477.2530, 1088.015
477.7351, 1073.515
478.2173, 1062.554
478.6994, 1053.876
479.1815, 1045.656
479.6636, 1038.119
480.1457, 1030.007
480.6278, 1020.614
481.1100, 1010.219
481.5920, 999.5181
482.0742, 988.6648
482.5563, 976.6213
483.0384, 962.3870
483.5205, 945.8699
484.0026, 927.8669
484.4847, 909.9810
484.9669, 889.0481
485.4490, 863.8745
485.9311, 834.5989
486.4132, 801.4387
486.8953, 764.3853
487.3774, 724.0283
487.8596, 681.5454
488.3417, 635.8853
488.8238, 589.9182
489.3059, 542.8438
489.7880, 496.3972
490.2701, 451.0305
490.7523, 407.1672
491.2344, 365.4927
491.7165, 326.5310
492.1986, 290.2476
492.6807, 256.5872
493.1628, 225.8064
493.6450, 197.2349
494.1271, 170.3345
494.6092, 146.1956
495.0913, 126.7676
495.5734, 111.6755
496.0555, 97.01172
496.5377, 79.79688
497.0198, 61.13281
497.5019, 43.89307
497.9840, 27.98145
498.4661, 14.15503
498.9482, 3.138428
499.4304, 5.693359
499.9125, 13.54565
500.3946, 20.21826
500.8767, 26.65356
501.3588, 33.85059
501.8409, 41.05298
502.3231, 46.99219
502.8052, 51.37573
503.2873, 54.85449
503.7694, 57.85620
504.2515, 60.39941
504.7336, 63.38379
505.2158, 68.17310
505.6979, 71.84814
506.1800, 73.15137
506.6621, 72.75439
507.1442, 71.37476
507.6263, 69.34253
508.1085, 67.22070
508.5906, 65.94482
509.0727, 65.86206
509.5548, 65.40259
510.0369, 64.25952
510.5190, 63.06274
511.0012, 62.23267
511.4833, 61.50684
511.9654, 60.52783
512.4475, 59.26782
512.9296, 57.16187
513.4117, 52.84741
513.8939, 45.99268
514.3760, 39.32837
514.8581, 33.12598
515.3402, 27.61475
515.8223, 23.51465
516.3044, 20.49634
516.7866, 16.46436
517.2687, 10.29175
517.7508, 2.744629
518.2329, 5.584473
518.7150, 14.60571
519.1971, 23.23022
519.6793, 30.63574
520.1614, 37.71411
520.6435, 46.52466
521.1256, 57.53320
521.6077, 68.53735
522.0898, 79.16895
522.5720, 89.60400
523.0541, 99.27661
523.5362, 108.5969
524.0183, 119.1443
524.5004, 131.8413
524.9825, 146.8411
525.4647, 165.5386
525.9468, 191.3816
526.4289, 215.9368
526.9110, 235.6929
527.3931, 255.9412
527.8752, 281.1453
528.3574, 311.6116
528.8395, 344.4333
529.3216, 377.2195
529.8037, 410.1062
530.2858, 444.7664
530.7679, 482.2512
531.2501, 518.8438
531.7322, 554.9314
532.2143, 588.2495
532.6964, 617.3992
533.1785, 642.5925
533.6606, 660.0872
534.1428, 669.2886
534.6249, 668.7896
535.1070, 654.7893
535.5891, 626.4963
536.0712, 588.2839
536.5533, 541.8462
537.0355, 487.9121
537.5176, 433.4836
537.9997, 374.1487
538.4818, 319.5137
538.9639, 271.9534
539.4460, 230.4871
539.9282, 193.9644
540.4103, 162.1113
540.8924, 134.8679
541.3745, 112.5383
541.8566, 95.18481
542.3387, 80.59155
542.8209, 69.02686
543.3029, 60.31421
543.7850, 55.97168
544.2672, 53.73608
544.7493, 50.82251
545.2314, 46.56006
545.7135, 43.17725
546.1956, 43.38818
546.6777, 46.95679
547.1599, 51.21899
547.6420, 56.28296
548.1241, 61.49634
548.6062, 66.43945
549.0883, 71.26489
549.5704, 76.15796
550.0526, 80.78564
550.5347, 86.23364
551.0168, 93.64209
551.4989, 102.2988
551.9810, 110.8276
552.4631, 118.9441
552.9453, 126.8091
553.4274, 134.4719
553.9095, 141.9524
554.3916, 149.8950
554.8737, 158.5427
555.3558, 167.2656
555.8380, 175.5010
556.3201, 183.9177
556.8022, 192.8777
557.2843, 202.4653
