##NAMES=Woodhouseite
##RRUFFID=R060520
##IDEAL CHEMISTRY=CaAl_3_(SO_4_)(PO_4_)(OH)_6_
##LOCALITY=Champion mine, Mono County, California, USA
##OWNER=RRUFF
##SOURCE=Michael Scott
##DESCRIPTION=Colorless cubes, with striations that display the rhombohedral symmetry
##STATUS=The identification of this mineral has been confirmed by X-ray diffraction and chemical analysis
##URL=rruff.info/R060520
##MEASURED CHEMISTRY=darker phase: (Ca_0.98_Sr_0.02_)_Σ=1_Al_3.00_[(P_0.53_S_0.47_)_Σ=1_O_4_]_2_((OH)_5.94_(H_2_O)_0.06_)_Σ=6_ ;  lighter phase: (Ca_0.94_Sr_0.06_)_Σ=1_Al_3.00_[(P_0.52_S_0.48_)O_4_]_2_((OH)_5.96_(H_2_O)_0.04_)_Σ=6
157.681, 0.000
158.163, 30.697
158.645, 24.994
159.127, 3.230
159.609, 10.113
160.091, 1.590
160.574, 20.092
161.056, 22.203
161.538, 29.668
162.020, 70.244
162.502, 186.535
162.984, 310.576
163.466, 398.611
163.948, 433.436
164.430, 480.834
164.913, 576.074
165.395, 704.670
165.877, 843.068
166.359, 979.691
166.841, 1122.020
167.323, 1273.467
167.805, 1430.287
168.287, 1608.797
168.770, 1822.371
169.252, 2065.455
169.734, 2325.662
170.216, 2575.334
170.698, 2846.992
171.180, 3179.000
171.662, 3601.230
172.144, 4058.336
172.626, 4514.779
173.109, 4973.506
173.591, 5433.254
174.073, 5904.604
174.555, 6377.588
175.037, 6846.508
175.519, 7315.480
176.001, 7776.023
176.483, 8240.674
176.965, 8709.225
177.448, 9094.072
177.930, 9332.141
178.412, 9434.223
178.894, 9419.965
179.376, 9291.623
179.858, 9052.746
180.340, 8692.992
180.822, 8212.646
181.305, 7651.145
181.787, 7020.896
182.269, 6341.029
182.751, 5694.846
183.233, 5123.488
183.715, 4613.301
184.197, 4151.373
184.679, 3736.057
185.161, 3356.674
185.644, 2973.467
186.126, 2600.658
186.608, 2295.568
187.090, 2126.178
187.572, 2059.051
188.054, 1959.221
188.536, 1813.389
189.018, 1652.092
189.501, 1526.613
189.983, 1437.129
190.465, 1353.145
190.947, 1251.805
191.429, 1137.273
191.911, 1053.172
192.393, 1014.334
192.875, 991.082
193.357, 911.980
193.840, 771.361
194.322, 641.268
194.804, 574.781
195.286, 570.588
195.768, 557.883
196.250, 525.023
196.732, 481.529
197.214, 461.631
197.697, 473.477
198.179, 469.275
198.661, 397.154
199.143, 252.000
199.625, 143.982
200.107, 96.744
200.589, 97.801
201.071, 98.994
201.553, 102.869
202.036, 99.363
202.518, 72.668
203.000, 16.693
203.482, 19.229
203.964, 21.414
204.446, 5.008
204.928, 25.938
205.410, 40.352
205.893, 49.197
206.375, 52.162
206.857, 48.008
207.339, 39.967
207.821, 24.510
208.303, 2.213
208.785, 2.713
209.267, 14.914
209.749, 41.869
210.232, 66.316
210.714, 91.531
211.196, 106.031
211.678, 101.898
212.160, 78.271
212.642, 77.365
213.124, 109.213
213.606, 153.541
214.089, 180.898
214.571, 183.170
215.053, 193.100
215.535, 213.438
216.017, 253.236
216.499, 299.037
216.981, 351.281
217.463, 409.057
217.945, 473.572
218.428, 548.023
218.910, 613.990
219.392, 656.996
219.874, 665.346
220.356, 708.615
220.838, 799.596
221.320, 914.840
221.802, 1011.521
222.285, 1079.619
222.767, 1148.955
223.249, 1237.271
223.731, 1366.561
224.213, 1435.994
224.695, 1413.785
225.177, 1351.268
225.659, 1352.582
226.141, 1453.893
226.624, 1559.670
227.106, 1630.250
227.588, 1644.807
228.070, 1684.215
228.552, 1747.934
229.034, 1836.260
229.516, 1951.684
229.998, 2111.641
230.480, 2269.941
230.963, 2402.516
231.445, 2482.592
231.927, 2600.533
232.409, 2769.604
232.891, 2971.225
233.373, 3161.750
233.855, 3334.217
234.337, 3503.727
234.820, 3674.326
235.302, 3833.658
235.784, 4028.367
236.266, 4275.516
236.748, 4555.844
237.230, 4808.059
237.712, 5005.189
238.194, 5219.525
238.676, 5485.008
239.159, 5828.092
239.641, 6161.605
240.123, 6484.555
240.605, 6801.543
241.087, 7119.055
241.569, 7440.617
242.051, 7760.352
242.533, 8077.613
243.016, 8415.965
243.498, 8704.258
243.980, 8934.723
244.462, 9115.809
244.944, 9273.605
245.426, 9409.102
245.908, 9509.432
246.390, 9569.842
246.872, 9588.615
247.355, 9572.025
247.837, 9516.434
248.319, 9424.027
248.801, 9304.812
249.283, 9157.506
249.765, 8983.336
250.247, 8778.494
250.729, 8529.760
251.212, 8286.008
251.694, 8059.666
252.176, 7842.041
252.658, 7602.115
253.140, 7335.746
253.622, 7056.682
254.104, 6764.844
254.586, 6448.199
255.068, 6160.871
255.551, 5918.377
256.033, 5708.094
256.515, 5487.627
256.997, 5249.641
257.479, 5013.863
257.961, 4787.217
258.443, 4562.953
258.925, 4359.828
259.408, 4175.551
259.890, 4013.951
260.372, 3880.564
260.854, 3778.191
261.336, 3686.957
261.818, 3593.975
262.300, 3493.973
262.782, 3414.717
263.264, 3360.766
263.746, 3327.920
264.229, 3305.988
264.711, 3297.623
265.193, 3280.162
265.675, 3239.787
266.157, 3171.039
266.639, 3107.010
267.121, 3050.625
267.603, 3003.418
268.086, 2964.486
268.568, 2933.006
269.050, 2901.287
269.532, 2872.201
270.014, 2853.828
270.496, 2802.799
270.978, 2709.779
271.460, 2589.037
271.943, 2469.260
272.425, 2344.959
272.907, 2242.676
273.389, 2186.553
273.871, 2187.309
274.353, 2162.477
274.835, 2097.113
275.317, 2014.594
275.799, 1972.930
276.282, 1982.035
276.764, 1990.840
277.246, 1969.211
277.728, 1914.684
278.210, 1863.297
278.692, 1819.908
279.174, 1776.426
279.656, 1716.211
280.138, 1637.621
280.621, 1550.682
281.103, 1453.760
281.585, 1346.621
282.067, 1258.248
282.549, 1192.584
283.031, 1140.496
283.513, 1088.885
283.995, 1038.070
284.478, 980.109
284.960, 909.562
285.442, 827.371
285.924, 739.355
286.406, 641.602
286.888, 549.020
287.370, 483.918
287.852, 446.199
288.335, 422.041
288.817, 418.512
289.299, 427.566
289.781, 400.355
290.263, 328.777
290.745, 247.098
291.227, 208.527
291.709, 207.443
292.191, 198.389
292.674, 147.039
293.156, 70.604
293.638, 28.699
294.120, 26.078
294.602, 34.533
295.084, 16.734
295.566, 20.293
296.048, 46.051
296.530, 30.816
297.013, 2.588
297.495, 1.783
297.977, 45.922
298.459, 95.029
298.941, 116.102
299.423, 114.410
299.905, 105.982
300.387, 89.059
300.870, 71.730
301.352, 73.996
301.834, 96.053
302.316, 106.648
302.798, 64.180
303.280, 6.672
303.762, 59.799
304.244, 59.168
304.727, 44.168
305.209, 62.406
305.691, 110.027
306.173, 154.984
306.655, 166.920
307.137, 161.359
307.619, 159.457
308.101, 170.861
308.583, 184.986
309.065, 195.709
309.548, 203.150
310.030, 204.641
310.512, 204.490
310.994, 196.486
311.476, 171.410
311.958, 108.191
312.440, 54.930
312.922, 52.264
313.405, 87.270
313.887, 112.564
314.369, 96.215
314.851, 66.037
315.333, 44.494
315.815, 44.562
316.297, 38.725
316.779, 2.889
317.262, 48.668
317.744, 81.398
318.226, 60.070
318.708, 31.486
319.190, 22.018
319.672, 41.123
320.154, 65.291
320.636, 104.703
321.118, 142.877
321.601, 149.830
322.083, 85.914
322.565, 15.881
323.047, 36.008
323.529, 68.447
324.011, 80.162
324.493, 42.693
324.975, 9.303
325.457, 28.410
325.940, 18.832
326.422, 72.086
326.904, 116.881
327.386, 152.959
327.868, 180.785
328.350, 191.934
328.832, 198.781
329.314, 214.365
329.797, 259.904
330.279, 287.506
330.761, 276.496
331.243, 224.373
331.725, 211.607
332.207, 268.637
332.689, 338.873
333.171, 371.938
333.654, 336.865
334.136, 325.223
334.618, 311.615
335.100, 362.977
335.582, 398.572
336.064, 419.234
336.546, 380.268
337.028, 418.295
337.510, 425.457
337.992, 431.357
338.475, 463.219
338.957, 503.693
339.439, 550.314
339.921, 607.504
340.403, 650.973
340.885, 655.215
341.367, 615.543
341.849, 608.701
342.332, 653.496
342.814, 710.625
343.296, 692.732
343.778, 595.629
344.260, 509.430
344.742, 486.828
345.224, 519.893
345.706, 549.744
346.189, 577.625
346.671, 599.012
347.153, 595.055
347.635, 572.744
348.117, 575.004
348.599, 633.377
349.081, 727.289
349.563, 803.818
350.045, 861.564
350.528, 914.779
351.010, 983.510
351.492, 1057.590
351.974, 1111.072
352.456, 1116.578
352.938, 1110.816
353.420, 1148.213
353.902, 1223.295
354.384, 1293.996
354.867, 1328.494
355.349, 1336.283
355.831, 1327.365
356.313, 1291.674
356.795, 1262.371
357.277, 1276.365
357.759, 1323.203
358.241, 1363.514
358.724, 1361.055
359.206, 1351.344
359.688, 1365.779
360.170, 1422.932
360.652, 1478.480
361.134, 1518.564
361.616, 1539.688
362.098, 1539.268
362.581, 1469.975
363.063, 1415.762
363.545, 1434.584
364.027, 1557.809
364.509, 1629.928
364.991, 1568.943
365.473, 1450.402
365.955, 1364.305
366.437, 1367.092
366.919, 1361.164
367.402, 1317.361
367.884, 1231.572
368.366, 1157.566
368.848, 1093.848
369.330, 1046.312
369.812, 1020.395
370.294, 1046.580
370.776, 1052.285
371.259, 1025.102
371.741, 970.252
372.223, 920.932
372.705, 878.754
373.187, 841.082
373.669, 804.336
374.151, 763.072
374.633, 726.467
375.116, 693.244
375.598, 664.889
376.080, 646.330
376.562, 637.715
377.044, 636.656
377.526, 652.453
378.008, 688.336
378.490, 660.729
378.973, 548.283
379.455, 420.430
379.937, 386.754
380.419, 447.365
380.901, 492.791
381.383, 467.330
381.865, 393.486
382.347, 359.010
382.829, 365.441
383.311, 376.162
383.794, 343.627
384.276, 287.592
384.758, 276.846
385.240, 347.592
385.722, 448.059
386.204, 503.299
386.686, 518.725
387.168, 535.551
387.651, 580.867
388.133, 642.748
388.615, 704.438
389.097, 761.184
389.579, 821.617
390.061, 895.859
390.543, 977.395
391.025, 1056.932
391.508, 1121.012
391.990, 1186.281
392.472, 1269.229
392.954, 1375.533
393.436, 1471.277
393.918, 1532.477
394.400, 1579.920
394.882, 1637.922
395.364, 1705.883
395.847, 1794.047
396.329, 1909.182
396.811, 2050.770
397.293, 2207.742
397.775, 2395.590
398.257, 2587.947
398.739, 2766.498
399.221, 2927.525
399.703, 3077.711
400.186, 3191.691
400.668, 3292.664
401.150, 3455.098
401.632, 3729.318
402.114, 4000.492
402.596, 4220.793
403.078, 4379.730
403.560, 4535.062
404.043, 4702.504
404.525, 4851.092
405.007, 4933.314
405.489, 4935.613
405.971, 4926.643
406.453, 4942.562
406.935, 4971.322
407.417, 4896.621
407.900, 4707.523
408.382, 4464.715
408.864, 4218.432
409.346, 3966.387
409.828, 3691.125
410.310, 3376.254
410.792, 3049.799
411.274, 2754.418
411.756, 2491.803
412.238, 2254.088
412.721, 2037.699
413.203, 1844.096
413.685, 1672.928
414.167, 1526.611
414.649, 1397.078
415.131, 1274.574
415.613, 1161.453
416.095, 1064.586
416.578, 999.178
417.060, 941.465
417.542, 870.902
418.024, 786.936
418.506, 700.053
418.988, 599.879
419.470, 506.033
419.952, 438.938
420.435, 435.959
420.917, 423.256
421.399, 353.270
421.881, 248.859
422.363, 190.426
422.845, 262.943
423.327, 333.916
423.809, 336.633
424.291, 215.588
424.774, 137.709
425.256, 149.348
425.738, 194.662
426.220, 194.117
426.702, 104.385
427.184, 34.920
427.666, 20.281
428.148, 61.543
428.630, 65.961
429.113, 17.379
429.595, 42.414
430.077, 83.842
430.559, 109.111
431.041, 101.016
431.523, 44.195
432.005, 35.795
432.487, 66.357
432.970, 43.568
433.452, 19.320
433.934, 36.361
434.416, 80.660
434.898, 76.922
435.380, 13.322
435.862, 51.812
436.344, 26.859
436.827, 58.166
437.309, 105.658
437.791, 30.709
438.273, 70.764
438.755, 60.451
439.237, 49.234
439.719, 145.104
440.201, 129.576
440.683, 69.225
441.165, 35.555
441.648, 50.729
442.130, 83.301
442.612, 132.768
443.094, 187.334
443.576, 221.469
444.058, 204.617
444.540, 183.156
445.022, 174.014
445.505, 179.732
445.987, 199.318
446.469, 254.098
446.951, 311.906
447.433, 339.822
447.915, 299.133
448.397, 280.436
448.879, 306.996
449.362, 370.740
449.844, 409.326
450.326, 411.570
450.808, 405.979
451.290, 406.189
451.772, 416.977
452.254, 422.627
452.736, 420.682
453.218, 417.455
453.701, 421.285
454.183, 430.623
454.665, 449.064
455.147, 484.010
455.629, 528.877
456.111, 556.484
456.593, 565.631
457.075, 580.912
457.557, 642.762
458.040, 726.180
458.522, 765.197
459.004, 729.979
459.486, 683.121
459.968, 692.078
460.450, 744.074
460.932, 802.279
461.414, 845.012
461.897, 889.236
462.379, 952.992
462.861, 1040.414
463.343, 1122.600
463.825, 1179.219
464.307, 1228.352
464.789, 1287.975
465.271, 1377.904
465.754, 1463.119
466.236, 1527.234
466.718, 1576.875
467.200, 1647.791
467.682, 1757.930
468.164, 1874.965
468.646, 1985.768
469.128, 2087.148
469.610, 2192.842
470.093, 2294.771
470.575, 2406.102
471.057, 2556.660
471.539, 2770.721
472.021, 2928.725
472.503, 2975.902
472.985, 2943.168
473.467, 3018.693
473.949, 3217.252
474.432, 3409.650
474.914, 3475.990
475.396, 3444.672
475.878, 3462.643
476.360, 3555.893
476.842, 3676.254
477.324, 3771.301
477.806, 3843.738
478.289, 3898.289
478.771, 3926.059
479.253, 3945.867
479.735, 3985.125
480.217, 4042.926
480.699, 4084.359
481.181, 4073.418
481.663, 4043.684
482.146, 4028.828
482.628, 4058.402
483.110, 4066.504
483.592, 4008.160
484.074, 3911.680
484.556, 3839.652
485.038, 3879.398
485.520, 3870.059
486.002, 3735.148
486.484, 3452.094
486.967, 3212.949
487.449, 3038.113
487.931, 2881.582
488.413, 2715.363
488.895, 2546.941
489.377, 2351.863
489.859, 2116.652
490.341, 1861.910
490.824, 1645.578
491.306, 1472.422
491.788, 1327.426
492.270, 1213.484
492.752, 1122.176
493.234, 1019.309
493.716, 905.988
494.198, 790.469
494.681, 730.914
495.163, 691.309
495.645, 648.375
496.127, 599.355
496.609, 532.707
497.091, 489.941
497.573, 437.770
498.055, 390.098
498.537, 270.203
499.020, 248.484
499.502, 208.301
499.984, 133.770
500.466, 65.379
500.948, 16.750
501.430, 17.020
501.912, 41.887
502.394, 40.234
502.876, 50.898
503.359, 95.188
503.841, 158.016
504.323, 180.918
504.805, 143.164
505.287, 94.188
505.769, 49.211
506.251, 5.660
506.733, 6.152
507.216, 28.090
507.698, 68.074
508.180, 56.957
508.662, 6.145
509.144, 48.234
509.626, 46.844
510.108, 22.633
510.590, 11.734
511.073, 15.070
511.555, 37.707
512.037, 105.305
512.519, 187.324
513.001, 232.848
513.483, 236.871
513.965, 228.949
514.447, 202.047
514.929, 185.879
515.412, 218.137
515.894, 368.441
516.376, 509.504
516.858, 579.652
517.340, 596.387
517.822, 619.840
518.304, 640.832
518.786, 689.062
519.268, 784.160
519.751, 939.355
520.233, 1083.387
520.715, 1211.348
521.197, 1332.070
521.679, 1455.121
522.161, 1580.766
522.643, 1711.176
523.125, 1854.312
523.607, 1998.594
524.090, 2100.578
524.572, 2155.426
525.054, 2227.293
525.536, 2350.406
526.018, 2519.250
526.500, 2712.383
526.982, 2930.652
527.464, 3167.660
527.947, 3429.574
528.429, 3700.336
528.911, 3952.633
529.393, 4158.484
529.875, 4372.496
530.357, 4662.598
530.839, 4992.266
531.321, 5265.324
531.804, 5507.160
532.286, 5633.371
532.768, 5580.078
533.250, 5332.949
533.732, 5038.465
534.214, 4728.184
534.696, 4369.508
535.178, 3930.918
535.661, 3343.289
536.143, 2805.633
536.625, 2321.594
537.107, 1897.414
537.589, 1546.301
538.071, 1279.977
538.553, 1046.938
539.035, 821.098
539.517, 612.160
540.000, 474.711
540.482, 411.262
540.964, 376.812
541.446, 350.141
541.928, 323.012
542.410, 270.281
542.892, 180.441
543.374, 91.406
543.856, 28.691
544.339, 7.344
544.821, 17.328
545.303, 23.133
545.785, 66.410
546.267, 89.715
546.749, 93.512
547.231, 88.430
547.713, 80.504
548.195, 62.199
548.678, 24.770
549.160, 53.496
549.642, 93.992
550.124, 76.582
550.606, 36.578
551.088, 11.078
551.570, 1.266
552.052, 3.637
552.534, 22.605
553.017, 50.062
553.499, 60.223
553.981, 52.422
554.463, 42.379
554.945, 38.047
555.427, 38.332
555.909, 40.973
556.391, 45.980
556.874, 51.246
557.356, 56.340
557.838, 59.938
558.320, 61.129
558.802, 62.398
559.284, 58.117
559.766, 42.527
560.248, 16.723
560.731, 13.059
561.213, 42.902
561.695, 73.383
562.177, 112.059
562.659, 163.609
563.141, 202.145
563.623, 216.680
564.105, 229.246
564.588, 248.363
565.070, 268.715
565.552, 301.023
566.034, 349.742
566.516, 411.449
566.998, 480.594
567.480, 554.551
567.962, 612.793
568.444, 644.344
568.927, 663.574
569.409, 697.699
569.891, 745.160
570.373, 790.082
570.855, 805.461
571.337, 824.207
571.819, 894.250
572.301, 1022.625
572.783, 1140.398
573.266, 1207.820
573.748, 1247.727
574.230, 1278.895
574.712, 1277.215
575.194, 1304.121
575.676, 1384.516
576.158, 1497.730
576.640, 1599.230
577.122, 1676.055
577.605, 1763.848
578.087, 1876.109
578.569, 2009.625
579.051, 2129.777
579.533, 2231.316
580.015, 2335.590
580.497, 2457.527
580.979, 2596.668
581.461, 2738.246
581.944, 2879.879
582.426, 3031.977
582.908, 3240.184
583.390, 3465.750
583.872, 3627.281
584.354, 3650.711
584.836, 3659.805
585.318, 3746.293
585.801, 3889.426
586.283, 4037.016
586.765, 4189.812
587.247, 4321.496
587.729, 4420.738
588.211, 4485.023
588.693, 4527.391
589.175, 4528.840
589.657, 4527.973
590.140, 4560.250
590.622, 4666.215
591.104, 4674.395
591.586, 4552.930
592.068, 4373.203
592.550, 4239.352
593.032, 4150.969
593.515, 4075.820
593.997, 4008.469
594.479, 3943.965
594.961, 3880.957
595.443, 3816.105
595.925, 3732.133
596.407, 3590.781
596.889, 3442.473
597.371, 3344.387
597.854, 3303.008
598.336, 3251.359
598.818, 3133.340
599.300, 3006.883
599.782, 2917.000
600.264, 2877.504
600.746, 2866.535
601.228, 2896.336
601.710, 2946.816
602.193, 2985.094
602.675, 3002.957
603.157, 3030.859
603.639, 3075.590
604.121, 3133.219
604.603, 3185.320
605.085, 3230.176
605.567, 3285.434
606.049, 3359.043
606.532, 3451.387
607.014, 3538.574
607.496, 3619.535
607.978, 3767.391
608.460, 4142.273
608.942, 4575.906
609.424, 4855.535
609.906, 4872.195
610.388, 4844.258
610.871, 4846.230
611.353, 4869.859
611.835, 4901.613
612.317, 4927.945
612.799, 4975.609
613.281, 5053.488
613.763, 5157.738
614.245, 5264.211
614.728, 5372.094
615.210, 5483.164
615.692, 5608.484
616.174, 5745.609
616.656, 5828.301
617.138, 5851.848
617.620, 5855.992
618.102, 5866.746
618.584, 5886.918
619.067, 5930.754
619.549, 6010.297
620.031, 6080.602
620.513, 6090.582
620.995, 6066.465
621.477, 6050.238
621.959, 6042.500
622.442, 6069.711
622.924, 6150.309
623.406, 6262.234
623.888, 6349.023
624.370, 6395.207
624.852, 6442.262
625.334, 6501.789
625.816, 6571.637
626.298, 6650.559
626.781, 6742.062
627.263, 6837.066
627.745, 6929.148
628.227, 7018.703
628.709, 7110.434
629.191, 7206.793
629.673, 7297.426
630.155, 7366.961
630.638, 7422.328
631.120, 7478.367
631.602, 7547.926
632.084, 7600.934
632.566, 7618.137
633.048, 7606.703
633.530, 7582.980
634.012, 7556.188
634.494, 7515.090
634.977, 7457.391
635.459, 7383.309
635.941, 7286.855
636.423, 7161.727
636.905, 7022.402
637.387, 6876.965
637.869, 6726.277
638.351, 6560.648
638.833, 6378.211
639.316, 6190.660
639.798, 5990.707
640.280, 5793.480
640.762, 5659.797
641.244, 5620.152
641.726, 5598.500
642.208, 5513.359
642.690, 5391.148
643.172, 5280.234
643.655, 5195.566
644.137, 5135.719
644.619, 5104.957
645.101, 5096.730
645.583, 5089.570
646.065, 5059.699
646.547, 5058.082
647.029, 5109.402
647.511, 5215.574
647.994, 5274.512
648.476, 5267.609
648.958, 5255.004
649.440, 5286.633
649.922, 5358.559
650.404, 5424.602
650.886, 5481.578
651.369, 5520.633
651.851, 5554.730
652.333, 5552.426
652.815, 5458.102
653.297, 5226.820
653.779, 4954.148
654.261, 4663.266
654.743, 4371.039
655.225, 4116.016
655.708, 3950.859
656.190, 3781.305
656.672, 3570.398
657.154, 3331.559
657.636, 3121.852
658.118, 2952.422
658.600, 2790.027
659.082, 2617.059
659.565, 2433.727
660.047, 2276.852
660.529, 2147.344
661.011, 2027.812
661.493, 1904.035
661.975, 1777.738
662.457, 1650.270
662.939, 1520.078
663.421, 1401.871
663.904, 1308.629
664.386, 1234.516
664.868, 1173.648
665.350, 1135.926
