##NAMES=Wulfenite
##RRUFFID=R050024
##IDEAL CHEMISTRY=PbMoO_4_
##LOCALITY=Old Yuma mine, Tucson, Arizona, USA
##OWNER=RRUFF
##SOURCE=Eugene Schlepp
##DESCRIPTION=Orange flat tabular crystals
##STATUS=The identification of this mineral has been confirmed by X-ray diffraction.
##URL=rruff.info/R050024
54.266, 0.000
55.666, 12.958
57.065, 0.486
58.464, 1.080
59.863, 1.235
61.262, 2.533
62.661, 13.958
64.059, 42.254
65.458, 90.032
66.856, 143.049
68.253, 221.119
69.651, 348.094
71.048, 490.857
72.445, 665.313
73.842, 670.385
75.239, 507.008
76.635, 311.128
78.031, 153.695
79.427, 93.666
80.823, 93.004
82.218, 102.677
83.614, 84.660
85.009, 115.927
86.404, 110.459
87.798, 135.238
89.193, 123.248
90.587, 133.475
91.981, 138.905
93.375, 156.528
94.768, 165.333
96.161, 179.310
97.554, 192.444
98.947, 185.722
100.340, 196.133
101.732, 197.667
103.124, 196.319
104.516, 187.081
105.908, 187.950
107.300, 192.921
108.691, 206.991
110.082, 167.156
111.473, 175.412
112.864, 183.759
114.254, 198.192
115.644, 189.710
117.034, 213.311
118.424, 202.991
119.813, 215.748
121.203, 191.581
122.592, 224.486
123.981, 220.463
125.369, 220.508
126.758, 238.621
128.146, 235.798
129.534, 239.039
130.922, 256.342
132.309, 248.706
133.696, 270.127
135.083, 278.607
136.470, 284.142
137.857, 297.715
139.243, 313.276
140.630, 346.834
142.016, 356.397
143.401, 401.972
144.787, 413.564
146.172, 472.177
147.557, 549.814
148.942, 616.476
150.327, 699.166
151.711, 799.891
153.096, 944.650
154.480, 1115.442
155.863, 1323.264
157.247, 1580.121
158.630, 1944.011
160.013, 2271.940
161.396, 2706.902
162.779, 3023.901
164.161, 3426.942
165.544, 3788.013
166.926, 3955.117
168.308, 4115.263
169.689, 3978.449
171.070, 3755.671
172.452, 3277.926
173.833, 2883.216
175.213, 2409.538
176.594, 1960.891
177.974, 1584.286
179.354, 1253.708
180.734, 1051.156
182.114, 847.630
183.493, 710.129
184.872, 609.655
186.251, 543.208
187.630, 495.792
189.008, 435.407
190.387, 387.048
191.765, 366.714
193.143, 326.402
194.520, 315.118
195.898, 302.856
197.275, 244.617
198.652, 203.400
200.029, 199.205
201.405, 193.030
202.782, 161.877
204.158, 168.748
205.534, 154.645
206.909, 139.568
208.285, 149.511
209.660, 125.474
211.035, 124.457
212.410, 125.464
213.784, 102.492
215.159, 120.544
216.533, 88.613
217.907, 105.701
219.281, 67.805
220.654, 84.061
222.027, 76.407
223.400, 78.820
224.773, 94.407
226.146, 81.133
227.518, 77.938
228.891, 68.854
230.263, 88.848
231.634, 73.914
233.006, 68.045
234.377, 83.396
235.748, 84.679
237.119, 86.984
238.490, 78.339
239.860, 53.875
241.231, 73.380
242.601, 76.910
243.970, 68.521
245.340, 78.089
246.709, 104.852
248.079, 96.261
249.448, 99.933
250.816, 89.636
252.185, 95.692
253.553, 99.622
254.921, 94.415
256.289, 101.236
257.657, 109.464
259.024, 100.348
260.391, 142.448
261.758, 138.375
263.125, 135.049
264.492, 131.023
265.858, 139.067
267.224, 134.373
268.590, 134.877
269.956, 131.940
271.321, 148.905
272.687, 141.069
274.052, 161.194
275.416, 180.340
276.781, 172.815
278.146, 196.003
279.510, 191.219
280.874, 183.444
282.237, 217.290
283.601, 253.156
284.964, 245.656
286.327, 276.950
287.690, 291.257
289.053, 309.516
290.416, 370.853
291.778, 408.410
293.140, 445.061
294.502, 503.441
295.863, 571.855
297.225, 612.809
298.586, 712.139
299.947, 838.759
301.308, 934.210
302.668, 1108.716
304.029, 1276.191
305.389, 1574.681
306.749, 1953.182
308.108, 2446.700
309.468, 3112.230
310.827, 4044.787
312.186, 5126.347
313.545, 6406.214
314.903, 7659.798
316.262, 8799.394
317.620, 9406.000
318.978, 9298.824
320.336, 8475.448
321.693, 7114.086
323.051, 5696.777
324.408, 4386.700
325.765, 3471.367
327.121, 2574.043
328.478, 2047.729
329.834, 1577.422
331.190, 1302.470
332.546, 1073.195
333.902, 855.909
335.257, 723.630
336.612, 651.364
337.967, 568.236
339.322, 526.983
340.677, 489.736
342.031, 521.501
343.385, 497.277
344.739, 577.054
346.093, 681.836
347.446, 772.623
348.799, 873.415
350.153, 852.354
351.505, 704.769
352.858, 549.790
354.210, 406.599
355.563, 313.121
356.915, 241.052
358.267, 204.874
359.618, 162.699
360.969, 127.527
362.321, 104.713
363.672, 61.549
365.022, 53.496
366.373, 45.821
367.723, 36.679
369.073, 51.699
370.423, 34.125
371.773, 29.439
373.122, 36.291
374.471, 18.228
375.821, 38.083
377.169, 54.303
378.518, 41.162
379.866, 26.034
381.215, 34.930
382.563, 10.227
383.910, 6.034
385.258, 1.022
386.605, 18.907
387.952, 25.570
389.299, 17.849
390.646, 31.206
391.992, 3.255
393.339, 30.184
394.685, 24.153
396.031, 8.512
397.376, 2.414
398.722, 7.709
400.067, 7.718
401.412, 7.188
402.757, 3.625
404.101, 2.598
405.446, 4.639
406.790, 14.321
408.134, 7.571
409.478, 24.607
410.821, 3.514
412.165, 14.476
413.508, 12.194
414.851, 7.180
416.193, 2.033
417.536, 5.095
418.878, 13.111
420.220, 0.183
421.562, 7.594
422.904, 5.457
424.245, 20.902
425.586, 9.177
426.927, 1.815
428.268, 9.445
429.609, 13.828
430.949, 7.448
432.289, 22.881
433.629, 1.793
434.969, 3.751
436.309, 17.666
437.648, 8.362
438.987, 16.231
440.326, 23.599
441.665, 5.250
443.003, 14.218
444.342, 14.127
445.680, 5.090
447.018, 11.889
448.355, 13.785
449.693, 19.681
451.030, 15.311
452.367, 3.541
453.704, 5.303
455.041, 9.937
456.377, 1.949
457.713, 10.317
459.049, 17.374
460.385, 1.869
461.721, 12.768
463.056, 2.628
464.391, 11.832
465.726, 6.908
467.061, 10.800
468.395, 20.192
469.730, 41.226
471.064, 7.375
472.398, 32.250
473.731, 0.288
475.065, 24.939
476.398, 16.744
477.731, 17.348
479.064, 15.869
480.397, 24.894
481.729, 12.476
483.062, 8.695
484.394, 2.446
485.725, 17.450
487.057, 23.934
488.389, 13.696
489.720, 19.419
491.051, 2.205
492.382, 11.914
493.712, 14.616
495.043, 32.495
496.373, 20.410
497.703, 9.094
499.032, 18.941
500.362, 17.612
501.691, 18.811
503.020, 16.469
504.349, 29.184
505.678, 28.830
507.007, 35.469
508.335, 18.162
509.663, 11.788
510.991, 1.406
512.319, 10.011
513.646, 39.608
514.973, 0.198
516.300, 13.775
517.627, 25.344
518.954, 24.906
520.280, 23.461
521.607, 8.010
522.933, 20.548
524.259, 15.080
525.584, 5.603
526.910, 20.115
528.235, 13.619
529.560, 4.115
530.885, 6.599
532.209, 38.071
533.534, 17.536
534.858, 26.993
536.182, 9.444
537.506, 31.883
538.829, 22.316
540.152, 20.741
541.476, 8.159
542.799, 1.435
544.121, 19.956
545.444, 21.327
546.766, 1.703
548.088, 10.064
549.410, 8.414
550.732, 17.753
552.053, 25.083
553.375, 22.406
554.696, 9.720
556.017, 16.867
557.337, 16.130
558.658, 21.415
559.978, 17.692
561.298, 4.826
562.618, 21.024
563.938, 30.231
565.257, 28.389
566.576, 17.620
567.895, 40.684
569.214, 16.129
570.533, 28.334
571.851, 9.532
573.170, 21.399
574.488, 12.413
575.805, 18.582
577.123, 0.257
578.440, 9.511
579.758, 11.640
581.075, 18.567
582.391, 1.683
583.708, 16.064
585.024, 20.159
586.341, 6.197
587.657, 0.985
588.972, 7.583
590.288, 0.365
591.603, 12.792
592.918, 0.760
594.233, 5.224
595.548, 6.224
596.863, 0.546
598.177, 8.424
599.491, 5.625
600.805, 0.680
602.119, 8.651
603.432, 9.969
604.746, 9.341
606.059, 22.559
607.372, 2.548
608.685, 9.397
609.997, 3.270
611.309, 0.928
612.621, 0.496
613.933, 6.339
615.245, 7.847
616.557, 8.427
617.868, 5.669
619.179, 24.054
620.490, 11.726
621.801, 1.544
623.111, 15.780
624.421, 6.966
625.731, 21.293
627.041, 0.427
628.351, 33.860
629.660, 5.820
630.970, 7.500
632.279, 4.126
633.588, 9.533
634.896, 10.814
636.205, 10.827
637.513, 13.255
638.821, 12.116
640.129, 6.499
641.437, 8.067
642.744, 3.599
644.051, 12.005
645.358, 2.578
646.665, 25.155
647.972, 0.272
649.278, 12.947
650.584, 5.492
651.890, 3.950
653.196, 21.399
654.502, 15.137
655.807, 4.463
657.113, 20.062
658.418, 27.417
659.722, 13.086
661.027, 2.420
662.331, 1.074
663.636, 9.564
664.940, 2.950
666.244, 27.531
667.547, 5.867
668.851, 4.727
670.154, 12.983
671.457, 17.450
672.760, 16.206
674.062, 21.553
675.365, 26.011
676.667, 35.465
677.969, 15.917
679.271, 30.011
680.572, 34.455
681.874, 32.789
683.175, 20.745
684.476, 59.168
685.777, 40.429
687.077, 48.284
688.378, 40.251
689.678, 38.680
690.978, 40.024
692.278, 78.449
693.577, 59.510
694.877, 39.932
696.176, 50.340
697.475, 56.724
698.774, 69.706
700.072, 77.187
701.371, 77.538
702.669, 84.913
703.967, 82.560
705.265, 63.598
706.562, 69.564
707.860, 68.842
709.157, 65.247
710.454, 72.617
711.751, 92.625
713.047, 114.875
714.344, 106.103
715.640, 98.450
716.936, 67.715
718.232, 102.517
719.527, 100.857
720.823, 96.270
722.118, 122.683
723.413, 119.952
724.708, 141.367
726.002, 140.625
727.297, 149.045
728.591, 188.099
729.885, 166.469
731.179, 213.642
732.472, 202.968
733.766, 240.564
735.059, 266.661
736.352, 296.830
737.645, 367.172
738.937, 465.926
740.230, 529.241
741.522, 645.628
742.814, 736.658
744.106, 856.440
745.397, 829.563
746.689, 820.294
747.980, 823.605
749.271, 759.461
750.562, 815.948
751.853, 848.379
753.143, 896.188
754.433, 1032.422
755.723, 1202.972
757.013, 1439.842
758.303, 1732.153
759.592, 2212.516
760.881, 2870.942
762.170, 3783.453
763.459, 4976.332
764.748, 6460.751
766.036, 7976.017
767.325, 8894.195
768.613, 9057.375
769.901, 7940.781
771.188, 6650.468
772.476, 5217.945
773.763, 3999.863
775.050, 3151.658
776.337, 2434.234
777.624, 2076.466
778.910, 1732.835
780.196, 1536.393
781.482, 1396.452
782.768, 1269.871
784.054, 1201.175
785.339, 1141.755
786.625, 1118.748
787.910, 1100.982
789.195, 1056.640
790.479, 1097.498
791.764, 1068.179
793.048, 1016.874
794.332, 986.752
795.616, 926.992
796.900, 916.702
798.183, 887.159
799.467, 881.135
800.750, 858.834
802.033, 838.573
803.316, 859.249
804.598, 848.003
805.880, 907.762
807.163, 837.345
808.445, 882.894
809.726, 925.674
811.008, 936.292
812.289, 1000.086
813.570, 1011.353
814.851, 1060.162
816.132, 1083.916
817.413, 1120.740
818.693, 1122.572
819.973, 1124.357
821.253, 1140.210
822.533, 1134.073
823.813, 1139.949
825.092, 1219.836
826.371, 1281.730
827.650, 1288.635
828.929, 1348.551
830.208, 1417.475
831.486, 1495.406
832.764, 1593.346
834.042, 1627.295
835.320, 1715.252
836.598, 1844.219
837.875, 1845.199
839.152, 1968.188
840.429, 1988.208
841.706, 2089.217
842.983, 2233.237
844.259, 2271.264
845.536, 2397.300
846.812, 2522.344
848.088, 2686.496
849.363, 2901.557
850.639, 3072.628
851.914, 3402.706
853.189, 3766.862
854.464, 4193.964
855.739, 4807.084
857.013, 5517.206
858.288, 6604.339
859.562, 7595.483
860.836, 9312.637
862.110, 11528.801
863.383, 14765.109
864.656, 19492.316
865.930, 26414.510
867.203, 35470.703
868.475, 45490.047
869.748, 53230.367
871.020, 54960.914
872.292, 48776.160
873.564, 39218.402
874.836, 29062.877
876.108, 21059.143
877.379, 15143.438
878.650, 11120.719
879.922, 8410.006
881.192, 6420.305
882.463, 5034.611
883.733, 4124.930
885.004, 3373.255
886.274, 2796.590
887.544, 2430.938
888.813, 2063.295
890.083, 1867.661
891.352, 1587.037
892.621, 1441.424
893.890, 1283.909
895.159, 1196.766
896.427, 1082.334
897.695, 911.785
898.964, 869.300
900.232, 814.748
901.499, 755.205
902.767, 674.673
904.034, 668.163
905.301, 592.657
906.568, 559.163
907.835, 544.677
909.102, 545.204
910.368, 473.051
911.634, 460.686
912.900, 426.320
914.166, 382.889
915.432, 391.978
916.697, 390.647
917.962, 359.503
919.227, 319.685
920.492, 315.051
921.757, 309.751
923.021, 285.420
924.285, 268.074
925.550, 252.480
926.813, 265.030
928.077, 226.195
929.341, 239.921
930.604, 252.401
931.867, 209.149
933.130, 198.948
934.393, 235.811
935.655, 205.548
936.918, 215.301
938.180, 242.062
939.442, 226.492
940.703, 237.272
941.965, 215.059
943.226, 220.856
944.488, 233.660
945.749, 236.470
947.009, 212.291
948.270, 219.211
949.530, 211.047
950.791, 236.891
952.051, 189.745
953.311, 199.606
954.570, 201.473
955.830, 172.347
957.089, 156.227
958.348, 145.147
959.607, 149.040
960.866, 156.099
962.124, 119.010
963.383, 82.928
964.641, 71.853
965.899, 67.017
967.156, 52.066
968.414, 56.129
969.671, 50.085
970.928, 65.790
972.185, 24.757
973.442, 35.063
974.699, 42.622
975.955, 22.199
977.211, 3.199
978.468, 6.204
979.723, 40.928
980.979, 18.944
982.234, 30.965
983.490, 25.168
984.745, 22.199
986.000, 46.382
987.254, 8.822
988.509, 6.431
989.763, 27.486
991.017, 2.030
992.271, 4.034
993.525, 20.179
994.779, 16.251
996.032, 25.329
997.285, 38.442
998.538, 6.469
999.791, 11.623
1001.044, 4.722
1002.296, 6.823
1003.548, 4.605
1004.800, 7.503
1006.052, 0.384
1007.304, 18.217
1008.555, 11.338
1009.807, 2.467
1011.058, 8.600
1012.309, 35.738
1013.559, 7.122
1014.810, 1.979
1016.060, 1.168
1017.310, 5.322
1018.560, 6.522
1019.810, 5.364
1021.060, 12.204
1022.309, 1.955
1023.558, 17.117
1024.807, 8.718
1026.056, 1.447
1027.305, 1.385
1028.553, 16.786
1029.801, 0.960
1031.049, 6.135
1032.297, 5.314
1033.545, 23.494
1034.793, 17.677
1036.040, 36.903
1037.287, 9.091
1038.534, 22.280
1039.781, 4.472
1041.027, 9.665
1042.274, 10.860
1043.520, 2.943
1044.766, 11.745
1046.012, 4.550
1047.257, 0.354
1048.503, 2.158
1049.748, 26.039
1050.993, 5.237
1052.238, 8.436
1053.483, 0.636
1054.727, 6.837
1055.971, 8.038
1057.216, 12.241
1058.459, 7.444
1059.703, 6.352
1060.947, 1.149
1062.190, 19.947
1063.433, 10.246
1064.676, 26.561
1065.919, 0.381
1067.162, 4.202
1068.404, 10.025
1069.646, 12.854
1070.888, 0.310
1072.130, 1.485
1073.372, 2.647
1074.613, 28.192
1075.855, 30.046
1077.096, 6.918
1078.337, 2.205
1079.578, 27.673
1080.818, 15.567
1082.059, 1.529
1083.299, 0.622
1084.539, 13.713
1085.779, 8.803
1087.018, 12.892
1088.258, 24.020
1089.497, 27.051
1090.736, 11.153
1091.975, 19.223
1093.213, 36.291
1094.452, 14.358
1095.690, 28.510
1096.928, 3.590
1098.166, 22.667
1099.404, 17.726
1100.642, 34.783
1101.879, 31.838
1103.116, 28.961
1104.353, 27.013
1105.590, 30.066
1106.827, 7.114
1108.063, 30.159
1109.299, 4.203
1110.536, 17.241
1111.771, 37.278
1113.007, 27.454
1114.243, 3.564
1115.478, 6.592
1116.713, 6.631
1117.948, 21.787
1119.183, 20.149
1120.418, 26.875
1121.652, 2.928
1122.886, 1.076
1124.120, 1.089
1125.354, 22.385
1126.588, 21.427
1127.821, 1.482
1129.055, 27.552
1130.288, 18.548
1131.521, 9.557
1132.753, 53.551
1133.986, 11.511
1135.218, 5.591
1136.450, 2.619
1137.682, 22.585
1138.914, 5.551
1140.146, 29.462
1141.377, 15.368
1142.609, 29.319
1143.840, 21.568
1145.071, 18.507
1146.301, 36.178
1147.532, 63.963
1148.762, 22.861
1149.992, 44.736
1151.222, 6.718
1152.452, 58.817
1153.682, 54.742
1154.911, 6.875
1156.140, 26.915
1157.369, 58.776
1158.598, 46.838
1159.827, 46.891
1161.055, 62.779
1162.284, 31.508
1163.512, 63.882
1164.740, 63.394
1165.967, 62.240
1167.195, 71.948
1168.422, 50.667
1169.650, 47.129
1170.877, 56.089
1172.103, 50.870
1173.330, 80.428
1174.557, 63.199
1175.783, 71.309
1177.009, 57.139
1178.235, 59.950
1179.461, 62.743
1180.686, 70.487
1181.912, 71.412
1183.137, 29.277
1184.362, 78.064
1185.587, 71.849
1186.811, 90.566
1188.036, 76.277
1189.260, 88.235
1190.484, 94.935
1191.708, 63.651
1192.932, 65.963
1194.155, 96.736
1195.378, 72.389
1196.602, 74.014
1197.825, 63.836
1199.047, 70.511
1200.270, 94.165
1201.492, 85.805
1202.715, 83.475
1203.937, 101.251
1205.159, 111.934
1206.380, 98.559
1207.602, 90.344
1208.823, 79.870
1210.044, 68.401
1211.265, 72.003
1212.486, 110.154
1213.707, 63.766
1214.927, 46.090
1216.147, 55.143
1217.367, 44.966
1218.587, 38.457
1219.807, 41.983
1221.027, 79.594
1222.246, 85.467
1223.465, 47.125
1224.684, 53.177
1225.903, 67.671
1227.121, 79.562
1228.340, 48.067
1229.558, 38.500
1230.776, 53.879
1231.994, 50.388
1233.212, 57.892
1234.429, 52.391
1235.646, 50.245
1236.864, 28.734
1238.081, 51.404
1239.297, 39.896
1240.514, 42.393
1241.730, 20.861
1242.947, 33.325
1244.163, 33.729
1245.378, 43.260
1246.594, 38.709
1247.810, 38.155
1249.025, 23.595
1250.240, 40.030
1251.455, 37.584
1252.670, 50.009
1253.885, 49.493
1255.099, 38.908
1256.313, 42.155
1257.527, 42.548
1258.741, 16.936
1259.955, 23.314
1261.168, 68.888
1262.382, 36.224
1263.595, 17.484
1264.808, 28.839
1266.021, 32.501
1267.233, 24.842
1268.446, 36.845
1269.658, 36.722
1270.870, 30.550
1272.082, 21.750
1273.294, 16.043
1274.505, 20.613
1275.716, 26.888
1276.928, 23.158
1278.139, 25.246
1279.349, 7.495
1280.560, 13.609
1281.770, 17.502
1282.981, 25.180
1284.191, 24.409
1285.401, 30.357
1286.610, 52.754
1287.820, 23.890
1289.029, 3.097
1290.239, 25.297
1291.448, 4.540
1292.656, 38.645
1293.865, 31.826
1295.073, 60.998
1296.282, 15.165
1297.490, 3.858
1298.698, 20.014
1299.906, 4.164
1301.113, 7.823
1302.320, 9.039
1303.528, 6.100
1304.735, 6.223
1305.942, 20.339
1307.148, 24.476
1308.355, 2.417
1309.561, 4.318
1310.767, 25.774
1311.973, 25.859
1313.179, 28.940
1314.384, 44.016
1315.590, 8.088
1316.795, 46.155
1318.000, 41.215
1319.205, 39.271
1320.410, 0.322
1321.614, 18.367
1322.819, 21.402
1324.023, 24.432
1325.227, 60.456
1326.431, 6.475
1327.634, 10.487
1328.838, 20.454
1330.041, 19.457
1331.244, 36.455
1332.447, 44.449
1333.650, 2.438
1334.852, 37.419
1336.055, 12.394
1337.257, 16.365
1338.459, 2.334
1339.661, 41.298
1340.862, 26.258
1342.064, 7.215
1343.265, 30.167
1344.466, 41.115
1345.667, 42.063
1346.868, 27.003
1348.068, 7.939
1349.269, 20.870
1350.469, 41.798
1351.669, 3.278
1352.869, 49.642
1354.069, 32.560
1355.268, 38.479
1356.468, 16.396
1357.667, 11.316
1358.866, 32.233
1360.065, 20.150
1361.263, 42.067
1362.462, 66.986
1363.660, 31.891
1364.858, 16.807
1366.056, 13.722
1367.254, 66.644
1368.451, 60.574
1369.649, 45.506
1370.846, 5.439
1372.043, 26.386
1373.240, 47.334
1374.436, 40.284
1375.633, 40.644
1376.829, 39.602
1378.025, 36.566
1379.221, 27.536
1380.417, 55.439
1381.613, 2.400
1382.808, 28.084
1384.003, 26.225
1385.199, 65.254
1386.393, 62.365
1387.588, 23.486
1388.783, 13.528
1389.977, 47.630
1391.171, 40.729
1392.365, 53.824
1393.559, 54.674
1394.753, 7.738
1395.946, 49.613
1397.140, 10.607
1398.333, 62.680
1399.526, 28.854
1400.719, 43.685
1401.911, 73.624
1403.104, 58.430
1404.296, 5.817
1405.488, 10.109
1406.680, 25.116
1407.872, 30.658
1409.063, 12.665
1410.255, 76.651
1411.446, 46.517
1412.637, 2.055
1413.828, 57.435
1415.018, 44.814
1416.209, 38.412
1417.399, 29.541
1418.589, 41.502
1419.779, 34.349
1420.969, 27.041
1422.159, 49.965
1423.348, 63.367
1424.537, 12.101
1425.726, 26.944
1426.915, 45.387
1428.104, 1.897
1429.293, 3.009
1430.481, 56.498
1431.669, 43.095
1432.857, 65.593
1434.045, 31.166
1435.233, 53.001
1436.420, 44.813
1437.608, 50.355
1438.795, 44.419
1439.982, 58.249
1441.169, 64.963
1442.355, 37.609
1443.542, 30.338
1444.728, 25.150
1445.914, 17.707
1447.100, 42.508
1448.286, 20.031
1449.472, 13.776
1450.657, 27.553
1451.842, 30.320
1453.027, 58.043
1454.212, 41.392
1455.397, 25.082
1456.581, 44.733
1457.766, 55.281
1458.950, 49.973
1460.134, 35.385
1461.318, 37.832
1462.501, 38.504
1463.685, 42.197
1464.868, 50.891
1466.051, 53.358
1467.234, 86.891
1468.417, 76.567
1469.600, 56.915
1470.782, 32.622
1471.965, 65.351
1473.147, 33.087
1474.329, 54.823
1475.510, 59.431
1476.692, 51.733
1477.873, 73.924
1479.055, 45.647
1480.236, 60.375
1481.416, 36.102
1482.597, 96.848
1483.778, 61.594
1484.958, 83.341
1486.138, 54.049
1487.318, 15.702
1488.498, 71.450
1489.678, 54.204
1490.857, 30.969
1492.037, 51.744
1493.216, 54.539
1494.395, 21.347
1495.574, 59.210
1496.752, 42.097
1497.931, 54.016
1499.109, 26.951
1500.287, 70.905
1501.465, 37.920
1502.643, 60.979
1503.820, 42.071
1504.998, 30.201
1506.175, 40.340
1507.352, 49.574
1508.529, 22.871
1509.706, 41.240
1510.882, 27.688
1512.059, 52.225
1513.235, 23.866
1514.411, 35.624
1515.587, 44.525
1516.762, 2.404
1517.938, 76.871
1519.113, 55.214
1520.288, 68.999
1521.463, 47.737
1522.638, 0.408
1523.813, 0.000
##END=



