##NAMES=Wulfenite
##RRUFFID=R050149
##IDEAL CHEMISTRY=PbMoO_4_
##LOCALITY=Chapacase mine, Sierra Cerrillias District, Tocopilla, Chile
##OWNER=RRUFF
##SOURCE=Jim McGlasson
##DESCRIPTION=Orange thin tabular crystals
##STATUS=The identification of this mineral has been confirmed by X-ray diffraction.
##URL=rruff.info/R050149
120.8620, 0.0000000E+00
122.2590, 2.156067
123.6550, 10.72174
125.0510, 1.530212
126.4470, 10.26562
127.8430, 9.794922
129.2390, 12.91064
130.6340, 29.46808
132.0290, 26.33063
133.4240, 53.42981
134.8190, 24.82123
136.2130, 42.49652
137.6070, 68.34949
139.0010, 81.29333
140.3940, 87.27441
141.7880, 103.2600
143.1810, 104.2303
144.5740, 97.28198
145.9660, 99.52649
147.3590, 130.2249
148.7510, 143.3104
150.1430, 153.3657
151.5340, 154.3405
152.9260, 175.1466
154.3170, 215.7834
155.7080, 223.2708
157.0980, 265.6268
158.4890, 281.8666
159.8790, 356.0034
161.2690, 308.0486
162.6580, 353.0126
164.0480, 360.9043
165.4370, 369.7317
166.8260, 363.4774
168.2150, 359.6301
169.6030, 349.8103
170.9910, 307.4050
172.3790, 322.2294
173.7670, 294.9487
175.1540, 280.0599
176.5420, 291.2213
177.9290, 275.0685
179.3150, 301.1557
180.7020, 304.6427
182.0880, 340.2010
183.4740, 381.0808
184.8600, 405.9165
186.2450, 377.6843
187.6300, 423.4612
189.0150, 418.2454
190.4000, 402.0352
191.7850, 372.8300
193.1690, 334.6309
194.5530, 299.4366
195.9370, 284.2459
197.3200, 198.0609
198.7040, 190.8822
200.0870, 141.7113
201.4690, 115.5477
202.8520, 97.39178
204.2340, 92.24243
205.6160, 66.10437
206.9980, 44.97803
208.3800, 45.86346
209.7610, 39.76215
211.1420, 28.67401
212.5230, 0.5977780
213.9040, 0.5333860
215.2840, 5.479370
216.6640, 9.434448
218.0440, 16.39795
219.4240, 8.630371
220.8030, 11.65094
222.1820, 1.664490
223.5610, 11.67047
224.9400, 4.669556
226.3180, 14.66113
227.6960, 18.64618
229.0740, 9.627014
230.4520, 2.394409
231.8300, 4.584351
233.2070, 5.437500
234.5840, 3.457886
235.9600, 10.52240
237.3370, 1.496094
238.7130, 4.512756
240.0890, 12.52667
241.4650, 12.53821
242.8400, 2.546814
244.2160, 24.55444
245.5910, 28.56750
246.9660, 49.58240
248.3400, 25.59845
249.7140, 39.61060
251.0890, 44.61798
252.4620, 62.62006
253.8360, 59.61011
255.2090, 79.58643
256.5820, 61.55099
257.9550, 86.49286
259.3280, 77.42511
260.7000, 64.35510
262.0720, 96.27536
263.4440, 100.2494
264.8160, 130.2784
266.1870, 125.1932
267.5590, 138.1075
268.9290, 124.0270
270.3000, 139.9457
271.6710, 159.9339
273.0410, 173.9279
274.4110, 166.8907
275.7800, 190.9968
277.1500, 220.0732
278.5190, 205.0331
279.8880, 253.1078
281.2570, 241.1798
282.6260, 303.2482
283.9940, 307.3375
285.3620, 338.2925
286.7300, 406.4961
288.0970, 419.6825
289.4650, 451.0319
290.8320, 508.2325
292.1990, 542.4891
293.5650, 636.7559
294.9310, 733.0294
296.2980, 783.3503
297.6630, 885.7163
299.0290, 1019.033
300.3950, 1187.387
301.7600, 1330.691
303.1250, 1577.986
304.4890, 1837.304
305.8540, 2213.676
307.2180, 2647.931
308.5820, 3182.215
309.9460, 3964.490
311.3090, 4866.698
312.6720, 5976.965
314.0360, 7021.231
315.3980, 8248.479
316.7610, 8931.746
318.1230, 8993.990
319.4850, 8583.239
320.8470, 7494.481
322.2090, 6300.686
323.5700, 4979.957
324.9310, 4005.261
326.2920, 3211.529
327.6530, 2523.698
329.0130, 2108.960
330.3730, 1742.408
331.7330, 1474.582
333.0930, 1206.804
334.4520, 1046.969
335.8110, 917.1351
337.1700, 798.2558
338.5290, 760.2888
339.8880, 654.3167
341.2460, 649.2887
342.6040, 610.4333
343.9620, 601.3844
345.3190, 597.3229
346.6770, 604.3592
348.0340, 649.2703
349.3900, 646.4105
350.7470, 661.3149
352.1030, 655.2421
353.4590, 604.2285
354.8150, 625.1205
356.1710, 601.0112
357.5260, 561.9707
358.8820, 518.8708
360.2370, 461.7570
361.5910, 435.6117
362.9460, 350.5911
364.3000, 318.6173
365.6540, 292.4539
367.0080, 243.0712
368.3610, 218.9805
369.7140, 203.0934
371.0680, 182.3359
372.4200, 180.3976
373.7730, 167.2878
375.1250, 179.2281
376.4770, 140.8568
377.8290, 156.7902
379.1810, 128.5215
380.5320, 149.1934
381.8830, 126.1784
383.2340, 125.5427
384.5850, 100.5799
385.9350, 102.0475
387.2860, 113.4727
388.6360, 96.93802
389.9850, 87.22964
391.3350, 91.61029
392.6840, 78.97968
394.0330, 87.55969
395.3820, 73.93582
396.7310, 67.09781
398.0790, 59.65369
399.4270, 69.77188
400.7750, 49.21512
402.1220, 39.85577
403.4700, 48.12006
404.8170, 32.74838
406.1640, 44.90643
407.5110, 53.62573
408.8570, 52.04544
410.2030, 52.66968
411.5490, 53.54584
412.8950, 60.84021
414.2410, 58.98413
415.5860, 70.77063
416.9310, 54.49289
418.2760, 64.23306
419.6200, 37.87469
420.9650, 45.72229
422.3090, 44.32404
423.6530, 48.85193
424.9960, 46.44858
426.3400, 47.02521
427.6830, 22.46866
429.0260, 35.94669
430.3680, 33.47089
431.7110, 45.62912
433.0530, 51.45926
434.3950, 34.71341
435.7370, 38.83160
437.0780, 39.49988
438.4200, 35.59674
439.7610, 39.49640
441.1020, 39.01495
442.4420, 41.89777
443.7830, 33.64688
445.1230, 63.39041
446.4630, 49.00104
447.8020, 52.60019
449.1420, 61.19495
450.4810, 28.41467
451.8200, 45.24634
453.1590, 51.07312
454.4970, 50.83118
455.8360, 50.39554
457.1740, 40.20615
458.5110, 33.95203
459.8490, 43.32635
461.1860, 37.44833
462.5230, 47.44601
463.8600, 47.52051
465.1970, 42.95612
466.5330, 36.26746
467.8700, 56.51413
469.2060, 49.14191
470.5410, 49.60049
471.8770, 64.00809
473.2120, 48.58331
474.5470, 45.99652
475.8820, 49.25864
477.2160, 43.20123
478.5510, 44.44333
479.8850, 42.82999
481.2190, 43.49887
482.5520, 48.64297
483.8860, 37.91931
485.2190, 33.78036
486.5520, 35.63187
487.8850, 47.46454
489.2170, 34.50674
490.5490, 22.31195
491.8810, 41.15186
493.2130, 33.97403
494.5450, 38.99045
495.8760, 34.73877
497.2070, 36.67453
498.5380, 43.39557
499.8690, 39.10373
501.1990, 44.79886
502.5290, 26.48141
503.8590, 42.14984
505.1890, 42.80569
506.5180, 30.44913
507.8480, 45.07913
509.1770, 22.69678
510.5050, 43.30011
511.8340, 37.89117
513.1620, 30.46960
514.4900, 41.03497
515.8180, 39.58807
517.1460, 30.12888
518.4730, 35.65674
519.8010, 36.17215
521.1280, 40.67520
522.4540, 25.16614
523.7810, 21.64386
525.1070, 39.10791
526.4330, 3.559937
527.7590, 26.99310
529.0840, 15.41354
530.4100, 10.81946
531.7350, 16.20963
533.0600, 24.58566
534.3840, 19.94910
535.7090, 22.29932
537.0330, 9.638062
538.3570, 20.96259
539.6810, 29.27505
541.0040, 12.57620
542.3280, 7.863434
543.6510, 11.13873
544.9730, 18.40408
546.2960, 1.658630
547.6180, 9.899780
548.9410, 0.1292720
550.2630, 16.34558
551.5840, 3.555695
552.9060, 16.75339
554.2270, 9.939880
555.5480, 1.115448
556.8690, 16.27475
558.1890, 5.423096
559.5100, 19.56097
560.8300, 10.68637
562.1490, 1.239471
563.4690, 12.84967
564.7890, 2.137024
566.1080, 9.908203
567.4270, 4.032288
568.7450, 14.00922
570.0640, 4.039856
571.3820, 2.942871
572.7000, 0.9425660
574.0180, 5.042114
575.3360, 6.014282
576.6530, 4.974457
577.9700, 6.922485
579.2870, 1.792328
580.6040, 6.680786
581.9200, 8.552277
583.2360, 5.432678
584.5520, 5.291931
585.8680, 9.857330
587.1840, 6.843506
588.4990, 4.616486
589.8140, 6.631226
591.1290, 1.846405
592.4440, 9.051514
593.7580, 7.346283
595.0720, 0.6417850
596.3860, 7.946930
597.7000, 5.286133
599.0130, 15.62436
600.3270, 5.987549
601.6400, 4.353851
602.9520, 4.768250
604.2650, 19.08521
605.5770, 3.473083
606.8900, 19.85770
608.2010, 5.769592
609.5130, 8.777069
610.8250, 9.237793
612.1360, 8.688782
613.4470, 6.154755
614.7580, 10.63406
616.0680, 10.17059
617.3790, 20.76373
618.6890, 17.32269
619.9990, 15.93378
621.3080, 2.488953
622.6180, 24.09296
623.9270, 22.71637
625.2360, 5.412994
626.5450, 13.00833
627.8530, 10.64703
629.1610, 10.29434
630.4700, 13.89117
631.7770, 11.56451
633.0850, 26.25861
634.3920, 3.040344
635.7000, 9.693878
637.0070, 13.42618
638.3130, 19.18240
639.6200, 8.948578
640.9260, 12.69299
642.2320, 7.478516
643.5380, 0.6035770
644.8440, 3.751251
646.1490, 9.013519
647.4540, 8.114594
648.7590, 2.955841
650.0640, 2.768585
651.3680, 10.64856
652.6730, 11.51428
653.9770, 9.360107
655.2810, 13.77972
656.5840, 22.97455
657.8880, 6.135803
659.1910, 2.335175
660.4940, 12.35034
661.7960, 18.53796
663.0990, 16.72815
664.4010, 28.81033
665.7030, 14.01031
667.0050, 26.97443
668.3060, 15.16779
669.6080, 51.33203
670.9090, 54.43027
672.2100, 49.61646
673.5110, 29.79776
674.8110, 46.90341
676.1110, 46.06232
677.4110, 59.22864
678.7110, 28.42029
680.0110, 33.48096
681.3100, 43.48853
682.6090, 52.67957
683.9080, 61.08368
685.2070, 60.18970
686.5050, 62.08594
687.8030, 54.84650
689.1010, 52.78186
690.3990, 70.88257
691.6970, 60.91962
692.9940, 80.00415
694.2910, 70.77814
695.5880, 83.85730
696.8850, 98.03711
698.1810, 105.9487
699.4780, 119.7061
700.7740, 128.5992
702.0690, 110.6848
703.3650, 138.1811
704.6600, 122.0726
705.9560, 146.5065
707.2500, 152.5987
708.5450, 146.2643
709.8400, 189.3901
711.1340, 191.3617
712.4280, 198.9459
713.7220, 235.1026
715.0150, 237.9515
716.3090, 281.1750
717.6020, 288.2502
718.8950, 334.7789
720.1870, 346.9380
721.4800, 422.4480
722.7720, 455.5659
724.0640, 488.9950
725.3560, 579.2324
726.6470, 687.1836
727.9390, 763.7427
729.2300, 908.4481
730.5210, 1066.508
731.8120, 1243.628
733.1020, 1459.726
734.3920, 1756.921
735.6820, 2129.906
736.9720, 2613.134
738.2620, 3209.434
739.5510, 3792.663
740.8400, 4280.909
742.1290, 4710.287
743.4180, 4723.627
744.7070, 4570.920
745.9950, 4067.583
747.2830, 3499.572
748.5710, 3044.138
749.8580, 2529.837
751.1460, 2238.986
752.4330, 1889.710
753.7200, 1708.627
755.0070, 1582.928
756.2930, 1427.864
757.5800, 1449.930
758.8660, 1373.004
760.1510, 1379.214
761.4370, 1474.440
762.7230, 1515.667
764.0080, 1602.268
765.2930, 1686.255
766.5770, 1593.248
767.8620, 1670.307
769.1460, 1489.562
770.4300, 1404.571
771.7140, 1247.643
772.9980, 1171.085
774.2810, 1116.777
775.5650, 1043.597
776.8480, 980.3423
778.1310, 969.7333
779.4130, 937.2503
780.6950, 961.8294
781.9780, 963.0259
783.2600, 918.3926
784.5410, 967.8072
785.8230, 989.0543
787.1040, 1014.465
788.3850, 1080.023
789.6660, 1156.900
790.9460, 1192.474
792.2270, 1236.902
793.5070, 1344.045
794.7870, 1474.711
796.0670, 1577.243
797.3460, 1702.189
798.6260, 1816.142
799.9050, 2040.112
801.1840, 2209.870
802.4620, 2476.864
803.7410, 2763.821
805.0190, 3035.793
806.2970, 3439.572
807.5750, 3970.617
808.8520, 4308.475
810.1300, 5063.546
811.4070, 5591.630
812.6840, 6215.725
813.9600, 6817.834
815.2370, 6934.956
816.5130, 7368.089
817.7890, 7054.235
819.0650, 6814.394
820.3400, 6440.566
821.6160, 5931.751
822.8910, 5609.950
824.1660, 5116.159
825.4410, 4794.382
826.7150, 4578.620
827.9900, 4169.868
829.2640, 3994.130
830.5380, 3870.405
831.8110, 3741.693
833.0850, 3641.995
834.3580, 3544.310
835.6310, 3508.639
836.9040, 3554.981
838.1760, 3458.339
839.4490, 3613.711
840.7210, 3579.098
841.9930, 3672.500
843.2640, 3804.916
844.5360, 3951.346
845.8070, 4181.789
847.0780, 4314.246
848.3490, 4575.719
849.6200, 5019.441
850.8900, 5292.941
852.1600, 5947.455
853.4300, 6425.320
854.7000, 7209.863
855.9700, 8309.418
857.2390, 9250.995
858.5080, 11004.59
859.7770, 13254.51
861.0460, 15544.23
862.3140, 19904.56
863.5820, 24304.61
864.8510, 31024.55
866.1180, 39364.57
867.3860, 46674.79
868.6530, 53664.50
869.9210, 55064.22
871.1880, 50524.05
872.4540, 43253.79
873.7210, 34003.69
874.9870, 26573.47
876.2530, 20503.27
877.5190, 16003.32
878.7850, 12593.14
880.0500, 10053.12
881.3160, 8367.055
882.5810, 6832.131
883.8450, 5639.016
885.1100, 4978.947
886.3740, 4213.248
887.6390, 3696.187
888.9030, 3265.129
890.1660, 2891.672
891.4300, 2541.673
892.6930, 2294.738
893.9560, 2118.490
895.2190, 1961.502
896.4820, 1787.107
897.7440, 1664.412
899.0070, 1482.768
900.2690, 1383.532
901.5310, 1309.006
902.7920, 1191.571
904.0540, 1145.249
905.3150, 1069.381
906.5760, 1044.494
907.8360, 1000.366
909.0970, 895.5397
910.3570, 836.7739
911.6180, 802.6337
912.8770, 819.1821
914.1370, 737.4141
915.3970, 697.0679
916.6560, 674.7546
917.9150, 629.9922
919.1740, 588.2799
920.4320, 572.0139
921.6910, 540.1367
922.9490, 483.6057
924.2070, 482.7422
925.4650, 448.0999
926.7220, 422.9249
927.9800, 425.6082
929.2370, 387.2758
930.4940, 386.7367
931.7510, 308.3291
933.0070, 313.9509
934.2630, 328.1815
935.5190, 312.6447
936.7750, 331.6058
938.0310, 310.8417
939.2860, 300.4058
940.5420, 304.9189
941.7970, 257.4415
943.0510, 289.9748
944.3060, 278.5194
945.5600, 266.0809
946.8150, 248.6479
948.0690, 240.3425
949.3220, 241.9288
950.5760, 242.5238
951.8290, 194.1273
953.0820, 186.7404
954.3350, 184.3643
955.5880, 161.9946
956.8400, 168.9183
958.0930, 131.7075
959.3450, 146.4687
960.5970, 115.1341
961.8480, 98.80756
963.1000, 121.4886
964.3510, 122.1772
965.6020, 92.87360
966.8530, 85.57745
968.1030, 73.28876
969.3540, 74.01050
970.6040, 97.73676
971.8540, 75.47021
973.1040, 87.21112
974.3530, 87.95953
975.6020, 56.71539
976.8520, 68.47882
978.1000, 54.24915
979.3490, 46.03040
980.5980, 63.81824
981.8460, 52.61267
983.0940, 63.53357
984.3420, 61.39227
985.5890, 43.20752
986.8370, 43.02887
988.0840, 41.85718
989.3310, 24.77264
990.5780, 17.68799
991.8240, 23.53815
993.0710, 24.39722
994.3170, 21.26221
995.5630, 22.13287
996.8090, 15.01123
998.0540, 22.89990
999.3000, 11.20618
1000.545, 13.69049
1001.790, 6.592346
1003.034, 13.50092
1004.279, 6.407227
1005.523, 12.32037
1006.767, 13.23773
1008.011, 0.1600340
1009.255, 11.91339
1010.498, 4.985840
1011.741, 20.05499
1012.984, 13.12689
1014.227, 10.19910
1015.470, 11.27039
1016.712, 15.34137
1017.954, 8.586121
1019.196, 2.517456
1020.438, 3.547852
1021.680, 5.390442
1022.921, 4.667725
1024.162, 6.275696
1025.403, 2.224121
1026.644, 6.824402
1027.884, 9.127014
1029.125, 3.919128
1030.365, 1.964478
1031.605, 5.008606
1032.844, 5.947449
1034.084, 9.4299003E-02
1035.323, 8.134888
1036.562, 0.8223880
1037.801, 9.780701
1039.040, 11.25909
1040.278, 0.6975100
1041.516, 0.3453370
1042.754, 13.38806
1043.992, 14.56390
1045.230, 9.482361
1046.467, 21.53333
1047.704, 3.595093
1048.941, 10.65875
1050.178, 4.728577
1051.415, 5.799805
1052.651, 24.87537
1053.887, 5.035706
1055.123, 14.05267
1056.359, 9.148987
1057.595, 8.747803
1058.830, 14.35516
1060.065, 24.43951
1061.300, 18.56482
1062.535, 16.29816
1063.769, 1.839355
1065.003, 1.981323
1066.237, 11.10309
1067.471, 10.74030
1068.705, 18.41650
1069.939, 7.584717
1071.172, 5.326843
1072.405, 6.784363
1073.638, 17.08026
1074.870, 17.11230
1076.103, 14.31885
1077.335, 29.53876
1078.567, 9.766785
1079.799, 6.981079
1081.030, 6.736206
1082.262, 4.450806
1083.493, 18.28046
1084.724, 1.018616
1085.955, 3.232544
1087.185, 12.49536
1088.416, 18.22095
1089.646, 21.08380
1090.876, 26.81024
1092.106, 22.59570
1093.335, 18.29401
1094.564, 22.03583
1095.794, 12.74640
1097.023, 24.43353
1098.251, 22.18579
1099.480, 45.90552
1100.708, 24.66333
1101.936, 21.35327
1103.164, 30.12421
1104.392, 9.809204
1105.619, 14.56525
1106.847, 16.27032
1108.074, 33.03064
1109.301, 41.74554
1110.527, 32.40759
1111.754, 34.10022
1112.980, 29.80109
1114.206, 48.49982
1115.432, 54.17511
1116.658, 25.91388
1117.883, 53.62305
1119.108, 40.28455
1120.333, 77.04535
1121.558, 72.83472
1122.783, 54.60596
1124.007, 30.40887
1125.231, 40.11353
1126.455, 55.77264
1127.679, 40.39758
1128.903, 46.07831
1130.126, 22.92395
1131.349, 26.64807
1132.572, 47.38422
1133.795, 48.00366
1135.018, 52.81287
1136.240, 26.51953
1137.462, 27.24011
1138.684, 38.64355
1139.906, 66.99896
1141.128, 46.66211
1142.349, 41.31195
1143.570, 40.41748
1144.791, 66.17377
1146.012, 49.75793
1147.232, 67.14221
1148.453, 80.75024
1149.673, 54.30951
1150.893, 68.52985
1152.112, 85.14795
1153.332, 67.61218
1154.551, 77.22900
1155.770, 70.79950
1156.989, 87.00854
1158.208, 63.50024
1159.427, 92.29437
1160.645, 74.35962
1161.863, 92.56580
1163.081, 71.73376
1164.299, 89.70856
1165.516, 77.24664
1166.733, 103.7107
1167.950, 97.41235
1169.167, 91.92499
1170.384, 101.2797
1171.600, 94.16077
1172.817, 95.63562
1174.033, 83.79419
1175.249, 73.12634
1176.464, 107.3965
1177.680, 98.71173
1178.895, 82.94757
1180.110, 69.32642
1181.325, 87.59344
1182.540, 77.54028
1183.754, 96.81970
1184.968, 57.17297
1186.182, 80.04926
1187.396, 65.27618
1188.610, 62.51453
1189.823, 85.16705
1191.037, 80.59882
1192.250, 75.26501
1193.463, 74.20612
1194.675, 59.25476
1195.888, 59.75635
1197.100, 48.58374
1198.312, 64.77368
1199.524, 65.48065
1200.735, 59.81616
1201.947, 68.27185
1203.158, 65.68958
1204.369, 55.95740
1205.580, 41.55127
1206.790, 73.16626
1208.001, 60.13000
1209.211, 58.31805
1210.421, 56.07532
1211.631, 39.77643
1212.841, 61.95715
1214.050, 55.27307
1215.259, 43.92731
1216.468, 28.21490
1217.677, 30.15631
1218.886, 31.44470
1220.094, 48.55090
1221.302, 49.27484
1222.510, 42.05634
1223.718, 36.97717
1224.926, 45.02954
1226.133, 37.08142
1227.340, 24.94659
1228.547, 41.13190
1229.754, 37.14716
1230.961, 32.70587
1232.167, 34.95203
1233.373, 34.87781
1234.579, 16.84094
1235.785, 33.78326
1236.991, 22.81665
1238.196, 44.79938
1239.401, 28.67578
1240.606, 35.60242
1241.811, 41.42914
1243.016, 25.31421
1244.220, 31.17371
1245.425, 24.04974
1246.629, 36.98682
1247.832, 21.87256
1249.036, 36.73657
1250.239, 22.40247
1251.443, 29.06708
1252.646, 20.73840
1253.848, 25.51453
1255.051, 36.27802
1256.253, 28.01721
1257.456, 25.82269
1258.658, 25.64417
1259.860, 29.38312
1261.061, 20.21460
1262.263, 22.90680
1263.464, 29.59039
1264.665, 17.29993
1265.866, 14.97571
1267.066, 15.75909
1268.267, 13.59131
1269.467, 20.22559
1270.667, 7.115906
1271.867, 30.49536
1273.066, 21.09955
1274.266, 9.691223
1275.465, 16.15466
1276.664, 14.75812
1277.863, 25.31824
1279.062, 9.901306
1280.260, 15.44110
1281.458, 13.92175
1282.656, 4.634155
1283.854, 4.026917
1285.052, 16.49811
1286.249, 16.97345
1287.446, 0.5608520
1288.644, 11.10736
1289.840, 21.33020
1291.037, 16.78436
1292.234, 17.19952
1293.430, 21.63342
1294.626, 21.04669
1295.822, 14.43311
1297.017, 35.80847
1298.213, 13.20343
1299.408, 15.58154
1300.603, 19.92657
1301.798, 13.26227
1302.993, 22.58752
1304.187, 25.90491
1305.382, 20.21509
1306.576, 17.51758
1307.770, 16.86450
1308.963, 13.14868
1310.157, 19.42322
1311.350, 0.7123410
1312.543, 12.99207
1313.736, 14.26007
1314.929, 1.457642
1316.121, 13.76196
1317.314, 21.01935
1318.506, 33.21930
1319.698, 17.40955
1320.889, 18.58881
1322.081, 12.75916
1323.272, 18.25922
1324.463, 31.41132
1325.654, 21.55383
1326.845, 28.68915
1328.036, 16.81464
1329.226, 6.930908
1330.416, 30.04626
1331.606, 17.14734
1332.796, 8.238770
1333.985, 6.323608
1335.175, 24.39752
1336.364, 31.46411
1337.553, 9.526367
1338.742, 29.58124
1339.930, 22.61823
1341.119, 2.354248
1342.307, 12.66650
1343.495, 6.696106
1344.683, 1.703735
1345.870, 32.70520
1347.058, 9.719177
1348.245, 3.294800
1349.432, 7.659790
1350.619, 5.864990
1351.805, 13.84003
1352.992, 15.83252
1354.178, 18.72021
1355.364, 15.47968
1356.550, 1.970581
1357.736, 22.37061
1358.921, 18.73254
1360.106, 20.22180
1361.291, 18.71429
1362.476, 15.21802
1363.661, 7.651489
1364.845, 17.11835
1366.030, 5.589355
1367.214, 12.88940
1368.398, 3.279602
1369.581, 17.67938
1370.765, 35.06665
1371.948, 21.38434
1373.131, 15.69232
1374.314, 22.99213
1375.497, 22.22949
1376.679, 27.53802
1377.862, 30.79553
1379.044, 13.04340
1380.226, 18.16754
1381.408, 46.28577
1382.589, 27.19470
1383.771, 21.12695
1384.952, 31.03345
1386.133, 34.84216
1387.313, 28.68634
1388.494, 14.52344
1389.674, 21.31274
1390.855, 21.27155
1392.035, 7.089417
1393.214, 26.73981
1394.394, 31.57520
1395.573, 29.41016
1396.753, 30.18005
1397.932, 38.02722
1399.111, 15.78381
1400.289, 11.52118
1401.468, 27.38666
1402.646, 8.109009
1403.824, 39.77759
1405.002, 38.91986
1406.180, 22.87848
1407.357, 28.53552
1408.534, 6.334229
1409.712, 0.9258420
1410.888, 34.69751
1412.065, 23.48981
1413.242, 34.88660
1414.418, 30.60999
1415.594, 37.80646
1416.770, 47.60010
1417.946, 11.15326
1419.121, 40.03625
1420.297, 21.30176
1421.472, 28.58246
1422.647, 19.10016
1423.822, 26.16321
1424.996, 5.554626
1426.171, 18.01184
1427.345, 38.11359
1428.519, 54.57794
1429.693, 30.92664
1430.866, 37.03931
1432.040, 18.96375
1433.213, 31.83698
1434.386, 18.24005
1435.559, 20.40338
1436.732, 26.66022
1437.904, 24.75659
1439.076, 17.01215
1440.249, 18.13928
1441.420, 23.46991
1442.592, 23.50641
1443.764, 35.57745
1444.935, 31.50610
1446.106, 34.86841
1447.277, 37.25201
1448.448, 9.146057
1449.618, 22.06079
1450.789, 23.41614
1451.959, 15.61615
1453.129, 13.91168
1454.299, 14.08844
1455.468, 8.349670
1456.638, 25.60229
1457.807, 8.545105
1458.976, 31.64746
1460.145, 26.73480
1461.313, 23.38629
1462.482, 40.60535
1463.650, 5.184326
1464.818, 23.91669
1465.986, 23.91992
1467.154, 22.13495
1468.321, 35.08258
1469.489, 19.28510
1470.656, 17.50287
1471.823, 39.71436
1472.989, 20.61102
1474.156, 27.66382
1475.322, 28.52228
1476.488, 31.37781
1477.654, 33.22211
1478.820, 22.44440
1479.986, 40.68951
1481.151, 40.70410
1482.316, 65.69739
1483.481, 14.58594
1484.646, 35.48584
1485.811, 28.35645
1486.975, 13.21375
1488.140, 61.20111
1489.304, 28.41187
1490.467, 0.6079710
1491.631, 60.14355
1492.795, 14.46399
1493.958, 20.95966
1495.121, 0.0000000E+00
##END=



