##NAMES=Wurtzite
##RRUFFID=R060181
##IDEAL CHEMISTRY=ZnS
##LOCALITY=Silver Islet mine, Thunder Bay, Ontario, Canada
##OWNER=RRUFF
##SOURCE=Lloyd Twaites
##DESCRIPTION=Dark-brown hexagonal prisms, polytype 2H
##STATUS=The identification of this mineral is confirmed by single-crystal X-ray diffraction and chemical analysis.
##URL=rruff.info/R060181
##MEASURED CHEMISTRY=(Zn_0.88_Fe_0.12_)S_1.00_
150.5283, 0.0000000E+00
151.0105, 5.047508
151.4926, 5.390411
151.9747, 1.183815
152.4568, 0.9181670
152.9389, 0.1784130
153.4210, 2.789230
153.9032, 4.724411
154.3853, 5.055206
154.8674, 5.131149
155.3495, 5.219864
155.8316, 5.000336
156.3138, 5.520584
156.7959, 7.377228
157.2780, 10.00285
157.7601, 12.33282
158.2422, 14.16199
158.7243, 15.62773
159.2065, 16.73117
159.6886, 16.98151
160.1707, 17.68903
160.6528, 19.32742
161.1349, 21.69058
161.6170, 24.26367
162.0992, 27.37877
162.5813, 30.32480
163.0634, 32.61469
163.5455, 33.79041
164.0276, 34.85818
164.5097, 35.72871
164.9919, 36.62640
165.4740, 38.61124
165.9561, 43.46109
166.4382, 49.04010
166.9203, 53.43291
167.4025, 55.03777
167.8846, 56.40685
168.3667, 59.05925
168.8488, 62.88498
169.3309, 67.21599
169.8130, 72.77321
170.2952, 78.29711
170.7773, 82.12341
171.2594, 81.83218
171.7415, 81.08224
172.2236, 83.54343
172.7057, 88.98759
173.1879, 94.15871
173.6700, 96.23081
174.1521, 96.49879
174.6342, 97.11394
175.1163, 99.14590
175.5984, 101.7092
176.0806, 104.0438
176.5627, 106.1675
177.0448, 107.5271
177.5269, 107.7744
178.0090, 106.9243
178.4911, 104.9465
178.9733, 101.2903
179.4554, 96.68990
179.9375, 92.11423
180.4196, 87.61357
180.9017, 83.31358
181.3839, 79.27018
181.8660, 75.56087
182.3481, 72.27055
182.8302, 69.74733
183.3123, 67.68941
183.7944, 65.24766
184.2766, 62.26376
184.7587, 59.51900
185.2408, 58.19063
185.7229, 58.08178
186.2050, 57.86560
186.6871, 56.88553
187.1693, 55.26326
187.6514, 53.42890
188.1335, 51.25373
188.6156, 49.20618
189.0977, 47.92223
189.5798, 47.38487
190.0620, 47.36392
190.5441, 48.16301
191.0262, 49.57112
191.5083, 51.63135
191.9904, 54.47856
192.4725, 57.64084
192.9547, 60.73875
193.4368, 62.30975
193.9189, 63.91179
194.4010, 65.50218
194.8831, 67.08175
195.3652, 68.80643
195.8474, 70.75823
196.3295, 73.18002
196.8116, 76.08692
197.2937, 80.00985
197.7758, 84.99182
198.2579, 89.26353
198.7401, 92.72345
199.2222, 96.32417
199.7043, 100.5105
200.1864, 104.9879
200.6685, 108.5710
201.1507, 111.1160
201.6328, 113.7824
202.1149, 117.4255
202.5970, 122.1657
203.0791, 126.2410
203.5612, 129.4661
204.0434, 132.3634
204.5255, 135.8459
205.0076, 139.5900
205.4897, 143.6635
205.9718, 147.9762
206.4539, 152.5635
206.9361, 156.8303
207.4182, 160.7302
207.9003, 164.4337
208.3824, 168.5139
208.8645, 173.1547
209.3466, 177.8963
209.8288, 182.2953
210.3109, 185.9888
210.7930, 190.9763
211.2751, 198.0100
211.7572, 206.2632
212.2393, 212.8123
212.7215, 217.0675
213.2036, 220.7744
213.6857, 225.1930
214.1678, 230.8829
214.6499, 235.4587
215.1321, 238.9080
215.6142, 241.1002
216.0963, 241.2409
216.5784, 238.7005
217.0605, 235.3267
217.5426, 232.5284
218.0248, 231.1768
218.5069, 227.8564
218.9890, 221.7670
219.4711, 213.4537
219.9532, 205.3085
220.4353, 197.1149
220.9175, 189.3288
221.3996, 182.2730
221.8817, 176.5302
222.3638, 170.0934
222.8459, 162.4091
223.3280, 153.8082
223.8102, 146.6487
224.2923, 141.2322
224.7744, 136.5720
225.2565, 132.1628
225.7386, 128.1513
226.2208, 124.0226
226.7029, 119.6284
227.1850, 115.0558
227.6671, 111.0263
228.1492, 107.7398
228.6313, 104.7087
229.1135, 101.6191
229.5956, 98.22162
230.0777, 95.26028
230.5598, 92.78438
231.0419, 90.78086
231.5240, 89.20392
232.0062, 88.54013
232.4883, 87.65496
232.9704, 85.78393
233.4525, 82.36245
233.9346, 79.24953
234.4167, 76.80692
234.8989, 74.81890
235.3810, 72.33714
235.8631, 69.47481
236.3452, 65.90639
236.8273, 61.37230
237.3095, 55.64244
237.7916, 49.39630
238.2737, 42.21687
238.7558, 34.48809
239.2379, 27.73621
239.7200, 22.31691
240.2022, 17.37744
240.6843, 12.27374
241.1664, 6.223892
241.6485, 1.808258
242.1306, 0.1820890
242.6127, 0.4702750
243.0949, 1.733608
243.5770, 4.358927
244.0591, 7.415159
244.5412, 10.51908
245.0233, 14.13350
245.5054, 10.72780
245.9876, 8.632311
246.4697, 7.537153
246.9518, 6.134402
247.4339, 4.118240
247.9160, 2.244181
248.3981, 0.9099250
248.8803, 0.3405350
249.3624, 0.2521890
249.8445, 0.8631000
250.3266, 1.522297
250.8087, 2.374951
251.2909, 3.731405
251.7730, 4.779570
252.2551, 5.105186
252.7372, 4.418784
253.2193, 3.722253
253.7014, 2.861999
254.1836, 2.071910
254.6657, 2.036607
255.1478, 3.381567
255.6299, 4.716871
256.1120, 4.911417
256.5941, 3.707309
257.0763, 2.401855
257.5584, 0.8823110
258.0405, 0.5523840
258.5226, 1.282365
259.0047, 1.070889
259.4868, 0.9144580
259.9690, 1.083590
260.4511, 1.492203
260.9332, 0.2674710
261.4153, 1.631745
261.8974, 3.711876
262.3795, 5.782447
262.8617, 7.924443
263.3438, 10.19553
263.8259, 12.66746
264.3080, 15.38229
264.7901, 17.82097
265.2722, 19.72755
265.7544, 21.65393
266.2365, 24.41380
266.7186, 28.19653
267.2007, 32.21279
267.6829, 36.34736
268.1650, 40.70427
268.6471, 44.16567
269.1292, 46.47340
269.6113, 48.40585
270.0934, 51.12585
270.5756, 55.05375
271.0577, 58.24828
271.5398, 60.02122
272.0219, 60.43231
272.5040, 60.91399
272.9861, 61.41906
273.4683, 62.07051
273.9504, 63.30499
274.4325, 65.39870
274.9146, 66.37634
275.3967, 65.31707
275.8788, 62.59113
276.3610, 61.24189
276.8431, 61.43996
277.3252, 62.50916
277.8073, 64.05584
278.2894, 66.14502
278.7715, 67.92570
279.2537, 69.02430
279.7358, 69.75546
280.2179, 71.52782
280.7000, 74.48566
281.1821, 77.90329
281.6642, 81.25694
282.1464, 84.54710
282.6285, 88.05215
283.1106, 91.86393
283.5927, 95.87857
284.0748, 99.79211
284.5569, 103.6010
285.0391, 107.4509
285.5212, 111.4658
286.0033, 115.6378
286.4854, 119.9438
286.9675, 124.3695
287.4496, 128.9265
287.9318, 133.7341
288.4139, 138.8387
288.8960, 143.8066
289.3781, 148.3438
289.8602, 152.5699
290.3424, 157.1715
290.8245, 162.3330
291.3066, 167.6031
291.7887, 172.1189
292.2708, 175.9707
292.7530, 179.7691
293.2351, 184.0894
293.7172, 188.6330
294.1993, 192.3651
294.6814, 195.2710
295.1635, 197.3447
295.6457, 198.4469
296.1278, 198.6504
296.6099, 198.2258
297.0920, 197.5551
297.5741, 196.2861
298.0562, 193.7251
298.5384, 189.8574
299.0205, 184.7483
299.5026, 178.1256
299.9847, 170.2538
300.4668, 161.7516
300.9489, 152.6879
301.4311, 143.1510
301.9132, 133.3914
302.3953, 123.2832
302.8774, 113.1351
303.3595, 103.5229
303.8416, 94.52106
304.3238, 86.07065
304.8059, 78.45076
305.2880, 71.26982
305.7701, 64.01240
306.2522, 56.76340
306.7343, 50.38846
307.2165, 46.07669
307.6986, 42.69873
308.1807, 38.81386
308.6628, 33.83164
309.1449, 28.53334
309.6270, 23.19974
310.1092, 17.96086
310.5913, 13.31362
311.0734, 10.09112
311.5555, 7.233175
312.0376, 3.643108
312.5197, 1.369893
313.0019, 5.895605
313.4840, 3.955480
313.9661, 2.722576
314.4482, 2.157653
314.9304, 2.812518
315.4125, 3.504271
315.8946, 3.109026
316.3767, 0.9770020
316.8588, 0.2128440
317.3409, 0.9992070
317.8231, 3.789256
318.3052, 7.041778
318.7873, 10.03907
319.2694, 9.625884
319.7515, 5.779594
320.2336, 0.8033610
320.7158, 4.966881
321.1979, 11.86778
321.6800, 19.17076
322.1621, 26.21860
322.6442, 32.47243
323.1263, 38.86411
323.6085, 46.01358
324.0906, 53.81333
324.5727, 60.57206
325.0548, 64.77821
325.5369, 68.61013
326.0190, 73.37280
326.5012, 80.16662
326.9833, 86.76769
327.4654, 92.24649
327.9475, 97.18829
328.4296, 103.8127
328.9117, 110.7055
329.3939, 120.5366
329.8760, 134.7450
330.3581, 156.3923
330.8402, 176.8477
331.3223, 195.6591
331.8044, 213.4986
332.2866, 232.0694
332.7687, 253.4234
333.2508, 272.1770
333.7329, 286.5893
334.2150, 296.1582
334.6971, 303.7671
335.1793, 309.0403
335.6614, 312.8140
336.1435, 315.8270
336.6256, 317.4953
337.1077, 320.0299
337.5899, 323.6731
338.0720, 328.5309
338.5541, 335.4415
339.0362, 344.3650
339.5183, 355.6005
340.0005, 368.9642
340.4826, 384.3727
340.9647, 403.2954
341.4468, 425.3654
341.9289, 451.3316
342.4110, 484.3523
342.8932, 524.2762
343.3753, 570.3770
343.8574, 622.7184
344.3395, 681.4487
344.8216, 741.8340
345.3037, 803.3546
345.7859, 866.4256
346.2680, 934.7417
346.7501, 1008.145
347.2322, 1074.603
347.7143, 1138.380
348.1964, 1191.334
348.6786, 1209.384
349.1607, 1191.578
349.6428, 1139.260
350.1249, 1039.644
350.6070, 904.4568
351.0891, 767.7953
351.5713, 636.3557
352.0534, 516.8092
352.5355, 417.9937
353.0176, 340.9919
353.4997, 278.7818
353.9818, 229.7818
354.4640, 191.5639
354.9461, 160.1098
355.4282, 136.0346
355.9103, 116.5680
356.3924, 99.86578
356.8745, 85.80525
357.3567, 74.25289
357.8388, 66.08804
358.3209, 59.73027
358.8030, 53.77942
359.2851, 48.01506
359.7672, 42.68923
360.2494, 37.77307
360.7315, 33.38596
361.2136, 29.81471
361.6957, 27.51258
362.1779, 25.71528
362.6600, 24.07611
363.1421, 22.55632
363.6242, 21.22709
364.1063, 20.26967
364.5884, 19.43552
365.0706, 18.48004
365.5527, 17.18282
366.0348, 15.93351
366.5169, 14.80827
366.9990, 13.80396
367.4811, 12.87986
367.9633, 11.82758
368.4454, 10.98734
368.9275, 10.56450
369.4096, 10.75086
369.8917, 11.07109
370.3738, 11.53611
370.8560, 11.87083
371.3381, 12.25267
371.8202, 12.67860
372.3023, 13.03048
372.7844, 13.24449
373.2665, 13.34374
373.7487, 13.25198
374.2308, 13.00492
374.7129, 12.54863
375.1950, 11.79436
375.6771, 10.53719
376.1592, 9.315037
376.6414, 8.232141
377.1235, 7.493803
377.6056, 7.383411
378.0877, 7.930122
378.5698, 8.697289
379.0519, 9.496078
379.5341, 10.32685
380.0162, 11.08035
380.4983, 11.69291
380.9804, 12.27094
381.4625, 13.00414
381.9446, 13.89404
382.4268, 15.00146
382.9089, 16.56301
383.3910, 18.38621
383.8731, 19.84036
384.3553, 20.82743
384.8374, 21.64577
385.3195, 22.33287
385.8016, 23.07974
386.2837, 24.47123
386.7658, 27.58353
387.2480, 31.06992
387.7301, 33.09410
388.2122, 33.69237
388.6943, 34.03585
389.1764, 34.97137
389.6585, 36.16518
390.1407, 37.15086
390.6228, 37.49714
391.1049, 38.03467
391.5870, 39.63094
392.0691, 41.92108
392.5512, 43.80854
393.0334, 44.60319
393.5155, 44.96450
393.9976, 45.35843
394.4797, 45.97725
394.9618, 46.18204
395.4439, 45.37208
395.9261, 44.14340
396.4082, 43.29444
396.8903, 43.68494
397.3724, 43.77212
397.8545, 43.11261
398.3366, 41.80728
398.8188, 40.38630
399.3009, 38.45426
399.7830, 36.59577
400.2651, 35.40428
400.7472, 35.59536
401.2293, 35.35515
401.7115, 34.34053
402.1936, 32.87877
402.6757, 31.91239
403.1578, 31.26425
403.6399, 31.05331
404.1220, 31.46815
404.6042, 32.71073
405.0863, 33.72599
405.5684, 34.62659
406.0505, 35.21892
406.5326, 34.92376
407.0147, 33.54996
407.4969, 32.99931
407.9790, 33.91753
408.4611, 36.03126
408.9432, 38.40139
409.4254, 41.05812
409.9075, 43.63273
410.3896, 45.60696
410.8717, 47.19321
411.3538, 49.26771
411.8359, 51.86800
412.3181, 55.21353
412.8002, 60.26583
413.2823, 66.45537
413.7644, 71.88152
414.2465, 75.12647
414.7286, 77.19987
415.2108, 79.19765
415.6929, 81.11320
416.1750, 83.51183
416.6571, 87.85146
417.1392, 92.67416
417.6213, 96.07810
418.1035, 96.78461
418.5856, 96.57568
419.0677, 96.37057
419.5498, 96.07397
420.0319, 95.37522
420.5140, 93.67706
420.9962, 91.84134
421.4783, 90.49155
421.9604, 90.11810
422.4425, 89.17836
422.9246, 86.90796
423.4067, 84.04644
423.8889, 81.52583
424.3710, 79.39128
424.8531, 77.72378
425.3352, 76.90118
425.8173, 76.91492
426.2994, 76.13390
426.7816, 74.04097
427.2637, 71.68505
427.7458, 69.77435
428.2279, 68.44833
428.7100, 67.16694
429.1921, 66.10604
429.6743, 64.95750
430.1564, 62.86897
430.6385, 59.52768
431.1206, 56.43891
431.6028, 54.30879
432.0849, 53.06757
432.5670, 51.85772
433.0491, 50.67649
433.5312, 49.47171
434.0133, 47.86877
434.4955, 46.02566
434.9776, 45.11880
435.4597, 45.77822
435.9418, 47.08955
436.4239, 47.35581
436.9060, 46.73795
437.3882, 46.22062
437.8703, 46.59558
438.3524, 47.39737
438.8345, 47.86411
439.3166, 47.83527
439.7987, 47.98628
440.2809, 49.06915
440.7630, 50.64544
441.2451, 52.02764
441.7272, 52.66365
442.2093, 53.28214
442.6914, 54.67276
443.1736, 56.60556
443.6557, 57.55353
444.1378, 56.05986
444.6199, 54.01485
445.1020, 52.62242
445.5841, 52.36132
446.0663, 52.18539
446.5484, 52.03107
447.0305, 51.87589
447.5126, 51.69944
447.9947, 52.39303
448.4768, 51.99191
448.9590, 49.65323
449.4411, 45.33204
449.9232, 41.95441
450.4053, 40.18348
450.8874, 38.32584
451.3695, 35.01165
451.8517, 29.79860
452.3338, 24.98704
452.8159, 20.93819
453.2980, 17.27464
453.7801, 12.98865
454.2622, 8.054388
454.7444, 3.498728
455.2265, 1.3235000E-02
455.7086, 2.671940
456.1907, 5.686558
456.6729, 8.764342
457.1550, 5.476621
457.6371, 3.679374
458.1192, 2.941236
458.6013, 2.094198
459.0834, 0.6754850
459.5656, 0.5868040
460.0477, 1.962996
460.5298, 1.158829
461.0119, 0.6377310
461.4940, 0.3845130
461.9761, 1.172816
462.4583, 0.6388680
462.9404, 0.6485850
463.4225, 0.6900100
463.9046, 2.2199999E-03
464.3867, 0.6847770
464.8688, 2.3534000E-02
465.3510, 8.6295001E-02
465.8331, 0.4352930
466.3152, 0.2382100
466.7973, 0.1981940
467.2794, 0.6867490
467.7615, 0.8691770
468.2437, 1.531465
468.7258, 2.374803
469.2079, 3.623146
469.6900, 4.626059
470.1721, 4.494547
470.6542, 3.741907
471.1364, 3.292181
471.6185, 3.310385
472.1006, 2.941333
472.5827, 1.896803
473.0648, 0.4528840
473.5469, 0.5221970
474.0291, 1.000329
474.5112, 1.365478
474.9933, 1.844039
475.4754, 2.398153
475.9575, 2.827667
476.4396, 3.110699
476.9218, 3.413656
477.4039, 3.826343
477.8860, 4.379786
478.3681, 5.193547
478.8503, 6.519510
479.3324, 7.875911
479.8145, 8.866045
480.2966, 9.469069
480.7787, 9.257577
481.2608, 10.43535
481.7430, 11.39767
482.2251, 12.15840
482.7072, 11.85901
483.1893, 12.77940
483.6714, 13.15127
484.1535, 13.50572
484.6357, 14.64503
485.1178, 14.45450
485.5999, 15.61922
486.0820, 16.21169
486.5641, 17.00273
487.0462, 17.22646
487.5284, 17.59503
488.0105, 18.48946
488.4926, 19.07718
488.9747, 19.19098
489.4568, 19.91460
489.9389, 19.53445
490.4211, 20.11325
490.9032, 21.10629
491.3853, 21.25277
491.8674, 22.03160
492.3495, 22.57102
492.8316, 23.22165
493.3138, 24.15127
493.7959, 24.82737
494.2780, 25.49346
494.7601, 26.50635
495.2422, 27.56847
495.7243, 28.02916
496.2065, 27.80580
496.6886, 27.74125
497.1707, 28.69389
497.6528, 30.16109
498.1349, 31.37461
498.6170, 31.90602
499.0992, 32.40560
499.5813, 33.45178
500.0634, 34.75936
500.5455, 35.58253
501.0276, 34.62853
501.5097, 33.99432
501.9919, 34.63139
502.4740, 36.84600
502.9561, 38.84811
503.4382, 40.53887
503.9203, 42.01382
504.4025, 43.26991
504.8846, 43.86909
505.3667, 45.28200
505.8488, 48.02203
506.3309, 51.24066
506.8130, 54.75099
507.2952, 55.69222
507.7773, 56.40238
508.2594, 56.83782
508.7415, 56.20301
509.2236, 56.89533
509.7057, 57.08796
510.1879, 57.21218
510.6700, 58.03912
511.1521, 57.48898
511.6342, 58.29137
512.1163, 59.11911
512.5984, 59.39167
513.0806, 59.38258
513.5627, 58.97741
514.0448, 57.34655
514.5269, 56.73841
515.0090, 55.58504
515.4911, 54.38766
515.9733, 53.91691
516.4554, 52.06424
516.9375, 51.54941
517.4196, 50.44864
517.9017, 49.50256
518.3839, 48.06256
518.8660, 45.49239
519.3481, 44.49674
519.8302, 43.38261
520.3123, 41.73558
520.7944, 38.98932
521.2766, 36.64958
521.7587, 35.04685
522.2408, 34.00172
522.7229, 33.01852
523.2050, 32.16618
523.6871, 31.07733
524.1693, 29.33396
524.6514, 27.04526
525.1335, 25.55337
525.6156, 24.97926
526.0977, 24.40446
526.5798, 22.93309
527.0620, 20.70312
527.5441, 18.97705
528.0262, 17.81740
528.5083, 16.68106
528.9904, 15.54565
529.4725, 13.58335
529.9547, 13.20422
530.4368, 12.61640
530.9189, 12.36959
531.4010, 10.79868
531.8831, 10.56215
532.3652, 10.27543
532.8474, 10.15848
533.3295, 9.806177
533.8116, 8.898214
534.2937, 6.663373
534.7758, 5.157475
535.2579, 5.043546
535.7401, 5.392544
536.2222, 4.751954
536.7043, 2.421893
537.1865, 0.8201050
537.6686, 0.7129370
538.1507, 1.688496
538.6328, 1.675226
539.1149, 0.5091330
539.5970, 0.2745390
540.0792, 4.8804998E-02
540.5613, 1.546306
541.0434, 2.030062
541.5255, 1.342038
542.0076, 0.3870530
542.4897, 6.7840002E-02
542.9719, 0.1359510
543.4540, 1.1675000E-02
543.9361, 0.3782730
544.4182, 0.8201180
544.9003, 1.309108
545.3824, 1.772409
545.8646, 2.053996
546.3467, 1.997699
546.8288, 1.813452
547.3109, 1.622042
547.7930, 1.419594
548.2751, 1.040579
548.7573, 0.1593690
549.2394, 0.1609890
549.7215, 0.2625170
550.2036, 0.1957480
550.6857, 2.3974000E-02
551.1678, 0.3997310
551.6500, 0.3082390
552.1321, 0.5592140
552.6142, 0.3313290
553.0963, 0.7443240
553.5784, 0.1554050
554.0605, 0.4438840
554.5427, 0.1077910
555.0248, 0.4554790
555.5069, 0.7106820
555.9890, 0.6592550
556.4711, 0.7005960
556.9532, 0.2029010
557.4354, 0.8541260
557.9175, 1.532600
558.3996, 0.5987760
558.8817, 0.8529370
559.3638, 0.6743220
559.8459, 0.9256580
560.3281, 0.2255900
560.8102, 0.1032730
561.2923, 0.1207190
561.7744, 8.3141997E-02
562.2565, 0.6629250
562.7386, 1.285388
563.2208, 0.9272160
563.7029, 0.2048400
564.1850, 3.2377001E-02
564.6671, 0.6004700
565.1492, 1.389051
565.6313, 1.126544
566.1135, 1.5880000E-02
566.5956, 2.4444999E-02
567.0777, 1.373634
567.5598, 0.8470820
568.0419, 3.7629001E-02
568.5240, 0.1527540
569.0062, 0.6449690
569.4883, 1.814633
569.9704, 2.846510
570.4525, 2.407902
570.9346, 0.9704510
571.4167, 0.2427120
571.8989, 0.6988950
572.3810, 0.7228320
572.8631, 0.3608050
573.3452, 0.3088050
573.8273, 0.8504670
574.3094, 0.8690810
574.7916, 0.8914190
575.2737, 1.272294
575.7558, 2.271935
576.2379, 2.879364
576.7200, 2.917744
577.2021, 2.676280
577.6843, 2.331352
578.1664, 1.692556
578.6485, 1.555043
579.1306, 2.152858
579.6127, 3.119824
580.0948, 3.788548
580.5770, 4.154883
581.0591, 4.311311
581.5412, 3.992651
582.0233, 3.649767
582.5054, 4.554733
582.9875, 6.530814
583.4697, 8.364673
583.9518, 9.192043
584.4340, 9.445783
584.9161, 9.409410
585.3982, 9.047580
585.8803, 9.101106
586.3624, 10.35333
586.8445, 11.99219
587.3267, 13.27357
587.8088, 14.01377
588.2909, 14.43453
588.7730, 13.84265
589.2551, 13.13404
589.7372, 13.97811
590.2194, 17.38607
590.7015, 20.38811
591.1836, 22.34841
591.6657, 23.31357
592.1478, 23.11727
592.6299, 21.55829
593.1121, 20.33200
593.5942, 20.45428
594.0763, 21.73085
594.5584, 23.79285
595.0405, 26.60795
595.5226, 29.11832
596.0048, 30.02627
596.4869, 30.12786
596.9690, 30.68506
597.4511, 32.24490
597.9332, 33.74366
598.4153, 34.14394
598.8975, 34.17367
599.3796, 35.06983
599.8617, 38.27663
600.3438, 41.09229
600.8259, 42.77731
601.3080, 43.59165
601.7902, 44.30171
602.2723, 44.32546
602.7544, 45.17900
603.2365, 47.87651
603.7186, 52.32768
604.2007, 54.95066
604.6829, 55.46217
605.1650, 55.32719
605.6471, 55.55881
606.1292, 56.11340
606.6113, 57.05077
607.0934, 58.47887
607.5756, 59.50359
608.0577, 58.47759
608.5398, 56.49672
609.0219, 55.49191
609.5040, 56.91365
609.9861, 58.32050
610.4683, 58.30635
610.9504, 57.33451
611.4325, 56.47756
611.9146, 56.46774
612.3967, 56.14908
612.8788, 55.08208
613.3610, 53.33167
613.8431, 51.32863
614.3252, 48.80726
614.8073, 46.52208
615.2894, 44.83874
615.7715, 43.78091
616.2537, 42.69590
616.7358, 41.51524
617.2179, 40.31576
617.7000, 39.62323
618.1821, 39.01929
618.6642, 36.61866
619.1464, 31.66381
619.6285, 26.30946
620.1106, 22.23954
620.5927, 19.32013
621.0748, 17.39758
621.5569, 16.93170
622.0391, 16.87777
622.5212, 16.81644
623.0033, 16.76731
623.4854, 16.90926
623.9675, 17.25239
624.4496, 17.84562
624.9318, 18.83289
625.4139, 20.28333
625.8960, 21.09407
626.3781, 20.73311
626.8602, 20.84219
627.3423, 22.92163
627.8245, 26.87999
628.3066, 29.20713
628.7887, 29.62770
629.2708, 29.61657
629.7529, 30.69294
630.2350, 32.49807
630.7172, 34.18393
631.1993, 35.43457
631.6815, 36.84122
632.1636, 39.30316
632.6457, 42.14118
633.1278, 44.32050
633.6099, 44.93910
634.0920, 45.43192
634.5742, 46.42381
635.0563, 47.68434
635.5384, 48.35928
636.0205, 48.34569
636.5026, 47.88466
636.9847, 46.96357
637.4669, 45.61769
637.9490, 44.33165
638.4311, 43.15725
638.9132, 41.79543
639.3953, 40.12001
639.8774, 38.08727
640.3596, 35.30775
640.8417, 31.69222
641.3238, 28.25240
641.8059, 26.50466
642.2880, 25.37828
642.7701, 23.23416
643.2523, 19.15372
643.7344, 15.50874
644.2165, 13.76580
644.6986, 13.05081
645.1807, 12.21530
645.6628, 10.31549
646.1450, 9.159334
646.6271, 9.086113
647.1092, 9.868310
647.5913, 10.99684
648.0734, 12.62276
648.5555, 14.21701
649.0377, 15.35486
649.5198, 16.30309
650.0019, 18.35571
650.4840, 21.52810
650.9661, 24.72495
651.4482, 26.99981
651.9304, 29.00021
652.4125, 31.67565
652.8946, 35.08995
653.3767, 39.02039
653.8588, 43.78846
654.3409, 48.77641
654.8231, 53.32363
655.3052, 57.10637
655.7873, 61.09768
656.2694, 65.63139
656.7515, 70.35722
657.2336, 75.03590
657.7158, 79.52226
658.1979, 84.34746
658.6800, 89.59641
659.1621, 95.10295
659.6442, 100.6303
660.1263, 106.1579
660.6085, 111.6167
661.0906, 116.9155
661.5727, 122.0834
662.0548, 127.3245
662.5369, 132.6701
663.0190, 138.0893
663.5012, 144.0916
663.9833, 149.7039
664.4654, 154.0304
664.9475, 157.2291
665.4296, 160.1214
665.9117, 163.8092
666.3939, 166.6048
666.8760, 167.3524
667.3581, 165.7326
667.8402, 164.3580
668.3223, 163.6671
668.8044, 162.5423
669.2866, 160.1807
669.7687, 156.5795
670.2508, 151.8851
670.7329, 145.9446
671.2150, 139.5644
671.6971, 133.2262
672.1793, 127.0364
672.6614, 121.5663
673.1435, 116.9516
673.6256, 112.9124
674.1077, 109.2724
674.5898, 105.9980
675.0720, 103.0300
675.5541, 100.3126
676.0362, 97.86009
676.5183, 95.83034
677.0004, 94.16026
677.4825, 92.43491
677.9647, 90.82707
678.4468, 88.87183
678.9290, 86.26048
679.4111, 83.22023
679.8932, 80.86536
680.3753, 79.27815
680.8574, 78.09133
681.3395, 77.37647
681.8217, 76.84969
682.3038, 75.89870
682.7859, 74.50710
683.2680, 72.99382
683.7501, 71.72535
684.2322, 70.37696
684.7144, 68.50686
685.1965, 65.95092
685.6786, 63.69166
686.1607, 62.16422
686.6428, 60.94313
687.1249, 59.68862
687.6071, 58.35632
688.0892, 57.10670
688.5713, 55.95963
689.0534, 54.86861
689.5355, 53.93181
690.0176, 53.12084
690.4998, 51.78964
690.9819, 49.76843
691.4640, 47.38798
691.9461, 45.06689
692.4282, 42.78558
692.9103, 40.51444
693.3925, 38.21527
693.8746, 35.93922
694.3567, 33.68560
694.8388, 31.50868
695.3209, 29.54241
695.8030, 27.55098
696.2852, 25.89342
696.7673, 24.95819
697.2494, 24.51636
697.7315, 23.05189
698.2136, 20.28492
698.6957, 17.40262
699.1779, 14.73870
699.6600, 12.37085
700.1421, 10.99127
700.6242, 10.54574
701.1063, 9.983047
701.5884, 8.295463
702.0706, 6.212909
702.5527, 4.554589
703.0348, 3.388008
703.5169, 2.634853
703.9990, 2.868578
704.4811, 3.072027
704.9633, 2.380910
705.4454, 7.0830001E-03
705.9275, 1.177146
706.4096, 0.5578430
706.8917, 0.6492870
707.3738, 1.604565
707.8560, 2.348455
708.3381, 2.110111
708.8202, 0.5619850
709.3023, 1.024535
709.7844, 0.4399510
710.2665, 1.417630
710.7487, 1.839196
711.2308, 0.3898280
711.7129, 1.265537
712.1950, 0.3046840
712.6771, 0.4162180
713.1592, 0.8514810
713.6414, 1.855399
714.1235, 1.024611
714.6056, 0.8922590
715.0877, 1.156257
715.5698, 1.231701
716.0519, 1.048848
716.5341, 0.9076650
717.0162, 0.8328670
717.4983, 0.8679160
717.9804, 1.170125
718.4625, 1.236247
718.9446, 0.5147200
719.4268, 0.3731810
719.9089, 1.188070
720.3910, 1.708997
720.8731, 1.904220
721.3552, 1.663631
721.8373, 0.1674930
722.3195, 1.121994
722.8016, 1.122689
723.2837, 5.6586001E-02
723.7658, 0.7851790
724.2479, 1.281140
724.7300, 1.356678
725.2122, 0.8294770
725.6943, 0.3150840
726.1765, 0.8464890
726.6586, 0.5091050
727.1407, 0.3424360
727.6228, 1.2085000E-02
728.1049, 0.3008100
728.5870, 8.7100000E-04
729.0692, 0.5406630
729.5513, 0.3250320
730.0334, 0.1519690
730.5155, 0.3386180
730.9976, 0.3874120
731.4797, 0.4359140
731.9619, 0.7474060
732.4440, 0.3638920
732.9261, 0.5252140
733.4082, 0.9503700
733.8903, 0.2321460
734.3724, 0.3804070
734.8546, 0.6029280
735.3367, 1.300712
735.8188, 0.8023720
736.3009, 0.1525310
736.7830, 0.6465340
737.2651, 0.4022500
737.7473, 0.1996620
738.2294, 0.2203860
738.7115, 0.6588500
739.1936, 0.7353420
739.6757, 0.1513800
740.1578, 0.1429430
740.6400, 0.8399200
741.1221, 1.404188
741.6042, 1.980311
742.0863, 2.783099
742.5684, 3.076406
743.0505, 2.577271
743.5327, 1.674854
744.0148, 1.223859
744.4969, 1.204479
744.9790, 1.328914
745.4611, 1.460661
745.9432, 1.645111
746.4254, 2.081602
746.9075, 2.619287
747.3896, 2.854384
747.8717, 2.229887
748.3538, 1.658395
748.8359, 1.663212
749.3181, 2.111122
749.8002, 2.248049
750.2823, 1.861436
750.7644, 1.520221
751.2465, 1.464484
751.7286, 1.588237
752.2108, 1.162415
752.6929, 0.5858370
753.1750, 1.107398
753.6571, 0.8088810
754.1392, 2.605418
754.6213, 3.510516
755.1035, 3.613256
755.5856, 3.433055
756.0677, 2.749649
756.5498, 2.181544
757.0319, 2.146067
757.5140, 2.677033
757.9962, 3.074244
758.4783, 3.130455
758.9604, 3.274316
759.4425, 3.806181
759.9246, 4.698676
760.4067, 4.947771
760.8889, 4.468350
761.3710, 4.098093
761.8531, 4.734766
762.3352, 5.825873
762.8173, 6.296376
763.2994, 6.104391
763.7816, 5.704763
764.2637, 5.332510
764.7458, 5.047767
765.2279, 4.948565
765.7100, 5.126994
766.1921, 5.079443
766.6743, 4.571321
767.1564, 4.054615
767.6385, 3.910196
768.1206, 4.141191
768.6027, 4.591123
769.0848, 5.289144
769.5670, 5.875780
770.0491, 6.257682
770.5312, 6.379102
771.0133, 6.078986
771.4954, 5.278963
771.9775, 4.498607
772.4597, 3.614610
772.9418, 3.019351
773.4240, 3.183585
773.9061, 4.744000
774.3882, 5.617405
774.8703, 5.328438
775.3524, 4.791013
775.8345, 4.870876
776.3167, 5.675403
776.7988, 5.890066
777.2809, 5.340893
777.7630, 4.476417
778.2451, 3.772499
778.7272, 3.186683
779.2094, 2.554273
779.6915, 1.837180
780.1736, 1.422068
780.6557, 1.688393
781.1378, 2.382030
781.6199, 3.239339
782.1021, 4.699057
782.5842, 5.484782
783.0663, 5.268633
783.5484, 4.821774
784.0305, 5.057413
784.5126, 6.034162
784.9948, 6.498921
785.4769, 6.236062
785.9590, 5.820093
786.4411, 6.166356
786.9232, 6.691744
787.4053, 6.366741
787.8875, 4.526240
788.3696, 2.947519
788.8517, 2.782223
789.3338, 3.184422
789.8159, 3.183720
790.2980, 2.450464
790.7802, 1.902154
791.2623, 1.333948
791.7444, 1.038399
792.2265, 1.588195
792.7086, 2.980863
793.1907, 3.883877
793.6729, 4.155762
794.1550, 4.039086
794.6371, 3.416115
795.1192, 2.627842
795.6013, 2.419339
796.0834, 3.730273
796.5656, 4.338458
797.0477, 2.536141
797.5298, 7.6440997E-02
798.0119, 0.8338650
798.4940, 0.6025460
798.9761, 1.698577
799.4583, 2.249895
799.9404, 2.382142
800.4225, 2.183454
800.9046, 1.695275
801.3867, 1.083317
801.8688, 0.2617960
802.3510, 0.2548530
802.8331, 0.3709210
803.3152, 1.505703
803.7973, 2.244891
804.2794, 2.054886
804.7615, 1.964346
805.2437, 2.264531
805.7258, 2.721765
806.2079, 3.192778
806.6900, 3.783987
807.1721, 3.724949
807.6542, 2.740056
808.1364, 1.712024
808.6185, 2.057293
809.1006, 3.343403
809.5827, 4.284129
810.0648, 4.550256
810.5469, 4.407203
811.0291, 4.187432
811.5112, 3.797202
811.9933, 3.002825
812.4754, 0.5493830
812.9575, 0.4974800
813.4396, 0.6854800
813.9218, 2.612121
814.4039, 3.680207
814.8860, 3.887270
815.3681, 3.603487
815.8502, 2.783828
816.3323, 1.850854
816.8145, 1.191334
817.2966, 0.8138600
817.7787, 0.7902140
818.2608, 1.276677
818.7429, 1.640132
819.2251, 1.407040
819.7072, 1.009195
820.1893, 0.8762840
820.6714, 1.135021
821.1536, 1.412731
821.6357, 1.730232
822.1178, 2.025801
822.5999, 2.220890
823.0820, 2.323179
823.5641, 2.486312
824.0463, 2.774407
824.5284, 2.881920
825.0105, 2.001574
825.4926, 1.038566
825.9747, 1.245568
826.4568, 3.386069
826.9390, 4.844728
827.4211, 4.645760
827.9032, 3.848375
828.3853, 3.023830
828.8674, 2.072116
829.3495, 1.665709
829.8317, 1.886155
830.3138, 2.311580
830.7959, 2.742484
831.2780, 3.020515
831.7601, 2.675333
832.2422, 1.613921
832.7244, 0.8870070
833.2065, 1.314958
833.6886, 2.160495
834.1707, 3.002457
834.6528, 3.951359
835.1349, 4.178002
835.6171, 3.225213
836.0992, 2.243123
836.5813, 2.178894
837.0634, 2.945429
837.5455, 2.963870
838.0276, 2.197958
838.5098, 1.612496
838.9919, 2.210524
839.4740, 3.202356
839.9561, 3.792957
840.4382, 3.939604
840.9203, 3.834866
841.4025, 3.286062
841.8846, 2.732633
842.3667, 2.265930
842.8488, 1.895398
843.3309, 2.217026
843.8130, 3.357481
844.2952, 4.503485
844.7773, 5.466064
845.2594, 6.014813
845.7415, 5.219897
846.2236, 3.347776
846.7057, 1.832488
847.1879, 1.823741
847.6700, 2.081197
848.1521, 1.791603
848.6342, 1.019366
849.1163, 0.9206790
849.5984, 1.959719
850.0806, 2.775959
850.5627, 2.822642
851.0448, 2.366946
851.5269, 2.373532
852.0090, 2.768445
852.4911, 2.964396
852.9733, 2.315820
853.4554, 1.681017
853.9375, 2.114977
854.4196, 3.149420
854.9017, 3.738889
855.3839, 2.970560
855.8660, 2.394039
856.3481, 2.660052
856.8302, 3.279956
857.3123, 3.290093
857.7944, 2.649401
858.2766, 1.948885
858.7587, 1.275798
859.2408, 0.7415190
859.7229, 0.5513060
860.2050, 0.6078270
860.6871, 0.8053670
861.1693, 1.314110
861.6514, 1.573875
862.1335, 1.215307
862.6156, 0.5564630
863.0977, 1.1637000E-02
863.5798, 0.6232130
864.0620, 0.7268220
864.5441, 0.1897670
865.0262, 0.6513220
865.5083, 1.580165
865.9904, 2.473320
866.4726, 2.885903
866.9547, 2.662061
867.4368, 2.431463
867.9189, 2.737450
868.4011, 3.158516
868.8832, 3.275323
869.3653, 2.857156
869.8474, 2.589247
870.3295, 2.584817
870.8116, 2.521805
871.2938, 2.139612
871.7759, 1.466609
872.2580, 1.227650
872.7401, 1.450689
873.2222, 1.736948
873.7043, 1.841389
874.1865, 1.774140
874.6686, 1.428055
875.1507, 0.8275980
875.6328, 0.4401130
876.1149, 0.5689770
876.5970, 0.7312490
877.0792, 0.7376290
877.5613, 0.6105770
878.0434, 0.6461150
878.5255, 0.8535500
879.0076, 0.9087870
879.4897, 0.4034970
879.9719, 0.2258240
880.4540, 0.2918760
880.9361, 7.3229998E-02
881.4182, 0.4313350
881.9003, 0.3840670
882.3824, 0.3476230
882.8646, 0.4265270
883.3467, 0.6125050
883.8288, 0.9805430
884.3109, 1.632964
884.7930, 1.837774
885.2751, 1.244201
885.7573, 0.3914930
886.2394, 0.2482430
886.7215, 0.5596030
887.2036, 0.6777710
887.6857, 0.1077210
888.1678, 0.2455200
888.6500, 0.5332350
889.1321, 1.519367
889.6142, 1.405350
890.0963, 0.5132850
890.5784, 0.4085450
891.0605, 0.2937880
891.5427, 0.3036290
892.0248, 0.2423670
892.5069, 0.2122540
892.9890, 6.3106999E-02
893.4711, 7.0587002E-02
893.9532, 0.7290750
894.4354, 0.1713760
894.9175, 0.2976380
895.3996, 0.1764730
895.8817, 8.0147997E-02
896.3638, 0.2546440
896.8459, 0.2175530
897.3281, 0.6281480
897.8102, 2.202146
898.2923, 4.208211
898.7744, 4.719489
899.2565, 3.847800
899.7386, 2.865813
900.2208, 2.611207
900.7029, 2.530635
901.1850, 2.162184
901.6671, 1.551508
902.1492, 1.165828
902.6313, 1.125507
903.1135, 1.206149
903.5956, 1.469397
904.0777, 1.736938
904.5598, 1.288066
905.0419, 0.2595940
905.5240, 0.2584540
906.0062, 0.4265700
906.4883, 1.319772
906.9704, 1.598276
907.4525, 1.465299
907.9346, 1.274475
908.4167, 0.8749360
908.8989, 0.8093660
909.3810, 1.342724
909.8631, 1.920648
910.3452, 1.561605
910.8273, 0.3573000
911.3094, 0.2195640
911.7916, 4.6482000E-02
912.2737, 0.6081390
912.7558, 1.137675
913.2380, 1.585679
913.7201, 1.885877
914.2022, 2.010305
914.6843, 2.121653
915.1664, 2.303676
915.6486, 2.369323
916.1307, 2.136840
916.6128, 1.634911
917.0949, 1.450463
917.5770, 1.585573
918.0591, 1.833273
918.5413, 2.141315
919.0234, 2.437127
919.5055, 2.761451
919.9876, 3.029691
920.4697, 2.926448
920.9518, 1.854893
921.4340, 0.9792050
921.9161, 0.5965580
922.3982, 0.6299270
922.8803, 0.8839400
923.3624, 1.330561
923.8445, 1.371645
924.3267, 0.5570280
924.8088, 4.7403000E-02
925.2909, 0.9484820
925.7730, 2.842602
926.2551, 4.687019
926.7372, 6.947736
927.2194, 7.795934
927.7015, 6.479657
928.1836, 4.428313
928.6657, 2.837762
929.1478, 1.716277
929.6299, 0.8382690
930.1121, 0.2036490
930.5942, 0.1883470
931.0763, 0.2350510
931.5584, 0.2988240
932.0405, 0.4056090
932.5226, 1.863866
933.0048, 2.827411
933.4869, 2.812693
933.9690, 2.463205
934.4511, 1.825090
934.9332, 1.024416
935.4153, 0.7614700
935.8975, 1.016171
936.3796, 1.516698
936.8617, 2.578575
937.3438, 3.302780
937.8259, 2.130360
938.3080, 2.8400000E-02
938.7902, 0.3728720
939.2723, 0.5042480
939.7544, 1.590833
940.2365, 1.689664
940.7186, 1.430655
941.2007, 1.741112
941.6829, 2.557344
942.1650, 3.123616
942.6471, 3.355637
943.1292, 3.265920
943.6113, 2.451724
944.0934, 1.589258
944.5756, 1.427544
945.0577, 2.221103
945.5398, 2.848408
946.0219, 3.320043
946.5040, 3.459421
946.9861, 3.107232
947.4683, 2.309542
947.9504, 1.105371
948.4325, 0.3158730
948.9146, 0.7433140
949.3967, 0.6590180
949.8788, 0.1746990
950.3610, 0.2951000
950.8431, 3.7500000E-04
951.3252, 0.5267020
951.8073, 1.116882
952.2894, 1.451464
952.7715, 1.434537
953.2537, 1.255229
953.7358, 1.250190
954.2179, 1.350924
954.7000, 1.256950
955.1821, 0.8638640
955.6642, 0.5010370
956.1464, 0.1906560
956.6285, 0.1670640
957.1106, 0.8272660
957.5927, 2.527309
958.0748, 3.089307
958.5569, 1.932634
959.0391, 1.194648
959.5212, 3.130568
960.0033, 6.422492
960.4855, 6.658831
960.9676, 4.355666
961.4497, 2.483334
961.9318, 3.186093
962.4139, 4.128066
962.8961, 4.202716
963.3782, 3.591029
963.8603, 2.969700
964.3424, 2.387849
964.8245, 1.398944
965.3066, 0.3016560
965.7888, 0.9759590
966.2709, 0.5991420
966.7530, 4.3995999E-02
967.2351, 1.144591
967.7172, 1.470455
968.1993, 1.619304
968.6815, 1.794662
969.1636, 1.919367
969.6457, 1.941013
970.1278, 1.840238
970.6099, 1.481240
971.0920, 0.8357550
971.5742, 0.2124320
972.0563, 0.2845310
972.5384, 0.2039290
973.0205, 0.2091740
973.5026, 0.2204620
973.9847, 0.3801180
974.4669, 1.976843
974.9490, 2.908520
975.4311, 2.500829
975.9132, 1.516887
976.3953, 1.525910
976.8774, 2.476601
977.3596, 3.607817
977.8417, 4.848853
978.3238, 5.790403
978.8059, 6.181770
979.2880, 6.010891
979.7701, 5.088093
980.2523, 2.896177
980.7344, 1.740899
981.2165, 2.055028
981.6986, 2.700473
982.1807, 3.012469
982.6628, 3.060077
983.1450, 3.218056
983.6271, 3.452043
984.1092, 3.632886
984.5913, 3.680029
985.0734, 3.674535
985.5555, 3.487729
986.0377, 3.329749
986.5198, 3.779240
987.0019, 5.290029
987.4840, 5.812677
987.9661, 4.870013
988.4482, 3.305974
988.9304, 1.975739
989.4125, 0.9937500
989.8946, 0.7412010
990.3767, 1.382321
990.8588, 1.824948
991.3409, 1.402760
991.8231, 0.8522990
992.3052, 0.5124640
992.7873, 0.3949120
993.2694, 0.9350370
993.7515, 2.164150
994.2336, 3.152261
994.7158, 3.169081
995.1979, 2.863323
995.6800, 3.079128
996.1621, 3.545331
996.6442, 3.605707
997.1263, 2.321290
997.6085, 1.993228
998.0906, 3.359618
998.5727, 5.058125
999.0548, 5.126105
999.5369, 3.869829
1000.019, 3.327234
1000.501, 3.776434
1000.983, 4.170061
1001.465, 3.336050
1001.948, 2.478751
1002.430, 2.799151
1002.912, 4.367655
1003.394, 4.914885
1003.876, 4.234909
1004.358, 3.179136
1004.840, 1.836874
1005.322, 0.6327470
1005.804, 0.4036090
1006.287, 0.8324870
1006.769, 1.290425
1007.251, 1.978726
1007.733, 2.119701
1008.215, 0.4105580
1008.697, 0.2286840
1009.179, 0.3359450
1009.661, 2.415067
1010.144, 3.729587
1010.626, 3.088106
1011.108, 2.089021
1011.590, 2.105377
1012.072, 2.357772
1012.554, 1.895327
1013.036, 0.8202720
1013.518, 0.2679230
1014.000, 0.5552630
1014.483, 1.171216
1014.965, 2.212200
1015.447, 3.264445
1015.929, 3.296212
1016.411, 2.603371
1016.893, 2.360481
1017.375, 3.077217
1017.857, 3.519479
1018.340, 2.492411
1018.822, 1.159528
1019.304, 0.4767020
1019.786, 0.4623340
1020.268, 1.289733
1020.750, 3.200599
1021.232, 4.372810
1021.714, 2.868447
1022.196, 0.4437660
1022.679, 0.3682730
1023.161, 0.1410320
1023.643, 0.9619750
1024.125, 2.931388
1024.607, 3.857402
1025.089, 2.953040
1025.571, 1.252872
1026.053, 0.2624820
1026.536, 0.5031420
1027.018, 0.3905510
1027.500, 2.774993
1027.982, 5.376938
1028.464, 4.196449
1028.946, 1.911199
1029.428, 0.3232340
1029.910, 0.3979100
1030.392, 8.8757999E-02
1030.875, 1.716813
1031.357, 2.870912
1031.839, 2.354756
1032.321, 1.172615
1032.803, 0.9969330
1033.285, 1.510829
1033.767, 2.029610
1034.249, 2.467308
1034.732, 2.624643
1035.214, 2.237029
1035.696, 1.766288
1036.178, 1.561449
1036.660, 1.622023
1037.142, 1.658308
1037.624, 1.666305
1038.106, 1.603959
1038.589, 1.267323
1039.071, 1.013117
1039.553, 1.347780
1040.035, 2.000003
1040.517, 2.016611
1040.999, 1.087960
1041.481, 0.2123210
1041.963, 0.3480690
1042.445, 8.7010004E-03
1042.927, 8.4275000E-02
1043.410, 1.854676
1043.892, 3.019529
1044.374, 3.358853
1044.856, 3.488615
1045.338, 3.864290
1045.820, 3.764748
1046.302, 2.423339
1046.784, 0.3698280
1047.267, 0.9752370
1047.749, 3.950428
1048.231, 5.795772
1048.713, 4.496006
1049.195, 2.657822
1049.677, 2.248077
1050.159, 2.588579
1050.641, 2.772101
1051.124, 2.695556
1051.606, 2.554408
1052.088, 2.361965
1052.570, 2.086331
1053.052, 1.579927
1053.534, 1.035930
1054.016, 0.6932420
1054.498, 0.6127950
1054.980, 1.015657
1055.463, 3.013737
1055.945, 4.125467
1056.427, 3.428607
1056.909, 1.944306
1057.391, 1.316115
1057.873, 1.486314
1058.355, 1.818662
1058.837, 2.214189
1059.319, 2.463231
1059.802, 2.194969
1060.284, 1.857311
1060.766, 1.988524
1061.248, 2.529895
1061.730, 1.983435
1062.212, 8.8870004E-03
1062.694, 0.2903250
1063.176, 0.2656990
1063.659, 1.377512
1064.141, 2.086255
1064.623, 2.261364
1065.105, 2.681729
1065.587, 4.032176
1066.069, 4.417135
1066.551, 2.956096
1067.033, 1.576938
1067.516, 1.886342
1067.998, 3.444769
1068.480, 4.132896
1068.962, 4.034339
1069.444, 3.619864
1069.926, 2.742618
1070.408, 2.050429
1070.890, 1.963160
1071.372, 2.235877
1071.854, 2.621625
1072.337, 3.131171
1072.819, 2.796334
1073.301, 1.428351
1073.783, 0.3098170
1074.265, 1.043941
1074.747, 2.351123
1075.229, 2.913316
1075.711, 2.699688
1076.194, 2.799169
1076.676, 3.572659
1077.158, 3.958207
1077.640, 3.684329
1078.122, 2.852343
1078.604, 0.9775070
1079.086, 0.3852630
1079.568, 0.9611050
1080.051, 0.1471750
1080.533, 1.478061
1081.015, 0.5895940
1081.497, 0.3964560
1081.979, 0.2678780
1082.461, 6.8782002E-02
1082.943, 0.6893760
1083.425, 1.277804
1083.907, 1.604326
1084.390, 1.540531
1084.872, 1.248606
1085.354, 0.2753270
1085.836, 0.2894410
1086.318, 0.3866690
1086.800, 1.373304
1087.282, 2.841650
1087.764, 4.028475
1088.247, 4.376445
1088.729, 2.386471
1089.211, 4.3040002E-03
1089.693, 0.3456530
1090.175, 0.9378690
1090.657, 1.965474
1091.139, 2.418437
1091.621, 2.541691
1092.104, 2.318698
1092.586, 1.878423
1093.068, 1.136150
1093.550, 0.3740450
1094.032, 0.4334160
1094.514, 1.414300
1094.996, 2.055955
1095.478, 1.285810
1095.960, 0.6714300
1096.443, 0.8588750
1096.925, 1.596189
1097.407, 2.316184
1097.889, 2.959603
1098.371, 3.156116
1098.853, 2.667548
1099.335, 2.172266
1099.817, 2.106301
1100.299, 2.302156
1100.782, 2.578116
1101.264, 2.882064
1101.746, 2.905826
1102.228, 2.671165
1102.710, 2.262188
1103.192, 1.576902
1103.674, 0.9244530
1104.156, 0.7025460
1104.639, 0.7536490
1105.121, 0.8190320
1105.603, 0.7791890
1106.085, 0.9587660
1106.567, 1.477514
1107.049, 1.903488
1107.531, 1.840263
1108.013, 1.470092
1108.495, 1.031622
1108.978, 0.6014510
1109.460, 0.4309840
1109.942, 0.5856500
1110.424, 1.113912
1110.906, 2.315881
1111.388, 3.470668
1111.870, 3.289944
1112.352, 2.199553
1112.834, 2.402313
1113.317, 4.021333
1113.799, 4.864963
1114.281, 2.688939
1114.763, 0.4434580
1115.245, 0.3221050
1115.727, 0.4006160
1116.209, 0.1318330
1116.691, 1.129003
1117.174, 1.929825
1117.656, 2.432307
1118.138, 2.560949
1118.620, 1.827105
1119.102, 1.017395
1119.584, 1.049727
1120.066, 1.896804
1120.548, 1.685271
1121.031, 0.2375920
1121.513, 2.2383999E-02
1121.995, 2.8496001E-02
1122.477, 0.1700670
1122.959, 0.3836080
1123.441, 0.9487580
1123.923, 1.698785
1124.405, 2.994432
1124.887, 3.236117
1125.370, 1.970150
1125.852, 0.8701550
1126.334, 1.130877
1126.816, 2.073854
1127.298, 2.498580
1127.780, 2.424286
1128.262, 1.878495
1128.744, 0.1558800
1129.227, 0.2386440
1129.709, 9.0462998E-02
1130.191, 1.233789
1130.673, 1.503539
1131.155, 1.056320
1131.637, 1.423251
1132.119, 2.479393
1132.601, 3.161145
1133.083, 2.539433
1133.566, 2.155272
1134.048, 2.808160
1134.530, 3.693410
1135.012, 3.607043
1135.494, 2.668992
1135.976, 2.121017
1136.458, 2.074144
1136.940, 2.202930
1137.422, 2.335869
1137.905, 2.694861
1138.387, 3.713682
1138.869, 4.894878
1139.351, 4.485637
1139.833, 2.474042
1140.315, 1.409807
1140.797, 1.818170
1141.279, 2.490149
1141.762, 2.394875
1142.244, 2.045636
1142.726, 1.811869
1143.208, 1.733684
1143.690, 1.912852
1144.172, 2.428695
1144.654, 2.904483
1145.136, 3.191071
1145.619, 3.336851
1146.101, 3.493840
1146.583, 3.474627
1147.065, 2.825004
1147.547, 1.144843
1148.029, 0.9263740
1148.511, 2.587978
1148.993, 4.372331
1149.475, 5.798542
1149.958, 6.515960
1150.440, 5.319264
1150.922, 3.179705
1151.404, 1.906611
1151.886, 2.461530
1152.368, 2.685526
1152.850, 2.410326
1153.332, 1.864872
1153.814, 1.029939
1154.297, 0.1157310
1154.779, 0.3946570
1155.261, 0.4251600
1155.743, 0.3950440
1156.225, 0.6103190
1156.707, 0.8924850
1157.189, 0.1772070
1157.671, 0.3215170
1158.154, 0.3001740
1158.636, 0.3481120
1159.118, 0.7944860
1159.600, 2.018148
1160.082, 2.733581
1160.564, 2.312733
1161.046, 1.758350
1161.528, 1.191160
1162.010, 0.7960390
1162.493, 0.9411520
1162.975, 1.503998
1163.457, 1.546531
1163.939, 1.073023
1164.421, 0.7604740
1164.903, 1.081664
1165.385, 1.576327
1165.867, 2.193499
1166.349, 2.746109
1166.832, 2.872908
1167.314, 2.601432
1167.796, 2.288652
1168.278, 1.969720
1168.760, 1.647073
1169.242, 1.067906
1169.724, 0.7519970
1170.206, 1.363288
1170.689, 2.395306
1171.171, 2.496796
1171.653, 1.687899
1172.135, 1.066211
1172.617, 0.8241760
1173.099, 0.8578650
1173.581, 1.489555
1174.063, 2.140329
1174.546, 2.205794
1175.028, 1.823036
1175.510, 1.688282
1175.992, 1.819111
1176.474, 1.709971
1176.956, 1.202777
1177.438, 0.5309310
1177.920, 0.1877550
1178.402, 0.7109090
1178.885, 0.4144350
1179.367, 3.114851
1179.849, 5.242424
1180.331, 5.910479
1180.813, 6.288547
1181.295, 6.873483
1181.777, 7.055927
1182.259, 5.829022
1182.742, 4.094382
1183.224, 2.776479
1183.706, 2.011179
1184.188, 1.392075
1184.670, 0.8932920
1185.152, 0.7598270
1185.634, 1.258954
1186.116, 1.881700
1186.599, 2.088388
1187.081, 1.988524
1187.563, 1.829947
1188.045, 1.706569
1188.527, 0.8245130
1189.009, 0.1098580
1189.491, 1.154012
1189.973, 0.4861390
1190.455, 1.872623
1190.938, 1.994468
1191.420, 1.070558
1191.902, 1.166298
1192.384, 3.419205
1192.866, 4.059401
1193.348, 2.755708
1193.830, 1.480173
1194.312, 1.994637
1194.794, 2.882354
1195.277, 1.853498
1195.759, 6.0072999E-02
1196.241, 0.2597780
1196.723, 0.8750570
1197.205, 2.049646
1197.687, 2.755164
1198.169, 3.062877
1198.651, 2.693794
1199.134, 2.175258
1199.616, 2.423100
1200.098, 3.070685
1200.580, 3.124117
1201.062, 1.872641
1201.544, 1.494266
1202.026, 2.307924
1202.508, 3.044889
1202.990, 2.106225
1203.473, 0.7809320
1203.955, 0.7613930
1204.437, 1.826234
1204.919, 3.166015
1205.401, 5.052067
1205.883, 6.255838
1206.365, 6.689617
1206.847, 6.481277
1207.329, 5.066180
1207.812, 3.575675
1208.294, 4.012506
1208.776, 5.791043
1209.258, 6.048129
1209.740, 3.635873
1210.222, 1.958085
1210.704, 1.336787
1211.186, 1.691717
1211.669, 3.993397
1212.151, 6.489752
1212.633, 6.426013
1213.115, 4.276478
1213.597, 3.402448
1214.079, 4.870919
1214.561, 5.159281
1215.043, 3.526253
1215.526, 1.584397
1216.008, 1.151792
1216.490, 1.469615
1216.972, 1.595777
1217.454, 1.508595
1217.936, 1.754825
1218.418, 2.532707
1218.900, 2.997030
1219.382, 2.962492
1219.865, 2.786330
1220.347, 2.843252
1220.829, 3.000858
1221.311, 3.141901
1221.793, 3.243185
1222.275, 3.236231
1222.757, 3.040595
1223.239, 3.220790
1223.722, 4.038231
1224.204, 4.575105
1224.686, 3.197842
1225.168, 1.461499
1225.650, 1.135418
1226.132, 2.222580
1226.614, 2.812895
1227.096, 2.794422
1227.578, 3.013535
1228.061, 3.754963
1228.543, 4.275969
1229.025, 3.328141
1229.507, 2.111732
1229.989, 1.991809
1230.471, 2.862049
1230.953, 2.847308
1231.435, 1.806748
1231.917, 1.093332
1232.400, 0.9988710
1232.882, 1.373041
1233.364, 2.801238
1233.846, 4.052626
1234.328, 3.711927
1234.810, 2.073763
1235.292, 1.076108
1235.774, 0.6936290
1236.257, 0.7832150
1236.739, 1.563391
1237.221, 2.153768
1237.703, 1.531928
1238.185, 0.5950370
1238.667, 6.2861003E-02
1239.149, 0.1167910
1239.631, 0.3239570
1240.114, 0.3913980
1240.596, 6.5733999E-02
1241.078, 1.411255
1241.560, 2.685811
1242.042, 2.493652
1242.524, 2.103223
1243.006, 2.482372
1243.488, 3.333079
1243.970, 3.597483
1244.453, 3.294249
1244.935, 2.421004
1245.417, 0.8095590
1245.899, 0.2706670
1246.381, 0.4879820
1246.863, 1.764463
1247.345, 2.584143
1247.827, 2.961796
1248.309, 2.534260
1248.792, 1.565030
1249.274, 1.257226
1249.756, 2.005319
1250.238, 2.639205
1250.720, 2.419620
1251.202, 1.907473
1251.684, 1.279403
1252.166, 0.5778290
1252.649, 0.4030040
1253.131, 0.4811930
1253.613, 5.6285001E-02
1254.095, 1.499883
1254.577, 2.968786
1255.059, 1.649820
1255.541, 0.6696950
1256.023, 1.282255
1256.505, 2.644300
1256.988, 3.044034
1257.470, 2.861832
1257.952, 2.831480
1258.434, 3.112785
1258.916, 3.465575
1259.398, 4.086445
1259.880, 4.218884
1260.362, 3.447407
1260.844, 2.390601
1261.327, 1.974677
1261.809, 1.983149
1262.291, 2.119081
1262.773, 2.348541
1263.255, 2.576373
1263.737, 2.792526
1264.219, 2.982030
1264.701, 3.153500
1265.184, 3.305089
1265.666, 3.252164
1266.148, 3.301306
1266.630, 4.012209
1267.112, 5.434733
1267.594, 6.017363
1268.076, 5.701381
1268.558, 5.163539
1269.041, 4.513036
1269.523, 3.962827
1270.005, 3.746957
1270.487, 3.732067
1270.969, 3.785982
1271.451, 3.856784
1271.933, 4.533499
1272.415, 5.711244
1272.897, 6.201661
1273.380, 5.664104
1273.862, 4.789797
1274.344, 3.631930
1274.826, 2.757024
1275.308, 2.415029
1275.790, 2.449755
1276.272, 2.340009
1276.754, 2.180310
1277.237, 2.640349
1277.719, 3.882480
1278.201, 4.354500
1278.683, 2.984980
1279.165, 1.819695
1279.647, 2.012456
1280.129, 2.764191
1280.611, 2.222402
1281.094, 0.8568490
1281.576, 8.3095998E-02
1282.058, 0.1116670
1282.540, 8.1089996E-03
1283.022, 2.8472001E-02
1283.504, 0.2103650
1283.986, 0.3902460
1284.468, 1.202611
1284.950, 2.044405
1285.432, 2.728050
1285.915, 2.799554
1286.397, 2.235508
1286.879, 1.950483
1287.361, 2.109754
1287.843, 2.249947
1288.325, 2.244728
1288.807, 2.289387
1289.289, 2.747623
1289.772, 3.261082
1290.254, 3.532868
1290.736, 3.500071
1291.218, 2.898019
1291.700, 1.582715
1292.182, 1.086543
1292.664, 1.606920
1293.146, 2.122199
1293.629, 1.952731
1294.111, 1.448013
1294.593, 0.6589750
1295.075, 4.8916999E-02
1295.557, 0.3683720
1296.039, 1.744502
1296.521, 2.154849
1297.003, 1.415232
1297.485, 0.6477390
1297.968, 0.4843400
1298.450, 0.5109820
1298.932, 0.4808680
1299.414, 0.5573110
1299.896, 0.3175280
1300.378, 1.0265000E-02
1300.860, 0.4643020
1301.342, 1.764348
1301.824, 1.744506
1302.307, 0.0000000E+00
##END=



