##NAMES=Xanthoconite
##RRUFFID=R080013
##IDEAL CHEMISTRY=Ag_3_AsS_3_
##LOCALITY=Imiter mine, Djebel Sarhro, 20 km. from Quarzazate, Anti Atlas Mountains, Morocco
##OWNER=RRUFF
##SOURCE=William W. Pinch
##DESCRIPTION=Brown to orange tabular crystals, in groups and singles, associated with red elongated prisms of proustite
##STATUS=The identification of this mineral is confirmed by single-crystal X-ray diffraction and chemical analysis.
##URL=rruff.info/R080013
##MEASURED CHEMISTRY=Ag_2.54_Sb_0.05_As_1.03_S_3_
125.2259, 0.0000000E+00
125.7081, 0.1060790
126.1902, 1.478088
126.6723, 3.162033
127.1544, 5.181061
127.6365, 7.817154
128.1186, 10.40329
128.6008, 12.64233
129.0829, 14.78616
129.5650, 17.13605
130.0471, 19.69075
130.5292, 22.52887
131.0113, 25.85289
131.4935, 29.53018
131.9756, 33.08380
132.4577, 36.30304
132.9398, 39.33212
133.4219, 42.69521
133.9040, 46.49857
134.3862, 50.06514
134.8683, 52.64868
135.3504, 54.25670
135.8325, 55.01842
136.3146, 54.89503
136.7967, 53.93213
137.2789, 52.54491
137.7610, 50.70871
138.2431, 48.53255
138.7252, 46.06973
139.2073, 43.20967
139.6894, 40.15935
140.1716, 37.07327
140.6537, 33.95032
141.1358, 31.31337
141.6179, 29.18187
142.1000, 27.32915
142.5821, 25.56758
143.0643, 23.66597
143.5464, 21.55324
144.0285, 20.09439
144.5106, 19.85785
144.9927, 19.04277
145.4748, 17.76309
145.9570, 15.84544
146.4391, 14.01324
146.9212, 12.55316
147.4033, 11.20642
147.8854, 9.743500
148.3675, 7.976624
148.8497, 6.748795
149.3318, 6.325867
149.8139, 6.541794
150.2960, 6.257385
150.7781, 4.876389
151.2602, 3.310959
151.7424, 2.087448
152.2245, 1.202454
152.7066, 0.6932370
153.1887, 0.8453520
153.6708, 1.536942
154.1529, 1.825775
154.6351, 1.341690
155.1172, 0.6511540
155.5993, 0.1304470
156.0814, 6.2697999E-02
156.5635, 0.1961360
157.0456, 0.2995300
157.5278, 0.3721010
158.0099, 0.4638520
158.4920, 0.5097810
158.9741, 0.6103820
159.4562, 0.8538970
159.9383, 1.690414
160.4205, 2.247498
160.9026, 2.098450
161.3847, 1.182816
161.8668, 0.4600680
162.3489, 0.4534300
162.8310, 0.7206420
163.3132, 0.8080440
163.7953, 0.5109410
164.2774, 0.1305240
164.7595, 2.1271000E-02
165.2416, 0.1271820
165.7237, 5.3374998E-02
166.2059, 1.419144
166.6880, 3.238739
167.1701, 4.292023
167.6522, 3.140717
168.1343, 1.536789
168.6164, 0.8049320
169.0986, 1.099991
169.5807, 1.704071
170.0628, 2.870224
170.5449, 4.308319
171.0270, 5.295975
171.5091, 4.911453
171.9913, 4.172287
172.4734, 4.300369
172.9555, 5.749603
173.4376, 7.199234
173.9197, 7.571274
174.4018, 6.859528
174.8840, 5.984222
175.3661, 5.700974
175.8482, 5.979156
176.3303, 6.496658
176.8124, 7.124344
177.2945, 7.769669
177.7767, 8.481094
178.2588, 9.249802
178.7409, 9.820908
179.2230, 9.937546
179.7051, 9.648407
180.1872, 9.111633
180.6694, 8.167511
181.1515, 7.314133
181.6336, 7.715134
182.1157, 9.143539
182.5978, 10.27519
183.0799, 10.04303
183.5621, 8.803970
184.0442, 8.008728
184.5263, 8.010880
185.0084, 8.455658
185.4905, 8.805725
185.9726, 9.062454
186.4547, 9.317230
186.9369, 9.788361
187.4190, 10.41129
187.9011, 10.78247
188.3832, 10.80469
188.8653, 10.54668
189.3474, 10.07004
189.8296, 9.361938
190.3117, 8.691711
190.7938, 8.301376
191.2759, 8.164703
191.7580, 8.089188
192.2401, 8.067352
192.7223, 8.055603
193.2044, 8.016968
193.6865, 7.973953
194.1686, 7.832382
194.6507, 7.370407
195.1328, 6.610687
195.6150, 6.142838
196.0971, 6.218857
196.5792, 6.674667
197.0613, 6.900421
197.5434, 6.853073
198.0255, 6.665329
198.5077, 6.527908
198.9898, 6.462036
199.4719, 6.193451
199.9540, 5.548416
200.4361, 4.663132
200.9182, 4.246902
201.4004, 4.372025
201.8825, 4.655960
202.3646, 4.712906
202.8467, 4.513992
203.3288, 4.474976
203.8109, 4.804077
204.2931, 5.451889
204.7752, 5.764236
205.2573, 5.619965
205.7394, 5.214645
206.2215, 4.828033
206.7036, 4.519913
207.1858, 4.188049
207.6679, 3.713898
208.1500, 3.112427
208.6321, 2.941010
209.1142, 3.345322
209.5963, 3.922256
210.0785, 4.273315
210.5606, 4.405167
211.0427, 4.178833
211.5248, 3.401260
212.0069, 2.106735
212.4890, 1.558426
212.9712, 2.043976
213.4533, 2.834381
213.9354, 3.064133
214.4175, 2.514969
214.8996, 1.955811
215.3817, 1.534241
215.8639, 1.261032
216.3460, 1.322052
216.8281, 1.860703
217.3102, 2.528427
217.7923, 2.954269
218.2744, 3.233948
218.7566, 3.122208
219.2387, 2.454010
219.7208, 1.191544
220.2029, 0.3346250
220.6850, 1.5427000E-02
221.1671, 7.7728003E-02
221.6493, 0.3421630
222.1314, 1.058807
222.6135, 1.269272
223.0956, 0.5530240
223.5777, 1.188675
224.0598, 2.211243
224.5420, 2.306885
225.0241, 1.876678
225.5062, 1.259277
225.9883, 0.2148900
226.4704, 0.5334170
226.9525, 0.7353210
227.4347, 0.3594060
227.9168, 1.0680000E-03
228.3989, 0.3634190
228.8810, 0.6725770
229.3631, 0.8496700
229.8452, 0.8711850
230.3274, 0.8070530
230.8095, 0.6276860
231.2916, 0.3187710
231.7737, 0.1887210
232.2558, 0.2271270
232.7379, 0.4450380
233.2201, 0.9353330
233.7022, 2.067551
234.1843, 2.739044
234.6664, 2.557251
235.1485, 1.507675
235.6306, 0.8865050
236.1128, 0.8883060
236.5949, 1.113113
237.0770, 1.166534
237.5591, 0.8737790
238.0412, 0.7531130
238.5233, 0.9754640
239.0055, 1.542099
239.4876, 1.869537
239.9697, 1.843552
240.4518, 1.709930
240.9339, 1.735718
241.4160, 2.199905
241.8982, 2.243942
242.3803, 1.480621
242.8624, 4.6645999E-02
243.3445, 0.7568360
243.8266, 0.2495120
244.3087, 0.6105040
244.7909, 1.116379
245.2730, 1.111023
245.7551, 1.055695
246.2372, 0.9744720
246.7193, 0.8750920
247.2014, 0.9233090
247.6836, 1.324142
248.1657, 1.617218
248.6478, 1.361481
249.1299, 9.6313000E-02
249.6120, 0.7025760
250.0941, 0.7275390
250.5762, 8.0306999E-02
251.0584, 0.4684750
251.5405, 1.058868
252.0226, 1.358932
252.5047, 1.047073
252.9868, 0.2615050
253.4689, 1.290161
253.9511, 1.916489
254.4332, 2.148849
254.9153, 2.015823
255.3974, 1.306900
255.8795, 0.5583040
256.3617, 7.7591002E-02
256.8438, 0.1783140
257.3259, 3.6224000E-02
257.8080, 0.7546230
258.2901, 1.949799
258.7722, 2.521240
259.2544, 2.164764
259.7365, 1.665512
260.2186, 1.421402
260.7007, 1.447495
261.1828, 1.793961
261.6649, 2.763931
262.1471, 3.950653
262.6292, 4.000000
263.1113, 2.327454
263.5934, 0.7406310
264.0755, 0.2677460
264.5576, 1.321732
265.0398, 1.967804
265.5219, 2.032135
266.0040, 1.765030
266.4861, 1.750153
266.9682, 2.114456
267.4503, 2.340973
267.9325, 2.099991
268.4146, 1.190826
268.8967, 0.7717130
269.3788, 0.9814760
269.8609, 1.595200
270.3430, 2.231216
270.8252, 2.962234
271.3073, 3.259888
271.7894, 2.794601
272.2715, 1.500671
272.7536, 0.5238490
273.2357, 9.5581003E-02
273.7179, 0.4522860
274.2000, 0.6122440
274.6821, 0.5000150
275.1642, 0.6468660
275.6463, 1.395599
276.1284, 2.741394
276.6106, 3.396545
277.0927, 3.162537
277.5748, 2.572556
278.0569, 2.354782
278.5390, 2.579849
279.0211, 2.858994
279.5032, 3.023209
279.9854, 3.074020
280.4675, 3.456833
280.9496, 4.357712
281.4317, 5.281830
281.9138, 5.399323
282.3959, 4.630127
282.8781, 4.178741
283.3602, 4.358185
283.8423, 5.063522
284.3244, 6.085083
284.8065, 7.531891
285.2886, 8.916611
285.7708, 9.584946
286.2529, 9.589310
286.7350, 9.998047
287.2171, 11.18269
287.6992, 12.79263
288.1813, 13.75870
288.6635, 14.04575
289.1456, 14.30640
289.6277, 15.14174
290.1098, 16.47241
290.5919, 17.68288
291.0740, 18.68155
291.5562, 19.55600
292.0383, 20.21701
292.5204, 20.69698
293.0025, 21.56889
293.4846, 23.56084
293.9667, 26.33055
294.4489, 28.61748
294.9310, 30.20186
295.4131, 31.36673
295.8952, 32.42174
296.3773, 33.39371
296.8594, 34.39903
297.3416, 35.27525
297.8237, 36.25565
298.3058, 37.94669
298.7879, 40.48360
299.2700, 43.32962
299.7521, 45.93033
300.2343, 48.31798
300.7164, 50.42645
301.1985, 51.86786
301.6806, 53.23070
302.1627, 55.43257
302.6448, 58.53024
303.1270, 61.84338
303.6091, 64.73366
304.0912, 67.38242
304.5733, 70.31046
305.0554, 73.72069
305.5375, 77.49142
306.0197, 81.43930
306.5018, 85.54907
306.9839, 89.92038
307.4660, 94.80017
307.9481, 99.91417
308.4302, 104.8000
308.9124, 108.8240
309.3945, 113.0815
309.8766, 118.5018
310.3587, 125.0211
310.8408, 132.0271
311.3229, 139.3201
311.8051, 146.8957
312.2872, 154.6204
312.7693, 162.7797
313.2514, 170.7029
313.7335, 177.6073
314.2156, 183.9018
314.6978, 190.8929
315.1799, 199.7520
315.6620, 209.2039
316.1441, 218.1305
316.6262, 226.2791
317.1083, 234.3864
317.5905, 242.7521
318.0726, 251.2297
318.5547, 259.7081
319.0368, 267.6732
319.5189, 275.9092
320.0010, 284.8124
320.4832, 294.6466
320.9653, 304.5455
321.4474, 313.9322
321.9295, 323.2885
322.4116, 333.1922
322.8937, 344.1719
323.3759, 355.3707
323.8580, 366.5609
324.3401, 377.6195
324.8222, 388.9718
325.3043, 400.7739
325.7864, 412.8652
326.2686, 425.1274
326.7507, 437.4973
327.2328, 450.0504
327.7149, 463.2866
328.1970, 476.9360
328.6791, 489.4137
329.1613, 500.3933
329.6434, 510.3769
330.1255, 519.6445
330.6076, 529.3153
331.0897, 536.5818
331.5718, 541.0109
332.0540, 542.9932
332.5361, 543.8702
333.0182, 545.0679
333.5003, 543.2979
333.9824, 537.0761
334.4645, 525.3737
334.9467, 512.1748
335.4288, 497.2866
335.9109, 481.1209
336.3930, 464.7558
336.8751, 448.3674
337.3572, 431.0267
337.8394, 412.0468
338.3215, 391.5169
338.8036, 370.9292
339.2857, 349.8081
339.7678, 329.3913
340.2499, 310.5996
340.7321, 293.8505
341.2142, 278.2045
341.6963, 263.7028
342.1784, 250.2339
342.6605, 237.4983
343.1426, 225.5547
343.6248, 214.5648
344.1069, 204.6360
344.5890, 195.8983
345.0711, 188.6236
345.5532, 183.0246
346.0353, 178.7906
346.5175, 175.5375
346.9996, 173.2322
347.4817, 171.6868
347.9638, 170.7054
348.4459, 170.3708
348.9280, 170.9909
349.4102, 172.5914
349.8923, 175.1040
350.3744, 178.2568
350.8565, 182.1579
351.3386, 187.3358
351.8207, 194.7321
352.3029, 203.2832
352.7850, 210.9391
353.2671, 217.7137
353.7492, 225.4761
354.2313, 236.1264
354.7134, 248.8124
355.1956, 262.2100
355.6777, 275.5518
356.1598, 289.6098
356.6419, 305.4854
357.1240, 322.9701
357.6061, 341.0013
358.0883, 359.0055
358.5704, 377.2812
359.0525, 396.0151
359.5346, 415.6641
360.0167, 435.0455
360.4988, 452.8193
360.9810, 469.6548
361.4631, 486.9245
361.9452, 505.8290
362.4273, 524.9155
362.9094, 543.0035
363.3915, 559.4420
363.8737, 576.9915
364.3558, 596.2283
364.8379, 617.1080
365.3200, 639.4289
365.8021, 662.9250
366.2842, 688.0627
366.7664, 714.8916
367.2485, 743.5519
367.7306, 773.3907
368.2127, 804.1526
368.6948, 836.1445
369.1769, 869.8503
369.6591, 905.5997
370.1412, 942.8267
370.6233, 982.1842
371.1054, 1023.224
371.5875, 1064.526
372.0696, 1106.158
372.5518, 1147.468
373.0339, 1189.331
373.5160, 1234.890
373.9981, 1272.525
374.4802, 1302.580
374.9623, 1324.811
375.4445, 1339.671
375.9266, 1349.703
376.4087, 1345.602
376.8908, 1324.178
377.3729, 1285.592
377.8550, 1235.016
378.3372, 1171.901
378.8193, 1099.588
379.3014, 1019.568
379.7835, 930.6025
380.2656, 844.7543
380.7477, 763.8406
381.2299, 688.1712
381.7120, 616.5127
382.1941, 549.3883
382.6762, 488.2365
383.1583, 435.6038
383.6404, 390.2578
384.1226, 349.5945
384.6047, 313.5380
385.0868, 281.6260
385.5689, 253.1123
386.0510, 228.0312
386.5331, 206.0952
387.0153, 187.9078
387.4974, 172.2736
387.9795, 157.3859
388.4616, 143.2169
388.9437, 130.2574
389.4258, 119.2267
389.9080, 109.5241
390.3901, 100.4800
390.8722, 91.83577
391.3543, 83.80472
391.8364, 76.53473
392.3185, 70.11157
392.8007, 64.56657
393.2828, 60.61356
393.7649, 57.09462
394.2470, 53.13998
394.7291, 48.25061
395.2112, 43.96040
395.6934, 41.27171
396.1755, 39.38803
396.6576, 37.14209
397.1397, 33.51913
397.6218, 30.20819
398.1039, 27.85045
398.5861, 26.54485
399.0682, 25.21072
399.5503, 23.90768
400.0324, 22.44470
400.5145, 20.68900
400.9966, 18.14009
401.4788, 15.98520
401.9609, 14.38632
402.4430, 13.24995
402.9251, 12.20462
403.4072, 11.20979
403.8893, 10.35812
404.3714, 9.797211
404.8535, 9.692871
405.3357, 9.144196
405.8178, 8.048798
406.2999, 6.642029
406.7820, 5.118698
407.2641, 3.366623
407.7462, 2.187378
408.2284, 2.039719
408.7105, 2.669922
409.1926, 2.661072
409.6747, 1.953705
410.1568, 1.097717
410.6389, 0.5018460
411.1211, 0.1529770
411.6032, 5.2901998E-02
412.0853, 8.4243998E-02
412.5674, 6.7443997E-02
413.0495, 0.2895200
413.5316, 0.6918260
414.0138, 0.9606780
414.4959, 0.7165830
414.9780, 0.3113170
415.4601, 0.3117520
415.9422, 0.7733230
416.4243, 1.347054
416.9065, 1.889397
417.3886, 2.336670
417.8707, 2.562767
418.3528, 2.250031
418.8349, 1.983681
419.3170, 2.353218
419.7992, 3.186684
420.2813, 3.635704
420.7634, 2.861870
421.2455, 1.908401
421.7276, 1.531097
422.2097, 2.173729
422.6919, 2.615677
423.1740, 2.328484
423.6561, 1.711922
424.1382, 1.382813
424.6203, 1.667633
425.1024, 2.010262
425.5846, 2.303047
426.0667, 2.539810
426.5488, 2.743782
427.0309, 3.005302
427.5130, 3.159325
427.9951, 3.081749
428.4773, 2.662308
428.9594, 2.248039
429.4415, 1.811531
429.9236, 1.412766
430.4057, 1.261162
430.8878, 1.452248
431.3700, 1.582230
431.8521, 1.419220
432.3342, 0.9640580
432.8163, 0.7550660
433.2984, 0.8548280
433.7805, 0.9820560
434.2627, 0.6773150
434.7448, 1.0086000E-02
435.2269, 0.2601470
435.7090, 0.2691960
436.1911, 1.097839
436.6732, 1.098175
437.1554, 0.3694380
437.6375, 0.3101960
438.1196, 0.2176060
438.6017, 0.2037730
439.0838, 0.2400890
439.5659, 0.2077480
440.0481, 0.9388350
440.5302, 2.150269
441.0123, 3.476700
441.4944, 4.304825
441.9765, 3.984543
442.4586, 3.424599
442.9408, 3.155861
443.4229, 3.159996
443.9050, 3.158203
444.3871, 3.013466
444.8692, 2.847771
445.3513, 2.745117
445.8335, 2.754410
446.3156, 2.764336
446.7977, 2.676125
447.2798, 2.589043
447.7619, 2.682098
448.2440, 3.124519
448.7262, 3.584419
449.2083, 3.989471
449.6904, 4.335747
450.1725, 4.728127
450.6546, 5.314232
451.1367, 5.762825
451.6189, 5.709801
452.1010, 4.856850
452.5831, 4.589836
453.0652, 5.247215
453.5473, 6.332825
454.0294, 6.627869
454.5116, 6.024246
454.9937, 5.523369
455.4758, 5.684586
455.9579, 6.365608
456.4400, 6.737495
456.9221, 6.778305
457.4043, 6.678200
457.8864, 6.594246
458.3685, 6.523163
458.8506, 6.412613
459.3327, 6.174095
459.8148, 6.026413
460.2970, 6.399628
460.7791, 7.124161
461.2612, 7.637115
461.7433, 7.333603
462.2254, 6.859840
462.7076, 6.828346
463.1897, 7.326782
463.6718, 7.866386
464.1539, 8.186066
464.6360, 8.402809
465.1181, 8.638725
465.6003, 9.182579
466.0824, 9.492088
466.5645, 9.211548
467.0466, 8.533257
467.5287, 8.194534
468.0108, 8.654648
468.4930, 9.122086
468.9751, 9.262711
469.4572, 8.898476
469.9393, 8.898094
470.4214, 9.535042
470.9035, 10.28223
471.3857, 10.52479
471.8678, 10.07886
472.3499, 9.719383
472.8320, 9.588646
473.3141, 9.620140
473.7962, 9.601471
474.2784, 9.520592
474.7605, 9.398972
475.2426, 9.161545
475.7247, 8.875793
476.2068, 8.999748
476.6889, 9.601677
477.1711, 10.20831
477.6532, 10.29470
478.1353, 9.991463
478.6174, 9.649567
479.0995, 9.252541
479.5816, 8.965874
480.0638, 9.051651
480.5459, 9.420082
481.0280, 9.748848
481.5101, 9.767380
481.9922, 9.720879
482.4743, 9.851898
482.9565, 10.26044
483.4386, 10.41563
483.9207, 9.890205
484.4028, 9.093018
484.8849, 8.448708
485.3670, 8.008400
485.8492, 7.807999
486.3313, 8.114380
486.8134, 8.771111
487.2955, 8.981674
487.7776, 8.435867
488.2597, 7.795357
488.7419, 7.270401
489.2240, 6.860405
489.7061, 6.657822
490.1882, 6.739380
490.6703, 6.936325
491.1524, 7.080429
491.6346, 7.170296
492.1167, 7.222908
492.5988, 7.235504
493.0809, 7.227989
493.5630, 7.306404
494.0451, 7.445045
494.5273, 7.500854
495.0094, 7.411644
495.4915, 7.196281
495.9736, 6.773048
496.4557, 6.104225
496.9378, 5.546783
497.4200, 5.538559
497.9021, 5.853821
498.3842, 6.151649
498.8663, 6.370087
499.3484, 6.438210
499.8305, 6.146866
500.3127, 5.643257
500.7948, 5.324760
501.2769, 5.531082
501.7590, 5.795677
502.2411, 5.917694
502.7232, 5.877502
503.2054, 5.731224
503.6875, 5.281654
504.1696, 4.866180
504.6517, 4.751350
505.1338, 5.245392
505.6159, 5.496338
506.0981, 5.384109
506.5802, 5.046371
507.0623, 4.790665
507.5444, 4.620224
508.0265, 4.507362
508.5086, 4.486809
508.9908, 4.527565
509.4729, 4.337547
509.9550, 3.865990
510.4371, 3.438507
510.9192, 3.465530
511.4013, 3.820282
511.8835, 3.971275
512.3655, 3.802185
512.8477, 3.484665
513.3298, 3.093071
513.8119, 2.725693
514.2940, 2.588585
514.7761, 2.980591
515.2582, 3.473076
515.7404, 3.786469
516.2225, 3.921974
516.7046, 3.924225
517.1867, 3.739410
517.6688, 3.476013
518.1509, 3.194427
518.6331, 2.851814
519.1152, 2.624039
519.5973, 2.676918
520.0794, 2.786911
520.5615, 2.666878
521.0436, 1.967545
521.5258, 1.613274
522.0079, 1.880127
522.4900, 2.610588
522.9721, 3.035240
523.4542, 3.086945
523.9363, 3.018524
524.4185, 2.912323
524.9006, 2.763206
525.3827, 2.736557
525.8648, 2.871262
526.3469, 2.999306
526.8290, 2.869247
527.3112, 2.551987
527.7933, 2.334770
528.2754, 2.287392
528.7575, 2.402435
529.2396, 2.708145
529.7217, 3.139198
530.2039, 3.458611
530.6860, 3.517082
531.1681, 3.446365
531.6502, 3.346054
532.1323, 3.217850
532.6144, 2.991173
533.0966, 2.392647
533.5787, 1.837440
534.0608, 1.633934
534.5429, 2.141731
535.0250, 2.537155
535.5071, 2.689468
535.9893, 2.686913
536.4714, 2.642044
536.9535, 2.473480
537.4356, 2.446304
537.9177, 2.672920
538.3998, 3.101563
538.8820, 3.425560
539.3641, 3.652885
539.8462, 3.683632
540.3283, 3.337555
540.8104, 2.693268
541.2925, 2.297173
541.7747, 2.193596
542.2568, 2.243629
542.7389, 2.341385
543.2210, 2.465805
543.7031, 2.562622
544.1852, 2.607483
544.6674, 2.657280
545.1495, 2.860199
545.6316, 3.107124
546.1137, 3.109734
546.5958, 2.313789
547.0779, 1.596550
547.5601, 1.560982
548.0422, 2.259010
548.5243, 2.738358
549.0064, 2.455307
549.4885, 2.131897
549.9706, 2.255112
550.4528, 3.364555
550.9349, 3.887421
551.4170, 3.595749
551.8991, 2.899124
552.3812, 2.355309
552.8633, 1.970627
553.3455, 1.710457
553.8276, 1.584557
554.3097, 1.565689
554.7918, 1.565567
555.2739, 1.587997
555.7560, 1.685242
556.2382, 1.990616
556.7203, 2.354851
557.2024, 2.400215
557.6845, 2.117859
558.1666, 1.836082
558.6487, 1.878731
559.1309, 2.069008
559.6130, 2.170609
560.0951, 2.073448
560.5772, 1.980080
561.0593, 1.948524
561.5414, 1.990349
562.0236, 2.127533
562.5057, 2.651711
562.9878, 2.980537
563.4699, 2.836441
563.9520, 2.275459
564.4341, 1.898354
564.9163, 1.778122
565.3984, 1.739418
565.8805, 1.703629
566.3626, 1.669655
566.8447, 1.655235
567.3268, 1.673645
567.8090, 1.667389
568.2911, 1.522766
568.7732, 1.269424
569.2553, 1.145317
569.7374, 1.191086
570.2195, 1.393448
570.7017, 1.909828
571.1838, 2.602608
571.6659, 3.031273
572.1480, 2.787506
572.6301, 2.347153
573.1122, 2.114899
573.5944, 2.065414
574.0765, 1.946213
574.5586, 1.433441
575.0407, 0.9725490
575.5228, 0.8722920
576.0049, 1.346741
576.4871, 1.683594
576.9692, 1.873878
577.4513, 1.879951
577.9334, 1.600151
578.4155, 0.7573850
578.8976, 0.3052750
579.3798, 0.4822690
579.8619, 1.032402
580.3440, 1.331146
580.8261, 1.359550
581.3082, 1.281281
581.7903, 1.147224
582.2725, 0.9604420
582.7546, 0.6493070
583.2367, 0.2348180
583.7188, 2.8919999E-03
584.2009, 0.4333880
584.6830, 1.046104
585.1652, 1.039307
585.6473, 0.1873700
586.1294, 0.4297640
586.6115, 0.1570890
587.0936, 1.157913
587.5757, 1.733559
588.0579, 1.286446
588.5400, 0.8475110
589.0221, 0.5808870
589.5042, 0.4480590
589.9863, 0.3648450
590.4684, 0.4184650
590.9506, 0.3704530
591.4327, 9.7893000E-02
591.9148, 0.3519130
592.3969, 0.5299840
592.8790, 0.3800200
593.3611, 0.2081990
593.8433, 0.2185290
594.3254, 0.3806460
594.8075, 0.5713040
595.2896, 0.7972180
595.7717, 0.9206700
596.2538, 0.7040940
596.7360, 0.3098450
597.2181, 2.0477001E-02
597.7002, 9.3039997E-02
598.1823, 7.5347997E-02
598.6644, 0.1831440
599.1465, 0.5325240
599.6287, 0.7148440
600.1108, 0.4101720
600.5929, 0.1688390
601.0750, 0.2679600
601.5571, 0.6434860
602.0392, 0.7228390
602.5214, 0.2567210
603.0035, 0.1758580
603.4856, 0.3401410
603.9677, 0.2216260
604.4498, 1.7170000E-03
604.9319, 0.3824230
605.4141, 0.6869130
605.8962, 0.5669780
606.3783, 0.1123660
606.8604, 2.8252000E-02
607.3425, 0.2909240
607.8246, 0.6637950
608.3068, 0.5753170
608.7889, 0.1752010
609.2710, 0.2181240
609.7531, 0.5178910
610.2352, 0.7397690
610.7173, 0.9532930
611.1995, 1.102608
611.6816, 1.042427
612.1637, 0.4924240
612.6458, 4.8439000E-02
613.1279, 0.4591670
613.6100, 0.7262340
614.0922, 0.6748660
614.5743, 0.1075360
615.0564, 0.5207440
615.5385, 0.9875870
616.0206, 1.299179
616.5027, 1.409927
616.9849, 1.281204
617.4670, 1.069839
617.9491, 0.9143300
618.4312, 0.8226780
618.9133, 0.8558040
619.3954, 1.050072
619.8776, 1.309021
620.3597, 1.492958
620.8418, 1.654518
621.3239, 1.906075
621.8060, 2.524284
622.2881, 3.039627
622.7703, 3.076424
623.2524, 2.752274
623.7345, 2.557724
624.2166, 2.737122
624.6987, 2.957527
625.1808, 3.082573
625.6630, 3.102203
626.1451, 3.152245
626.6272, 3.210808
627.1093, 3.334244
627.5914, 3.563332
628.0735, 3.900421
628.5557, 4.347816
629.0378, 4.946144
629.5199, 5.491165
630.0020, 5.735672
630.4841, 5.731468
630.9662, 5.611229
631.4484, 5.339119
631.9305, 5.115990
632.4126, 5.193718
632.8947, 5.461548
633.3768, 5.696053
633.8589, 5.618622
634.3411, 5.676659
634.8232, 6.223564
635.3053, 7.142242
635.7874, 7.714325
636.2695, 7.411087
636.7516, 7.261681
637.2338, 7.739639
637.7159, 8.899879
638.1980, 9.371796
638.6801, 8.919418
639.1622, 8.452263
639.6443, 8.806213
640.1265, 9.862831
640.6086, 10.62292
641.0907, 10.99076
641.5728, 11.13859
642.0549, 11.12717
642.5370, 11.05289
643.0192, 11.10081
643.5013, 11.35303
643.9834, 11.65746
644.4655, 12.03453
644.9476, 12.41425
645.4297, 12.72354
645.9119, 12.76190
646.3940, 12.92496
646.8761, 13.43909
647.3582, 14.18055
647.8403, 14.65281
648.3224, 14.77341
648.8046, 14.78988
649.2867, 14.74108
649.7688, 14.63708
650.2509, 14.77608
650.7330, 15.20280
651.2151, 15.58176
651.6973, 15.52591
652.1794, 15.24101
652.6615, 15.27730
653.1436, 15.68586
653.6257, 16.11861
654.1078, 16.46393
654.5900, 16.63596
655.0721, 16.48095
655.5542, 15.73710
656.0363, 15.11931
656.5184, 14.86357
657.0005, 14.84009
657.4827, 14.91013
657.9648, 15.23357
658.4469, 15.42772
658.9290, 15.45153
659.4111, 15.28596
659.8932, 14.84012
660.3754, 14.08379
660.8575, 13.49680
661.3396, 13.24504
661.8217, 13.28069
662.3038, 13.64290
662.7859, 14.25462
663.2681, 14.66170
663.7502, 14.47897
664.2323, 14.05847
664.7144, 13.72865
665.1965, 13.49163
665.6786, 13.13609
666.1608, 12.39279
666.6429, 11.68053
667.1250, 11.26588
667.6071, 11.30582
668.0892, 11.28476
668.5714, 11.20164
669.0535, 11.06081
669.5356, 10.82000
670.0177, 10.43261
670.4998, 10.29944
670.9819, 10.51240
671.4641, 10.81165
671.9462, 10.86096
672.4283, 10.70451
672.9104, 10.43269
673.3925, 10.05668
673.8746, 9.603653
674.3568, 8.945831
674.8389, 8.240379
675.3210, 7.832596
675.8031, 8.178078
676.2852, 8.534904
676.7673, 8.590462
677.2495, 8.386871
677.7316, 8.233040
678.2137, 8.121704
678.6958, 8.090843
679.1779, 8.197166
679.6600, 8.428955
680.1422, 8.514687
680.6243, 8.460358
681.1064, 8.235794
681.5885, 7.637520
682.0706, 6.848083
682.5527, 6.556084
683.0349, 6.805916
683.5170, 7.074364
683.9991, 6.840317
684.4812, 6.449089
684.9633, 6.311607
685.4454, 6.603752
685.9276, 6.845528
686.4097, 6.932251
686.8918, 6.858253
687.3739, 6.591232
687.8560, 5.817680
688.3381, 5.435150
688.8203, 5.635544
689.3024, 6.108910
689.7845, 6.342445
690.2666, 6.321228
690.7487, 6.261436
691.2308, 6.208122
691.7130, 6.158630
692.1951, 6.139946
692.6772, 6.125427
693.1593, 6.020996
693.6414, 5.621185
694.1235, 5.244759
694.6057, 5.251030
695.0878, 5.530067
695.5699, 5.609818
696.0520, 5.008842
696.5341, 4.508148
697.0162, 4.539902
697.4984, 5.093941
697.9805, 5.190514
698.4626, 4.602348
698.9447, 4.024200
699.4268, 3.895241
699.9089, 4.188301
700.3911, 4.427956
700.8732, 4.626083
701.3553, 4.623962
701.8374, 4.033333
702.3195, 3.219513
702.8016, 2.853935
703.2838, 3.064285
703.7659, 3.414345
704.2480, 3.825348
704.7301, 4.146156
705.2122, 4.226486
705.6943, 3.913231
706.1765, 3.547523
706.6586, 2.943382
707.1407, 2.444763
707.6228, 2.539711
708.1049, 3.433823
708.5870, 4.068275
709.0692, 4.250526
709.5513, 4.169479
710.0334, 4.163246
710.5155, 4.194603
710.9976, 4.045189
711.4797, 3.466682
711.9618, 2.908180
712.4439, 2.962761
712.9260, 3.406227
713.4081, 3.696304
713.8903, 3.573990
714.3724, 3.327408
714.8545, 2.897873
715.3366, 2.363621
715.8187, 2.249218
716.3008, 2.848953
716.7830, 3.404289
717.2651, 3.626255
717.7472, 3.527161
718.2293, 3.388512
718.7114, 3.228451
719.1935, 3.171795
719.6757, 3.364162
720.1578, 3.733723
720.6399, 4.122131
721.1220, 4.467556
721.6041, 4.679649
722.0862, 4.609478
722.5684, 4.535492
723.0505, 4.677708
723.5326, 5.099377
724.0147, 5.473259
724.4968, 5.787659
724.9789, 5.976280
725.4611, 5.992020
725.9432, 5.798988
726.4253, 5.601284
726.9074, 5.354160
727.3895, 5.234211
727.8716, 5.563538
728.3538, 6.208477
728.8359, 6.590919
729.3180, 6.577362
729.8001, 6.472691
730.2822, 6.502293
730.7643, 6.636120
731.2465, 6.866631
731.7286, 7.146606
732.2107, 7.460835
732.6928, 7.955284
733.1749, 8.449738
733.6570, 8.643459
734.1392, 8.346443
734.6213, 8.206024
735.1034, 8.314445
735.5855, 8.530472
736.0676, 7.673920
736.5497, 8.534405
737.0319, 9.008034
737.5140, 9.117229
737.9961, 7.761082
738.4782, 8.301689
738.9603, 8.078438
739.4424, 7.821972
739.9246, 8.623390
740.4067, 7.476307
740.8888, 8.261608
741.3709, 8.273216
741.8530, 8.637531
742.3351, 8.240974
742.8173, 8.128963
743.2994, 8.801826
743.7815, 9.020012
744.2636, 8.545380
744.7457, 8.940781
745.2278, 8.434826
745.7100, 8.320919
746.1921, 8.001038
746.6742, 7.656918
747.1563, 7.300064
747.6384, 6.979328
748.1205, 6.764893
748.6027, 6.518845
749.0848, 6.088261
749.5669, 5.458771
750.0490, 5.082508
750.5311, 5.233379
751.0132, 5.395416
751.4954, 5.333275
751.9775, 5.031033
752.4596, 4.692394
752.9417, 4.289822
753.4238, 3.970505
753.9059, 3.968498
754.3881, 4.114891
754.8702, 3.901203
755.3523, 3.291775
755.8344, 2.729263
756.3165, 2.499699
756.7986, 2.465981
757.2808, 2.592140
757.7629, 3.002567
758.2450, 3.087860
758.7271, 2.421524
759.2092, 1.669533
759.6913, 1.285053
760.1735, 1.361107
760.6556, 1.448750
761.1377, 1.559193
761.6198, 1.616493
762.1019, 1.500584
762.5840, 1.255943
763.0662, 1.028351
763.5483, 0.8396910
764.0304, 0.6866990
764.5125, 0.6062280
764.9946, 0.5481990
765.4767, 0.4473150
765.9589, 0.1941760
766.4410, 6.3545004E-02
766.9231, 0.2330670
767.4052, 0.4638710
767.8873, 0.4784660
768.3694, 0.1835140
768.8516, 7.6926999E-02
769.3337, 0.2748760
769.8158, 0.5306360
770.2979, 0.4419710
770.7800, 9.3829997E-02
771.2621, 0.2155950
771.7443, 0.4237590
772.2264, 0.5308340
772.7085, 0.4454460
773.1906, 0.2848850
773.6727, 0.2233280
774.1548, 0.5428430
774.6370, 0.6699710
775.1191, 0.3431550
775.6012, 0.1498570
776.0833, 0.3609010
776.5654, 0.2611240
777.0475, 4.6069998E-02
777.5297, 0.6686710
778.0118, 1.272247
778.4939, 1.082756
778.9760, 0.3167800
779.4581, 0.2019810
779.9402, 4.2210001E-02
780.4224, 0.2831990
780.9045, 0.4618150
781.3866, 0.5020940
781.8687, 0.4149320
782.3508, 9.1370001E-02
782.8329, 0.2301860
783.3151, 0.5606990
783.7972, 0.8388860
784.2793, 0.8961980
784.7614, 0.6872900
785.2435, 0.4978900
785.7256, 0.3846970
786.2078, 0.3643610
786.6899, 0.6270030
787.1720, 1.049839
787.6541, 1.166145
788.1362, 0.3793070
788.6183, 0.4030110
789.1005, 0.5118940
789.5826, 0.1436460
790.0647, 0.2138790
790.5468, 0.6276590
791.0289, 0.7897570
791.5110, 0.4643290
791.9932, 0.1021580
792.4753, 1.8634999E-02
792.9574, 0.8149570
793.4395, 1.400803
793.9216, 1.297474
794.4037, 0.8299180
794.8859, 0.5383530
795.3680, 0.4051020
795.8501, 0.3925250
796.3322, 0.6028790
796.8143, 0.8088610
797.2964, 0.8330760
797.7786, 0.7393300
798.2607, 0.7733880
798.7428, 1.281086
799.2249, 1.401379
799.7070, 0.7298930
800.1891, 0.3855670
800.6713, 0.6994970
801.1534, 0.1979520
801.6355, 0.3196490
802.1176, 0.5053220
802.5997, 0.5315480
803.0818, 0.6923830
803.5640, 0.9377980
804.0461, 1.002266
804.5282, 0.5588300
805.0103, 0.2195890
805.4924, 0.3520660
805.9745, 0.8355710
806.4567, 1.069592
806.9388, 0.8993420
807.4209, 0.8102490
807.9030, 0.9680750
808.3851, 1.281189
808.8672, 1.505119
809.3494, 1.641605
809.8315, 1.681278
810.3136, 1.526505
810.7957, 1.332298
811.2778, 1.338440
811.7599, 1.452023
812.2421, 1.407700
812.7242, 0.8074190
813.2063, 0.3750950
813.6884, 0.4078220
814.1705, 0.7702750
814.6526, 1.067558
815.1348, 1.313427
815.6169, 1.436474
816.0990, 1.360577
816.5811, 1.209473
817.0632, 1.324352
817.5453, 1.628735
818.0275, 1.805759
818.5096, 1.513165
818.9917, 1.221390
819.4738, 1.307667
819.9559, 1.636345
820.4380, 1.844475
820.9202, 1.798641
821.4023, 1.701164
821.8844, 1.561104
822.3665, 1.405094
822.8486, 1.288212
823.3307, 1.209721
823.8129, 1.247368
824.2950, 1.493710
824.7771, 1.771091
825.2592, 1.794125
825.7413, 1.641842
826.2234, 1.503876
826.7056, 1.410988
827.1877, 1.399597
827.6698, 1.563164
828.1519, 1.795895
828.6340, 1.928837
829.1161, 1.923534
829.5983, 1.871456
830.0804, 1.803532
830.5625, 1.705292
831.0446, 1.401680
831.5267, 0.9757000
832.0089, 0.9072880
832.4910, 1.607670
832.9731, 2.327419
833.4552, 2.233234
833.9373, 1.705570
834.4194, 1.398701
834.9016, 1.759354
835.3837, 1.941269
835.8658, 1.812828
836.3479, 1.535088
836.8300, 1.279015
837.3121, 1.013893
837.7943, 0.8387410
838.2764, 0.7594760
838.7585, 0.7648320
839.2406, 0.8863600
839.7227, 1.085846
840.2048, 1.288158
840.6870, 1.476162
841.1691, 1.622734
841.6512, 1.716942
842.1333, 1.765949
842.6154, 1.797375
843.0975, 1.853592
843.5797, 1.693501
844.0618, 1.191929
844.5439, 0.6967660
845.0260, 0.7005620
845.5081, 1.102112
845.9902, 1.403431
846.4724, 1.485817
846.9545, 1.514305
847.4366, 1.653980
847.9187, 1.818275
848.4008, 1.919842
848.8829, 1.980331
849.3651, 1.838249
849.8472, 1.280155
850.3293, 0.7068900
850.8114, 0.3994330
851.2935, 0.3498760
851.7756, 0.4887470
852.2578, 0.8480490
852.7399, 1.124672
853.2220, 0.8885800
853.7041, 0.4571650
854.1862, 0.3651010
854.6683, 0.6823010
855.1505, 1.020733
855.6326, 1.327950
856.1147, 1.491562
856.5968, 1.360855
857.0789, 0.8732300
857.5610, 0.7406650
858.0432, 1.032623
858.5253, 1.315628
859.0074, 1.378922
859.4895, 1.234005
859.9716, 0.7420160
860.4537, 4.3292999E-02
860.9359, 0.4906430
861.4180, 0.1281620
861.9001, 0.9509240
862.3822, 1.419289
862.8643, 1.500668
863.3464, 1.413044
863.8286, 0.9590640
864.3107, 0.7440490
864.7928, 1.141964
865.2749, 1.920212
865.7570, 1.871948
866.2391, 1.046539
866.7213, 0.2924880
867.2034, 3.9585002E-02
867.6855, 1.4988000E-02
868.1676, 0.5347820
868.6497, 1.394272
869.1318, 1.931805
869.6140, 1.716400
870.0961, 1.412121
870.5782, 1.111935
871.0603, 0.8550610
871.5424, 0.7829480
872.0245, 0.9195440
872.5067, 1.099434
872.9888, 1.325386
873.4709, 1.478985
873.9530, 1.309414
874.4351, 0.9383540
874.9172, 0.6331630
875.3994, 0.4707070
875.8815, 0.4025990
876.3636, 0.4223560
876.8457, 0.5233920
877.3278, 0.7059100
877.8099, 1.027515
878.2921, 1.248344
878.7742, 1.323944
879.2563, 1.348503
879.7384, 1.453384
880.2205, 1.604996
880.7026, 1.723740
881.1848, 1.806431
881.6669, 1.791782
882.1490, 1.476448
882.6311, 1.145134
883.1132, 1.113331
883.5953, 1.667252
884.0775, 1.640194
884.5596, 0.6632040
885.0417, 0.2017140
885.5238, 0.1085550
886.0059, 1.330601
886.4880, 1.703590
886.9702, 1.193855
887.4523, 0.6789670
887.9344, 0.9787030
888.4165, 1.423576
888.8986, 1.355564
889.3807, 0.7417490
889.8629, 0.3869210
890.3450, 0.6009860
890.8271, 0.7911380
891.3092, 0.6804280
891.7913, 0.3677860
892.2734, 0.4695780
892.7556, 0.9648630
893.2377, 1.358761
893.7198, 1.372940
894.2019, 1.168274
894.6840, 0.7203600
895.1661, 0.1783330
895.6483, 1.0834000E-02
896.1304, 0.7023850
896.6125, 1.275509
897.0946, 1.491287
897.5767, 1.449081
898.0588, 1.358105
898.5410, 1.212162
899.0231, 0.8920520
899.5052, 0.2589040
899.9873, 0.2578540
900.4694, 2.8339000E-02
900.9515, 0.7577170
901.4337, 1.344685
901.9158, 1.671597
902.3979, 1.748497
902.8800, 1.253464
903.3621, 0.7378310
903.8442, 0.7382660
904.3264, 1.394863
904.8085, 1.725800
905.2906, 1.667980
905.7727, 1.427433
906.2548, 1.097473
906.7369, 0.7610970
907.2191, 0.5927390
907.7012, 0.6154520
908.1833, 0.5972860
908.6654, 0.2791940
909.1475, 4.4009998E-02
909.6296, 0.1551210
910.1118, 0.6033400
910.5939, 0.8626630
911.0760, 0.9136730
911.5581, 0.8507920
912.0402, 0.6112440
912.5223, 0.3606720
913.0045, 0.5321160
913.4866, 1.004986
913.9687, 1.328369
914.4508, 1.195889
914.9329, 0.9656140
915.4150, 0.7117770
915.8972, 0.4844440
916.3793, 0.4108850
916.8614, 0.5331730
917.3435, 0.6447450
917.8256, 0.7181510
918.3077, 0.7101330
918.7899, 0.4535140
919.2720, 0.1349490
919.7541, 2.5471000E-02
920.2362, 0.2882540
920.7183, 0.5391690
921.2004, 0.5230060
921.6826, 0.4689560
922.1647, 0.6328050
922.6468, 1.198044
923.1289, 1.391354
923.6110, 1.122044
924.0931, 0.7812540
924.5753, 0.8043440
925.0574, 1.025665
925.5395, 1.102623
926.0216, 1.015221
926.5037, 0.8688770
926.9858, 0.6778680
927.4680, 0.4830280
927.9501, 0.2644620
928.4322, 3.5335999E-02
928.9143, 4.5494001E-02
929.3964, 0.3723950
929.8785, 0.6498220
930.3607, 0.7090720
930.8428, 0.6211240
931.3249, 0.4785690
931.8070, 0.3178670
932.2891, 0.2587390
932.7712, 0.4560620
933.2534, 0.6517720
933.7355, 0.7853130
934.2176, 0.8310430
934.6997, 0.7275960
935.1818, 0.3925320
935.6639, 0.1889800
936.1461, 0.1637340
936.6282, 0.2743000
937.1103, 0.6216430
937.5924, 1.031731
938.0745, 1.026821
938.5566, 0.3998760
939.0388, 1.1864000E-02
939.5209, 0.5636180
940.0030, 1.237114
940.4851, 1.270767
940.9672, 0.5286450
941.4493, 0.2991290
941.9315, 0.6915780
942.4136, 1.081551
942.8957, 0.9416500
943.3778, 0.5509000
943.8599, 0.3989450
944.3420, 0.4514770
944.8242, 0.5059360
945.3063, 0.5072560
945.7884, 0.4471630
946.2705, 0.2539060
946.7526, 7.2820000E-03
947.2347, 7.9577997E-02
947.7169, 4.2570001E-03
948.1990, 0.1917270
948.6811, 0.4961360
949.1632, 0.8243100
949.6453, 1.158344
950.1274, 1.386963
950.6096, 1.282124
951.0917, 0.5571020
951.5738, 7.0230002E-03
952.0559, 0.1520040
952.5380, 5.6503002E-02
953.0201, 0.2314000
953.5023, 0.7869870
953.9844, 0.8792460
954.4665, 0.4518090
954.9486, 1.8565999E-02
955.4307, 0.1378750
955.9128, 6.9214001E-02
956.3950, 4.4599999E-04
956.8771, 5.7518002E-02
957.3591, 0.1274640
957.8412, 0.1894110
958.3234, 0.3038250
958.8055, 0.5040630
959.2876, 0.7453800
959.7697, 0.8631740
960.2518, 0.8522800
960.7339, 0.8128130
961.2161, 0.7543600
961.6982, 0.7364040
962.1803, 0.9221690
962.6624, 1.148933
963.1445, 1.162422
963.6266, 0.6634410
964.1088, 0.2881510
964.5909, 6.5865003E-02
965.0730, 2.5108000E-02
965.5551, 4.2273998E-02
966.0372, 0.2442550
966.5193, 0.3463900
967.0015, 0.3295750
967.4836, 0.3464740
967.9657, 0.6597100
968.4478, 0.9460640
968.9299, 0.8246380
969.4120, 0.2840500
969.8942, 0.1295360
970.3763, 0.6262660
970.8584, 1.011265
971.3405, 0.9805830
971.8226, 0.6827050
972.3047, 0.4870260
972.7869, 0.3799710
973.2690, 0.3016850
973.7511, 0.2272990
974.2332, 0.1762500
974.7153, 0.2011910
975.1974, 0.2377780
975.6796, 0.1885530
976.1617, 9.9830003E-03
976.6438, 0.1498910
977.1259, 0.3029370
977.6080, 0.3715060
978.0901, 0.2151300
978.5723, 6.9430999E-02
979.0544, 0.3315050
979.5365, 0.5523800
980.0186, 0.6202350
980.5007, 0.2035030
980.9828, 9.9857002E-02
981.4650, 8.2386002E-02
981.9471, 0.6524540
982.4292, 0.9712790
982.9113, 1.025623
983.3934, 0.9637570
983.8755, 0.7784120
984.3577, 0.6042630
984.8398, 0.6532590
985.3219, 0.8369940
985.8040, 0.9913100
986.2861, 1.080124
986.7682, 0.4797590
987.2504, 1.348793
987.7325, 1.829433
988.2146, 1.942535
988.6967, 0.5872420
989.1788, 1.128109
989.6609, 0.9091070
990.1431, 0.6589390
990.6252, 1.466713
991.1073, 0.3250770
991.5894, 1.116127
992.0715, 1.135704
992.5536, 1.508389
993.0358, 1.116516
993.5179, 0.9608150
994.0000, 1.569931
994.4821, 1.762123
994.9642, 1.291302
995.4464, 1.686501
995.9285, 0.5183220
996.4106, 0.7220650
996.8927, 1.517113
997.3748, 1.075825
997.8569, 1.485115
998.3391, 1.570477
998.8212, 0.1836660
999.3033, 1.357143
999.7854, 1.423401
1000.268, 0.3527410
1000.750, 1.438618
1001.232, 0.5248300
1001.714, 0.3248140
1002.196, 1.141735
1002.678, 0.6447870
1003.160, 1.448925
1003.642, 1.864754
1004.124, 1.913212
1004.607, 0.4929810
1005.089, 0.9669340
1005.571, 0.6831440
1006.053, 0.3683510
1006.535, 1.111473
1007.017, 9.4829999E-02
1007.499, 0.6314890
1007.981, 0.5863420
1008.464, 0.8941120
1008.946, 0.4375040
1009.428, 0.2167970
1009.910, 0.7558670
1010.392, 0.8752290
1010.874, 0.3306540
1011.356, 0.6611250
1011.838, 0.4034960
1012.320, 1.048439
1012.803, 1.465996
1013.285, 1.109062
1013.767, 0.7417300
1014.249, 0.8473090
1014.731, 1.174294
1015.213, 1.168377
1015.695, 0.7715680
1016.177, 0.3750500
1016.659, 2.1300999E-02
1017.142, 0.2202610
1017.624, 0.2928920
1018.106, 0.1824040
1018.588, 0.2216760
1019.070, 1.024410
1019.552, 1.516594
1020.034, 1.336349
1020.516, 1.099262
1020.999, 1.082500
1021.481, 1.241676
1021.963, 1.387882
1022.445, 1.505768
1022.927, 1.478699
1023.409, 1.118343
1023.891, 0.7489430
1024.373, 0.5517880
1024.855, 0.5073470
1025.338, 0.5973090
1025.820, 0.9354820
1026.302, 1.054630
1026.784, 0.8428500
1027.266, 0.6962430
1027.748, 1.320477
1028.230, 2.192612
1028.712, 2.185463
1029.195, 1.265629
1029.677, 0.5330770
1030.159, 0.5593570
1030.641, 0.7296680
1031.123, 0.8610800
1031.605, 0.9423940
1032.087, 0.9127660
1032.569, 0.7787780
1033.052, 0.6493760
1033.534, 0.5444830
1034.016, 0.4937670
1034.498, 0.5682910
1034.980, 0.6777150
1035.462, 0.7143820
1035.944, 0.6349790
1036.426, 0.6191750
1036.908, 0.6829530
1037.391, 0.7586250
1037.873, 0.9049110
1038.355, 1.064373
1038.837, 1.041611
1039.319, 0.8855090
1039.801, 0.7763290
1040.283, 0.9016760
1040.765, 0.9637410
1041.247, 0.7769130
1041.730, 0.5244410
1042.212, 0.5574340
1042.694, 0.8825190
1043.176, 0.9508290
1043.658, 0.6447450
1044.140, 0.3887980
1044.622, 0.7170940
1045.104, 1.180862
1045.587, 1.315689
1046.069, 1.049400
1046.551, 0.8717730
1047.033, 0.8155210
1047.515, 0.8251150
1047.997, 0.9262770
1048.479, 1.027103
1048.961, 0.8538590
1049.443, 0.5205690
1049.926, 0.3279460
1050.408, 0.5239750
1050.890, 0.6207960
1051.372, 0.2724840
1051.854, 0.1027110
1052.336, 0.1448210
1052.818, 0.1679340
1053.300, 0.3934860
1053.782, 0.5274660
1054.265, 0.5697480
1054.747, 0.4189000
1055.229, 0.2627300
1055.711, 0.3641170
1056.193, 0.6258510
1056.675, 0.6355210
1057.157, 0.1282500
1057.639, 6.9862001E-02
1058.122, 0.7841450
1058.604, 1.553398
1059.086, 1.128994
1059.568, 0.1034620
1060.050, 0.2764400
1060.532, 0.2410050
1061.014, 0.7060700
1061.496, 0.5746730
1061.979, 0.4095230
1062.461, 0.5529060
1062.943, 0.9088400
1063.425, 0.9835780
1063.907, 0.8073840
1064.389, 0.6771320
1064.871, 0.7391240
1065.353, 0.8218650
1065.835, 0.7974130
1066.318, 0.6999320
1066.800, 0.5436970
1067.282, 0.2222520
1067.764, 0.2701640
1068.246, 0.7802510
1068.728, 1.217995
1069.210, 1.038376
1069.692, 0.6000560
1070.174, 0.4334560
1070.657, 0.5171930
1071.139, 0.7129440
1071.621, 1.246727
1072.103, 1.497353
1072.585, 1.260883
1073.067, 0.8400460
1073.549, 0.7046590
1074.031, 0.7906880
1074.514, 0.7961880
1074.996, 0.6640010
1075.478, 0.5425870
1075.960, 0.5114670
1076.442, 0.5572850
1076.924, 0.7161330
1077.406, 0.9473880
1077.888, 0.9614980
1078.370, 0.7432210
1078.853, 0.6286130
1079.335, 0.7929190
1079.817, 0.9669150
1080.299, 0.8280910
1080.781, 0.5241810
1081.263, 0.2474820
1081.745, 8.8963002E-02
1082.227, 0.1411710
1082.709, 0.1795960
1083.192, 0.5618520
1083.674, 0.8461190
1084.156, 1.030945
1084.638, 1.088676
1085.120, 1.042934
1085.602, 0.9766430
1086.084, 0.9442250
1086.566, 0.8593330
1087.048, 0.6074260
1087.531, 0.3876570
1088.013, 0.5187150
1088.495, 0.9540250
1088.977, 1.118210
1089.459, 0.9715650
1089.941, 0.7823790
1090.423, 0.6423150
1090.905, 0.6113780
1091.388, 0.8569180
1091.870, 1.259060
1092.352, 1.318115
1092.834, 0.9938050
1093.316, 0.5608220
1093.798, 9.8400004E-04
1094.280, 0.3657530
1094.762, 9.9812001E-02
1095.245, 0.8560330
1095.727, 1.210812
1096.209, 0.9821430
1096.691, 0.8242230
1097.173, 0.8347130
1097.655, 0.7859340
1098.137, 0.5167310
1098.619, 0.1774750
1099.101, 0.1789170
1099.583, 0.3978040
1100.066, 0.5155910
1100.548, 0.3328550
1101.030, 0.1981090
1101.512, 0.1873440
1101.994, 0.2815210
1102.476, 0.4928930
1102.958, 0.7908520
1103.440, 1.072826
1103.923, 1.330200
1104.405, 1.451199
1104.887, 1.283405
1105.369, 1.052750
1105.851, 0.8734930
1106.333, 0.7186010
1106.815, 0.4889180
1107.297, 0.1329460
1107.780, 0.1604040
1108.262, 0.6684720
1108.744, 1.146118
1109.226, 1.012497
1109.708, 0.6925350
1110.190, 0.6945880
1110.672, 1.002071
1111.154, 0.9395370
1111.636, 0.2226750
1112.119, 0.1054800
1112.601, 0.3147540
1113.083, 0.9493220
1113.565, 0.9972720
1114.047, 0.6905020
1114.529, 0.3871270
1115.011, 0.1090970
1115.493, 0.1271930
1115.975, 0.7923160
1116.458, 1.312683
1116.940, 1.349339
1117.422, 1.005943
1117.904, 0.3600920
1118.386, 0.3700940
1118.868, 0.5605700
1119.350, 0.3214000
1119.832, 1.187363
1120.315, 1.679077
1120.797, 1.875999
1121.279, 1.771149
1121.761, 1.368767
1122.243, 1.065632
1122.725, 0.8652000
1123.207, 0.8239360
1123.689, 1.192471
1124.172, 1.505287
1124.654, 1.395874
1125.136, 1.044064
1125.618, 0.7782820
1126.100, 0.6009180
1126.582, 0.5053630
1127.064, 0.4916730
1127.546, 0.5551220
1128.028, 0.8018460
1128.510, 1.039928
1128.993, 1.007011
1129.475, 0.7635120
1129.957, 0.6805530
1130.439, 0.8563540
1130.921, 0.9981380
1131.403, 1.077904
1131.885, 1.048199
1132.367, 0.7142300
1132.850, 0.2927890
1133.332, 0.1372830
1133.814, 0.2939070
1134.296, 0.4544180
1134.778, 0.5480270
1135.260, 0.6504550
1135.742, 0.8056760
1136.224, 0.9552840
1136.707, 1.009281
1137.189, 0.9546970
1137.671, 0.6997800
1138.153, 0.1228450
1138.635, 0.2253610
1139.117, 5.3715002E-02
1139.599, 0.4209630
1140.081, 0.6358180
1140.563, 0.7461590
1141.046, 0.9945140
1141.528, 1.319931
1142.010, 1.394394
1142.492, 0.8857770
1142.974, 0.4560590
1143.456, 0.5319750
1143.938, 0.7833630
1144.420, 0.9239390
1144.902, 0.9518740
1145.385, 0.9451900
1145.867, 0.9021380
1146.349, 0.7806320
1146.831, 0.3759080
1147.313, 6.7920998E-02
1147.795, 0.1478000
1148.277, 0.5032730
1148.759, 1.008190
1149.242, 1.804405
1149.724, 1.828350
1150.206, 0.9682350
1150.688, 0.1244770
1151.170, 0.1635930
1151.652, 0.4973180
1152.134, 0.5855640
1152.616, 0.4699780
1153.099, 0.3171920
1153.581, 6.8943001E-02
1154.063, 0.1278920
1154.545, 0.6271590
1155.027, 1.086605
1155.509, 0.7947270
1155.991, 0.2486380
1156.473, 7.9124004E-02
1156.955, 0.3156970
1157.438, 0.5894580
1157.920, 0.9999390
1158.402, 1.062885
1158.884, 0.5575370
1159.366, 8.4720999E-02
1159.848, 0.2135390
1160.330, 3.0727001E-02
1160.812, 0.1534000
1161.294, 0.2959060
1161.777, 0.3593480
1162.259, 0.2872050
1162.741, 0.2155150
1163.223, 0.1426320
1163.705, 0.1584170
1164.187, 0.6613240
1164.669, 1.380600
1165.151, 1.627022
1165.634, 1.050224
1166.116, 0.6297420
1166.598, 0.7536430
1167.080, 0.9143600
1167.562, 0.8481410
1168.044, 0.6268840
1168.526, 0.6124880
1169.008, 0.7435910
1169.490, 0.7935030
1169.973, 0.5940860
1170.455, 0.4663240
1170.937, 0.6263390
1171.419, 0.7621960
1171.901, 0.5998950
1172.383, 0.2042960
1172.865, 9.5440000E-02
1173.347, 0.2443080
1173.829, 0.4724390
1174.312, 0.8550070
1174.794, 1.096428
1175.276, 0.9120480
1175.758, 0.6523360
1176.240, 0.6897390
1176.722, 1.020252
1177.204, 0.9785350
1177.686, 0.5543790
1178.169, 0.2685360
1178.651, 0.7039830
1179.133, 1.081169
1179.615, 0.7979850
1180.097, 0.3135070
1180.579, 0.3535580
1181.061, 0.9274020
1181.543, 1.283020
1182.026, 1.362583
1182.508, 1.300621
1182.990, 1.123692
1183.472, 0.9187550
1183.954, 0.6620140
1184.436, 0.3956490
1184.918, 0.3963660
1185.400, 0.6859700
1185.882, 0.7926450
1186.365, 0.6410060
1186.847, 0.4911190
1187.329, 0.5540470
1187.811, 0.7070010
1188.293, 0.8866040
1188.775, 1.073967
1189.257, 1.221291
1189.739, 1.330307
1190.221, 1.384090
1190.704, 1.382893
1191.186, 1.305885
1191.668, 1.066540
1192.150, 0.7995410
1192.632, 0.6222340
1193.114, 0.5300450
1193.596, 0.4451180
1194.078, 0.3632700
1194.561, 0.3253100
1195.043, 0.3448300
1195.525, 0.4020960
1196.007, 0.5550730
1196.489, 0.6653060
1196.971, 0.5692520
1197.453, 0.2468530
1197.935, 0.2669370
1198.417, 0.6839030
1198.900, 0.9669530
1199.382, 0.8903730
1199.864, 0.6980820
1200.346, 0.4882240
1200.828, 0.4011840
1201.310, 0.7024500
1201.792, 1.477489
1202.274, 1.814903
1202.756, 1.674477
1203.239, 1.447308
1203.721, 1.313076
1204.203, 1.157555
1204.685, 0.7436520
1205.167, 0.2839780
1205.649, 8.7246001E-02
1206.131, 0.2039340
1206.613, 0.4789240
1207.096, 0.9597550
1207.578, 1.192268
1208.060, 0.7823870
1208.542, 0.1932030
1209.024, 0.2805710
1209.506, 0.5054440
1209.988, 0.1280020
1210.470, 1.191906
1210.953, 1.632755
1211.435, 1.097599
1211.917, 0.4970630
1212.399, 0.4027020
1212.881, 0.5270200
1213.363, 0.6213300
1213.845, 0.7027820
1214.327, 0.8102460
1214.809, 0.9729160
1215.292, 1.067490
1215.774, 1.084663
1216.256, 1.096092
1216.738, 1.186077
1217.220, 1.256245
1217.702, 1.189831
1218.184, 1.066479
1218.666, 1.025635
1219.148, 1.129124
1219.631, 1.030815
1220.113, 0.6901440
1220.595, 0.4062390
1221.077, 0.4732670
1221.559, 0.6500660
1222.041, 0.7611200
1222.523, 0.8045270
1223.005, 0.8085370
1223.488, 0.7939950
1223.970, 0.5845530
1224.452, 0.1345210
1224.934, 0.1232190
1225.416, 0.4547960
1225.898, 1.103004
1226.380, 1.065601
1226.862, 0.5848580
1227.344, 0.4236410
1227.827, 0.6414380
1228.309, 0.8305470
1228.791, 0.9589350
1229.273, 1.015415
1229.755, 0.9159390
1230.237, 0.8096660
1230.719, 0.7883150
1231.201, 0.8647120
1231.683, 1.108398
1232.166, 1.560242
1232.648, 1.595646
1233.130, 1.119305
1233.612, 0.6958960
1234.094, 0.8806760
1234.576, 1.194767
1235.058, 1.311165
1235.540, 1.278908
1236.023, 1.240387
1236.505, 1.196407
1236.987, 1.096771
1237.469, 0.9345170
1237.951, 0.7248460
1238.433, 0.2658880
1238.915, 1.8944001E-02
1239.397, 0.4436610
1239.880, 1.187740
1240.362, 0.9548840
1240.844, 0.1596640
1241.326, 0.4727480
1241.808, 0.3300060
1242.290, 1.079365
1242.772, 0.8280490
1243.254, 0.4456670
1243.736, 0.3780060
1244.219, 0.5204090
1244.701, 0.6570740
1245.183, 0.7777900
1245.665, 0.7534900
1246.147, 0.5430490
1246.629, 0.5336690
1247.111, 1.373898
1247.593, 1.946667
1248.075, 1.704529
1248.558, 0.9799540
1249.040, 0.4339790
1249.522, 8.2194999E-02
1250.004, 6.9808997E-02
1250.486, 0.4368020
1250.968, 0.8029710
1251.450, 1.064880
1251.932, 1.191822
1252.415, 1.163315
1252.897, 1.014511
1253.379, 0.7062870
1253.861, 0.3593640
1254.343, 0.3597340
1254.825, 0.8004530
1255.307, 1.070797
1255.789, 0.8457340
1256.271, 0.6005290
1256.754, 0.4336890
1257.236, 0.3458600
1257.718, 0.4566420
1258.200, 0.7353360
1258.682, 0.9163250
1259.164, 0.9632450
1259.646, 0.9246060
1260.128, 0.7244530
1260.610, 0.6679080
1261.093, 0.9121970
1261.575, 1.192585
1262.057, 1.073746
1262.539, 0.7438620
1263.021, 0.4195980
1263.503, 0.1276020
1263.985, 0.1150590
1264.467, 0.4684640
1264.950, 0.8241080
1265.432, 1.101479
1265.914, 1.251045
1266.396, 0.9677890
1266.878, 0.6106300
1267.360, 0.6992000
1267.842, 1.280285
1268.324, 1.362762
1268.807, 0.8685530
1269.289, 0.5289040
1269.771, 0.5849760
1270.253, 0.7371860
1270.735, 0.6654620
1271.217, 0.5671390
1271.699, 0.6765440
1272.181, 0.9404910
1272.663, 1.072220
1273.146, 1.042564
1273.628, 0.8807110
1274.110, 0.6495970
1274.592, 0.5368650
1275.074, 0.8926730
1275.556, 1.274410
1276.038, 1.424625
1276.520, 1.356247
1277.002, 0.9911160
1277.485, 0.4112630
1277.967, 0.1533160
1278.449, 0.4041980
1278.931, 0.6809160
1279.413, 0.7617650
1279.895, 0.7536240
1280.377, 0.6422270
1280.859, 0.5385210
1281.342, 0.9111630
1281.824, 1.519596
1282.306, 1.567551
1282.788, 0.7901040
1283.270, 0.2423710
1283.752, 0.3485910
1284.234, 0.5645710
1284.716, 0.7751310
1285.198, 0.8991810
1285.681, 0.5772020
1286.163, 0.1102260
1286.645, 0.1194880
1287.127, 0.7567180
1287.609, 1.081387
1288.091, 0.9169160
1288.573, 0.7155690
1289.055, 0.5914080
1289.537, 0.5457920
1290.020, 0.6199150
1290.502, 0.7449040
1290.984, 0.8548090
1291.466, 0.9397160
1291.948, 0.9651870
1292.430, 0.9338040
1292.912, 0.8636510
1293.394, 0.7523350
1293.877, 0.6445430
1294.359, 0.5446850
1294.841, 0.4994810
1295.323, 0.6369020
1295.805, 0.8567890
1296.287, 0.7343370
1296.769, 0.3012160
1297.251, 6.0999999E-04
1297.734, 7.5416997E-02
1298.216, 1.8990001E-02
1298.698, 0.1653860
1299.180, 0.4229700
1299.662, 0.8137780
1300.144, 1.177807
1300.626, 1.008377
1301.108, 0.4825130
1301.590, 9.9376999E-02
1302.073, 0.2177090
1302.555, 0.3909000
1303.037, 0.2282330
1303.519, 4.6310000E-02
1304.001, 7.7568002E-02
1304.483, 0.1043930
1304.965, 0.0000000E+00
##END=



