##NAMES=Xonotlite
##RRUFFID=R120029
##IDEAL CHEMISTRY=Ca_6_Si_6_O_17_(OH)_2_
##LOCALITY=Kalahari manganese fields, Northern Cape Province, South Africa
##OWNER=RRUFF
##SOURCE=Donald Doell
##DESCRIPTION=Colorless lathlike crystals
##STATUS=The identification of this mineral has been confirmed by single-crystal X-ray diffraction.
##URL=rruff.info/R120029
147.5291, 0.0000000E+00
148.0112, 5.1192999E-02
148.4933, 6.8699999E-04
148.9754, 0.1796040
149.4575, 0.2675860
149.9396, 0.5331340
150.4218, 0.7301030
150.9039, 1.144722
151.3860, 2.301628
151.8681, 4.603355
152.3502, 7.840515
152.8323, 10.29365
153.3145, 10.14296
153.7966, 10.96317
154.2787, 13.99516
154.7608, 18.73393
155.2429, 23.77940
155.7250, 28.12252
156.2072, 31.65729
156.6893, 36.12777
157.1714, 41.85447
157.6535, 48.02657
158.1356, 54.49037
158.6177, 61.15637
159.0999, 67.92047
159.5820, 74.69453
160.0641, 81.51456
160.5462, 88.72092
161.0283, 96.52361
161.5104, 104.2888
161.9926, 112.0007
162.4747, 119.2214
162.9568, 125.9663
163.4389, 131.8124
163.9210, 136.6875
164.4031, 137.7365
164.8853, 133.5775
165.3674, 125.5341
165.8495, 115.1111
166.3316, 101.9278
166.8137, 87.80887
167.2958, 73.63281
167.7780, 59.61688
168.2601, 47.28581
168.7422, 37.75751
169.2243, 30.60324
169.7064, 24.30772
170.1885, 18.78183
170.6707, 14.17727
171.1528, 10.60661
171.6349, 7.939835
172.1170, 5.618965
172.5991, 3.070496
173.0812, 0.2470700
173.5634, 1.793625
174.0455, 2.487755
174.5276, 2.723770
175.0097, 2.840614
175.4918, 2.842209
175.9739, 2.539703
176.4561, 1.623375
176.9382, 0.1990810
177.4203, 1.655334
177.9024, 2.876274
178.3845, 3.685753
178.8666, 3.790337
179.3488, 3.254402
179.8309, 2.493530
180.3130, 2.044090
180.7951, 1.873528
181.2772, 2.190475
181.7593, 3.016235
182.2415, 4.234261
182.7236, 5.942101
183.2057, 8.103706
183.6878, 10.30884
184.1699, 11.86399
184.6520, 11.90641
185.1342, 13.12165
185.6163, 16.50983
186.0984, 20.68729
186.5805, 24.26892
187.0626, 26.85186
187.5447, 28.72667
188.0269, 30.26980
188.5090, 31.48501
188.9911, 32.49364
189.4732, 32.90030
189.9553, 33.17504
190.4374, 34.13217
190.9196, 36.05074
191.4017, 38.68170
191.8838, 41.89822
192.3659, 45.75613
192.8480, 49.28913
193.3301, 51.73058
193.8123, 53.40379
194.2944, 55.59802
194.7765, 58.99167
195.2586, 62.56270
195.7407, 64.98013
196.2228, 66.21136
196.7050, 67.84213
197.1871, 71.05224
197.6692, 75.79582
198.1513, 81.08303
198.6334, 87.18797
199.1155, 93.42429
199.5977, 99.15680
200.0798, 104.4067
200.5619, 109.8633
201.0440, 116.5048
201.5261, 124.6654
202.0082, 132.0240
202.4904, 138.7891
202.9725, 144.2925
203.4546, 148.2365
203.9367, 150.5379
204.4188, 151.1655
204.9009, 149.9455
205.3831, 146.5521
205.8652, 142.1257
206.3473, 136.8586
206.8294, 130.6274
207.3115, 123.0022
207.7936, 114.1029
208.2758, 104.6759
208.7579, 95.79810
209.2400, 87.65284
209.7221, 79.74821
210.2042, 71.88990
210.6863, 64.38075
211.1685, 57.40651
211.6506, 50.99806
212.1327, 45.01935
212.6148, 39.15623
213.0969, 32.89380
213.5790, 28.20085
214.0612, 25.84270
214.5433, 24.45290
215.0254, 23.08515
215.5075, 21.49126
215.9896, 19.71511
216.4717, 17.75452
216.9539, 15.17860
217.4360, 13.60062
217.9181, 13.79134
218.4002, 14.61439
218.8823, 14.87450
219.3644, 14.28032
219.8466, 13.52350
220.3287, 13.54269
220.8108, 14.41901
221.2929, 15.57956
221.7750, 16.95200
222.2571, 18.57145
222.7393, 20.49992
223.2214, 22.75603
223.7035, 25.26330
224.1856, 27.91209
224.6677, 30.67443
225.1498, 33.77018
225.6320, 37.27085
226.1141, 41.13636
226.5962, 45.32281
227.0783, 49.86249
227.5604, 54.66073
228.0425, 59.63169
228.5247, 64.75386
229.0068, 70.26290
229.4889, 76.31932
229.9710, 82.83002
230.4531, 89.58891
230.9352, 96.56188
231.4174, 103.5794
231.8995, 111.0234
232.3816, 118.5708
232.8637, 125.2678
233.3458, 131.2626
233.8279, 136.2179
234.3101, 138.9667
234.7922, 139.3305
235.2743, 137.2391
235.7564, 132.5956
236.2385, 125.9555
236.7206, 118.2568
237.2028, 109.4998
237.6849, 100.1685
238.1670, 92.06184
238.6491, 85.62466
239.1312, 79.80799
239.6133, 74.06460
240.0955, 68.45973
240.5776, 63.09157
241.0597, 58.12164
241.5418, 53.18888
242.0239, 48.87993
242.5060, 44.01607
242.9882, 39.57576
243.4703, 35.49726
243.9524, 31.95990
244.4345, 29.25173
244.9166, 27.62082
245.3987, 26.84691
245.8809, 25.91962
246.3630, 24.43655
246.8451, 23.36602
247.3272, 23.00266
247.8093, 23.10751
248.2914, 23.32251
248.7736, 23.43021
249.2557, 23.59745
249.7378, 24.51773
250.2199, 26.95135
250.7020, 29.25575
251.1841, 31.17978
251.6663, 32.86534
252.1484, 34.50647
252.6305, 36.20875
253.1126, 37.87082
253.5947, 39.21103
254.0768, 40.27474
254.5590, 40.87217
255.0411, 40.59750
255.5232, 40.01269
256.0053, 39.71620
256.4874, 39.96278
256.9695, 40.60017
257.4517, 41.25858
257.9338, 41.63895
258.4159, 42.44030
258.8980, 44.03003
259.3801, 45.88657
259.8622, 47.57225
260.3444, 48.92435
260.8265, 49.87646
261.3086, 50.25486
261.7907, 49.02922
262.2728, 48.92587
262.7549, 51.09844
263.2371, 53.86364
263.7192, 55.66410
264.2013, 56.07299
264.6834, 55.43735
265.1655, 54.19959
265.6476, 52.11352
266.1298, 49.93350
266.6119, 47.70199
267.0940, 45.35634
267.5761, 42.65200
268.0582, 39.56459
268.5403, 36.73458
269.0225, 35.08317
269.5046, 35.07233
269.9867, 34.00624
270.4688, 30.35268
270.9509, 26.54246
271.4330, 24.95546
271.9152, 25.79466
272.3973, 27.13777
272.8794, 27.10421
273.3615, 25.56925
273.8436, 24.78779
274.3257, 25.22972
274.8079, 26.12505
275.2900, 27.11123
275.7721, 28.11212
276.2542, 28.67870
276.7363, 28.31588
277.2184, 27.13064
277.7006, 26.35197
278.1827, 26.48795
278.6648, 26.63445
279.1469, 26.29896
279.6290, 25.46391
280.1111, 24.00384
280.5933, 21.50770
281.0754, 18.42395
281.5575, 16.28402
282.0396, 15.92688
282.5217, 15.49146
283.0038, 13.57473
283.4860, 10.45831
283.9681, 7.595360
284.4502, 5.645153
284.9323, 4.371029
285.4144, 3.179806
285.8965, 2.085136
286.3787, 1.033646
286.8608, 9.2487000E-02
287.3429, 1.218773
287.8250, 2.107193
288.3071, 2.710007
288.7892, 2.974319
289.2714, 2.732616
289.7535, 1.903450
290.2356, 1.273090
290.7177, 1.472061
291.1998, 2.157280
291.6819, 2.372707
292.1641, 1.782635
292.6462, 0.9194450
293.1283, 0.2203670
293.6104, 0.3187070
294.0925, 0.4437260
294.5746, 0.2442970
295.0568, 1.367065
295.5389, 2.220331
296.0210, 2.750925
296.5031, 2.925577
296.9852, 2.460728
297.4673, 1.578255
297.9495, 0.8735430
298.4316, 0.8642580
298.9137, 1.019157
299.3958, 0.3893970
299.8779, 1.224998
300.3600, 2.744114
300.8422, 3.114258
301.3243, 2.944965
301.8064, 3.283813
302.2885, 4.515175
302.7706, 6.200367
303.2527, 7.932743
303.7349, 9.729000
304.2170, 11.43417
304.6991, 13.01986
305.1812, 14.43574
305.6633, 15.58671
306.1454, 16.38264
306.6276, 17.09604
307.1097, 18.15450
307.5918, 19.50785
308.0739, 20.27528
308.5560, 20.05043
309.0381, 19.14600
309.5203, 17.77924
310.0024, 15.86790
310.4845, 14.35540
310.9666, 14.15166
311.4487, 14.98984
311.9308, 15.51623
312.4130, 15.25540
312.8951, 14.93633
313.3772, 15.33032
313.8593, 16.32709
314.3414, 17.20502
314.8235, 17.28913
315.3057, 17.00147
315.7878, 17.56911
316.2699, 19.41262
316.7520, 21.33555
317.2341, 22.21848
317.7162, 22.50013
318.1984, 23.14687
318.6805, 24.52369
319.1626, 26.45115
319.6447, 28.78172
320.1268, 31.61264
320.6089, 34.34361
321.0911, 36.10244
321.5732, 37.72643
322.0553, 40.51905
322.5374, 45.21784
323.0195, 50.39254
323.5016, 54.46791
323.9838, 57.45900
324.4659, 60.52726
324.9480, 64.09016
325.4301, 67.97343
325.9122, 71.84450
326.3943, 75.66733
326.8765, 79.75818
327.3586, 84.54733
327.8407, 89.90449
328.3228, 94.96296
328.8049, 99.38509
329.2870, 103.6384
329.7692, 108.2101
330.2513, 113.0598
330.7334, 117.8834
331.2155, 122.8923
331.6976, 127.7219
332.1797, 131.5448
332.6619, 134.2657
333.1440, 135.9929
333.6261, 136.6895
334.1082, 136.4855
334.5903, 135.4076
335.0724, 133.3096
335.5546, 130.4229
336.0367, 126.9928
336.5188, 123.0282
337.0009, 118.5964
337.4830, 113.6671
337.9651, 108.2677
338.4473, 102.4211
338.9294, 95.68803
339.4115, 89.20905
339.8936, 84.15501
340.3757, 80.33038
340.8578, 76.40591
341.3400, 71.73235
341.8221, 66.86378
342.3042, 62.54764
342.7863, 58.76259
343.2684, 55.45196
343.7505, 52.86221
344.2327, 50.70433
344.7148, 48.18601
345.1969, 44.98875
345.6790, 41.75158
346.1611, 39.42444
346.6432, 37.86433
347.1254, 36.05709
347.6075, 33.71637
348.0896, 31.03644
348.5717, 28.09207
349.0538, 24.84303
349.5359, 21.84485
350.0181, 19.54270
350.5002, 17.89008
350.9823, 16.43015
351.4644, 15.46999
351.9465, 14.29445
352.4286, 12.13688
352.9108, 9.219570
353.3929, 6.599213
353.8750, 4.751490
354.3571, 3.605522
354.8392, 2.969860
355.3214, 2.973488
355.8035, 3.146935
356.2856, 3.544651
356.7677, 3.889385
357.2498, 3.580940
357.7319, 2.364300
358.2141, 1.000916
358.6962, 0.6875270
359.1783, 1.624397
359.6604, 2.283287
360.1425, 2.251350
360.6246, 2.024605
361.1068, 2.091190
361.5889, 2.478355
362.0710, 2.866684
362.5531, 2.973721
363.0352, 2.803421
363.5173, 2.761520
363.9995, 2.468346
364.4816, 2.655247
364.9637, 3.961563
365.4458, 6.046837
365.9279, 8.074516
366.4100, 9.626335
366.8922, 10.78633
367.3743, 11.77397
367.8564, 12.10933
368.3385, 12.95650
368.8206, 14.63817
369.3027, 16.83614
369.7849, 19.38991
370.2670, 22.20163
370.7491, 24.85091
371.2312, 26.80798
371.7133, 28.18400
372.1954, 28.42662
372.6776, 26.97942
373.1597, 24.83430
373.6418, 22.06213
374.1239, 19.04050
374.6060, 16.81366
375.0881, 16.35640
375.5703, 17.58736
376.0524, 17.55387
376.5345, 14.50499
377.0166, 12.22046
377.4987, 12.18833
377.9808, 13.28071
378.4630, 13.69789
378.9451, 12.60469
379.4272, 10.79205
379.9093, 10.19359
380.3914, 11.89404
380.8735, 13.02923
381.3557, 13.03615
381.8378, 12.82534
382.3199, 12.87033
382.8020, 13.34732
383.2841, 14.42506
383.7662, 16.44445
384.2484, 19.63068
384.7305, 22.22723
385.2126, 23.65556
385.6947, 25.03533
386.1768, 26.70310
386.6589, 28.59069
387.1411, 30.46752
387.6232, 32.15728
388.1053, 33.81081
388.5874, 36.01609
389.0695, 39.18211
389.5516, 42.12426
390.0338, 44.42916
390.5159, 46.51357
390.9980, 48.90210
391.4801, 51.73251
391.9622, 54.31842
392.4443, 55.83452
392.9265, 56.22861
393.4086, 56.07682
393.8907, 55.66183
394.3728, 54.41134
394.8549, 51.83660
395.3370, 48.12041
395.8192, 43.97903
396.3013, 39.74922
396.7834, 35.43745
397.2655, 30.94297
397.7476, 25.94115
398.2297, 21.63146
398.7119, 18.88406
399.1940, 17.11963
399.6761, 15.83989
400.1582, 15.18774
400.6403, 14.38588
401.1224, 12.41333
401.6046, 9.337845
402.0867, 6.564501
402.5688, 4.444983
403.0509, 2.911947
403.5330, 1.866812
404.0151, 1.309101
404.4973, 0.9442230
404.9794, 0.8207760
405.4615, 0.7567370
405.9436, 0.3779130
406.4257, 0.3900550
406.9078, 1.205034
407.3900, 1.908443
407.8721, 2.426771
408.3542, 2.491604
408.8363, 1.533333
409.3184, 0.6087020
409.8005, 0.5186250
410.2827, 1.062719
410.7648, 1.598139
411.2469, 1.909567
411.7290, 1.920612
412.2111, 1.353083
412.6932, 4.5897000E-02
413.1754, 1.289068
413.6575, 2.039045
414.1396, 2.641253
414.6217, 3.462416
415.1038, 4.560246
415.5859, 5.787443
416.0681, 7.034615
416.5502, 8.322470
417.0323, 9.337442
417.5144, 10.10895
417.9965, 10.63040
418.4786, 10.64184
418.9608, 10.42859
419.4429, 10.47325
419.9250, 11.01824
420.4071, 12.03105
420.8892, 13.51251
421.3713, 16.85418
421.8535, 18.43536
422.3356, 17.20869
422.8177, 14.99144
423.2998, 12.88836
423.7819, 11.20183
424.2640, 9.976700
424.7462, 9.383139
425.2283, 9.495312
425.7104, 9.088228
426.1925, 7.670416
426.6746, 6.233559
427.1567, 5.194082
427.6389, 4.290422
428.1210, 2.963999
428.6031, 0.8341180
429.0852, 1.395025
429.5673, 2.135210
430.0494, 0.9456880
430.5316, 0.1252710
431.0137, 0.5737760
431.4958, 0.7627010
431.9779, 0.8399680
432.4600, 0.8389930
432.9421, 0.8307550
433.4243, 0.8847480
433.9064, 0.9796700
434.3885, 0.9464930
434.8706, 0.5955160
435.3527, 0.5446490
435.8348, 1.400242
436.3170, 2.786470
436.7991, 4.129801
437.2812, 5.294888
437.7633, 6.363091
438.2454, 7.279613
438.7275, 8.104424
439.2097, 9.232006
439.6918, 10.79401
440.1739, 12.71760
440.6560, 15.04429
441.1381, 17.84147
441.6202, 20.31616
442.1024, 21.64558
442.5845, 22.86335
443.0666, 25.52815
443.5487, 29.65651
444.0308, 33.39383
444.5129, 35.27911
444.9951, 35.48509
445.4772, 35.90261
445.9593, 37.01580
446.4414, 37.74948
446.9235, 37.65232
447.4056, 37.00679
447.8878, 36.21472
448.3699, 35.41606
448.8520, 34.54111
449.3341, 33.41852
449.8162, 31.73043
450.2983, 30.75876
450.7805, 30.81895
451.2626, 31.18729
451.7447, 31.55354
452.2268, 31.90728
452.7089, 32.38865
453.1910, 33.12502
453.6732, 33.99281
454.1553, 34.45209
454.6374, 34.37175
455.1195, 34.04486
455.6016, 33.69479
456.0837, 33.05438
456.5659, 31.73808
457.0480, 29.74391
457.5301, 27.71556
458.0122, 26.32111
458.4943, 25.53866
458.9764, 24.68281
459.4586, 23.47842
459.9407, 22.51004
460.4228, 22.19878
460.9049, 22.27285
461.3870, 22.26446
461.8691, 21.89444
462.3513, 21.38555
462.8334, 21.06444
463.3155, 20.90575
463.7976, 20.62613
464.2797, 20.05483
464.7618, 19.39716
465.2440, 19.16476
465.7261, 19.43855
466.2082, 18.97808
466.6903, 16.59518
467.1724, 13.64567
467.6545, 11.87325
468.1367, 11.34007
468.6188, 10.81752
469.1009, 9.447826
469.5830, 7.476904
470.0651, 6.037935
470.5472, 4.945541
471.0294, 4.522547
471.5115, 5.372429
471.9936, 6.810411
472.4757, 7.934572
472.9578, 8.471655
473.4399, 8.625423
473.9221, 8.613977
474.4042, 8.344088
474.8863, 8.603281
475.3684, 9.728870
475.8505, 10.98229
476.3326, 12.14462
476.8148, 13.22700
477.2969, 14.21587
477.7790, 15.09080
478.2611, 16.05971
478.7432, 17.60958
479.2253, 19.91769
479.7075, 22.26210
480.1896, 24.82836
480.6717, 27.15370
481.1538, 28.74762
481.6359, 29.75237
482.1180, 30.87246
482.6002, 33.07885
483.0823, 35.59157
483.5644, 36.04548
484.0465, 34.04620
484.5286, 31.44571
485.0107, 29.01390
485.4929, 26.37863
485.9750, 22.68486
486.4571, 17.49505
486.9392, 13.33833
487.4213, 12.69897
487.9034, 14.19732
488.3856, 14.54514
488.8677, 13.12860
489.3498, 11.03278
489.8319, 8.901285
490.3140, 6.834723
490.7961, 5.592987
491.2783, 5.845892
491.7604, 6.194994
492.2425, 6.122377
492.7246, 5.675686
493.2067, 4.763184
493.6888, 3.354534
494.1710, 2.038593
494.6531, 1.808601
495.1352, 3.167540
495.6173, 4.053549
496.0994, 4.431677
496.5815, 4.445147
497.0637, 3.858025
497.5458, 2.981741
498.0279, 2.373932
498.5100, 2.337527
498.9921, 2.818562
499.4742, 3.778790
499.9564, 5.518831
500.4385, 6.971813
500.9206, 8.192120
501.4027, 8.929136
501.8848, 8.602955
502.3669, 7.461927
502.8491, 6.721045
503.3312, 7.675987
503.8133, 9.529332
504.2954, 9.903057
504.7775, 8.449123
505.2596, 7.176073
505.7418, 7.306309
506.2239, 7.988534
506.7060, 7.947122
507.1881, 6.954484
507.6702, 5.935996
508.1523, 5.530708
508.6345, 5.342403
509.1166, 4.599049
509.5987, 3.181309
510.0808, 1.765945
510.5629, 0.8734090
511.0450, 0.4889740
511.5272, 0.2902820
512.0093, 0.3795570
512.4914, 0.5041290
512.9735, 0.7060960
513.4556, 0.8542470
513.9377, 0.7230040
514.4199, 0.2753910
514.9020, 0.2673990
515.3841, 0.6798780
515.8662, 1.025185
516.3483, 0.8066240
516.8304, 1.117754
517.3126, 2.389011
517.7947, 1.853994
518.2768, 0.3915690
518.7589, 0.7506430
519.2410, 1.083786
519.7231, 0.8926540
520.2053, 0.4572020
520.6874, 0.2524700
521.1695, 0.7672860
521.6516, 1.068153
522.1337, 1.087877
522.6158, 0.5038850
523.0980, 0.3932670
523.5801, 0.7383640
524.0622, 0.1590650
524.5443, 1.357865
525.0264, 1.907803
525.5085, 1.879143
525.9907, 1.609349
526.4728, 1.136126
526.9549, 0.6504240
527.4370, 0.5206000
527.9191, 0.8589510
528.4012, 0.8068440
528.8834, 0.2906580
529.3655, 1.316574
529.8476, 1.424855
530.3297, 0.7896390
530.8118, 3.1635001E-02
531.2939, 0.7680050
531.7761, 1.326750
532.2582, 1.439946
532.7403, 0.7575260
533.2224, 0.2660470
533.7045, 7.3899999E-03
534.1866, 0.1054530
534.6688, 2.2977000E-02
535.1509, 0.2645540
535.6330, 0.2201000
536.1151, 0.5601950
536.5972, 1.553021
537.0793, 1.099545
537.5615, 1.292237
538.0436, 3.083914
538.5257, 3.047624
539.0078, 2.473381
539.4899, 2.628889
539.9720, 3.495866
540.4542, 3.917284
540.9363, 2.928842
541.4184, 1.363168
541.9005, 0.2760400
542.3826, 0.2829590
542.8647, 0.2605310
543.3469, 0.5324950
543.8290, 1.762147
544.3111, 2.561376
544.7932, 2.796067
545.2753, 2.989015
545.7574, 3.311959
546.2396, 3.551497
546.7217, 3.518544
547.2038, 3.217463
547.6859, 2.685813
548.1680, 1.880656
548.6501, 0.9968910
549.1323, 0.9722080
549.6144, 2.602653
550.0965, 3.712275
550.5786, 3.980737
551.0607, 3.787888
551.5428, 3.171932
552.0250, 2.287607
552.5071, 1.628203
552.9892, 1.617745
553.4713, 2.073937
553.9534, 2.504807
554.4355, 2.922864
554.9177, 3.257534
555.3998, 3.566715
555.8819, 3.701372
556.3640, 3.383456
556.8461, 2.525167
557.3282, 1.910435
557.8104, 1.953191
558.2925, 2.332466
558.7746, 2.794306
559.2567, 3.273770
559.7388, 3.486342
560.2209, 3.188334
560.7031, 2.620075
561.1852, 2.550299
561.6673, 3.654426
562.1494, 4.308950
562.6315, 4.106522
563.1136, 3.750642
563.5958, 3.675904
564.0779, 3.927769
564.5600, 4.427089
565.0421, 5.160566
565.5242, 6.025251
566.0063, 6.671490
566.4885, 7.046468
566.9706, 7.348823
567.4527, 7.676642
567.9348, 7.895908
568.4169, 7.735426
568.8990, 7.282233
569.3812, 7.153660
569.8633, 8.005566
570.3454, 9.208828
570.8275, 9.785317
571.3096, 9.770251
571.7917, 9.833379
572.2739, 10.27964
572.7560, 10.87589
573.2381, 11.18252
573.7202, 11.02515
574.2023, 11.33693
574.6844, 12.70871
575.1666, 14.18720
575.6487, 14.98493
576.1308, 15.35942
576.6129, 16.09955
577.0950, 17.70666
577.5771, 19.81403
578.0593, 21.52065
578.5414, 22.56997
579.0235, 23.94562
579.5056, 25.61095
579.9877, 27.68333
580.4698, 30.34753
580.9520, 33.41611
581.4341, 36.55394
581.9162, 39.56367
582.3983, 42.86220
582.8804, 46.83582
583.3625, 51.53350
583.8447, 57.42009
584.3268, 64.82559
584.8089, 72.87636
585.2910, 80.30309
585.7731, 87.31368
586.2552, 95.96234
586.7374, 106.9474
587.2195, 118.9578
587.7016, 131.1121
588.1837, 143.9682
588.6658, 158.3778
589.1479, 174.5927
589.6301, 192.4250
590.1122, 211.7590
590.5943, 232.5664
591.0764, 254.9233
591.5585, 279.5091
592.0406, 305.0655
592.5228, 333.4438
593.0049, 361.6943
593.4870, 387.5381
593.9691, 410.2717
594.4512, 426.5271
594.9333, 434.1867
595.4155, 433.1098
595.8976, 421.4294
596.3797, 398.0984
596.8618, 368.2399
597.3439, 332.0567
597.8260, 292.3265
598.3082, 255.9374
598.7903, 222.7653
599.2724, 193.2556
599.7545, 167.9543
600.2366, 146.0753
600.7188, 127.3151
601.2009, 111.4446
601.6830, 97.99245
602.1651, 86.65345
602.6472, 77.22997
603.1293, 69.02041
603.6115, 62.04585
604.0936, 56.33302
604.5757, 52.71069
605.0578, 49.48890
605.5399, 45.54465
606.0220, 41.07517
606.5042, 36.90431
606.9863, 33.42068
607.4684, 30.65071
607.9505, 28.90491
608.4326, 28.14563
608.9147, 26.90667
609.3969, 24.59099
609.8790, 22.07509
610.3611, 20.39352
610.8432, 19.46294
611.3253, 18.34534
611.8074, 16.40550
612.2896, 14.81392
612.7717, 14.51821
613.2538, 14.89481
613.7359, 14.86741
614.2180, 14.12290
614.7001, 13.09090
615.1823, 12.24256
615.6644, 11.58119
616.1465, 11.05652
616.6286, 10.46648
617.1107, 10.32262
617.5928, 11.21353
618.0750, 12.31899
618.5571, 12.71921
619.0392, 12.26065
619.5213, 11.68233
620.0034, 11.57681
620.4855, 11.74229
620.9677, 11.66663
621.4498, 11.31734
621.9319, 11.12372
622.4140, 11.30916
622.8961, 11.76488
623.3782, 12.30585
623.8604, 13.00076
624.3425, 13.55478
624.8246, 13.78732
625.3067, 13.99601
625.7888, 14.63472
626.2709, 15.40050
626.7531, 15.43769
627.2352, 14.30660
627.7173, 12.76788
628.1994, 12.28052
628.6815, 13.06011
629.1636, 13.71948
629.6458, 14.43308
630.1279, 14.67164
630.6100, 13.97649
631.0921, 12.73372
631.5742, 11.59060
632.0563, 10.66353
632.5385, 9.990369
633.0206, 9.810685
633.5027, 9.851454
633.9848, 9.510607
634.4669, 8.709064
634.9490, 7.907785
635.4312, 7.507287
635.9133, 7.337566
636.3954, 6.576527
636.8775, 4.293244
637.3596, 2.677992
637.8417, 2.278404
638.3239, 2.182015
638.8060, 1.750015
639.2881, 1.021418
639.7702, 0.3631960
640.2523, 1.2686000E-02
640.7344, 0.1776200
641.2166, 0.2429040
641.6987, 0.2064320
642.1808, 0.1096250
642.6629, 9.4818003E-02
643.1450, 0.2685270
643.6271, 0.2372120
644.1093, 6.0998999E-02
644.5914, 4.0670998E-02
645.0735, 0.1068100
645.5556, 0.1696790
646.0377, 7.1396999E-02
646.5198, 0.4662490
647.0020, 0.8809700
647.4841, 1.248642
647.9662, 1.369805
648.4483, 1.002584
648.9304, 0.2624190
649.4125, 7.3700002E-04
649.8947, 0.5893330
650.3768, 0.9605530
650.8589, 0.8290650
651.3410, 0.5101090
651.8231, 0.1175530
652.3052, 0.2873790
652.7874, 0.5348740
653.2695, 0.4802440
653.7516, 0.2827260
654.2337, 3.1120000E-02
654.7158, 0.2193420
655.1979, 0.1547070
655.6801, 0.3556980
656.1622, 0.9639400
656.6443, 1.307850
657.1264, 1.378832
657.6085, 1.319734
658.0906, 1.024404
658.5728, 0.7519570
659.0549, 0.5081450
659.5370, 0.3485300
660.0191, 0.3891190
660.5012, 0.6035330
660.9833, 0.7582200
661.4655, 0.5806930
661.9476, 0.2435680
662.4297, 0.3216010
662.9118, 0.8581300
663.3939, 1.489795
663.8760, 2.231989
664.3582, 2.868876
664.8403, 2.925251
665.3224, 2.467404
665.8045, 2.577397
666.2866, 4.220947
666.7687, 5.643068
667.2509, 5.639919
667.7330, 4.832594
668.2151, 4.165462
668.6972, 3.925076
669.1793, 4.033689
669.6614, 4.458452
670.1436, 5.173136
670.6257, 5.797974
671.1078, 6.327891
671.5899, 6.781645
672.0720, 7.354067
672.5541, 7.718084
673.0363, 7.236861
673.5184, 6.053879
674.0005, 5.690647
674.4826, 7.644509
674.9647, 10.03086
675.4468, 10.73867
675.9290, 10.30115
676.4111, 10.37651
676.8932, 11.48091
677.3753, 13.09443
677.8574, 14.65255
678.3395, 16.15854
678.8217, 17.51903
679.3038, 18.29326
679.7859, 19.50188
680.2680, 21.55604
680.7501, 23.93792
681.2322, 26.06688
681.7144, 27.95673
682.1965, 30.25170
682.6786, 33.44134
683.1607, 37.21695
683.6428, 41.10367
684.1249, 45.11419
684.6071, 49.17564
685.0892, 53.23305
685.5713, 57.48966
686.0534, 61.99801
686.5355, 66.66792
687.0176, 73.23209
687.4998, 82.67242
687.9819, 92.53791
688.4640, 101.9151
688.9461, 111.5899
689.4282, 122.3206
689.9103, 134.2438
690.3925, 147.2611
690.8746, 161.1969
691.3567, 176.1357
691.8388, 192.5507
692.3209, 210.5073
692.8030, 228.2291
693.2852, 245.2058
693.7673, 262.0444
694.2494, 280.4926
694.7315, 300.1653
695.2136, 315.2726
695.6957, 327.1593
696.1779, 332.6574
696.6600, 329.8002
697.1421, 320.5663
697.6242, 306.1328
698.1063, 287.3672
698.5884, 265.7270
699.0706, 241.8631
699.5527, 216.7672
700.0348, 192.6504
700.5169, 169.2713
700.9990, 148.6615
701.4811, 131.6244
701.9633, 116.8081
702.4454, 103.1297
702.9275, 90.69352
703.4096, 79.82195
703.8917, 70.78408
704.3738, 63.00499
704.8560, 56.40562
705.3381, 50.76606
705.8202, 45.98615
706.3023, 41.93408
706.7844, 38.09790
707.2665, 34.07326
707.7487, 30.07247
708.2308, 26.85506
708.7129, 24.52244
709.1950, 22.67677
709.6771, 21.59957
710.1592, 20.56180
710.6414, 19.11316
711.1235, 17.37291
711.6056, 15.53338
712.0877, 13.45525
712.5698, 11.68128
713.0519, 10.58228
713.5341, 9.900408
714.0162, 9.518895
714.4983, 9.293324
714.9804, 8.739011
715.4625, 7.540419
715.9446, 6.112342
716.4268, 5.349545
716.9089, 5.377363
717.3910, 5.525803
717.8731, 6.059293
718.3552, 6.313334
718.8373, 5.847143
719.3195, 4.984110
719.8016, 4.083550
720.2837, 3.118316
720.7658, 2.565895
721.2479, 3.155530
721.7300, 3.916547
722.2122, 3.605675
722.6943, 2.477866
723.1764, 1.621696
723.6585, 1.511428
724.1406, 1.837312
724.6227, 2.160910
725.1049, 2.489116
725.5870, 2.761642
726.0691, 2.937802
726.5512, 3.122545
727.0333, 3.462034
727.5154, 3.759141
727.9976, 3.629514
728.4797, 3.070793
728.9618, 3.006154
729.4439, 4.441376
729.9260, 6.005179
730.4081, 6.347383
730.8903, 5.839426
731.3724, 5.390323
731.8545, 5.272793
732.3366, 5.295343
732.8187, 5.245908
733.3008, 5.145073
733.7830, 5.288115
734.2651, 5.951371
734.7472, 6.258291
735.2293, 5.590400
735.7114, 4.848895
736.1935, 4.949813
736.6757, 5.613714
737.1578, 5.512985
737.6399, 3.533175
738.1220, 1.606292
738.6041, 1.134211
739.0862, 1.512622
739.5684, 1.973512
740.0505, 2.304633
740.5326, 2.238275
741.0147, 1.500441
741.4968, 0.4632490
741.9789, 0.3850180
742.4611, 1.675169
742.9432, 2.387609
743.4253, 1.913602
743.9074, 1.366776
744.3895, 1.532020
744.8716, 2.025786
745.3538, 2.120978
745.8359, 1.625740
746.3180, 1.069638
746.8001, 0.4755910
747.2822, 1.1553000E-02
747.7643, 0.1553280
748.2465, 4.4016000E-02
748.7286, 0.1192710
749.2107, 0.2413070
749.6928, 0.2587670
750.1749, 3.4963001E-02
750.6570, 0.4463410
751.1392, 0.8617060
751.6213, 1.291281
752.1034, 1.478268
752.5855, 1.162085
753.0676, 0.6542400
753.5497, 0.3647790
754.0319, 0.3148400
754.5140, 0.1505310
754.9961, 0.4870070
755.4782, 0.9748240
755.9603, 0.6940570
756.4424, 0.1144120
756.9246, 6.8077996E-02
757.4067, 0.6562600
757.8888, 1.185694
758.3709, 0.9679750
758.8530, 0.3021830
759.3351, 0.3066080
759.8173, 1.094356
760.2994, 1.642384
760.7815, 1.532944
761.2636, 1.386034
761.7457, 1.805427
762.2278, 2.642118
762.7100, 3.167669
763.1921, 3.345326
763.6742, 3.251754
764.1563, 2.486080
764.6384, 1.782987
765.1205, 1.859233
765.6027, 2.524566
766.0848, 3.170615
766.5669, 3.485667
767.0490, 3.564784
767.5311, 3.390047
768.0132, 3.044776
768.4954, 3.031281
768.9775, 3.421498
769.4596, 3.910500
769.9417, 4.289886
770.4238, 4.620719
770.9059, 5.024529
771.3881, 5.490258
771.8702, 6.105585
772.3523, 7.005384
772.8344, 7.892990
773.3165, 8.683018
773.7986, 9.391716
774.2808, 10.06188
774.7629, 10.69067
775.2450, 11.20551
775.7271, 11.42975
776.2092, 11.63400
776.6913, 12.32968
777.1735, 13.37720
777.6556, 14.21467
778.1377, 14.71751
778.6198, 14.98191
779.1019, 15.11364
779.5840, 15.06237
780.0662, 14.56930
780.5483, 13.63301
781.0304, 12.25152
781.5125, 9.674067
781.9946, 7.427490
782.4767, 6.450819
782.9589, 6.276714
783.4410, 5.985428
783.9231, 5.315299
784.4052, 4.701180
784.8873, 4.657778
785.3694, 4.647263
785.8516, 3.769267
786.3337, 2.295224
786.8158, 1.272791
787.2979, 1.119287
787.7800, 1.438527
788.2621, 1.784334
788.7443, 2.146729
789.2264, 2.232111
789.7085, 1.945188
790.1906, 1.647447
790.6727, 1.381766
791.1548, 1.198260
791.6370, 1.222795
792.1191, 1.408897
792.6012, 1.414427
793.0833, 0.9249270
793.5654, 0.5755290
794.0475, 0.6925920
794.5297, 1.006318
795.0118, 1.346520
795.4939, 1.620560
795.9760, 1.626456
796.4581, 1.213384
796.9402, 0.7465060
797.4224, 0.8433960
797.9045, 1.411216
798.3866, 1.851364
798.8687, 2.118775
799.3508, 2.197657
799.8329, 2.031291
800.3151, 1.750847
800.7972, 1.584983
801.2793, 1.567671
801.7614, 1.548210
802.2435, 1.822849
802.7256, 1.737849
803.2078, 0.6581530
803.6899, 0.5895030
804.1720, 1.180530
804.6541, 1.042730
805.1362, 0.5755320
805.6183, 0.1798260
806.1005, 0.9749670
806.5826, 1.654428
807.0647, 2.135772
807.5468, 2.071743
808.0289, 1.481211
808.5110, 1.046448
808.9932, 1.313677
809.4753, 1.926371
809.9574, 1.854239
810.4395, 0.8481060
810.9216, 0.5058960
811.4037, 1.240732
811.8859, 2.035449
812.3680, 2.475040
812.8501, 2.645668
813.3322, 2.655053
813.8143, 2.517729
814.2964, 2.143076
814.7786, 1.086542
815.2607, 0.2381340
815.7428, 0.3855490
816.2249, 0.9381430
816.7070, 0.8945980
817.1891, 0.1855770
817.6713, 0.2480930
818.1534, 0.4907930
818.6355, 1.702862
819.1176, 1.972840
819.5997, 1.412834
820.0818, 0.8225710
820.5640, 0.3035080
821.0461, 0.1634560
821.5282, 0.7630520
822.0103, 1.731768
822.4924, 1.887934
822.9745, 0.5507460
823.4567, 7.6021001E-02
823.9388, 0.6291950
824.4209, 1.337911
824.9030, 1.738067
825.3851, 1.763340
825.8672, 1.249949
826.3494, 0.2267290
826.8315, 0.4697980
827.3136, 0.2207560
827.7957, 0.3010860
828.2778, 0.6326220
828.7599, 0.7942880
829.2421, 0.8271610
829.7242, 0.7815450
830.2063, 0.7396940
830.6884, 0.7260450
831.1705, 0.8359860
831.6526, 1.509000
832.1348, 2.719728
832.6169, 3.279933
833.0990, 2.920248
833.5811, 2.458943
834.0632, 2.403498
834.5453, 2.541851
835.0275, 2.429081
835.5096, 1.853576
835.9917, 1.399108
836.4738, 1.009915
836.9559, 0.8701870
837.4380, 1.337910
837.9202, 1.950019
838.4023, 2.084307
838.8844, 1.627654
839.3665, 1.235975
839.8486, 1.312315
840.3307, 1.503419
840.8129, 1.348677
841.2950, 1.076782
841.7771, 1.214346
842.2592, 1.780727
842.7413, 2.395045
843.2234, 2.835393
843.7056, 3.041934
844.1877, 2.784045
844.6698, 1.999942
845.1519, 1.579408
845.6340, 1.694732
846.1161, 1.744866
846.5983, 1.361779
847.0804, 0.8930910
847.5625, 0.8553140
848.0446, 1.271526
848.5267, 1.674540
849.0089, 2.217694
849.4910, 2.618419
849.9731, 2.572369
850.4552, 2.330849
850.9373, 2.091427
851.4194, 1.917599
851.9016, 1.987054
852.3837, 2.406343
852.8658, 2.730156
853.3479, 2.441159
853.8300, 1.895446
854.3121, 1.667868
854.7943, 1.774150
855.2764, 2.161922
855.7585, 2.812833
856.2406, 3.280488
856.7227, 2.860397
857.2048, 1.660422
857.6870, 1.156573
858.1691, 1.566854
858.6512, 1.806544
859.1333, 1.507766
859.6154, 1.120693
860.0975, 1.030657
860.5797, 1.195766
861.0618, 1.352174
861.5439, 1.387174
862.0260, 1.483948
862.5081, 2.029432
862.9902, 2.382094
863.4724, 1.882934
863.9545, 1.017560
864.4366, 0.6786870
864.9187, 1.072012
865.4008, 1.508041
865.8829, 1.426036
866.3651, 1.230042
866.8472, 1.490157
867.3293, 1.997550
867.8114, 2.142784
868.2935, 1.853312
868.7756, 1.767784
869.2578, 2.460648
869.7399, 3.433664
870.2220, 3.296177
870.7041, 1.975545
871.1862, 1.135834
871.6683, 1.022467
872.1505, 1.001060
872.6326, 0.7396760
873.1147, 0.3855510
873.5968, 0.1786120
874.0789, 9.4737001E-02
874.5610, 0.3113290
875.0432, 0.9374920
875.5253, 1.668411
876.0074, 3.023744
876.4895, 4.051699
876.9716, 3.670222
877.4537, 2.220833
877.9359, 1.105012
878.4180, 0.7944650
878.9001, 0.8701890
879.3822, 1.402209
879.8643, 1.955416
880.3464, 2.050014
880.8286, 1.724463
881.3107, 1.056025
881.7928, 0.1576450
882.2749, 0.4624910
882.7570, 7.4781999E-02
883.2391, 0.9527080
883.7213, 1.506272
884.2034, 1.586312
884.6855, 1.212929
885.1676, 0.3715020
885.6497, 0.3178380
886.1318, 0.3889580
886.6140, 3.1631000E-02
887.0961, 0.5946500
887.5782, 1.644633
888.0603, 1.906984
888.5424, 0.5952840
889.0245, 0.4245860
889.5067, 0.2117010
889.9888, 0.5636460
890.4709, 1.345349
890.9530, 2.096117
891.4351, 2.200459
891.9172, 0.7352840
892.3994, 0.4053780
892.8815, 4.1625001E-02
893.3636, 0.6947480
893.8457, 0.6697970
894.3278, 1.6077001E-02
894.8099, 0.8032300
895.2921, 1.524065
895.7742, 1.650333
896.2563, 1.7697999E-02
896.7384, 2.198236
897.2205, 2.816298
897.7026, 2.089590
898.1848, 1.256060
898.6669, 0.7235130
899.1490, 0.5339330
899.6311, 0.7857150
900.1132, 1.347369
900.5953, 1.746724
901.0775, 1.991181
901.5596, 1.935949
902.0417, 1.457316
902.5238, 1.022886
903.0059, 0.9456800
903.4880, 1.051806
903.9702, 0.9631080
904.4523, 0.5836210
904.9344, 0.3835670
905.4165, 0.7486960
905.8986, 0.8079610
906.3807, 0.2542100
906.8629, 1.215334
907.3450, 0.6016360
907.8271, 1.138135
908.3092, 1.925979
908.7913, 0.6965250
909.2734, 0.4277800
909.7556, 0.4853880
910.2377, 4.5701001E-02
910.7198, 0.5679370
911.2019, 1.223758
911.6840, 1.796604
912.1661, 2.239128
912.6483, 2.529986
913.1304, 2.565804
913.6125, 2.512918
914.0946, 2.728348
914.5767, 3.082809
915.0588, 3.145636
915.5410, 2.852398
916.0231, 2.339499
916.5052, 1.631734
916.9873, 1.046372
917.4694, 1.371580
917.9515, 2.665688
918.4337, 3.293811
918.9158, 3.135847
919.3979, 2.778046
919.8800, 2.248251
920.3621, 1.938498
920.8442, 2.320444
921.3264, 3.331711
921.8085, 4.298945
922.2906, 5.374890
922.7727, 6.163204
923.2548, 6.378654
923.7369, 6.599847
924.2191, 7.108350
924.7012, 7.788776
925.1833, 8.414128
925.6654, 8.948192
926.1475, 9.708336
926.6296, 10.78007
927.1118, 12.10853
927.5939, 14.27017
928.0760, 16.25636
928.5581, 16.95869
929.0402, 16.43422
929.5223, 15.21292
930.0045, 13.41297
930.4866, 11.74842
930.9687, 11.12259
931.4508, 10.88206
931.9329, 9.993589
932.4150, 8.590014
932.8972, 7.110966
933.3793, 5.716187
933.8614, 4.618700
934.3435, 4.012059
934.8256, 3.833629
935.3077, 4.136588
935.7899, 4.838131
936.2720, 5.085217
936.7541, 4.738599
937.2362, 4.326845
937.7183, 4.099553
938.2004, 4.066774
938.6826, 4.160653
939.1647, 4.338628
939.6468, 5.080079
940.1289, 6.801423
940.6110, 8.143079
941.0931, 8.916527
941.5753, 9.080704
942.0574, 8.072272
942.5395, 6.577893
943.0216, 6.488094
943.5037, 8.408209
943.9858, 9.570677
944.4680, 9.319952
944.9501, 8.935262
945.4322, 8.449077
945.9143, 8.359924
946.3964, 9.465941
946.8785, 11.45905
947.3607, 12.98626
947.8428, 13.32566
948.3249, 13.72783
948.8070, 14.59808
949.2891, 16.08303
949.7712, 18.46841
950.2534, 21.48915
950.7355, 24.86522
951.2176, 28.43423
951.6997, 31.87277
952.1818, 34.53000
952.6639, 37.37548
953.1461, 41.69843
953.6282, 47.31945
954.1103, 53.89965
954.5924, 61.24926
955.0745, 69.05708
955.5566, 77.21401
956.0388, 86.40752
956.5209, 97.66173
957.0030, 110.8296
957.4851, 124.8009
957.9672, 139.6695
958.4493, 157.5465
958.9315, 179.0886
959.4136, 202.9480
959.8957, 228.2935
960.3778, 255.2174
960.8599, 284.7710
961.3420, 318.4058
961.8242, 347.5765
962.3063, 375.3008
962.7884, 390.9390
963.2705, 391.1229
963.7526, 377.4454
964.2347, 348.3434
964.7169, 305.8317
965.1990, 264.5121
965.6811, 221.7861
966.1632, 184.4608
966.6453, 153.1427
967.1274, 126.5533
967.6096, 104.7374
968.0917, 86.94950
968.5738, 72.66177
969.0559, 61.65702
969.5380, 52.81889
970.0201, 46.83694
970.5023, 41.56680
970.9844, 35.92195
971.4665, 30.95490
971.9486, 27.87199
972.4307, 25.98105
972.9128, 23.71724
973.3950, 20.68558
973.8771, 18.04796
974.3592, 16.83996
974.8413, 15.94182
975.3234, 14.09447
975.8055, 12.06735
976.2877, 11.11258
976.7698, 11.15356
977.2519, 11.36331
977.7340, 11.36691
978.2161, 11.13841
978.6982, 10.47072
979.1804, 9.646506
979.6625, 9.159558
980.1446, 9.002611
980.6267, 9.160822
981.1088, 9.601817
981.5909, 10.15750
982.0731, 10.73341
982.5552, 11.23535
983.0373, 11.61376
983.5194, 11.80162
984.0015, 11.25330
984.4836, 9.953081
984.9658, 8.315820
985.4479, 6.416901
985.9300, 4.707632
986.4121, 3.608769
986.8942, 3.022839
987.3763, 2.653935
987.8585, 2.535049
988.3406, 2.400574
988.8227, 2.195910
989.3048, 2.142169
989.7869, 2.426722
990.2690, 2.734435
990.7512, 2.733943
991.2333, 2.420657
991.7154, 1.685603
992.1975, 7.8809999E-02
992.6796, 0.9938160
993.1617, 1.273816
993.6439, 1.232541
994.1260, 0.8488860
994.6081, 0.4117170
995.0902, 0.4276630
995.5723, 0.9232150
996.0544, 1.074140
996.5366, 0.4387750
997.0187, 4.6865001E-02
997.5008, 0.2199530
997.9829, 0.5216910
998.4650, 0.6664270
998.9471, 0.7652980
999.4293, 1.142732
999.9114, 1.874574
1000.393, 2.119732
1000.876, 1.201854
1001.358, 0.3181450
1001.840, 2.1140000E-02
1002.322, 6.8118997E-02
1002.804, 0.1669490
1003.286, 0.3766180
1003.768, 0.9192670
1004.250, 1.882594
1004.733, 2.622884
1005.215, 2.498473
1005.697, 2.338525
1006.179, 2.694902
1006.661, 3.429189
1007.143, 4.506732
1007.625, 5.760283
1008.107, 6.851374
1008.589, 7.641212
1009.072, 8.149963
1009.554, 7.935472
1010.036, 7.822384
1010.518, 8.747187
1011.000, 10.55966
1011.482, 13.11084
1011.964, 16.21522
1012.446, 19.36189
1012.929, 22.29579
1013.411, 25.20468
1013.893, 28.00277
1014.375, 31.09728
1014.857, 35.77800
1015.339, 41.51070
1015.821, 46.58135
1016.303, 50.56451
1016.785, 53.98017
1017.268, 57.33123
1017.750, 59.37130
1018.232, 57.78473
1018.714, 53.14160
1019.196, 47.30186
1019.678, 40.53327
1020.160, 34.08096
1020.642, 28.27006
1021.125, 23.63503
1021.607, 20.65328
1022.089, 18.78974
1022.571, 16.87698
1023.053, 14.91466
1023.535, 13.13555
1024.017, 11.54319
1024.499, 10.19401
1024.981, 9.066457
1025.464, 8.505828
1025.946, 8.945482
1026.428, 9.981732
1026.910, 10.18675
1027.392, 9.380942
1027.874, 9.668744
1028.356, 11.46124
1028.838, 12.53946
1029.321, 11.80160
1029.803, 11.06640
1030.285, 12.11448
1030.767, 14.66621
1031.249, 17.54144
1031.731, 20.94261
1032.213, 23.80105
1032.695, 25.55667
1033.177, 28.13943
1033.660, 32.17267
1034.142, 37.44516
1034.624, 43.87132
1035.106, 51.36376
1035.588, 58.96498
1036.070, 65.69267
1036.552, 74.92056
1037.034, 87.23637
1037.516, 101.1373
1037.999, 115.7747
1038.481, 131.9226
1038.963, 150.9498
1039.445, 172.4173
1039.927, 192.9806
1040.409, 214.1893
1040.891, 231.8651
1041.373, 250.8915
1041.855, 260.0375
1042.338, 252.5575
1042.820, 235.0488
1043.302, 211.6892
1043.784, 183.4590
1044.266, 156.9106
1044.748, 131.1345
1045.230, 109.0052
1045.712, 91.43200
1046.195, 76.74032
1046.677, 64.70188
1047.159, 54.82444
1047.641, 46.73666
1048.123, 40.38056
1048.605, 35.37334
1049.087, 31.88692
1049.569, 29.31078
1050.052, 28.57781
1050.534, 27.52002
1051.016, 24.54248
1051.498, 21.21853
1051.980, 19.39609
1052.462, 18.96979
1052.944, 18.53827
1053.426, 17.93390
1053.908, 17.10110
1054.391, 15.57437
1054.873, 14.40095
1055.355, 14.11246
1055.837, 14.42422
1056.319, 15.25077
1056.801, 16.40029
1057.283, 17.13015
1057.765, 17.06446
1058.248, 17.01267
1058.730, 17.14773
1059.212, 17.54047
1059.694, 18.20298
1060.176, 19.12628
1060.658, 20.26933
1061.140, 21.64115
1061.622, 23.23079
1062.104, 25.02265
1062.587, 27.05299
1063.069, 29.35694
1063.551, 31.86440
1064.033, 34.14397
1064.515, 36.88227
1064.997, 41.20738
1065.479, 46.74434
1065.961, 51.89216
1066.443, 56.06620
1066.926, 60.22615
1067.408, 64.94713
1067.890, 69.54854
1068.372, 73.90585
1068.854, 77.74088
1069.336, 81.17435
1069.818, 83.82546
1070.300, 84.54200
1070.782, 82.81868
1071.265, 80.15311
1071.747, 76.94874
1072.229, 73.28342
1072.711, 69.19234
1073.193, 64.66966
1073.675, 59.40805
1074.157, 53.79744
1074.639, 48.78516
1075.122, 44.64556
1075.604, 40.99297
1076.086, 37.52840
1076.568, 34.63934
1077.050, 32.85265
1077.532, 31.51529
1078.014, 29.96111
1078.496, 28.28795
1078.979, 26.91387
1079.461, 25.95685
1079.943, 25.13877
1080.425, 24.69656
1080.907, 23.92384
1081.389, 21.97837
1081.871, 19.91271
1082.353, 18.93168
1082.835, 18.57934
1083.318, 17.71634
1083.800, 16.09060
1084.282, 14.37502
1084.764, 12.85657
1085.246, 11.34212
1085.728, 9.479619
1086.210, 7.819085
1086.692, 6.902300
1087.175, 6.535607
1087.657, 6.333911
1088.139, 6.135369
1088.621, 5.905077
1089.103, 5.956608
1089.585, 5.784492
1090.067, 5.102738
1090.549, 4.244954
1091.031, 3.404020
1091.514, 2.638705
1091.996, 1.838881
1092.478, 1.065515
1092.960, 0.8741710
1093.442, 1.744812
1093.924, 2.514490
1094.406, 2.914625
1094.888, 2.993246
1095.370, 2.510334
1095.853, 1.844601
1096.335, 1.527096
1096.817, 1.516652
1097.299, 1.284362
1097.781, 0.4411870
1098.263, 4.7676999E-02
1098.745, 0.8811820
1099.227, 1.733552
1099.709, 2.155656
1100.192, 2.135847
1100.674, 1.373519
1101.156, 0.1886510
1101.638, 0.3717580
1102.120, 7.8530004E-03
1102.602, 0.5917660
1103.084, 1.678855
1103.566, 2.327939
1104.049, 1.763844
1104.531, 0.9709120
1105.013, 0.8410700
1105.495, 1.137421
1105.977, 1.192757
1106.459, 0.8991600
1106.941, 0.5565000
1107.423, 2.8169001E-02
1107.906, 0.2848040
1108.388, 0.1836780
1108.870, 7.2563000E-02
1109.352, 0.4069000
1109.834, 0.7459230
1110.316, 0.9708910
1110.798, 1.064435
1111.280, 1.101015
1111.762, 1.010573
1112.245, 0.9919900
1112.727, 0.8777340
1113.209, 1.047918
1113.691, 2.306339
1114.173, 3.567200
1114.655, 3.111981
1115.137, 1.123066
1115.619, 0.1317860
1116.102, 1.052139
1116.584, 1.343310
1117.066, 0.3412940
1117.548, 0.3416460
1118.030, 0.1433380
1118.512, 0.8440990
1118.994, 0.6787340
1119.476, 1.376348
1119.958, 2.067485
1120.441, 2.182383
1120.923, 3.296397
1121.405, 3.546624
1121.887, 3.127265
1122.369, 1.669861
1122.851, 0.3268810
1123.333, 1.4601000E-02
1123.815, 0.3356040
1124.297, 0.3767650
1124.780, 8.1859998E-02
1125.262, 0.3693610
1125.744, 1.591468
1126.226, 1.926912
1126.708, 0.6951230
1127.190, 0.1864690
1127.672, 0.4514060
1128.154, 1.737052
1128.636, 2.415138
1129.119, 2.558250
1129.601, 2.856845
1130.083, 3.385648
1130.565, 3.003646
1131.047, 1.410080
1131.529, 0.8735110
1132.011, 2.483217
1132.493, 4.140217
1132.976, 3.599587
1133.458, 1.737138
1133.940, 1.205273
1134.422, 1.857784
1134.904, 1.703103
1135.386, 0.7133900
1135.868, 0.1558580
1136.350, 0.3747860
1136.833, 1.170489
1137.315, 2.500739
1137.797, 3.684804
1138.279, 3.322455
1138.761, 1.916737
1139.243, 1.170368
1139.725, 0.9799500
1140.207, 0.9033880
1140.689, 0.8415350
1141.172, 0.7819660
1141.654, 0.7163100
1142.136, 0.5160730
1142.618, 5.4522999E-02
1143.100, 0.7317750
1143.582, 1.047221
1144.064, 1.143493
1144.546, 1.553409
1145.029, 2.006713
1145.511, 1.202473
1145.993, 0.9817040
1146.475, 2.338255
1146.957, 0.9826150
1147.439, 0.7963090
1147.921, 0.6837050
1148.403, 0.2292460
1148.885, 1.041875
1149.368, 1.466568
1149.850, 0.8423240
1150.332, 0.5504900
1150.814, 1.305139
1151.296, 0.7330470
1151.778, 0.1281420
1152.260, 0.3860200
1152.742, 0.7355260
1153.224, 0.7086080
1153.707, 0.4554200
1154.189, 0.1505320
1154.671, 0.2280270
1155.153, 0.8797530
1155.635, 1.852961
1156.117, 2.445313
1156.599, 2.321379
1157.081, 1.948855
1157.563, 1.090487
1158.046, 0.4449260
1158.528, 0.5566670
1159.010, 1.070224
1159.492, 1.459705
1159.974, 1.761778
1160.456, 2.420935
1160.938, 4.276289
1161.420, 4.914773
1161.903, 2.920143
1162.385, 1.608591
1162.867, 2.587642
1163.349, 3.710694
1163.831, 2.976146
1164.313, 3.800035
1164.795, 4.093401
1165.277, 3.595467
1165.760, 4.328610
1166.242, 3.206684
1166.724, 2.090235
1167.206, 1.157697
1167.688, 0.6182480
1168.170, 0.6635840
1168.652, 0.9291800
1169.134, 0.9372190
1169.616, 0.7700740
1170.099, 0.8419440
1170.581, 1.156699
1171.063, 1.360227
1171.545, 1.430758
1172.027, 1.618417
1172.509, 2.003815
1172.991, 2.749338
1173.473, 4.054074
1173.956, 5.353776
1174.438, 5.737351
1174.920, 5.303475
1175.402, 3.946626
1175.884, 2.095969
1176.366, 1.292778
1176.848, 1.559996
1177.330, 1.588979
1177.813, 0.8522540
1178.295, 0.5036480
1178.777, 1.941314
1179.259, 3.750266
1179.741, 4.169430
1180.223, 3.830506
1180.705, 3.542913
1181.187, 3.274927
1181.669, 2.692187
1182.151, 1.830743
1182.634, 1.168730
1183.116, 0.8985690
1183.598, 0.9617420
1184.080, 1.345513
1184.562, 2.029533
1185.044, 3.546166
1185.526, 4.904416
1186.008, 4.727232
1186.490, 3.602407
1186.973, 3.082499
1187.455, 3.449359
1187.937, 3.880877
1188.419, 4.303129
1188.901, 4.649210
1189.383, 5.235672
1189.865, 5.360643
1190.347, 3.897557
1190.830, 2.413093
1191.312, 3.006921
1191.794, 5.074758
1192.276, 5.522301
1192.758, 3.574570
1193.240, 2.696597
1193.722, 3.255967
1194.204, 3.781637
1194.687, 3.909650
1195.169, 4.028743
1195.651, 4.421673
1196.133, 4.837445
1196.615, 4.815340
1197.097, 4.478662
1197.579, 4.727692
1198.061, 5.506091
1198.543, 5.682536
1199.026, 5.170617
1199.508, 4.246520
1199.990, 3.034133
1200.472, 2.011366
1200.954, 1.548230
1201.436, 1.546554
1201.918, 1.941863
1202.400, 2.600218
1202.883, 3.607566
1203.365, 4.645048
1203.847, 4.685498
1204.329, 3.800540
1204.811, 3.059172
1205.293, 2.791400
1205.775, 2.846329
1206.257, 3.251504
1206.740, 3.626835
1207.222, 3.640706
1207.704, 3.542884
1208.186, 3.568840
1208.668, 3.566992
1209.150, 3.251221
1209.632, 2.672358
1210.114, 2.367452
1210.596, 2.576243
1211.078, 2.693210
1211.561, 2.501194
1212.043, 2.367855
1212.525, 2.425467
1213.007, 2.547111
1213.489, 2.552048
1213.971, 2.637212
1214.453, 3.305935
1214.935, 2.862786
1215.417, 4.401031
1215.900, 2.526611
1216.382, 1.654314
1216.864, 1.892936
1217.346, 2.759453
1217.828, 4.326969
1218.310, 5.031461
1218.792, 3.467830
1219.274, 1.170100
1219.757, 1.145649
1220.239, 2.840530
1220.721, 3.631999
1221.203, 3.677516
1221.685, 3.697332
1222.167, 3.794496
1222.649, 3.878455
1223.131, 3.937676
1223.614, 4.212459
1224.096, 5.074330
1224.578, 5.642725
1225.060, 4.383324
1225.542, 2.784734
1226.024, 2.864048
1226.506, 3.706018
1226.988, 3.861865
1227.470, 3.283228
1227.953, 2.299739
1228.435, 0.9716530
1228.917, 0.5533540
1229.399, 2.493369
1229.881, 4.030358
1230.363, 4.089648
1230.845, 3.694992
1231.327, 3.158614
1231.810, 2.702282
1232.292, 2.684240
1232.774, 2.968683
1233.256, 2.822416
1233.738, 3.104175
1234.220, 3.495796
1234.702, 3.311749
1235.184, 3.472649
1235.667, 3.839766
1236.149, 3.328869
1236.631, 2.885115
1237.113, 2.594906
1237.595, 2.585342
1238.077, 2.767889
1238.559, 2.880204
1239.041, 2.942537
1239.523, 3.098098
1240.005, 3.311740
1240.488, 3.370277
1240.970, 3.247276
1241.452, 3.068977
1241.934, 2.895911
1242.416, 2.747179
1242.898, 2.677267
1243.380, 2.590600
1243.862, 2.364081
1244.344, 2.124120
1244.827, 1.952914
1245.309, 1.886368
1245.791, 2.118687
1246.273, 2.528544
1246.755, 2.399673
1247.237, 1.198829
1247.719, 0.6910010
1248.201, 1.788414
1248.684, 2.902669
1249.166, 3.883834
1249.648, 4.370569
1250.130, 3.957167
1250.612, 3.128818
1251.094, 2.412996
1251.576, 1.876210
1252.058, 2.018406
1252.541, 2.945139
1253.023, 3.832001
1253.505, 4.683368
1253.987, 5.293619
1254.469, 5.624725
1254.951, 5.278422
1255.433, 3.995707
1255.915, 2.437980
1256.397, 1.242864
1256.880, 0.5471150
1257.362, 0.9116770
1257.844, 1.820233
1258.326, 2.112278
1258.808, 2.054935
1259.290, 2.625588
1259.772, 3.796157
1260.254, 4.605365
1260.737, 4.655819
1261.219, 4.368818
1261.701, 4.006890
1262.183, 3.309294
1262.665, 1.232795
1263.147, 0.2589650
1263.629, 1.109220
1264.111, 3.398140
1264.594, 3.742419
1265.076, 2.388552
1265.558, 1.219384
1266.040, 4.3504000E-02
1266.522, 0.1987170
1267.004, 0.7012460
1267.486, 1.936098
1267.968, 3.569871
1268.450, 4.339694
1268.932, 3.501054
1269.415, 2.161537
1269.897, 1.455687
1270.379, 1.399151
1270.861, 2.270704
1271.343, 3.727549
1271.825, 5.325631
1272.307, 6.484427
1272.789, 4.768052
1273.271, 0.8652380
1273.754, 0.9301300
1274.236, 0.9329960
1274.718, 3.172985
1275.200, 4.316657
1275.682, 4.810942
1276.164, 4.334929
1276.646, 4.007479
1277.128, 4.444813
1277.611, 5.012355
1278.093, 4.928948
1278.575, 4.339178
1279.057, 3.722654
1279.539, 2.964399
1280.021, 2.357832
1280.503, 4.235951
1280.985, 4.942034
1281.468, 3.955578
1281.950, 2.467660
1282.432, 0.6953940
1282.914, 3.9670002E-02
1283.396, 1.575855
1283.878, 3.858655
1284.360, 3.305803
1284.842, 1.224484
1285.324, 0.0000000E+00
##END=



