##NAMES=Yangite
##RRUFFID=R090031
##IDEAL CHEMISTRY=Pb^2+^Mn^2+^Si_3_O_8_&#183;H_2_O
##LOCALITY=Kombat, Namibia
##OWNER=RRUFF
##SOURCE=William W. Pinch
##DESCRIPTION=Colorless to pale brown bladed crystals associated with black massive melanotekite, R090032, and brown rhodochrosite. Sample is from the John Innes collection.
##STATUS=The identification of this mineral is confirmed by single-crystal X-ray diffraction and chemical analysis.
##URL=rruff.info/R090031
##MEASURED CHEMISTRY=Pb_1.00_Mn_1.00_Si_3.00_O_8.00_Â·H_2_O
102.9835, 0.0000000E+00
103.4656, 0.8404850
103.9478, 1.366028
104.4299, 10.28845
104.9120, 23.63440
105.3941, 40.34033
105.8762, 60.59720
106.3583, 77.76669
106.8405, 92.71359
107.3226, 104.3620
107.8047, 111.0130
108.2868, 112.6606
108.7689, 112.3159
109.2510, 112.9314
109.7332, 114.4539
110.2153, 116.6860
110.6974, 118.4339
111.1795, 121.7391
111.6616, 129.1743
112.1437, 141.0689
112.6259, 155.6561
113.1080, 171.5191
113.5901, 188.4848
114.0722, 206.2479
114.5543, 224.8970
115.0364, 244.4557
115.5185, 263.4243
116.0007, 280.2901
116.4828, 297.5042
116.9649, 316.5721
117.4470, 337.6800
117.9291, 360.4901
118.4112, 385.2349
118.8934, 415.6874
119.3755, 451.8674
119.8576, 490.2616
120.3397, 530.6763
120.8218, 572.5839
121.3039, 615.6279
121.7861, 660.4170
122.2682, 709.9387
122.7503, 765.3445
123.2324, 826.9818
123.7145, 903.3860
124.1966, 984.8448
124.6788, 1061.813
125.1609, 1132.204
125.6430, 1191.270
126.1251, 1196.745
126.6072, 1143.992
127.0893, 1058.746
127.5715, 936.2359
128.0536, 783.3481
128.5357, 630.2927
129.0178, 493.4072
129.4999, 376.0270
129.9821, 278.4553
130.4642, 204.5753
130.9463, 147.7652
131.4284, 102.5201
131.9105, 69.47836
132.3926, 44.17465
132.8748, 25.73718
133.3569, 12.26114
133.8390, 1.822906
134.3211, 5.870117
134.8032, 11.07996
135.2853, 14.73779
135.7674, 16.37854
136.2496, 16.87564
136.7317, 16.73801
137.2138, 15.97729
137.6959, 14.58057
138.1780, 12.42081
138.6601, 9.432617
139.1423, 6.361603
139.6244, 2.858185
140.1065, 0.4398800
140.5886, 3.210510
141.0707, 5.484314
141.5528, 7.587738
142.0350, 10.00449
142.5171, 13.32742
142.9992, 15.27750
143.4813, 15.06723
143.9634, 14.30273
144.4455, 13.89200
144.9277, 14.10721
145.4098, 14.80579
145.8919, 15.77386
146.3740, 17.05060
146.8561, 18.58109
147.3382, 20.06201
147.8204, 21.87738
148.3025, 24.49072
148.7846, 28.07474
149.2667, 32.51553
149.7488, 37.80542
150.2309, 43.99222
150.7131, 50.53543
151.1952, 57.63187
151.6773, 65.02316
152.1594, 71.66910
152.6415, 76.79727
153.1236, 81.37949
153.6058, 87.16373
154.0879, 94.60065
154.5700, 101.7864
155.0521, 106.7278
155.5342, 109.2855
156.0163, 112.3577
156.4985, 117.1100
156.9806, 122.8344
157.4627, 129.0759
157.9448, 135.8988
158.4269, 144.0491
158.9090, 153.5651
159.3912, 164.4806
159.8733, 174.4908
160.3554, 183.3720
160.8375, 190.9700
161.3196, 197.8594
161.8017, 204.2428
162.2839, 209.7200
162.7660, 212.9098
163.2481, 212.8551
163.7302, 211.4506
164.2123, 208.4560
164.6944, 204.5242
165.1766, 200.3976
165.6587, 196.4648
166.1408, 192.6904
166.6229, 188.7109
167.1050, 184.5393
167.5871, 180.1494
168.0693, 174.9206
168.5514, 169.4515
169.0335, 164.7897
169.5156, 161.6182
169.9977, 159.9053
170.4798, 159.1685
170.9620, 159.6683
171.4441, 160.6556
171.9262, 161.6852
172.4083, 162.8486
172.8904, 164.5523
173.3725, 166.8783
173.8547, 170.1339
174.3368, 175.1108
174.8189, 182.7198
175.3010, 191.4258
175.7831, 199.5212
176.2652, 206.8926
176.7474, 215.7338
177.2295, 228.3033
177.7116, 243.6851
178.1937, 259.4312
178.6758, 274.6096
179.1579, 290.0842
179.6401, 307.0151
180.1222, 325.0854
180.6043, 345.5096
181.0864, 369.4987
181.5685, 396.0889
182.0506, 423.9816
182.5328, 453.6647
183.0149, 484.0746
183.4970, 513.0216
183.9791, 544.1327
184.4612, 566.8701
184.9433, 580.0379
185.4255, 583.1675
185.9076, 575.1710
186.3897, 553.9631
186.8718, 520.3174
187.3539, 483.3759
187.8360, 439.7119
188.3182, 395.9104
188.8003, 352.3461
189.2824, 310.0964
189.7645, 270.6555
190.2466, 235.3547
190.7287, 204.0800
191.2109, 176.5878
191.6930, 153.3439
192.1751, 132.5007
192.6572, 114.2780
193.1393, 98.51102
193.6214, 84.78851
194.1036, 72.86987
194.5857, 62.80444
195.0678, 54.46237
195.5499, 48.00641
196.0320, 42.77356
196.5141, 38.85510
196.9963, 36.04077
197.4784, 33.74457
197.9605, 31.41052
198.4426, 28.91025
198.9247, 26.66141
199.4068, 24.29535
199.8890, 22.35083
200.3711, 21.41833
200.8532, 21.46115
201.3353, 21.64087
201.8174, 21.11551
202.2995, 19.83636
202.7817, 19.00208
203.2638, 18.70544
203.7459, 18.84241
204.2280, 19.26611
204.7101, 19.95209
205.1922, 21.14005
205.6744, 23.61298
206.1565, 26.98846
206.6386, 29.29745
207.1207, 29.51703
207.6028, 28.70132
208.0849, 28.63428
208.5671, 29.88556
209.0492, 30.17398
209.5313, 26.47256
210.0134, 20.36713
210.4955, 15.16306
210.9776, 13.02747
211.4598, 12.48965
211.9419, 10.05792
212.4240, 4.890503
212.9061, 0.4821170
213.3882, 4.846710
213.8703, 8.342728
214.3525, 11.15956
214.8346, 13.59512
215.3167, 15.42104
215.7988, 15.61850
216.2809, 13.38319
216.7630, 10.65129
217.2451, 8.334229
217.7273, 6.183899
218.2094, 3.779099
218.6915, 0.9300690
219.1736, 2.385040
219.6557, 6.321442
220.1378, 11.34663
220.6200, 16.45653
221.1021, 21.13875
221.5842, 25.69569
222.0663, 30.66502
222.5484, 36.40128
223.0305, 42.84674
223.5127, 49.46217
223.9948, 56.34828
224.4769, 63.26736
224.9590, 70.32417
225.4411, 77.39067
225.9232, 84.15721
226.4054, 90.38252
226.8875, 96.14401
227.3696, 102.8544
227.8517, 110.5519
228.3338, 119.1720
228.8159, 129.1762
229.2981, 140.0797
229.7802, 151.0499
230.2623, 161.6246
230.7444, 171.8249
231.2265, 181.6042
231.7086, 190.3342
232.1908, 199.3547
232.6729, 209.3268
233.1550, 219.8503
233.6371, 230.0820
234.1192, 239.4359
234.6013, 248.1236
235.0835, 257.7616
235.5656, 269.2444
236.0477, 280.6099
236.5298, 290.8745
237.0119, 300.6278
237.4940, 311.4309
237.9762, 324.4438
238.4583, 338.8970
238.9404, 351.1400
239.4225, 361.8411
239.9046, 370.2551
240.3867, 375.6175
240.8689, 378.3064
241.3510, 379.2050
241.8331, 378.5647
242.3152, 376.6364
242.7973, 374.0356
243.2794, 369.7928
243.7616, 366.2542
244.2437, 364.0221
244.7258, 363.3047
245.2079, 364.7830
245.6900, 369.0261
246.1721, 375.2943
246.6543, 381.9160
247.1364, 388.6277
247.6185, 396.2453
248.1006, 405.1327
248.5827, 415.2326
249.0648, 426.3772
249.5470, 438.3387
250.0291, 451.8138
250.5112, 467.3472
250.9933, 484.9445
251.4754, 504.2373
251.9576, 525.9339
252.4397, 549.4551
252.9218, 572.7717
253.4039, 594.7682
253.8860, 617.0477
254.3681, 641.2859
254.8503, 667.4988
255.3324, 693.9529
255.8145, 721.4442
256.2966, 748.9082
256.7787, 771.2377
257.2608, 788.6953
257.7430, 798.3135
258.2251, 800.1246
258.7072, 794.0899
259.1893, 779.7773
259.6714, 755.4800
260.1535, 722.1899
260.6357, 684.3200
261.1178, 639.4838
261.5999, 593.7163
262.0820, 549.5383
262.5641, 507.2536
263.0462, 467.7146
263.5284, 430.8680
264.0105, 397.0939
264.4926, 367.7928
264.9747, 343.7799
265.4568, 323.9339
265.9389, 307.2726
266.4211, 293.6590
266.9032, 282.9668
267.3853, 275.2943
267.8674, 270.4570
268.3495, 267.7416
268.8316, 267.8712
269.3138, 269.2677
269.7959, 271.0166
270.2780, 273.4502
270.7601, 277.0488
271.2422, 282.0099
271.7243, 288.1549
272.2065, 294.6648
272.6886, 301.2350
273.1707, 308.8728
273.6528, 317.8624
274.1349, 328.1270
274.6170, 339.6250
275.0992, 352.5023
275.5813, 365.9268
276.0634, 377.7793
276.5455, 387.7442
277.0276, 396.6156
277.5097, 406.1130
277.9919, 413.9887
278.4740, 418.4073
278.9561, 418.7245
279.4382, 415.0435
279.9203, 407.4067
280.4024, 395.3349
280.8846, 379.9184
281.3667, 361.0256
281.8488, 339.7203
282.3309, 316.1946
282.8130, 290.7296
283.2951, 264.5522
283.7773, 239.3536
284.2594, 215.1232
284.7415, 192.0298
285.2236, 169.2715
285.7057, 148.0247
286.1878, 128.9014
286.6700, 112.0891
287.1521, 97.38968
287.6342, 84.70740
288.1163, 74.55206
288.5984, 64.83598
289.0805, 55.40799
289.5627, 46.53654
290.0448, 38.11566
290.5269, 30.30771
291.0090, 23.63660
291.4911, 18.73056
291.9732, 15.77515
292.4554, 12.34146
292.9375, 7.283920
293.4196, 2.879272
293.9017, 8.2595997E-02
294.3838, 1.458511
294.8659, 2.563797
295.3481, 3.770157
295.8302, 5.086014
296.3123, 6.534409
296.7944, 8.900833
297.2765, 10.54623
297.7586, 10.75616
298.2408, 10.11110
298.7229, 9.512695
299.2050, 9.477142
299.6871, 9.748749
300.1692, 9.327423
300.6513, 7.313690
301.1335, 5.654877
301.6156, 5.116638
302.0977, 4.773956
302.5798, 3.491272
303.0619, 0.8380130
303.5440, 2.545227
304.0262, 5.359268
304.5083, 7.357956
304.9904, 9.044724
305.4725, 10.26157
305.9546, 11.29802
306.4367, 12.07083
306.9189, 12.69554
307.4010, 13.87173
307.8831, 16.75912
308.3652, 22.56522
308.8473, 26.89207
309.3294, 28.35387
309.8116, 29.72406
310.2937, 32.85437
310.7758, 37.70543
311.2579, 42.91745
311.7400, 47.04330
312.2221, 49.84094
312.7043, 53.52632
313.1864, 58.50775
313.6685, 63.84198
314.1506, 68.99631
314.6327, 74.19379
315.1148, 79.99397
315.5970, 86.75446
316.0791, 94.48032
316.5612, 103.2666
317.0433, 113.7737
317.5254, 124.6768
318.0075, 135.5724
318.4897, 146.7026
318.9718, 158.7626
319.4539, 172.1741
319.9360, 186.1265
320.4181, 198.1464
320.9002, 206.8109
321.3824, 214.9609
321.8645, 223.1107
322.3466, 230.6361
322.8287, 236.7720
323.3108, 241.2705
323.7929, 244.8444
324.2751, 248.5882
324.7572, 252.1581
325.2393, 256.6855
325.7214, 262.2445
326.2035, 268.5723
326.6856, 275.4881
327.1678, 282.9833
327.6499, 291.1716
328.1320, 300.0641
328.6141, 309.3513
329.0962, 321.1934
329.5783, 336.9440
330.0605, 353.5870
330.5426, 369.5426
331.0247, 385.3019
331.5068, 402.0939
331.9889, 420.7473
332.4710, 441.2999
332.9532, 464.4121
333.4353, 490.7886
333.9174, 519.4109
334.3995, 552.0421
334.8816, 586.2823
335.3637, 619.6358
335.8459, 650.7493
336.3280, 678.8600
336.8101, 701.0765
337.2922, 719.2590
337.7743, 727.5259
338.2564, 726.9383
338.7386, 716.8174
339.2206, 694.3940
339.7028, 659.4814
340.1849, 617.4749
340.6670, 575.6281
341.1491, 532.2677
341.6312, 493.8221
342.1133, 459.8938
342.5955, 430.6430
343.0776, 406.5275
343.5597, 387.2800
344.0418, 372.0858
344.5239, 360.3810
345.0060, 352.1626
345.4882, 346.1709
345.9703, 343.4042
346.4524, 342.3744
346.9345, 343.1855
347.4166, 345.2175
347.8987, 347.8404
348.3809, 350.4862
348.8630, 353.3810
349.3451, 357.4634
349.8272, 363.5880
350.3093, 369.7062
350.7914, 375.1196
351.2736, 380.4415
351.7557, 386.3289
352.2378, 393.0064
352.7199, 399.9150
353.2020, 405.9889
353.6841, 410.9302
354.1663, 415.8900
354.6484, 422.4440
355.1305, 427.9055
355.6126, 430.7018
356.0947, 430.7760
356.5768, 429.0476
357.0590, 426.3176
357.5411, 422.6056
358.0232, 417.4999
358.5053, 411.2523
358.9874, 403.2842
359.4695, 393.2017
359.9517, 381.2922
360.4338, 368.1596
360.9159, 353.9173
361.3980, 338.9358
361.8801, 324.1659
362.3622, 309.9924
362.8444, 295.2711
363.3265, 278.7302
363.8086, 261.8397
364.2907, 246.0228
364.7728, 231.6110
365.2549, 218.4558
365.7371, 206.5507
366.2192, 195.9420
366.7013, 185.6809
367.1834, 175.2806
367.6655, 165.4387
368.1476, 156.9315
368.6298, 149.6739
369.1119, 142.5271
369.5940, 134.2648
370.0761, 125.2987
370.5582, 117.8856
371.0403, 112.9658
371.5225, 108.2547
372.0046, 101.6944
372.4867, 94.13945
372.9688, 87.52841
373.4509, 83.11627
373.9330, 79.76637
374.4152, 75.81529
374.8973, 71.20773
375.3794, 66.56725
375.8615, 61.92056
376.3436, 57.61298
376.8257, 54.13263
377.3079, 51.63544
377.7900, 49.68060
378.2721, 47.92668
378.7542, 46.43283
379.2363, 45.55434
379.7184, 45.60986
380.2006, 45.94775
380.6827, 45.50146
381.1648, 44.26849
381.6469, 43.72353
382.1290, 44.87288
382.6111, 46.76764
383.0933, 47.88977
383.5754, 48.02180
384.0575, 48.42169
384.5396, 50.26761
385.0217, 53.39072
385.5038, 56.11545
385.9860, 58.14095
386.4681, 59.97533
386.9502, 61.99637
387.4323, 64.09708
387.9144, 66.10432
388.3965, 68.15952
388.8787, 69.69679
389.3608, 69.03529
389.8429, 65.89439
390.3250, 61.72018
390.8071, 56.39244
391.2892, 50.36108
391.7714, 43.96558
392.2535, 37.32986
392.7356, 30.80643
393.2177, 24.82152
393.6998, 19.41190
394.1819, 14.56047
394.6641, 10.58002
395.1462, 6.798279
395.6283, 2.565369
396.1104, 1.820953
396.5925, 5.355667
397.0746, 7.351364
397.5568, 8.045578
398.0389, 8.819855
398.5210, 9.744095
399.0031, 10.65898
399.4852, 11.84709
399.9673, 12.88513
400.4495, 13.36156
400.9316, 13.13425
401.4137, 12.27408
401.8958, 10.76914
402.3779, 8.127029
402.8600, 6.197021
403.3422, 6.362183
403.8243, 5.905624
404.3064, 2.887543
404.7885, 2.095337
405.2706, 6.935806
405.7527, 9.886902
406.2349, 11.28131
406.7170, 13.66698
407.1991, 17.72095
407.6812, 21.83469
408.1633, 25.88264
408.6454, 29.67081
409.1276, 32.84053
409.6097, 35.23573
410.0918, 37.49631
410.5739, 40.60106
411.0560, 44.64636
411.5381, 48.96776
412.0203, 53.69255
412.5024, 58.48329
412.9845, 63.00714
413.4666, 67.33974
413.9487, 71.93616
414.4308, 77.10838
414.9130, 82.78134
415.3951, 88.61481
415.8772, 94.46042
416.3593, 100.8376
416.8414, 108.3585
417.3235, 116.4920
417.8057, 124.5428
418.2878, 132.2438
418.7699, 140.0341
419.2520, 148.7575
419.7341, 158.2436
420.2162, 166.8875
420.6984, 174.2284
421.1805, 180.3939
421.6626, 185.6089
422.1447, 189.9765
422.6268, 193.2589
423.1089, 196.0503
423.5911, 197.4220
424.0732, 196.0147
424.5553, 191.6864
425.0374, 185.2049
425.5195, 176.8420
426.0016, 166.6535
426.4838, 155.9177
426.9659, 143.7076
427.4480, 131.9508
427.9301, 121.8421
428.4122, 112.8193
428.8943, 103.5672
429.3765, 93.46964
429.8586, 83.52808
430.3407, 75.51163
430.8228, 70.18544
431.3049, 65.37758
431.7870, 61.23016
432.2692, 57.50464
432.7513, 54.08850
433.2334, 50.95338
433.7155, 48.05969
434.1976, 45.42686
434.6797, 43.03098
435.1619, 40.44377
435.6440, 37.35710
436.1261, 34.41994
436.6082, 31.65901
437.0903, 29.13780
437.5724, 26.96487
438.0546, 25.17136
438.5367, 23.56046
439.0188, 21.78838
439.5009, 19.71701
439.9830, 17.93512
440.4651, 16.64641
440.9473, 15.46878
441.4294, 14.14560
441.9115, 12.77998
442.3936, 11.72003
442.8757, 11.32246
443.3578, 11.32596
443.8400, 10.87965
444.3221, 9.935669
444.8042, 8.645508
445.2863, 6.593658
445.7684, 4.468658
446.2505, 2.904404
446.7327, 2.030563
447.2148, 1.642487
447.6969, 1.818741
448.1790, 2.423004
448.6611, 2.611832
449.1432, 2.032410
449.6254, 1.463287
450.1075, 1.697418
450.5896, 2.506866
451.0717, 3.230057
451.5538, 3.491119
452.0359, 3.735443
452.5181, 4.435257
453.0002, 5.540237
453.4823, 6.608170
453.9644, 7.107422
454.4465, 7.403259
454.9286, 8.542679
455.4108, 10.94574
455.8929, 13.01147
456.3750, 14.08322
456.8571, 14.78128
457.3392, 15.64629
457.8214, 16.81029
458.3035, 18.42383
458.7856, 20.71307
459.2677, 23.73399
459.7498, 26.64020
460.2319, 29.64850
460.7141, 32.45044
461.1962, 34.41637
461.6783, 36.17609
462.1604, 38.82556
462.6425, 42.76439
463.1246, 47.06599
463.6068, 50.48351
464.0889, 52.41277
464.5710, 55.01830
465.0531, 58.86530
465.5352, 62.81192
466.0173, 66.41089
466.4995, 69.66550
466.9816, 72.71472
467.4637, 75.60394
467.9458, 78.41182
468.4279, 81.40402
468.9100, 84.63393
469.3922, 87.94032
469.8743, 91.78748
470.3564, 95.39963
470.8385, 97.97507
471.3206, 99.41017
471.8027, 100.5730
472.2849, 102.4561
472.7670, 104.6706
473.2491, 105.6297
473.7312, 104.9912
474.2133, 103.6752
474.6954, 102.3362
475.1776, 100.7954
475.6597, 98.58131
476.1418, 95.43251
476.6239, 91.83549
477.1060, 88.07010
477.5881, 84.14220
478.0703, 79.87666
478.5524, 75.17181
479.0345, 70.42683
479.5166, 66.31535
479.9987, 63.00328
480.4808, 59.50099
480.9630, 55.96951
481.4451, 52.07132
481.9272, 47.13306
482.4093, 41.56772
482.8914, 36.67738
483.3735, 33.26418
483.8557, 30.96027
484.3378, 28.43245
484.8199, 25.60509
485.3020, 22.63991
485.7841, 19.17432
486.2662, 15.82446
486.7484, 12.97138
487.2305, 10.70389
487.7126, 9.056717
488.1947, 8.216827
488.6768, 8.099121
489.1589, 7.283997
489.6411, 5.112137
490.1232, 3.284378
490.6053, 2.343292
491.0874, 1.968582
491.5695, 1.707550
492.0516, 1.400909
492.5338, 1.618301
493.0159, 3.168671
493.4980, 5.916122
493.9801, 8.712830
494.4622, 11.70209
494.9443, 14.13222
495.4265, 14.56528
495.9086, 13.84811
496.3907, 14.46017
496.8728, 17.91478
497.3549, 22.10722
497.8370, 25.20219
498.3192, 27.51138
498.8013, 30.21571
499.2834, 33.77795
499.7655, 37.86742
500.2476, 41.95605
500.7297, 45.90703
501.2119, 50.39389
501.6940, 55.80727
502.1761, 61.48586
502.6582, 67.07397
503.1403, 72.52185
503.6224, 77.93059
504.1045, 83.39943
504.5866, 88.87051
505.0688, 94.13411
505.5509, 98.92653
506.0330, 104.0581
506.5151, 109.7862
506.9972, 115.6953
507.4793, 121.5552
507.9615, 127.2831
508.4436, 132.8098
508.9257, 137.9615
509.4078, 142.9057
509.8899, 148.4134
510.3720, 154.7155
510.8542, 161.2350
511.3363, 167.7928
511.8184, 174.3318
512.3005, 181.0507
512.7827, 188.1251
513.2648, 194.5269
513.7469, 199.1251
514.2290, 202.3633
514.7111, 205.6849
515.1932, 209.3224
515.6754, 213.1570
516.1575, 217.7528
516.6396, 222.5347
517.1217, 225.0032
517.6038, 223.6340
518.0859, 221.5335
518.5681, 220.4283
519.0502, 219.4190
519.5323, 217.0392
520.0144, 212.8582
520.4965, 207.2523
520.9786, 200.6318
521.4608, 192.9485
521.9429, 184.4618
522.4250, 174.2229
522.9071, 164.1929
523.3892, 155.1816
523.8713, 146.8557
524.3535, 138.6725
524.8356, 130.4597
525.3177, 122.2477
525.7998, 114.0156
526.2819, 105.5086
526.7640, 98.32671
527.2462, 93.26377
527.7283, 89.03596
528.2104, 85.09894
528.6925, 81.33054
529.1746, 77.79465
529.6567, 74.61645
530.1389, 71.71130
530.6210, 69.09343
531.1031, 66.72466
531.5852, 64.10715
532.0673, 60.94573
532.5494, 57.73349
533.0316, 55.16947
533.5137, 53.22510
533.9958, 51.08856
534.4779, 48.32784
534.9600, 45.54250
535.4421, 43.12947
535.9243, 41.07359
536.4064, 39.22566
536.8885, 37.54013
537.3706, 35.96844
537.8527, 34.44841
538.3348, 33.10395
538.8170, 31.51517
539.2991, 29.53436
539.7812, 27.46411
540.2633, 25.19745
540.7454, 22.98129
541.2275, 21.38862
541.7097, 20.84081
542.1918, 20.90124
542.6739, 20.43138
543.1560, 19.30322
543.6381, 18.03236
544.1202, 16.32529
544.6024, 14.83813
545.0845, 14.14043
545.5666, 14.11253
546.0487, 14.07246
546.5308, 13.79783
547.0129, 13.21774
547.4951, 12.00620
547.9772, 10.18554
548.4593, 8.768440
548.9414, 8.339905
549.4235, 8.352600
549.9056, 7.755592
550.3878, 6.424248
550.8699, 5.373764
551.3520, 5.041870
551.8341, 4.880943
552.3162, 4.382355
552.7983, 3.621323
553.2805, 3.036873
553.7626, 2.904289
554.2447, 3.020332
554.7268, 2.758087
555.2089, 1.630501
555.6910, 1.004471
556.1732, 1.299042
556.6553, 1.705223
557.1374, 1.748833
557.6195, 1.451965
558.1016, 1.057411
558.5837, 0.6914830
559.0659, 0.3583220
559.5480, 1.3730000E-03
560.0301, 0.4492800
560.5122, 0.4923400
560.9943, 0.5136870
561.4764, 1.491478
561.9586, 1.241081
562.4407, 0.1528020
562.9228, 1.349815
563.4049, 1.678452
563.8870, 1.694504
564.3691, 2.082283
564.8513, 2.741997
565.3334, 3.010162
565.8155, 2.527245
566.2976, 1.667000
566.7797, 1.111465
567.2618, 0.8792420
567.7440, 0.9793240
568.2261, 1.979698
568.7082, 2.785904
569.1903, 2.420029
569.6724, 1.359016
570.1545, 0.8997880
570.6367, 1.782402
571.1188, 3.198921
571.6009, 3.288879
572.0830, 1.588715
572.5651, 0.3398510
573.0472, 0.1898800
573.5294, 0.2107930
574.0115, 0.4314500
574.4936, 1.491287
574.9757, 2.332855
575.4578, 2.682571
575.9399, 2.722923
576.4221, 2.602257
576.9042, 2.337700
577.3863, 2.011314
577.8684, 1.625267
578.3505, 1.247162
578.8326, 0.9852070
579.3148, 0.8523560
579.7969, 0.5783160
580.2790, 1.0651000E-02
580.7611, 0.5694730
581.2432, 0.9206240
581.7253, 1.133141
582.2075, 1.333069
582.6896, 1.563904
583.1717, 1.790428
583.6538, 2.019928
584.1359, 2.321236
584.6180, 2.100723
585.1002, 0.3006900
585.5823, 0.7403640
586.0643, 0.3523480
586.5464, 2.343391
587.0286, 3.516647
587.5107, 3.339783
587.9928, 2.930473
588.4749, 3.411880
588.9570, 4.561783
589.4391, 5.609299
589.9213, 6.553284
590.4034, 7.005753
590.8855, 6.494339
591.3676, 5.292419
591.8497, 4.466972
592.3318, 3.953735
592.8140, 3.892601
593.2961, 4.631386
593.7782, 5.684021
594.2603, 6.551208
594.7424, 7.140144
595.2245, 7.476608
595.7067, 7.518112
596.1888, 7.389038
596.6709, 7.825249
597.1530, 9.266159
597.6351, 10.53063
598.1172, 11.46339
598.5994, 12.18655
599.0815, 12.59172
599.5636, 12.80893
600.0457, 13.35135
600.5278, 14.74032
601.0099, 16.53492
601.4921, 17.70485
601.9742, 18.23264
602.4563, 19.48397
602.9384, 22.34216
603.4205, 25.56823
603.9026, 27.19461
604.3848, 27.19466
604.8669, 27.61398
605.3490, 28.66692
605.8311, 30.37251
606.3132, 32.97266
606.7953, 36.17252
607.2775, 39.25747
607.7596, 41.92694
608.2417, 44.77315
608.7238, 48.74598
609.2059, 54.06446
609.6880, 59.37376
610.1702, 63.78399
610.6523, 69.27702
611.1344, 76.97187
611.6165, 85.92126
612.0986, 94.79148
612.5807, 103.2039
613.0629, 111.6261
613.5450, 120.7561
614.0271, 130.1972
614.5092, 138.6656
614.9913, 145.9493
615.4734, 152.8998
615.9556, 159.9502
616.4377, 167.1907
616.9198, 175.0258
617.4019, 183.7613
617.8840, 192.4638
618.3661, 201.0962
618.8483, 209.5974
619.3304, 217.2860
619.8125, 224.6088
620.2946, 233.0620
620.7767, 243.5583
621.2589, 255.8865
621.7410, 269.3640
622.2231, 284.3349
622.7052, 299.3190
623.1873, 313.4711
623.6694, 328.3566
624.1516, 345.4283
624.6337, 363.8965
625.1158, 381.4855
625.5979, 397.5053
626.0800, 411.8041
626.5621, 424.8073
627.0443, 436.0372
627.5264, 443.8550
628.0085, 448.0325
628.4906, 447.1313
628.9727, 439.7039
629.4548, 425.8275
629.9370, 406.8117
630.4191, 380.4793
630.9012, 352.6158
631.3833, 323.1029
631.8654, 293.1981
632.3475, 263.4822
632.8297, 234.4132
633.3118, 206.8947
633.7939, 181.6066
634.2760, 158.6571
634.7581, 139.2998
635.2402, 123.9154
635.7224, 110.7110
636.2045, 100.0740
636.6866, 90.72561
637.1687, 81.13063
637.6508, 71.39864
638.1329, 62.92361
638.6151, 56.30851
639.0972, 50.93417
639.5793, 46.75578
640.0614, 43.41322
640.5435, 39.91494
641.0256, 35.92474
641.5078, 32.11398
641.9899, 29.49095
642.4720, 28.23260
642.9541, 26.52045
643.4362, 23.74695
643.9183, 21.37888
644.4005, 19.91274
644.8826, 18.86214
645.3647, 17.72140
645.8468, 16.39548
646.3289, 15.15387
646.8110, 14.37640
647.2932, 13.81503
647.7753, 12.70087
648.2574, 10.98539
648.7395, 9.709297
649.2216, 9.625443
649.7037, 9.850983
650.1859, 8.565742
650.6680, 5.182716
651.1501, 3.028343
651.6322, 3.013237
652.1143, 3.637466
652.5964, 4.515839
653.0786, 5.284195
653.5607, 5.351448
654.0428, 4.517906
654.5249, 3.295509
655.0070, 2.237961
655.4891, 1.324059
655.9713, 1.099808
656.4534, 1.917076
656.9355, 2.740334
657.4176, 3.217133
657.8997, 3.362801
658.3818, 3.051300
658.8640, 2.185532
659.3461, 1.501923
659.8282, 1.483650
660.3103, 1.717121
660.7924, 1.879822
661.2745, 1.882973
661.7567, 1.416298
662.2388, 0.2736820
662.7209, 1.034672
663.2030, 1.489483
663.6851, 0.7207760
664.1672, 0.3156850
664.6494, 0.6422270
665.1315, 0.9368210
665.6136, 0.9535180
666.0957, 0.7807460
666.5778, 0.5464780
667.0599, 0.2837560
667.5421, 3.1089999E-03
668.0242, 0.2990490
668.5063, 0.6185230
668.9884, 1.020088
669.4705, 1.507729
669.9526, 1.997475
670.4348, 2.480999
670.9169, 2.881142
671.3990, 2.992596
671.8811, 2.587357
672.3632, 2.461941
672.8453, 2.820782
673.3275, 3.273998
673.8096, 3.552879
674.2917, 3.788361
674.7738, 4.334248
675.2559, 5.315922
675.7380, 6.249195
676.2202, 6.244678
676.7023, 5.469471
677.1844, 5.792755
677.6665, 7.640278
678.1486, 9.358585
678.6307, 9.954437
679.1129, 9.989059
679.5950, 10.52142
680.0771, 11.62501
680.5592, 12.88304
681.0413, 14.23615
681.5234, 15.66519
682.0056, 17.14657
682.4877, 18.69043
682.9698, 20.37324
683.4519, 22.21924
683.9340, 24.04615
684.4161, 25.49892
684.8983, 26.50140
685.3804, 27.98621
685.8625, 30.12644
686.3446, 32.43792
686.8267, 34.66576
687.3088, 36.96597
687.7910, 39.64796
688.2731, 42.78880
688.7552, 45.66731
689.2373, 47.71185
689.7194, 49.53055
690.2015, 51.77537
690.6837, 54.35517
691.1658, 56.81597
691.6479, 58.96926
692.1300, 61.01483
692.6121, 63.23608
693.0942, 65.57578
693.5764, 68.43479
694.0585, 72.28189
694.5406, 76.00515
695.0227, 79.23634
695.5048, 82.22372
695.9869, 85.31275
696.4691, 88.53252
696.9512, 91.50195
697.4333, 93.96158
697.9154, 96.07617
698.3975, 98.31486
698.8796, 100.5011
699.3618, 101.6135
699.8439, 101.2113
700.3260, 100.2160
700.8081, 99.89153
701.2902, 100.3831
701.7723, 100.1713
702.2545, 99.05439
702.7366, 97.45535
703.2187, 95.47792
703.7008, 93.03094
704.1829, 89.90220
704.6650, 86.15979
705.1472, 82.20553
705.6293, 78.23450
706.1114, 74.28405
706.5935, 70.52695
707.0756, 66.93419
707.5577, 63.17137
708.0399, 59.09655
708.5220, 54.99775
709.0041, 51.03730
709.4862, 47.19130
709.9683, 44.31755
710.4504, 43.71505
710.9326, 42.34130
711.4147, 38.85138
711.8968, 35.02356
712.3789, 32.46291
712.8610, 31.11836
713.3431, 29.82991
713.8253, 27.75040
714.3074, 25.59589
714.7895, 24.57816
715.2716, 24.56458
715.7537, 24.63981
716.2358, 24.68339
716.7180, 24.42297
717.2001, 23.43224
717.6822, 21.92570
718.1643, 21.32986
718.6464, 22.38825
719.1285, 23.23985
719.6107, 23.56190
720.0928, 23.73353
720.5749, 23.88671
721.0570, 24.11585
721.5391, 24.51237
722.0212, 25.05197
722.5034, 25.73841
722.9855, 26.73605
723.4676, 27.99662
723.9497, 29.04493
724.4318, 29.78463
724.9139, 30.63700
725.3961, 31.84904
725.8782, 33.34590
726.3603, 34.93884
726.8424, 36.76040
727.3245, 38.38815
727.8066, 39.37120
728.2888, 40.58939
728.7709, 42.92981
729.2530, 45.74271
729.7351, 47.87255
730.2172, 48.92353
730.6993, 49.39015
731.1815, 49.70069
731.6636, 49.85275
732.1457, 49.82272
732.6278, 49.60440
733.1099, 49.34286
733.5920, 49.24702
734.0742, 48.88934
734.5563, 47.54955
735.0384, 45.00019
735.5205, 42.52055
736.0026, 40.31471
736.4847, 37.94056
736.9669, 35.02064
737.4490, 31.97722
737.9311, 29.27085
738.4132, 26.97906
738.8953, 24.80795
739.3774, 22.37996
739.8596, 20.03927
740.3417, 18.79325
740.8238, 18.53928
741.3059, 17.50559
741.7880, 15.02721
742.2701, 12.40670
742.7523, 10.86395
743.2344, 10.34113
743.7165, 10.04802
744.1986, 10.39668
744.6807, 10.38936
745.1628, 9.719975
745.6450, 8.803493
746.1271, 7.877960
746.6092, 6.993618
747.0913, 6.116203
747.5734, 5.192459
748.0555, 4.441280
748.5377, 4.377232
749.0198, 4.742340
749.5019, 4.449253
749.9840, 3.337723
750.4661, 2.279583
750.9482, 1.780445
751.4304, 1.702724
751.9125, 1.723347
752.3946, 1.936447
752.8767, 2.022892
753.3588, 2.008331
753.8409, 1.850628
754.3231, 1.436497
754.8052, 0.9107590
755.2873, 0.3922080
755.7694, 7.3684998E-02
756.2515, 0.2616730
756.7336, 0.2666780
757.2158, 1.038338
757.6979, 1.226822
758.1800, 0.8935510
758.6621, 0.4479790
759.1442, 1.6212000E-02
759.6263, 0.3030510
760.1085, 0.3750880
760.5906, 0.2035710
761.0727, 0.2894400
761.5548, 0.9243970
762.0369, 1.371891
762.5190, 1.486137
763.0012, 1.404854
763.4833, 1.132236
763.9654, 0.7626760
764.4475, 0.5513000
764.9296, 0.6648410
765.4117, 0.8420940
765.8939, 1.030430
766.3760, 1.082539
766.8581, 0.4598430
767.3402, 0.7706150
767.8223, 1.481125
768.3044, 0.8624460
768.7866, 0.4512560
769.2687, 0.8114780
769.7508, 9.5123000E-02
770.2329, 0.8996320
770.7150, 1.394005
771.1971, 1.879333
771.6793, 2.610489
772.1614, 3.391468
772.6435, 3.845879
773.1256, 3.872257
773.6077, 4.174942
774.0898, 5.209835
774.5720, 6.450592
775.0541, 7.592323
775.5362, 8.580524
776.0183, 9.462303
776.5004, 10.21037
776.9825, 10.43530
777.4647, 9.489216
777.9468, 7.795128
778.4289, 7.658165
778.9110, 9.428532
779.3931, 10.93182
779.8752, 11.49340
780.3574, 11.83218
780.8395, 12.56939
781.3216, 13.65860
781.8037, 14.75194
782.2858, 15.92884
782.7679, 16.99824
783.2501, 17.84559
783.7322, 18.64610
784.2143, 19.43510
784.6964, 20.29335
785.1785, 21.42946
785.6606, 22.95697
786.1428, 24.57578
786.6249, 25.93737
787.1070, 27.07138
787.5891, 28.10624
788.0712, 29.04420
788.5533, 29.80278
789.0355, 30.16394
789.5176, 30.75504
789.9997, 32.70306
790.4818, 36.39709
790.9639, 39.07277
791.4460, 40.27092
791.9282, 41.10090
792.4103, 41.60778
792.8924, 41.94907
793.3745, 42.31567
793.8566, 42.67887
794.3387, 42.82716
794.8209, 42.72860
795.3030, 42.30745
795.7851, 41.54216
796.2672, 40.37500
796.7493, 38.46642
797.2314, 35.86930
797.7136, 33.47081
798.1957, 31.86300
798.6778, 30.74508
799.1599, 29.45783
799.6420, 28.03629
800.1241, 26.16421
800.6063, 23.42226
801.0884, 20.89629
801.5705, 19.23654
802.0526, 18.03981
802.5347, 16.80972
803.0168, 15.46431
803.4990, 14.38885
803.9811, 14.10489
804.4632, 13.74324
804.9453, 12.54041
805.4274, 11.01388
805.9095, 9.848549
806.3917, 9.230885
806.8738, 9.215149
807.3559, 10.02166
807.8380, 11.05833
808.3201, 10.88674
808.8022, 9.535866
809.2844, 8.576481
809.7665, 8.369667
810.2486, 8.255299
810.7307, 7.746029
811.2128, 7.003136
811.6949, 6.538635
812.1771, 6.618053
812.6592, 6.378223
813.1413, 5.331608
813.6234, 4.492603
814.1055, 4.467831
814.5876, 4.848400
815.0698, 5.157852
815.5519, 5.283592
816.0340, 5.097649
816.5161, 4.005791
816.9982, 2.958717
817.4803, 3.358837
817.9625, 4.690033
818.4446, 5.642372
818.9267, 5.883850
819.4088, 5.528172
819.8909, 4.576378
820.3730, 3.360332
820.8552, 3.171299
821.3373, 4.375946
821.8194, 5.015457
822.3015, 4.597343
822.7836, 4.035648
823.2657, 4.001801
823.7479, 4.155907
824.2300, 3.742214
824.7121, 2.506950
825.1942, 1.765923
825.6763, 2.466000
826.1584, 2.976208
826.6406, 1.876858
827.1227, 0.1948890
827.6048, 0.3519100
828.0869, 0.4308240
828.5690, 1.268394
829.0511, 1.153549
829.5333, 0.5437810
830.0154, 7.1312003E-02
830.4975, 0.2206760
830.9796, 4.6642002E-02
831.4617, 0.6584090
831.9438, 1.551517
832.4260, 2.450661
832.9081, 3.240646
833.3902, 3.544586
833.8723, 3.105919
834.3544, 2.862740
834.8365, 3.208191
835.3187, 3.244678
835.8008, 2.153831
836.2829, 0.8321690
836.7650, 0.5672800
837.2471, 1.500259
837.7292, 2.061287
838.2114, 1.120602
838.6935, 0.3210680
839.1756, 1.121006
839.6577, 2.491760
840.1398, 2.886036
840.6219, 2.211578
841.1041, 1.446999
841.5862, 1.231686
842.0683, 1.324780
842.5504, 1.327835
843.0325, 1.258972
843.5146, 1.210758
843.9968, 1.182339
844.4789, 1.345947
844.9610, 1.871979
845.4431, 2.473679
845.9252, 2.610397
846.4073, 2.186340
846.8895, 1.783157
847.3716, 1.532318
847.8537, 1.123131
848.3358, 0.1684720
848.8179, 0.7298200
849.3000, 0.9754870
849.7822, 0.6445080
850.2643, 0.3037950
850.7464, 0.1504210
851.2285, 7.2100000E-03
851.7106, 0.3961030
852.1927, 0.7706680
852.6749, 0.7402110
853.1570, 0.4238050
853.6391, 0.3124470
854.1212, 0.6307530
854.6033, 1.030930
855.0854, 1.028511
855.5676, 0.7122800
856.0497, 0.4602200
856.5318, 0.2727810
857.0139, 0.3416980
857.4960, 0.8138730
857.9781, 1.236740
858.4603, 1.087990
858.9424, 0.4256210
859.4245, 7.2333999E-02
859.9066, 0.5175320
860.3887, 0.6011200
860.8708, 1.7517000E-02
861.3530, 0.6339260
861.8351, 1.132072
862.3172, 1.453995
862.7993, 1.645180
863.2814, 1.772957
863.7635, 1.396088
864.2457, 0.3222430
864.7278, 1.996521
865.2099, 2.569176
865.6920, 2.293907
866.1741, 1.478485
866.6563, 0.3215560
867.1384, 0.7137450
867.6205, 1.316978
868.1026, 1.496498
868.5847, 1.044868
869.0668, 0.1031270
869.5490, 0.3909530
870.0311, 0.2965930
870.5132, 2.4750000E-02
870.9953, 0.1854930
871.4774, 0.4320980
871.9595, 0.9601140
872.4417, 1.890274
872.9238, 2.435173
873.4059, 2.132126
873.8880, 2.182350
874.3701, 3.351349
874.8522, 4.691811
875.3344, 5.363495
875.8165, 5.474541
876.2986, 5.745453
876.7807, 6.483940
877.2628, 7.138260
877.7449, 7.011299
878.2271, 7.127968
878.7092, 8.909714
879.1913, 11.59555
879.6734, 13.17323
880.1555, 12.95957
880.6376, 12.64960
881.1198, 14.05203
881.6019, 16.30116
882.0840, 17.73664
882.5661, 18.52655
883.0482, 19.47191
883.5303, 20.80534
884.0125, 22.51332
884.4946, 24.60014
884.9767, 26.94436
885.4588, 29.22055
885.9409, 31.47867
886.4230, 33.83080
886.9052, 36.19128
887.3873, 38.85699
887.8694, 41.94211
888.3515, 45.47096
888.8336, 49.64398
889.3157, 54.52583
889.7979, 59.44646
890.2800, 64.00318
890.7621, 69.16850
891.2442, 74.93397
891.7263, 81.60269
892.2084, 89.46201
892.6906, 98.44039
893.1727, 108.1327
893.6548, 118.4524
894.1369, 129.3409
894.6190, 140.5397
895.1011, 152.5139
895.5833, 165.4914
896.0654, 179.5701
896.5475, 195.3706
897.0296, 212.8600
897.5117, 230.2988
897.9938, 245.7835
898.4760, 260.2872
898.9581, 276.4496
899.4402, 294.0862
899.9223, 310.9860
900.4044, 326.6641
900.8865, 343.0526
901.3687, 361.4472
901.8508, 381.2156
902.3329, 400.9069
902.8150, 420.3354
903.2971, 441.0558
903.7792, 463.3582
904.2614, 486.4323
904.7435, 510.1480
905.2256, 534.5221
905.7077, 559.3251
906.1898, 584.5638
906.6719, 610.2653
907.1541, 638.2165
907.6362, 663.7523
908.1183, 687.1205
908.6004, 706.0994
909.0825, 719.7684
909.5646, 727.5362
910.0468, 728.8326
910.5289, 723.4236
911.0110, 711.4019
911.4931, 690.9001
911.9752, 665.6071
912.4573, 638.5557
912.9395, 609.7987
913.4216, 578.4231
913.9037, 544.9712
914.3858, 511.7529
914.8679, 480.1530
915.3500, 450.5049
915.8321, 423.0725
916.3142, 398.1674
916.7963, 377.6651
917.2784, 361.6721
917.7606, 349.2100
918.2427, 340.2362
918.7248, 333.6363
919.2069, 328.1893
919.6890, 323.9401
920.1711, 321.2362
920.6533, 320.3454
921.1354, 320.4499
921.6175, 322.8701
922.0996, 324.3712
922.5817, 323.9834
923.0638, 321.3501
923.5460, 315.8187
924.0281, 307.3652
924.5102, 296.4401
924.9923, 282.5256
925.4744, 266.7326
925.9565, 248.6263
926.4387, 229.4095
926.9208, 209.5836
927.4029, 189.6387
927.8850, 170.9073
928.3671, 153.7764
928.8492, 137.9608
929.3314, 122.9687
929.8135, 109.4383
930.2956, 98.18099
930.7777, 88.82525
931.2598, 80.79448
931.7419, 73.71530
932.2241, 66.93802
932.7062, 59.90558
933.1883, 52.93010
933.6704, 46.17737
934.1525, 39.94536
934.6346, 35.98865
935.1168, 34.38657
935.5989, 32.51626
936.0810, 29.15173
936.5631, 25.07725
937.0452, 21.19795
937.5273, 17.56557
938.0095, 15.15620
938.4916, 14.35109
938.9737, 13.10243
939.4558, 10.66734
939.9379, 8.465263
940.4200, 7.671516
940.9022, 7.698692
941.3843, 7.025948
941.8664, 5.350578
942.3485, 3.897659
942.8306, 2.756050
943.3127, 1.718002
943.7949, 0.6424870
944.2770, 0.2858280
944.7591, 0.7456670
945.2412, 0.8841020
945.7233, 1.357002
946.2054, 2.638748
946.6876, 3.537315
947.1697, 3.097527
947.6518, 2.632027
948.1339, 3.424667
948.6160, 4.722946
949.0981, 5.191528
949.5803, 4.638329
950.0624, 4.026978
950.5445, 3.917137
951.0266, 4.032578
951.5087, 4.278114
951.9908, 4.467201
952.4730, 4.230682
952.9551, 3.620415
953.4372, 2.975014
953.9193, 2.435226
954.4014, 1.835030
954.8835, 1.063293
955.3657, 5.2634999E-02
955.8478, 1.483917
956.3299, 3.478035
956.8120, 5.503380
957.2941, 7.475784
957.7762, 9.327553
958.2584, 11.03949
958.7405, 12.53462
959.2226, 13.49375
959.7047, 13.82939
960.1868, 15.24235
960.6689, 18.05518
961.1511, 20.67376
961.6332, 22.63420
962.1153, 24.28162
962.5974, 25.69485
963.0795, 27.10006
963.5616, 29.52826
964.0438, 33.68112
964.5259, 37.37778
965.0080, 40.24924
965.4901, 43.14078
965.9722, 46.42256
966.4543, 49.80573
966.9365, 53.15774
967.4186, 56.40594
967.9007, 58.95085
968.3828, 60.68788
968.8649, 61.76793
969.3470, 62.25477
969.8292, 62.04158
970.3113, 60.96671
970.7934, 59.18517
971.2755, 56.87248
971.7576, 54.08573
972.2397, 50.94673
972.7219, 46.79410
973.2040, 43.16444
973.6861, 41.61732
974.1682, 40.69887
974.6503, 38.50285
975.1324, 35.43834
975.6146, 33.02274
976.0967, 31.79267
976.5788, 31.18317
977.0609, 30.56744
977.5430, 30.38090
978.0251, 31.36183
978.5073, 33.22580
978.9894, 35.50032
979.4715, 38.00183
979.9536, 40.17773
980.4357, 41.69325
980.9178, 43.56718
981.4000, 47.62550
981.8821, 50.92216
982.3642, 55.02707
982.8463, 60.57311
983.3284, 65.14111
983.8105, 71.78239
984.2927, 79.15542
984.7748, 86.21384
985.2569, 94.77219
985.7390, 103.8783
986.2211, 113.1188
986.7032, 123.8497
987.1854, 134.6236
987.6675, 145.4158
988.1496, 156.1201
988.6317, 167.4295
989.1138, 180.0209
989.5959, 193.6925
990.0781, 207.4461
990.5602, 221.0110
991.0423, 235.4293
991.5244, 250.4467
992.0065, 266.7267
992.4886, 284.6226
992.9708, 303.8811
993.4529, 324.0262
993.9350, 345.0878
994.4171, 368.0074
994.8992, 392.8381
995.3813, 419.3251
995.8635, 446.9773
996.3456, 476.7958
996.8277, 510.4001
997.3098, 545.5024
997.7919, 579.9354
998.2740, 613.3991
998.7562, 645.2707
999.2383, 676.0776
999.7204, 704.1597
1000.203, 728.4297
1000.685, 750.5280
1001.167, 771.5447
1001.649, 791.1136
1002.131, 807.5627
1002.613, 821.0233
1003.095, 835.2823
1003.577, 851.2626
1004.059, 869.3331
1004.542, 889.0472
1005.024, 911.5463
1005.506, 938.1469
1005.988, 968.2663
1006.470, 1001.082
1006.952, 1036.262
1007.434, 1073.429
1007.916, 1113.965
1008.398, 1154.433
1008.881, 1193.273
1009.363, 1228.631
1009.845, 1259.671
1010.327, 1284.532
1010.809, 1300.499
1011.291, 1306.230
1011.773, 1299.212
1012.255, 1276.680
1012.738, 1240.239
1013.220, 1190.245
1013.702, 1128.674
1014.184, 1057.877
1014.666, 980.0061
1015.148, 899.9499
1015.630, 820.3583
1016.112, 743.8522
1016.594, 673.4415
1017.077, 608.7380
1017.559, 547.6693
1018.041, 490.8686
1018.523, 441.3656
1019.005, 399.6057
1019.487, 362.3716
1019.969, 327.7224
1020.451, 296.1608
1020.934, 268.1725
1021.416, 243.6856
1021.898, 221.8914
1022.380, 202.7334
1022.862, 185.5866
1023.344, 170.3138
1023.826, 155.9427
1024.308, 141.6936
1024.791, 129.9015
1025.273, 117.3458
1025.755, 108.6479
1026.237, 100.1694
1026.719, 91.87656
1027.201, 83.99404
1027.683, 76.47575
1028.165, 69.83400
1028.647, 64.54881
1029.130, 60.09467
1029.612, 55.46294
1030.094, 50.59564
1030.576, 46.04731
1031.058, 41.72982
1031.540, 38.01547
1032.022, 35.07500
1032.504, 32.58410
1032.986, 30.50198
1033.469, 28.49643
1033.951, 25.63630
1034.433, 21.57796
1034.915, 18.88837
1035.397, 18.17402
1035.879, 17.52789
1036.361, 16.73841
1036.843, 15.61285
1037.326, 13.72250
1037.808, 11.55857
1038.290, 10.36739
1038.772, 10.47796
1039.254, 10.05637
1039.736, 8.715889
1040.218, 7.619408
1040.700, 6.793671
1041.182, 6.320740
1041.665, 6.478600
1042.147, 7.012314
1042.629, 7.282585
1043.111, 7.151375
1043.593, 7.617622
1044.075, 8.950600
1044.557, 10.24871
1045.039, 11.24699
1045.521, 12.44975
1046.004, 14.38567
1046.486, 16.63653
1046.968, 18.28394
1047.450, 19.11591
1047.932, 20.17597
1048.414, 21.82376
1048.896, 23.41228
1049.378, 24.61356
1049.861, 25.88692
1050.343, 27.61427
1050.825, 29.67631
1051.307, 31.71708
1051.789, 33.60345
1052.271, 35.99960
1052.753, 39.08267
1053.235, 42.51401
1053.718, 46.85497
1054.200, 50.94211
1054.682, 53.63400
1055.164, 55.54640
1055.646, 57.92912
1056.128, 60.98352
1056.610, 64.06225
1057.092, 68.14462
1057.574, 70.64539
1058.057, 70.10198
1058.539, 68.09343
1059.021, 65.43575
1059.503, 62.44163
1059.985, 59.42283
1060.467, 56.38892
1060.949, 53.08180
1061.431, 49.64643
1061.913, 45.59591
1062.396, 39.81973
1062.878, 34.16549
1063.360, 30.16868
1063.842, 27.29990
1064.324, 24.72296
1064.806, 22.30187
1065.288, 20.28084
1065.770, 19.41702
1066.253, 18.08554
1066.735, 15.04906
1067.217, 11.88808
1067.699, 9.776588
1068.181, 8.336296
1068.663, 6.699760
1069.145, 4.878906
1069.627, 3.922066
1070.109, 4.651375
1070.592, 5.584892
1071.074, 6.169640
1071.556, 6.575043
1072.038, 7.065842
1072.520, 7.389801
1073.002, 7.024864
1073.484, 6.038170
1073.966, 5.197838
1074.448, 4.644539
1074.931, 4.615135
1075.413, 5.572021
1075.895, 6.709984
1076.377, 7.404831
1076.859, 7.970520
1077.341, 8.931259
1077.823, 10.22186
1078.305, 11.26073
1078.788, 11.79144
1079.270, 12.27724
1079.752, 12.72230
1080.234, 13.42589
1080.716, 14.75293
1081.198, 16.33215
1081.680, 17.72103
1082.162, 18.95595
1082.644, 20.35735
1083.127, 22.02309
1083.609, 23.89578
1084.091, 26.31583
1084.573, 28.49541
1085.055, 29.97720
1085.537, 30.98200
1086.019, 31.85328
1086.501, 32.45010
1086.984, 32.30706
1087.466, 31.26845
1087.948, 29.84556
1088.430, 28.44189
1088.912, 26.48546
1089.394, 23.34098
1089.876, 19.79754
1090.358, 16.39857
1090.840, 13.24526
1091.323, 10.23706
1091.805, 7.354847
1092.287, 5.474213
1092.769, 5.956478
1093.251, 6.110943
1093.733, 4.195148
1094.215, 2.106525
1094.697, 1.489384
1095.179, 1.669613
1095.662, 1.457626
1096.144, 0.6858060
1096.626, 0.2610630
1097.108, 1.743843
1097.590, 2.638908
1098.072, 2.220623
1098.554, 1.491093
1099.036, 0.6755290
1099.519, 0.1872830
1100.001, 0.8976970
1100.483, 2.519440
1100.965, 3.097351
1101.447, 1.439453
1101.929, 0.3796390
1102.411, 1.215122
1102.893, 2.101421
1103.375, 2.242393
1103.858, 1.965820
1104.340, 1.488708
1104.822, 0.9169580
1105.304, 0.4900470
1105.786, 0.2219200
1106.268, 0.1601520
1106.750, 0.2977450
1107.232, 0.6727680
1107.714, 1.583923
1108.197, 2.482563
1108.679, 3.107307
1109.161, 3.336700
1109.643, 2.798737
1110.125, 1.295200
1110.607, 0.2385940
1111.089, 4.7981001E-02
1111.571, 0.1499600
1112.054, 0.1312370
1112.536, 1.9230000E-03
1113.018, 0.3068050
1113.500, 0.6771470
1113.982, 1.041641
1114.464, 1.418953
1114.946, 1.318848
1115.428, 1.6098000E-02
1115.911, 0.5698200
1116.393, 0.3312760
1116.875, 1.235817
1117.357, 1.725677
1117.839, 1.795826
1118.321, 1.204334
1118.803, 0.1526070
1119.285, 8.7844998E-02
1119.767, 0.5646320
1120.250, 1.415375
1120.732, 0.8582420
1121.214, 2.431374
1121.696, 2.209888
1122.178, 1.640598
1122.660, 1.972668
1123.142, 2.749886
1123.624, 2.708534
1124.106, 1.679451
1124.589, 1.058968
1125.071, 0.7743070
1125.553, 1.323051
1126.035, 3.214264
1126.517, 4.620041
1126.999, 4.298244
1127.481, 3.237011
1127.963, 3.009369
1128.446, 3.532017
1128.928, 3.853741
1129.410, 3.967155
1129.892, 3.885887
1130.374, 3.585098
1130.856, 3.427326
1131.338, 3.634712
1131.820, 3.684006
1132.302, 2.896622
1132.785, 1.770489
1133.267, 2.211758
1133.749, 4.069046
1134.231, 4.622463
1134.713, 3.817993
1135.195, 3.471584
1135.677, 4.102997
1136.159, 4.810188
1136.641, 4.932713
1137.124, 4.842140
1137.606, 5.050968
1138.088, 5.599010
1138.570, 7.161812
1139.052, 9.265940
1139.534, 9.339806
1140.016, 7.276712
1140.498, 5.310553
1140.981, 4.497063
1141.463, 4.601587
1141.945, 5.786386
1142.427, 7.229988
1142.909, 7.277924
1143.391, 6.545334
1143.873, 6.166096
1144.355, 6.258535
1144.838, 7.038019
1145.320, 8.377607
1145.802, 9.102617
1146.284, 8.290611
1146.766, 7.046949
1147.248, 6.190739
1147.730, 5.799154
1148.212, 6.134056
1148.694, 6.931246
1149.177, 7.902037
1149.659, 8.839420
1150.141, 9.204746
1150.623, 8.747463
1151.105, 8.211964
1151.587, 7.920933
1152.069, 7.888336
1152.551, 8.326126
1153.033, 8.790642
1153.516, 8.738701
1153.998, 8.382990
1154.480, 8.180862
1154.962, 8.142803
1155.444, 8.083548
1155.926, 7.839453
1156.408, 7.916618
1156.890, 8.986376
1157.373, 9.806900
1157.855, 9.198534
1158.337, 8.141588
1158.819, 8.168953
1159.301, 9.130119
1159.783, 9.176836
1160.265, 7.293262
1160.747, 6.393806
1161.229, 7.422043
1161.712, 8.516266
1162.194, 9.827991
1162.676, 10.44375
1163.158, 9.282705
1163.640, 7.338655
1164.122, 6.330982
1164.604, 6.249268
1165.086, 7.011040
1165.568, 9.242722
1166.051, 10.20400
1166.533, 9.300621
1167.015, 8.166088
1167.497, 7.431576
1167.979, 7.157549
1168.461, 7.401503
1168.943, 7.895912
1169.425, 7.982615
1169.908, 7.655754
1170.390, 6.483770
1170.872, 4.404581
1171.354, 3.737494
1171.836, 5.053101
1172.318, 6.369503
1172.800, 6.527643
1173.282, 6.079006
1173.765, 5.407564
1174.247, 4.685032
1174.729, 4.897892
1175.211, 5.734716
1175.693, 6.063103
1176.175, 5.845943
1176.657, 5.277136
1177.139, 4.441647
1177.621, 3.951839
1178.104, 4.300009
1178.586, 4.977331
1179.068, 5.855158
1179.550, 6.454187
1180.032, 5.746149
1180.514, 4.521320
1180.996, 4.265528
1181.478, 4.929573
1181.960, 5.571480
1182.443, 5.869795
1182.925, 5.840565
1183.407, 5.239105
1183.889, 4.721113
1184.371, 4.738434
1184.853, 4.870203
1185.335, 4.689383
1185.817, 4.416420
1186.300, 4.512037
1186.782, 4.894899
1187.264, 5.187721
1187.746, 2.620573
1188.228, 6.078867
1188.710, 8.000355
1189.192, 8.473396
1189.674, 3.152689
1190.156, 5.296612
1190.639, 4.415201
1191.121, 3.421774
1191.603, 6.633984
1192.085, 2.159386
1192.567, 5.296665
1193.049, 5.383015
1193.531, 6.870770
1194.013, 5.349705
1194.495, 4.760263
1194.978, 7.185247
1195.460, 7.940741
1195.942, 6.074715
1196.424, 7.670124
1196.906, 3.101259
1197.388, 3.943752
1197.870, 7.115917
1198.352, 5.392267
1198.835, 7.012476
1199.317, 7.354807
1199.799, 1.901749
1200.281, 6.558666
1200.763, 6.846840
1201.245, 2.643881
1201.727, 6.943539
1202.209, 3.354303
1202.692, 2.586214
1203.174, 3.942467
1203.656, 3.091784
1204.138, 5.719702
1204.620, 4.985241
1205.102, 3.942875
1205.584, 4.204523
1206.066, 0.7609230
1206.548, 4.200359
1207.031, 2.947245
1207.513, 4.032503
1207.995, 5.647148
1208.477, 3.206255
1208.959, 5.053068
1209.441, 0.2440930
1209.923, 1.001661
1210.405, 1.160711
1210.887, 4.879620
1211.370, 2.357151
1211.852, 2.040335
1212.334, 1.897635
1212.816, 1.972519
1213.298, 2.115372
1213.780, 2.185431
1214.262, 2.244995
1214.744, 2.493919
1215.227, 2.978430
1215.709, 3.108238
1216.191, 2.825121
1216.673, 2.389469
1217.155, 1.779440
1217.637, 1.261225
1218.119, 0.9348410
1218.601, 0.8146500
1219.083, 0.9497720
1219.566, 1.246435
1220.048, 1.485626
1220.530, 1.680212
1221.012, 1.940723
1221.494, 2.222708
1221.976, 2.427620
1222.458, 2.479664
1222.940, 1.911968
1223.422, 0.5580600
1223.905, 0.3618390
1224.387, 0.5649760
1224.869, 1.928886
1225.351, 2.139553
1225.833, 1.899269
1226.315, 2.094059
1226.797, 2.413902
1227.279, 1.995899
1227.762, 1.054863
1228.244, 0.9637030
1228.726, 2.367355
1229.208, 3.244167
1229.690, 2.549473
1230.172, 1.781094
1230.654, 1.134033
1231.136, 0.9646680
1231.619, 1.948048
1232.101, 3.189884
1232.583, 3.501381
1233.065, 3.012024
1233.547, 2.492931
1234.029, 1.727013
1234.511, 1.804993
1234.993, 3.109875
1235.475, 3.744499
1235.958, 3.188400
1236.440, 2.283913
1236.922, 1.444241
1237.404, 0.9800530
1237.886, 1.496395
1238.368, 2.537022
1238.850, 2.749039
1239.332, 2.288273
1239.814, 1.736427
1240.297, 1.176266
1240.779, 0.7529180
1241.261, 0.5141450
1241.743, 0.5874250
1242.225, 1.084461
1242.707, 1.308151
1243.189, 2.4383999E-02
1243.671, 1.109886
1244.154, 0.3174740
1244.636, 1.106422
1245.118, 1.931614
1245.600, 2.256683
1246.082, 2.490269
1246.564, 2.619286
1247.046, 2.319984
1247.528, 1.221809
1248.010, 0.4447940
1248.493, 0.1836970
1248.975, 0.3648870
1249.457, 1.340965
1249.939, 2.165314
1250.421, 2.206013
1250.903, 0.9985080
1251.385, 2.223816
1251.867, 2.901752
1252.349, 3.054249
1252.832, 1.159103
1253.314, 1.913479
1253.796, 1.617188
1254.278, 1.284836
1254.760, 2.424278
1255.242, 0.7989230
1255.724, 1.902031
1256.206, 1.944149
1256.689, 2.478832
1257.171, 1.941986
1257.653, 1.733501
1258.135, 2.598324
1258.617, 2.868855
1259.099, 2.211628
1259.581, 2.779278
1260.063, 1.170231
1260.546, 1.471493
1261.028, 2.596916
1261.510, 2.000095
1261.992, 2.584103
1262.474, 2.720940
1262.956, 0.8084220
1263.438, 2.460651
1263.920, 2.560123
1264.402, 1.081860
1264.885, 2.600296
1265.367, 1.189247
1265.849, 0.9261210
1266.331, 1.410866
1266.813, 1.116486
1267.295, 2.046860
1267.777, 1.785538
1268.259, 1.431995
1268.741, 1.540543
1269.224, 0.3407970
1269.706, 1.569351
1270.188, 1.140728
1270.670, 1.536438
1271.152, 2.120964
1271.634, 1.275486
1272.116, 1.944950
1272.598, 0.2663840
1273.081, 0.5533180
1273.563, 0.3189960
1274.045, 0.1539540
1274.527, 0.1216470
1275.009, 0.5876050
1275.491, 1.071476
1275.973, 1.449345
1276.455, 1.728523
1276.938, 1.800846
1277.420, 1.380844
1277.902, 0.9422570
1278.384, 0.9994810
1278.866, 1.303246
1279.348, 1.267197
1279.830, 0.9190980
1280.312, 1.038239
1280.794, 0.6812100
1281.276, 1.988838
1281.759, 0.5216830
1282.241, 0.1735340
1282.723, 0.5381970
1283.205, 1.389755
1283.687, 1.630344
1284.169, 1.569805
1284.651, 0.9111630
1285.133, 0.6949420
1285.616, 0.3361210
1286.098, 0.0000000E+00
##END=



