##NAMES=Yttrotantalite-(Y)
##RRUFFID=R080046
##IDEAL CHEMISTRY=(Y,U,Fe^2+^)(Ta,Nb)_2_(O,OH)_4_
##LOCALITY=Swaziland
##OWNER=RRUFF
##SOURCE=American Museum of Natural History 
##DESCRIPTION=Brown glassy from amorphous sample R060022 after heating at T = 850 C for 18 hours
##STATUS=The identification of this mineral is not yet confirmed.
##URL=rruff.info/R080046
159.8764, 0.0000000E+00
160.3586, 0.1109620
160.8407, 2.7832000E-02
161.3228, 1.060791
161.8049, 2.330811
162.2870, 4.271118
162.7691, 6.532227
163.2513, 6.948608
163.7334, 4.800903
164.2155, 2.547729
164.6976, 0.8186040
165.1797, 0.3759770
165.6618, 0.9569090
166.1440, 0.5885010
166.6261, 0.2503660
167.1082, 1.177612
167.5903, 2.321655
168.0724, 3.294800
168.5545, 3.535645
169.0367, 3.215698
169.5188, 3.413452
170.0009, 5.455933
170.4830, 8.148193
170.9651, 10.15088
171.4472, 10.82520
171.9293, 10.83521
172.4115, 10.43945
172.8936, 9.699707
173.3757, 9.239868
173.8578, 9.443481
174.3399, 10.25732
174.8220, 11.59033
175.3042, 13.88318
175.7863, 16.39221
176.2684, 18.26294
176.7505, 19.48669
177.2326, 20.50073
177.7147, 21.54736
178.1969, 22.62988
178.6790, 23.77515
179.1611, 24.60559
179.6432, 25.61963
180.1253, 28.04126
180.6074, 31.95569
181.0896, 35.52246
181.5717, 36.44397
182.0538, 35.40564
182.5359, 34.58594
183.0180, 35.30103
183.5001, 36.83521
183.9823, 37.65112
184.4644, 37.71118
184.9465, 37.59009
185.4286, 38.09460
185.9107, 39.13489
186.3928, 40.19006
186.8750, 40.90845
187.3571, 41.23987
187.8392, 41.98755
188.3213, 43.32703
188.8034, 44.61047
189.2855, 45.02124
189.7677, 44.61914
190.2498, 44.33923
190.7319, 44.67444
191.2140, 45.45068
191.6961, 46.14209
192.1782, 46.80579
192.6604, 47.53503
193.1425, 48.35510
193.6246, 49.26624
194.1067, 49.83643
194.5888, 49.87744
195.0709, 49.57800
195.5531, 48.98816
196.0352, 47.96326
196.5173, 46.76245
196.9994, 45.85901
197.4815, 45.28027
197.9636, 44.69458
198.4458, 43.68762
198.9279, 42.26501
199.4100, 42.13953
199.8921, 43.79346
200.3742, 46.00305
200.8563, 46.36938
201.3385, 44.64478
201.8206, 42.52600
202.3027, 40.74548
202.7848, 39.30493
203.2669, 38.12122
203.7490, 37.27808
204.2311, 36.58569
204.7133, 35.64612
205.1954, 34.42700
205.6775, 33.15283
206.1596, 32.05151
206.6417, 31.22803
207.1238, 29.75000
207.6060, 27.28564
208.0881, 24.44250
208.5702, 22.66577
209.0523, 22.26990
209.5344, 22.05505
210.0165, 21.48108
210.4987, 20.52246
210.9808, 19.25183
211.4629, 17.59302
211.9450, 15.62476
212.4271, 13.41394
212.9092, 10.52686
213.3914, 8.256714
213.8735, 7.600586
214.3556, 9.354858
214.8377, 9.734741
215.3198, 8.164063
215.8019, 5.468506
216.2841, 3.724609
216.7662, 3.224976
217.2483, 3.034058
217.7304, 2.834106
218.2125, 2.439453
218.6946, 2.158691
219.1768, 2.066650
219.6589, 2.070679
220.1410, 1.877930
220.6231, 1.324951
221.1052, 0.8759770
221.5873, 0.7113040
222.0695, 0.8240970
222.5516, 1.269897
223.0337, 2.220703
223.5158, 3.394287
223.9979, 4.127930
224.4800, 4.144165
224.9622, 4.161133
225.4443, 4.494507
225.9264, 5.219971
226.4085, 6.027588
226.8906, 6.776123
227.3727, 7.658691
227.8549, 9.295898
228.3370, 12.29102
228.8191, 15.03125
229.3012, 16.77258
229.7833, 16.94592
230.2654, 17.59045
230.7476, 18.70508
231.2297, 20.30786
231.7118, 22.54041
232.1939, 25.93262
232.6760, 29.10266
233.1581, 31.48218
233.6402, 32.73816
234.1224, 33.99316
234.6045, 34.98633
235.0866, 36.07935
235.5687, 38.09656
236.0508, 41.50793
236.5329, 45.05750
237.0151, 48.24841
237.4972, 50.95654
237.9793, 53.63831
238.4614, 56.46753
238.9435, 59.20032
239.4256, 61.31750
239.9078, 62.31946
240.3899, 63.50208
240.8720, 65.50708
241.3541, 68.91699
241.8362, 71.15955
242.3183, 71.82361
242.8005, 71.59790
243.2826, 71.64856
243.7647, 72.03894
244.2468, 72.65112
244.7289, 73.61377
245.2110, 75.24146
245.6932, 75.87756
246.1753, 74.95093
246.6574, 73.38977
247.1395, 72.68628
247.6216, 73.37158
248.1037, 73.97046
248.5859, 74.03528
249.0680, 73.47424
249.5501, 72.81067
250.0322, 72.13330
250.5143, 71.25818
250.9964, 69.88818
251.4786, 67.71484
251.9607, 65.59399
252.4428, 63.77625
252.9249, 62.34094
253.4070, 60.67810
253.8891, 58.64331
254.3713, 56.52991
254.8534, 54.72974
255.3355, 53.54651
255.8176, 52.14001
256.2997, 50.16455
256.7818, 47.58899
257.2639, 45.45837
257.7461, 43.88965
258.2282, 42.73828
258.7103, 41.86560
259.1924, 41.32410
259.6745, 40.79053
260.1566, 40.16504
260.6388, 39.44568
261.1209, 38.99280
261.6030, 38.66968
262.0851, 38.79834
262.5672, 39.91541
263.0493, 42.70422
263.5315, 44.59241
264.0136, 44.58887
264.4957, 43.05713
264.9778, 43.35901
265.4599, 46.09094
265.9420, 49.85791
266.4242, 53.54114
266.9063, 56.98193
267.3884, 60.89490
267.8705, 65.37585
268.3526, 70.24683
268.8347, 74.61621
269.3169, 78.27014
269.7990, 82.05078
270.2811, 86.59119
270.7632, 91.98486
271.2453, 97.46753
271.7274, 103.1969
272.2096, 108.8545
272.6917, 113.2825
273.1738, 116.0317
273.6559, 118.8340
274.1380, 122.8602
274.6201, 128.3873
275.1023, 133.5610
275.5844, 138.0789
276.0665, 142.2957
276.5486, 147.4060
277.0307, 153.6465
277.5128, 159.8274
277.9950, 165.4172
278.4771, 170.3982
278.9592, 174.9164
279.4413, 178.8612
279.9234, 182.5828
280.4055, 186.8214
280.8877, 191.6943
281.3698, 196.4199
281.8519, 200.4397
282.3340, 203.7814
282.8161, 208.0497
283.2982, 213.6055
283.7804, 219.2888
284.2625, 223.0665
284.7446, 224.8917
285.2267, 226.6385
285.7088, 229.3114
286.1909, 232.6714
286.6731, 234.7819
287.1552, 235.4310
287.6373, 235.5818
288.1194, 236.6492
288.6015, 238.5485
289.0836, 239.6464
289.5658, 239.2725
290.0479, 237.7327
290.5300, 235.9375
291.0121, 233.8831
291.4942, 231.7345
291.9763, 229.9077
292.4585, 228.2656
292.9406, 225.8739
293.4227, 222.4014
293.9048, 218.1226
294.3869, 213.3645
294.8690, 208.1042
295.3512, 203.0498
295.8333, 199.0591
296.3154, 195.7694
296.7975, 191.8545
297.2796, 186.9656
297.7617, 181.4955
298.2439, 175.9833
298.7260, 170.4701
299.2081, 164.9259
299.6902, 159.3799
300.1723, 153.8464
300.6544, 148.0603
301.1366, 141.9412
301.6187, 135.8743
302.1008, 130.3904
302.5829, 125.4237
303.0650, 120.5212
303.5471, 115.2150
304.0293, 109.9200
304.5114, 105.3185
304.9935, 101.5082
305.4756, 97.99011
305.9577, 94.32385
306.4398, 90.54871
306.9220, 86.76953
307.4041, 83.12476
307.8862, 79.40857
308.3683, 75.21423
308.8504, 70.52258
309.3326, 65.86060
309.8147, 61.48645
310.2968, 57.46838
310.7789, 53.87219
311.2610, 51.39087
311.7431, 48.90454
312.2252, 45.32520
312.7073, 40.75806
313.1895, 36.54578
313.6716, 33.97229
314.1537, 31.95801
314.6358, 29.37903
315.1179, 25.08704
315.6000, 21.01587
316.0822, 18.28857
316.5643, 16.68127
317.0464, 15.26611
317.5285, 13.73669
318.0106, 12.17834
318.4927, 10.64404
318.9749, 9.142456
319.4570, 7.644775
319.9391, 5.979248
320.4212, 4.292480
320.9033, 2.925537
321.3854, 2.584229
321.8676, 2.081543
322.3497, 0.7742920
322.8318, 1.669800
323.3139, 4.136841
323.7960, 6.948364
324.2781, 9.508301
324.7603, 10.97852
325.2424, 9.827393
325.7245, 8.867432
326.2066, 9.019653
326.6887, 10.52075
327.1708, 11.82361
327.6530, 12.81726
328.1351, 13.51404
328.6172, 13.92200
329.0993, 13.74805
329.5814, 13.58459
330.0635, 13.57617
330.5457, 13.70679
331.0278, 13.55786
331.5099, 13.04919
331.9920, 12.30884
332.4741, 11.47412
332.9562, 10.54102
333.4384, 9.461792
333.9205, 8.029785
334.4026, 6.470459
334.8847, 5.553833
335.3668, 5.741089
335.8489, 5.912109
336.3311, 5.594360
336.8132, 4.800537
337.2953, 3.421021
337.7774, 1.315308
338.2595, 1.239380
338.7416, 3.667358
339.2238, 5.999390
339.7059, 8.202515
340.1880, 10.21765
340.6701, 12.04297
341.1522, 13.78528
341.6343, 15.38306
342.1165, 17.13452
342.5986, 19.52490
343.0807, 22.64514
343.5628, 25.84094
344.0449, 29.07471
344.5270, 32.26917
345.0092, 35.17310
345.4913, 37.74561
345.9734, 40.63770
346.4555, 44.76050
346.9376, 49.89624
347.4197, 54.67346
347.9019, 58.78870
348.3840, 62.36707
348.8661, 65.48999
349.3482, 68.20020
349.8303, 71.50842
350.3124, 76.63599
350.7946, 82.85474
351.2767, 88.14514
351.7588, 92.19666
352.2409, 96.14392
352.7230, 101.7079
353.2051, 108.3876
353.6873, 114.8522
354.1694, 119.9419
354.6515, 124.6266
355.1336, 130.3376
355.6157, 137.2441
356.0978, 144.0388
356.5800, 149.2433
357.0621, 153.8973
357.5442, 159.5514
358.0263, 167.0311
358.5084, 175.3850
358.9905, 184.7520
359.4727, 194.7592
359.9548, 203.7528
360.4369, 209.6652
360.9190, 214.6719
361.4011, 220.5604
361.8832, 228.0037
362.3654, 235.7700
362.8475, 243.2833
363.3296, 250.7230
363.8117, 258.5089
364.2938, 266.6553
364.7759, 275.1632
365.2581, 284.2168
365.7402, 294.0902
366.2223, 303.3564
366.7044, 311.7159
367.1865, 319.2703
367.6686, 326.3201
368.1508, 332.2003
368.6329, 338.1890
369.1150, 344.6732
369.5971, 351.6714
370.0792, 358.3483
370.5613, 364.5471
371.0435, 370.4227
371.5256, 376.1262
372.0077, 382.4370
372.4898, 387.3766
372.9719, 390.4670
373.4540, 392.1813
373.9361, 394.0681
374.4182, 396.2675
374.9004, 398.4253
375.3825, 400.4220
375.8646, 402.2501
376.3467, 403.7987
376.8288, 405.1790
377.3109, 406.1361
377.7931, 406.2362
378.2752, 405.2999
378.7573, 404.2887
379.2394, 403.7557
379.7215, 403.4779
380.2036, 402.0806
380.6858, 399.4257
381.1679, 395.7246
381.6500, 390.8497
382.1321, 384.8932
382.6142, 379.0839
383.0963, 373.9128
383.5785, 368.9840
384.0606, 363.2603
384.5427, 356.7874
385.0248, 350.3958
385.5069, 345.1061
385.9890, 340.3060
386.4712, 334.3523
386.9533, 327.0021
387.4354, 319.5056
387.9175, 313.1873
388.3996, 307.7927
388.8817, 302.7891
389.3639, 297.9773
389.8460, 293.4771
390.3281, 289.5135
390.8102, 286.0529
391.2923, 282.6155
391.7744, 278.5587
392.2566, 274.5116
392.7387, 271.1442
393.2208, 269.0342
393.7029, 266.8929
394.1850, 263.7886
394.6671, 260.1713
395.1493, 257.1918
395.6314, 255.8069
396.1135, 254.8527
396.5956, 253.5701
397.0777, 251.6064
397.5598, 250.1598
398.0420, 250.0269
398.5241, 250.3691
399.0062, 250.2231
399.4883, 249.1067
399.9704, 247.8362
400.4525, 246.2605
400.9347, 244.3948
401.4168, 243.4423
401.8989, 244.3999
402.3810, 245.3439
402.8631, 245.0824
403.3452, 242.8386
403.8274, 240.8905
404.3095, 239.4113
404.7916, 238.2401
405.2737, 236.9987
405.7558, 235.6115
406.2379, 234.3632
406.7201, 233.2834
407.2022, 232.3623
407.6843, 232.2501
408.1664, 233.2070
408.6485, 234.3302
409.1306, 234.4536
409.6128, 233.5883
410.0949, 232.8292
410.5770, 232.3973
411.0591, 232.2880
411.5412, 232.3671
412.0233, 232.6547
412.5055, 233.4611
412.9876, 235.1920
413.4697, 237.6019
413.9518, 240.0389
414.4339, 242.3672
414.9160, 244.7947
415.3982, 247.5443
415.8803, 250.5234
416.3624, 253.7072
416.8445, 256.8865
417.3266, 260.3398
417.8087, 264.6278
418.2909, 269.6488
418.7730, 274.5519
419.2551, 278.6222
419.7372, 282.3376
420.2193, 286.1874
420.7014, 290.9016
421.1836, 294.8544
421.6657, 296.6670
422.1478, 297.1361
422.6299, 298.2122
423.1120, 301.4489
423.5941, 304.6163
424.0763, 306.6851
424.5584, 307.5039
425.0405, 307.8066
425.5226, 307.5358
426.0047, 306.8540
426.4868, 305.9465
426.9690, 305.8416
427.4511, 304.0819
427.9332, 299.9789
428.4153, 293.8853
428.8974, 287.6766
429.3795, 281.4899
429.8617, 275.0383
430.3438, 268.2632
430.8259, 261.2014
431.3080, 253.3741
431.7901, 244.4545
432.2722, 235.2963
432.7544, 227.3199
433.2365, 220.7927
433.7186, 213.1337
434.2007, 203.2582
434.6828, 191.6614
435.1649, 179.9453
435.6470, 168.0675
436.1292, 156.6812
436.6113, 146.4976
437.0934, 137.2356
437.5755, 128.0155
438.0576, 118.6053
438.5397, 109.3578
439.0219, 100.5896
439.5040, 92.28308
439.9861, 84.57007
440.4682, 77.76892
440.9503, 71.36108
441.4324, 64.76953
441.9146, 57.98938
442.3967, 51.57849
442.8788, 45.36353
443.3609, 39.89868
443.8430, 35.93286
444.3251, 34.55054
444.8073, 33.39746
445.2894, 31.68030
445.7715, 29.56921
446.2536, 27.51770
446.7357, 25.05518
447.2178, 23.12317
447.7000, 22.17126
448.1821, 22.42395
448.6642, 22.70898
449.1463, 22.92261
449.6284, 23.15100
450.1105, 23.45813
450.5927, 23.74158
451.0748, 24.26758
451.5569, 25.21985
452.0390, 26.43872
452.5211, 27.32629
453.0032, 27.94617
453.4854, 28.12781
453.9675, 27.67188
454.4496, 26.55469
454.9317, 25.54102
455.4138, 24.54907
455.8959, 24.05957
456.3781, 25.08472
456.8602, 27.43762
457.3423, 29.23608
457.8244, 29.66650
458.3065, 29.42773
458.7886, 29.62671
459.2708, 30.27429
459.7529, 31.56580
460.2350, 34.06152
460.7171, 37.09778
461.1992, 39.80676
461.6813, 42.05737
462.1635, 43.96997
462.6456, 45.35852
463.1277, 46.45496
463.6098, 47.65186
464.0919, 48.82288
464.5740, 50.42102
465.0562, 53.09680
465.5383, 56.58862
466.0204, 59.35266
466.5025, 60.42078
466.9846, 60.99707
467.4667, 61.81665
467.9489, 63.43591
468.4310, 64.31653
468.9131, 63.62793
469.3952, 62.46863
469.8773, 62.31812
470.3594, 64.15149
470.8416, 65.44031
471.3237, 65.54248
471.8058, 64.62866
472.2879, 63.94397
472.7700, 63.47241
473.2521, 63.33813
473.7343, 63.88953
474.2164, 65.22412
474.6985, 65.80444
475.1806, 65.46619
475.6627, 64.58240
476.1448, 63.28284
476.6270, 61.68689
477.1091, 60.88611
477.5912, 62.08655
478.0733, 63.76733
478.5554, 62.52783
479.0375, 58.64355
479.5197, 55.02380
480.0018, 53.68628
480.4839, 53.74377
480.9660, 54.38074
481.4481, 55.76379
481.9302, 56.43005
482.4124, 54.61218
482.8945, 51.62573
483.3766, 49.41199
483.8587, 49.57434
484.3408, 49.69250
484.8229, 48.62622
485.3051, 46.50916
485.7872, 44.78064
486.2693, 43.87732
486.7514, 43.24902
487.2335, 42.70898
487.7156, 42.47974
488.1978, 41.70593
488.6799, 40.14722
489.1620, 38.14563
489.6441, 36.17371
490.1262, 34.17908
490.6083, 32.25964
491.0905, 30.47229
491.5726, 28.82068
492.0547, 27.21375
492.5368, 25.70142
493.0189, 24.26135
493.5010, 23.08130
493.9832, 22.10437
494.4653, 20.41528
494.9474, 17.88257
495.4295, 15.33459
495.9116, 13.89270
496.3937, 13.19702
496.8758, 12.30396
497.3579, 10.65784
497.8401, 8.900513
498.3222, 7.716675
498.8043, 6.958130
499.2864, 6.083496
499.7685, 4.187744
500.2506, 2.428101
500.7328, 1.940796
501.2149, 3.090454
501.6970, 3.833496
502.1791, 3.286987
502.6612, 2.027954
503.1433, 0.6228030
503.6255, 1.351685
504.1076, 2.774048
504.5897, 3.344849
505.0718, 3.275024
505.5539, 3.169800
506.0360, 2.890991
506.5182, 2.722290
507.0003, 2.793579
507.4824, 3.123901
507.9645, 3.176758
508.4466, 2.852417
508.9287, 2.460571
509.4109, 2.343262
509.8930, 2.473022
510.3751, 2.355713
510.8572, 2.013550
511.3393, 1.479248
511.8214, 0.7945560
512.3036, 6.6284001E-02
512.7857, 1.129517
513.2678, 2.569336
513.7499, 4.067017
514.2321, 5.418579
514.7142, 6.581543
515.1963, 6.994751
515.6784, 5.816772
516.1605, 3.961182
516.6426, 2.250732
517.1248, 0.8138430
517.6069, 0.3867190
518.0890, 0.8262940
518.5711, 1.076050
519.0532, 1.949463
519.5353, 4.995117
520.0175, 7.170166
520.4996, 7.321899
520.9817, 5.767578
521.4638, 4.985840
521.9459, 5.460449
522.4280, 6.067139
522.9102, 6.280396
523.3923, 6.124023
523.8744, 5.447144
524.3565, 4.209961
524.8386, 2.649658
525.3207, 1.026367
525.8029, 0.6717530
526.2849, 2.508545
526.7670, 4.598999
527.2491, 6.550049
527.7313, 7.483521
528.2134, 7.634277
528.6955, 8.129639
529.1776, 9.913574
529.6597, 12.20190
530.1418, 14.02417
530.6240, 15.41577
531.1061, 16.78882
531.5882, 18.34473
532.0703, 19.94275
532.5524, 21.44348
533.0345, 22.80042
533.5167, 24.13232
533.9988, 25.64270
534.4809, 27.24329
534.9630, 28.73706
535.4451, 29.99121
535.9272, 31.08252
536.4094, 32.00452
536.8915, 32.79651
537.3736, 33.56848
537.8557, 34.31177
538.3378, 35.04468
538.8199, 35.80542
539.3021, 36.62231
539.7842, 37.17847
540.2663, 37.44983
540.7484, 37.47168
541.2305, 37.20850
541.7126, 36.68188
542.1948, 36.15601
542.6769, 35.70813
543.1590, 35.34082
543.6411, 35.16870
544.1232, 35.15283
544.6053, 35.12634
545.0875, 35.19104
545.5696, 35.07422
546.0517, 34.52100
546.5338, 33.52905
547.0159, 32.34338
547.4980, 30.71594
547.9802, 29.16748
548.4623, 28.08093
548.9444, 27.62939
549.4265, 27.45349
549.9086, 27.65125
550.3907, 28.03943
550.8729, 28.35107
551.3550, 28.66675
551.8371, 28.68250
552.3192, 28.10229
552.8013, 27.12988
553.2834, 27.16211
553.7656, 28.55396
554.2477, 29.54419
554.7298, 28.79871
555.2119, 26.53455
555.6940, 25.20020
556.1761, 24.87134
556.6583, 24.87598
557.1404, 24.87683
557.6225, 24.68457
558.1046, 23.71240
558.5867, 21.43665
559.0688, 19.30017
559.5510, 19.04346
560.0331, 19.87439
560.5152, 20.18188
560.9973, 18.62463
561.4794, 17.01489
561.9615, 16.41760
562.4437, 16.73584
562.9258, 16.71472
563.4079, 15.80835
563.8900, 14.73779
564.3721, 13.82690
564.8542, 13.05103
565.3364, 12.47693
565.8185, 12.34619
566.3006, 12.15723
566.7827, 11.16125
567.2648, 9.094482
567.7469, 8.063110
568.2291, 8.726807
568.7112, 10.12012
569.1933, 10.20081
569.6754, 9.096313
570.1575, 8.032715
570.6396, 7.629761
571.1218, 7.593018
571.6039, 7.442383
572.0860, 7.204468
572.5681, 7.053223
573.0502, 6.978882
573.5323, 7.104614
574.0145, 7.700562
574.4966, 8.976440
574.9787, 9.720703
575.4608, 9.164673
575.9429, 7.942261
576.4250, 6.680420
576.9072, 4.961182
577.3893, 3.771729
577.8714, 3.433228
578.3535, 3.632202
578.8356, 3.683472
579.3177, 3.671997
579.7999, 3.252075
580.2820, 2.232300
580.7641, 0.7259520
581.2462, 0.6324460
581.7283, 1.808350
582.2104, 2.908813
582.6926, 4.295776
583.1747, 5.657593
583.6568, 5.822876
584.1389, 4.598877
584.6210, 3.409424
585.1031, 3.907471
585.5853, 5.192627
586.0674, 5.911011
586.5495, 5.222046
587.0316, 4.681885
587.5137, 5.525757
587.9958, 7.016357
588.4780, 7.720703
588.9601, 6.881958
589.4422, 5.630737
589.9243, 3.894409
590.4064, 1.812988
590.8885, 0.7617190
591.3707, 1.549072
591.8528, 2.076050
592.3349, 1.207642
592.8170, 1.220337
593.2991, 3.370605
593.7813, 5.244385
594.2634, 6.918579
594.7455, 8.244019
595.2276, 9.361206
595.7097, 10.91040
596.1918, 13.04822
596.6740, 15.52185
597.1561, 18.12512
597.6382, 20.81885
598.1203, 23.41394
598.6024, 26.01514
599.0845, 28.37012
599.5667, 30.02380
600.0488, 31.23560
600.5309, 32.94592
601.0130, 35.55823
601.4951, 38.61609
601.9772, 42.14368
602.4594, 46.30225
602.9415, 49.57776
603.4236, 51.65759
603.9057, 53.27710
604.3878, 54.87561
604.8699, 56.32251
605.3521, 58.33386
605.8342, 61.07886
606.3163, 64.10974
606.7984, 66.94446
607.2805, 69.58728
607.7626, 72.27209
608.2448, 75.13513
608.7269, 77.96729
609.2090, 80.34290
609.6911, 82.53101
610.1732, 85.41858
610.6553, 90.02954
611.1375, 94.91760
611.6196, 99.27234
612.1017, 103.0530
612.5838, 106.2677
613.0659, 108.0699
613.5480, 109.9794
614.0302, 112.8180
614.5123, 116.8300
614.9944, 120.6523
615.4765, 124.4059
615.9586, 127.7183
616.4407, 130.3475
616.9229, 132.2194
617.4050, 133.3286
617.8871, 133.4760
618.3692, 133.4403
618.8513, 134.5944
619.3334, 136.6628
619.8156, 138.5312
620.2977, 139.6550
620.7798, 140.4817
621.2619, 141.4017
621.7440, 142.4001
622.2261, 143.5135
622.7083, 145.6066
623.1904, 147.0760
623.6725, 146.3524
624.1546, 143.4386
624.6367, 141.9720
625.1188, 144.3324
625.6010, 146.8275
626.0831, 147.6191
626.5652, 146.1060
627.0473, 145.2810
627.5294, 145.3135
628.0115, 145.6328
628.4937, 145.7134
628.9758, 145.5872
629.4579, 145.2289
629.9400, 144.6094
630.4221, 143.8372
630.9042, 142.7655
631.3864, 141.7389
631.8685, 141.5635
632.3506, 143.2148
632.8327, 144.9664
633.3148, 145.2524
633.7969, 144.3511
634.2791, 143.1768
634.7612, 142.1604
635.2433, 140.9868
635.7254, 139.2949
636.2075, 137.0737
636.6896, 135.7021
637.1718, 135.8489
637.6539, 136.2096
638.1360, 136.0236
638.6181, 135.0748
639.1002, 134.2350
639.5823, 133.7344
640.0645, 133.0956
640.5466, 131.5586
641.0287, 129.3455
641.5108, 127.6973
641.9929, 126.8618
642.4750, 126.3478
642.9572, 125.4506
643.4393, 124.3334
643.9214, 123.4220
644.4035, 123.1218
644.8856, 122.8293
645.3677, 122.2021
645.8499, 121.2079
646.3320, 119.8014
646.8141, 117.6910
647.2962, 115.8141
647.7783, 114.4943
648.2604, 113.6766
648.7426, 112.8517
649.2247, 111.8710
649.7068, 110.8054
650.1888, 109.7488
650.6710, 108.7891
651.1531, 108.5192
651.6352, 108.9463
652.1173, 109.0673
652.5994, 107.5977
653.0815, 105.3240
653.5637, 103.8535
654.0458, 103.4999
654.5279, 103.6842
655.0100, 104.1313
655.4921, 104.8152
655.9742, 105.7104
656.4564, 107.0509
656.9385, 108.2330
657.4206, 108.8135
657.9027, 109.2139
658.3848, 110.1034
658.8669, 111.9019
659.3491, 113.3997
659.8312, 114.3304
660.3133, 114.8473
660.7954, 115.4333
661.2775, 116.0421
661.7596, 116.6285
662.2418, 117.1261
662.7239, 117.6086
663.2060, 118.4465
663.6881, 119.5444
664.1702, 120.0714
664.6523, 118.9016
665.1345, 117.3473
665.6166, 116.5276
666.0987, 116.5778
666.5808, 117.0190
667.0629, 118.7225
667.5450, 120.0325
668.0272, 119.6190
668.5093, 116.5135
668.9914, 114.2169
669.4735, 112.7288
669.9556, 112.0509
670.4377, 112.6458
670.9199, 114.6234
671.4020, 115.2943
671.8841, 114.0039
672.3662, 112.0172
672.8483, 111.4795
673.3304, 111.8079
673.8126, 111.1388
674.2947, 108.0984
674.7768, 104.7622
675.2589, 103.0455
675.7410, 102.3523
676.2231, 101.3429
676.7053, 100.2906
677.1874, 98.02209
677.6695, 93.32312
678.1516, 86.63733
678.6337, 81.39880
679.1158, 78.41370
679.5980, 75.49500
680.0801, 71.81604
680.5622, 67.43396
681.0443, 62.83667
681.5264, 58.00806
682.0085, 53.37646
682.4907, 49.28394
682.9728, 45.67175
683.4549, 42.64941
683.9370, 40.26599
684.4191, 37.43469
684.9012, 33.18872
685.3834, 28.18848
685.8655, 22.89258
686.3476, 16.90942
686.8297, 12.07910
687.3118, 10.02405
687.7939, 8.768433
688.2761, 6.162720
688.7582, 1.041016
689.2403, 2.935425
689.7224, 5.367554
690.2045, 6.737183
690.6866, 7.507568
691.1688, 7.717285
691.6509, 8.412231
692.1330, 10.07178
692.6151, 12.05078
693.0972, 13.23535
693.5793, 13.90527
694.0615, 14.89880
694.5436, 17.56885
695.0257, 19.76123
695.5078, 19.52893
695.9899, 17.50061
696.4720, 16.31946
696.9542, 17.28894
697.4363, 18.49536
697.9184, 19.66956
698.4005, 20.74438
698.8826, 20.38049
699.3647, 18.14331
699.8469, 15.74329
700.3290, 14.29834
700.8111, 13.63879
701.2932, 12.43579
701.7753, 10.72656
702.2574, 8.741333
702.7396, 6.592529
703.2217, 4.331055
703.7038, 1.984375
704.1859, 0.4610600
704.6680, 2.862793
705.1501, 5.405884
705.6323, 7.740967
706.1144, 9.593872
706.5965, 10.24646
707.0786, 11.68384
707.5607, 14.29663
708.0428, 17.37500
708.5250, 19.98975
709.0071, 22.01025
709.4892, 24.90674
709.9713, 29.09814
710.4534, 33.75269
710.9355, 37.86597
711.4177, 41.43396
711.8998, 44.27527
712.3819, 45.91980
712.8640, 47.57825
713.3461, 50.24915
713.8282, 53.60242
714.3104, 57.00293
714.7925, 59.91138
715.2746, 63.13452
715.7567, 67.57886
716.2388, 72.51575
716.7209, 75.77319
717.2031, 76.52209
717.6852, 77.45520
718.1673, 79.35449
718.6494, 82.09265
719.1315, 85.73987
719.6136, 90.19995
720.0958, 93.89221
720.5779, 94.96973
721.0600, 95.08936
721.5421, 96.47229
722.0242, 99.02686
722.5063, 101.7769
722.9885, 104.7666
723.4706, 107.2942
723.9527, 108.7101
724.4348, 108.8550
724.9169, 109.1592
725.3990, 109.9508
725.8812, 110.6191
726.3633, 110.7131
726.8454, 110.1620
727.3275, 110.3868
727.8096, 111.6477
728.2917, 112.5068
728.7739, 111.0802
729.2560, 108.3562
729.7381, 106.7638
730.2202, 106.6501
730.7023, 107.2242
731.1844, 108.8994
731.6666, 110.4485
732.1487, 110.4209
732.6308, 107.4236
733.1129, 105.1688
733.5950, 104.8665
734.0771, 105.1587
734.5593, 104.8027
735.0414, 103.5247
735.5235, 102.3516
736.0056, 101.3694
736.4877, 100.4485
736.9698, 99.40796
737.4520, 98.26062
737.9341, 97.17188
738.4162, 96.39856
738.8983, 95.21997
739.3804, 92.18311
739.8625, 88.41797
740.3447, 85.76953
740.8268, 85.87549
741.3089, 86.10815
741.7910, 85.81287
742.2731, 85.11292
742.7552, 84.32117
743.2374, 83.54761
743.7195, 82.37952
744.2016, 80.42603
744.6837, 78.28174
745.1658, 78.02209
745.6479, 79.50708
746.1301, 80.01746
746.6122, 77.35046
747.0943, 73.91846
747.5764, 73.46887
748.0585, 75.25220
748.5406, 76.90222
749.0228, 77.10278
749.5049, 77.15308
749.9870, 77.68872
750.4691, 78.61914
750.9512, 79.22632
751.4333, 79.21863
751.9155, 79.27307
752.3976, 79.35266
752.8797, 79.58936
753.3618, 81.10254
753.8439, 83.97473
754.3260, 87.26599
754.8082, 90.78931
755.2903, 94.07117
755.7724, 96.07312
756.2545, 96.96875
756.7366, 97.92725
757.2188, 98.99670
757.7009, 100.9801
758.1830, 104.8406
758.6651, 110.7839
759.1472, 115.6002
759.6293, 118.0132
760.1115, 120.8492
760.5936, 125.7074
761.0757, 132.5862
761.5578, 138.5146
762.0399, 143.3273
762.5220, 147.9331
763.0042, 152.9910
763.4863, 158.3850
763.9684, 164.0282
764.4505, 169.9453
764.9326, 175.9791
765.4147, 182.4423
765.8969, 188.7030
766.3790, 194.1429
766.8611, 198.1677
767.3432, 203.3765
767.8253, 211.0658
768.3074, 218.6161
768.7896, 223.9180
769.2717, 226.6166
769.7538, 230.6129
770.2359, 236.1802
770.7180, 241.8430
771.2001, 245.8707
771.6823, 248.9672
772.1644, 252.6858
772.6465, 257.3457
773.1285, 261.5725
773.6107, 263.9500
774.0928, 265.7598
774.5749, 268.1503
775.0570, 271.5073
775.5391, 275.0061
776.0212, 279.1919
776.5034, 282.8684
776.9855, 284.6639
777.4676, 284.3735
777.9497, 285.0105
778.4318, 287.0575
778.9139, 288.8953
779.3961, 288.0215
779.8782, 285.7832
780.3603, 285.0737
780.8424, 286.8663
781.3245, 288.6365
781.8066, 288.8145
782.2888, 288.2456
782.7709, 287.7539
783.2530, 287.8032
783.7351, 287.3767
784.2172, 286.4781
784.6993, 285.0494
785.1815, 282.7720
785.6636, 279.5515
786.1457, 277.3324
786.6278, 276.4232
787.1099, 276.0737
787.5920, 275.5859
788.0742, 274.9517
788.5563, 274.1755
789.0384, 273.4492
789.5205, 272.0371
790.0026, 268.8296
790.4847, 265.0945
790.9669, 262.1934
791.4490, 259.8883
791.9311, 259.1135
792.4132, 260.6515
792.8953, 262.6610
793.3774, 262.2809
793.8596, 259.7134
794.3417, 258.2350
794.8238, 258.5427
795.3059, 259.5259
795.7880, 260.2990
796.2701, 260.7820
796.7523, 260.8151
797.2344, 260.5186
797.7165, 259.5714
798.1986, 257.3115
798.6807, 254.5778
799.1628, 252.3739
799.6450, 250.7389
800.1271, 249.5974
800.6092, 249.2012
801.0913, 248.8765
801.5734, 247.6285
802.0555, 245.6445
802.5377, 244.0325
803.0198, 242.9552
803.5019, 242.3542
803.9840, 242.6545
804.4661, 243.1906
804.9482, 243.0555
805.4304, 241.4658
805.9125, 240.1245
806.3946, 239.5225
806.8767, 239.3176
807.3588, 239.1536
807.8409, 238.9297
808.3231, 239.1908
808.8052, 240.1105
809.2873, 241.0800
809.7694, 241.1237
810.2515, 240.4937
810.7336, 239.9771
811.2158, 239.7485
811.6979, 239.5135
812.1800, 239.4999
812.6621, 239.1412
813.1442, 237.6945
813.6263, 233.6035
814.1085, 230.8207
814.5906, 230.0593
815.0727, 230.1512
815.5548, 230.0728
816.0369, 229.9103
816.5190, 228.9845
817.0012, 227.1833
817.4833, 224.9055
817.9654, 222.1882
818.4475, 219.4135
818.9296, 217.4763
819.4117, 216.7877
819.8939, 215.8937
820.3760, 213.8281
820.8581, 211.4343
821.3402, 209.3912
821.8223, 207.4240
822.3044, 206.5280
822.7866, 207.0692
823.2687, 207.8354
823.7508, 207.5854
824.2329, 206.4664
824.7150, 205.3287
825.1971, 204.3224
825.6793, 203.0511
826.1614, 201.3300
826.6435, 199.1573
827.1256, 196.3151
827.6077, 192.4521
828.0898, 189.3840
828.5720, 188.2953
829.0541, 187.5527
829.5362, 186.3307
830.0183, 184.5878
830.5004, 182.1178
830.9825, 178.8094
831.4647, 175.6675
831.9468, 174.0085
832.4289, 173.0668
832.9110, 171.4386
833.3931, 169.0319
833.8752, 166.6787
834.3574, 165.3602
834.8395, 164.1968
835.3216, 162.5383
835.8037, 160.2261
836.2858, 158.0171
836.7679, 155.7716
837.2501, 153.6519
837.7322, 151.8137
838.2143, 150.2816
838.6964, 148.5142
839.1785, 146.4965
839.6606, 144.7109
840.1428, 143.6813
840.6249, 142.9203
841.1070, 141.5254
841.5891, 139.5592
842.0712, 138.4296
842.5533, 140.1615
843.0355, 141.1888
843.5176, 139.7051
843.9997, 135.8816
844.4818, 132.7609
844.9639, 130.3450
845.4460, 128.5770
845.9282, 127.8702
846.4103, 127.5248
846.8924, 126.1077
847.3745, 123.8687
847.8566, 121.7660
848.3387, 120.6774
848.8209, 119.4446
849.3030, 117.3003
849.7851, 114.4006
850.2672, 111.7126
850.7493, 109.4014
851.2314, 107.3184
851.7136, 105.3641
852.1957, 103.5012
852.6778, 102.3263
853.1599, 101.7312
853.6420, 100.6710
854.1241, 98.34338
854.6063, 95.77197
855.0884, 94.16650
855.5705, 93.11658
856.0526, 91.82422
856.5347, 89.47583
857.0168, 87.63391
857.4990, 86.80383
857.9811, 86.31995
858.4632, 85.00757
858.9453, 82.73486
859.4274, 81.00769
859.9095, 80.39001
860.3917, 79.99365
860.8738, 78.49280
861.3559, 76.36682
861.8380, 74.52942
862.3201, 73.43848
862.8022, 72.40540
863.2844, 71.58667
863.7665, 70.43518
864.2486, 68.41284
864.7307, 64.95508
865.2128, 62.20898
865.6949, 60.21094
866.1771, 58.84473
866.6592, 58.13428
867.1413, 57.76971
867.6234, 56.46289
868.1055, 53.96313
868.5876, 51.69757
869.0698, 51.29492
869.5519, 51.08167
870.0340, 49.20776
870.5161, 44.61389
870.9982, 41.58698
871.4803, 40.78363
871.9625, 40.54700
872.4446, 39.90924
872.9267, 38.88745
873.4088, 37.87811
873.8909, 36.86261
874.3730, 35.39221
874.8552, 32.68652
875.3373, 29.72913
875.8194, 27.24243
876.3015, 25.31610
876.7836, 23.78809
877.2657, 23.59662
877.7479, 22.75061
878.2300, 20.36035
878.7121, 16.74432
879.1942, 14.19781
879.6763, 12.74451
880.1584, 11.75421
880.6406, 11.47406
881.1227, 11.10913
881.6048, 9.225464
882.0869, 6.377869
882.5690, 4.064453
883.0511, 3.014587
883.5333, 2.411316
884.0154, 2.426025
884.4975, 2.554810
884.9796, 1.764648
885.4617, 0.2272340
885.9438, 1.813416
886.4260, 2.655884
886.9081, 3.146484
887.3902, 3.576660
887.8723, 4.160767
888.3544, 5.390381
888.8365, 8.013672
889.3187, 10.05194
889.8008, 10.45911
890.2829, 9.985168
890.7650, 9.373474
891.2471, 8.329651
891.7292, 8.129456
892.2114, 8.895752
892.6935, 10.13116
893.1756, 11.54401
893.6577, 12.93140
894.1398, 13.59088
894.6219, 13.39758
895.1041, 13.04480
895.5862, 13.04639
896.0683, 12.98969
896.5504, 12.61853
897.0325, 11.82239
897.5146, 11.30310
897.9967, 11.18573
898.4788, 11.10498
898.9609, 10.90704
899.4431, 10.62927
899.9252, 10.60846
900.4073, 10.76062
900.8894, 10.69354
901.3715, 9.967041
901.8536, 9.064880
902.3358, 8.244995
902.8179, 7.509460
903.3000, 6.681458
903.7821, 5.355164
904.2642, 4.590271
904.7463, 4.754822
905.2285, 5.373962
905.7106, 5.592163
906.1927, 5.407104
906.6748, 4.893799
907.1569, 3.965149
907.6390, 2.975586
908.1212, 2.422302
908.6033, 1.930420
909.0854, 0.9338380
909.5675, 1.477722
910.0496, 3.078369
910.5317, 3.445557
911.0139, 3.484680
911.4960, 4.136414
911.9781, 5.339661
912.4602, 6.333435
912.9423, 7.054382
913.4244, 7.747375
913.9066, 8.539124
914.3887, 9.400452
914.8708, 10.36658
915.3529, 11.43683
915.8350, 12.39709
916.3171, 13.16327
916.7993, 13.86276
917.2814, 14.44443
917.7635, 14.98526
918.2456, 16.22559
918.7277, 18.13110
919.2098, 19.66733
919.6920, 19.74353
920.1741, 19.59991
920.6562, 20.63641
921.1383, 22.43976
921.6204, 23.88626
922.1025, 24.38531
922.5847, 24.88324
923.0668, 25.42740
923.5489, 26.11566
924.0310, 27.20053
924.5131, 28.65375
924.9952, 30.08728
925.4774, 31.44186
925.9595, 32.61343
926.4416, 33.03467
926.9237, 33.39456
927.4058, 34.66479
927.8879, 37.73480
928.3701, 39.77368
928.8522, 39.93710
929.3343, 39.67307
929.8164, 39.95740
930.2985, 40.79254
930.7806, 41.83658
931.2628, 43.07831
931.7449, 44.41815
932.2270, 45.96454
932.7091, 47.42020
933.1912, 48.38882
933.6733, 48.93466
934.1555, 49.46051
934.6376, 49.80927
935.1197, 50.48239
935.6018, 51.67709
936.0839, 53.24225
936.5660, 54.77649
937.0482, 56.25180
937.5303, 57.27176
938.0124, 57.46124
938.4945, 57.52124
938.9766, 57.99832
939.4587, 58.80328
939.9409, 59.79196
940.4230, 61.14218
940.9051, 62.33102
941.3872, 63.29254
941.8693, 64.16953
942.3514, 65.17630
942.8336, 66.29391
943.3157, 67.24960
943.7978, 68.01352
944.2799, 68.61444
944.7620, 68.91071
945.2441, 69.19592
945.7263, 69.80759
946.2084, 70.76019
946.6905, 71.40244
947.1726, 71.44916
947.6547, 71.79642
948.1368, 72.98709
948.6190, 74.72412
949.1011, 76.12640
949.5832, 77.09476
950.0653, 77.24109
950.5474, 75.86960
951.0295, 74.18546
951.5117, 72.75833
951.9938, 71.69128
952.4759, 71.28598
952.9580, 72.07281
953.4401, 72.32019
953.9222, 71.71689
954.4044, 70.93665
954.8865, 70.96875
955.3686, 71.53076
955.8507, 71.66559
956.3328, 71.22989
956.8149, 70.63364
957.2971, 70.09787
957.7792, 69.53598
958.2613, 68.83926
958.7434, 68.00934
959.2255, 67.39386
959.7076, 67.04688
960.1898, 66.77789
960.6719, 66.55057
961.1540, 66.28133
961.6361, 65.66196
962.1182, 64.76843
962.6003, 63.92216
963.0825, 63.19032
963.5646, 62.65674
964.0467, 62.69003
964.5288, 62.85564
965.0109, 62.34212
965.4930, 60.92566
965.9752, 59.85023
966.4573, 59.31190
966.9394, 58.95207
967.4215, 58.43678
967.9036, 57.81293
968.3857, 57.17958
968.8679, 56.52026
969.3500, 56.00601
969.8321, 55.67505
970.3142, 55.56490
970.7963, 55.76509
971.2784, 56.24583
971.7606, 56.35069
972.2427, 56.08583
972.7248, 55.51053
973.2069, 54.38373
973.6890, 53.19695
974.1711, 52.60944
974.6533, 52.45618
975.1354, 52.30199
975.6175, 52.10379
976.0996, 51.80328
976.5817, 51.39037
977.0638, 50.90848
977.5460, 50.33792
978.0281, 49.69093
978.5102, 49.29805
978.9923, 49.24112
979.4744, 49.34795
979.9565, 49.72537
980.4387, 50.00894
980.9208, 49.74615
981.4029, 48.78819
981.8850, 48.36160
982.3671, 48.90808
982.8492, 49.15485
983.3314, 48.28043
983.8135, 46.79324
984.2956, 46.34586
984.7777, 46.71962
985.2598, 47.03987
985.7419, 46.98740
986.2241, 46.69885
986.7062, 46.09766
987.1883, 45.30792
987.6704, 44.52213
988.1525, 43.66019
988.6346, 43.21588
989.1168, 43.33836
989.5989, 43.48642
990.0810, 42.89862
990.5631, 42.00063
991.0452, 41.52876
991.5273, 41.55995
992.0095, 41.63716
992.4916, 41.69394
992.9737, 41.63666
993.4558, 41.49202
993.9379, 41.21646
994.4200, 40.41806
994.9022, 39.09834
995.3843, 38.13722
995.8664, 38.02626
996.3485, 38.18648
996.8306, 38.16316
997.3127, 37.94051
997.7949, 37.47523
998.2770, 36.27168
998.7591, 35.63318
999.2412, 35.83359
999.7233, 36.20074
1000.205, 36.07794
1000.688, 35.54094
1001.170, 34.99646
1001.652, 34.46031
1002.134, 33.99133
1002.616, 33.71823
1003.098, 33.44766
1003.580, 33.06859
1004.062, 32.58112
1004.544, 32.05899
1005.027, 31.43593
1005.509, 30.98546
1005.991, 30.81656
1006.473, 30.80000
1006.955, 30.81744
1007.437, 30.79294
1007.919, 30.54642
1008.401, 29.95052
1008.884, 29.33846
1009.366, 28.65265
1009.848, 28.16902
1010.330, 28.22243
1010.812, 28.85675
1011.294, 28.68163
1011.776, 27.68060
1012.258, 26.72214
1012.740, 26.43010
1013.223, 26.40421
1013.705, 26.36755
1014.187, 26.28496
1014.669, 26.07916
1015.151, 25.65666
1015.633, 25.25554
1016.115, 24.92937
1016.597, 24.60287
1017.080, 24.09969
1017.562, 23.50529
1018.044, 23.14912
1018.526, 23.10934
1019.008, 23.06378
1019.490, 22.86806
1019.972, 22.55406
1020.454, 22.11308
1020.936, 21.55847
1021.419, 21.06723
1021.901, 20.64790
1022.383, 20.25348
1022.865, 19.81401
1023.347, 19.44249
1023.829, 19.42726
1024.311, 19.57199
1024.793, 19.49068
1025.276, 18.79213
1025.758, 18.26956
1026.240, 18.08270
1026.722, 17.96039
1027.204, 17.56425
1027.686, 16.96529
1028.168, 16.73663
1028.650, 16.89398
1029.132, 16.98843
1029.615, 16.55594
1030.097, 16.08871
1030.579, 15.93613
1031.061, 16.04584
1031.543, 16.08359
1032.025, 16.02574
1032.507, 16.00349
1032.989, 16.08022
1033.471, 16.11980
1033.954, 15.95871
1034.436, 15.62390
1034.918, 15.11328
1035.400, 14.36275
1035.882, 13.70244
1036.364, 13.16829
1036.846, 12.79076
1037.328, 12.61380
1037.811, 12.62999
1038.293, 12.83287
1038.775, 13.16931
1039.257, 13.13486
1039.739, 11.93295
1040.221, 10.78961
1040.703, 10.68417
1041.185, 11.14594
1041.667, 11.23874
1042.150, 10.79994
1042.632, 10.37161
1043.114, 9.987183
1043.596, 9.666931
1044.078, 9.390793
1044.560, 9.210266
1045.042, 9.288254
1045.524, 9.596909
1046.006, 9.709412
1046.489, 9.413162
1046.971, 8.983154
1047.453, 8.409943
1047.935, 7.810501
1048.417, 7.609146
1048.899, 7.753418
1049.381, 7.764832
1049.863, 7.470474
1050.346, 7.164520
1050.828, 7.162766
1051.310, 7.207169
1051.792, 6.965775
1052.274, 6.320068
1052.756, 6.185196
1053.238, 6.679932
1053.720, 7.136993
1054.203, 7.147568
1054.685, 6.894043
1055.167, 6.592682
1055.649, 6.267365
1056.131, 5.997269
1056.613, 5.882248
1057.095, 5.781647
1057.577, 5.683868
1058.059, 5.571167
1058.542, 5.405655
1059.024, 5.195038
1059.506, 5.087402
1059.988, 5.108063
1060.470, 5.069748
1060.952, 4.626740
1061.434, 4.235657
1061.916, 4.361526
1062.398, 4.813324
1062.881, 4.782349
1063.363, 4.195892
1063.845, 3.643036
1064.327, 3.231750
1064.809, 2.974243
1065.291, 2.959030
1065.773, 3.089478
1066.255, 3.255219
1066.738, 3.473114
1067.220, 3.546112
1067.702, 3.434174
1068.184, 3.231842
1068.666, 2.965500
1069.148, 2.672806
1069.630, 2.435699
1070.112, 2.254639
1070.594, 2.165207
1071.077, 2.320068
1071.559, 2.423111
1072.041, 2.356339
1072.523, 2.170212
1073.005, 1.872803
1073.487, 1.450302
1073.969, 1.186569
1074.451, 1.095596
1074.933, 1.104889
1075.416, 1.292236
1075.898, 1.448532
1076.380, 1.323395
1076.862, 0.9839480
1077.344, 0.7861790
1077.826, 0.8095550
1078.308, 0.8171080
1078.790, 0.7732540
1079.273, 0.6993410
1079.755, 0.6501160
1080.237, 0.5858760
1080.719, 0.3771210
1081.201, 1.1444000E-02
1081.683, 0.2233280
1082.165, 9.8719997E-03
1082.647, 0.2720180
1083.129, 0.5384060
1083.612, 0.7382200
1084.094, 0.6810300
1084.576, 0.4205470
1085.058, 0.2895660
1085.540, 0.5059810
1086.022, 0.6336670
1086.504, 0.2009890
1086.986, 0.3141480
1087.469, 0.4176790
1087.951, 3.0762000E-02
1088.433, 0.1151580
1088.915, 2.7920001E-03
1089.397, 0.1831210
1089.879, 0.4214320
1090.361, 0.5781100
1090.843, 0.4227750
1091.325, 9.2910998E-02
1091.807, 0.1235960
1092.290, 0.1625520
1092.772, 5.1879999E-03
1093.254, 0.4588930
1093.736, 0.8265080
1094.218, 0.5139920
1094.700, 0.1212920
1095.182, 0.3475490
1095.664, 0.1549840
1096.147, 0.1781920
1096.629, 0.7814330
1097.111, 1.206070
1097.593, 1.315872
1098.075, 1.217606
1098.557, 1.105331
1099.039, 0.9689030
1099.521, 0.7048490
1100.004, 0.2723080
1100.486, 2.2659000E-02
1100.968, 3.6880001E-02
1101.450, 0.3001400
1101.932, 0.8041230
1102.414, 1.439270
1102.896, 1.435287
1103.378, 0.7782750
1103.860, 0.3547970
1104.343, 0.5679320
1104.825, 0.8779750
1105.307, 0.7232210
1105.789, 0.3339540
1106.271, 3.1920999E-02
1106.753, 0.4041750
1107.235, 0.4389340
1107.717, 2.4917999E-02
1108.199, 0.3234410
1108.682, 0.2070920
1109.164, 9.8830998E-02
1109.646, 7.0358001E-02
1110.128, 0.1630860
1110.610, 0.3069310
1111.092, 9.7824000E-02
1111.574, 3.0396000E-02
1112.056, 0.2350010
1112.539, 0.4418790
1113.021, 0.2978360
1113.503, 4.7134001E-02
1113.985, 5.9525002E-02
1114.467, 0.5638430
1114.949, 0.9738010
1115.431, 1.069962
1115.913, 0.9903110
1116.396, 0.6020200
1116.878, 0.1948240
1117.360, 0.3638920
1117.842, 1.052750
1118.324, 1.346268
1118.806, 1.125153
1119.288, 0.7560880
1119.770, 0.3291930
1120.252, 2.4673000E-02
1120.734, 0.1056670
1121.217, 0.4564510
1121.699, 0.4781340
1122.181, 0.1224060
1122.663, 0.1994020
1123.145, 0.3849180
1123.627, 0.4412230
1124.109, 0.3084110
1124.591, 0.1148380
1125.074, 1.2009000E-02
1125.556, 4.9651999E-02
1126.038, 5.0583001E-02
1126.520, 0.3799590
1127.002, 0.5503540
1127.484, 0.3191070
1127.966, 5.7037000E-02
1128.448, 0.1147770
1128.931, 1.2820000E-03
1129.413, 3.3737000E-02
1129.895, 8.0048002E-02
1130.377, 0.3178560
1130.859, 0.8179020
1131.341, 1.175659
1131.823, 1.055161
1132.305, 0.6120760
1132.787, 0.3070070
1133.270, 0.1403200
1133.752, 9.7548999E-02
1134.234, 0.2864230
1134.716, 0.4460600
1135.198, 0.5004880
1135.680, 0.5130460
1136.162, 0.5185390
1136.644, 0.5276640
1137.126, 0.5803830
1137.609, 0.6811680
1138.091, 0.8473050
1138.573, 1.400162
1139.055, 1.683105
1139.537, 1.081482
1140.019, 0.1377260
1140.501, 0.3419490
1140.983, 0.3455810
1141.466, 0.2117160
1141.948, 2.7573001E-02
1142.430, 0.2194520
1142.912, 0.1347050
1143.394, 4.0894002E-02
1143.876, 0.2195740
1144.358, 0.5793910
1144.840, 0.6544950
1145.323, 0.3884580
1145.805, 0.2808380
1146.287, 0.4180760
1146.769, 0.7699580
1147.251, 1.751923
1147.733, 2.626572
1148.215, 2.405457
1148.697, 0.9776310
1149.179, 0.1945950
1149.661, 0.2121580
1150.144, 0.4216920
1150.626, 0.6851040
1151.108, 0.9066470
1151.590, 0.9535830
1152.072, 0.9156950
1152.554, 0.8777310
1153.036, 0.8170010
1153.518, 0.9005280
1154.001, 1.232132
1154.483, 1.448227
1154.965, 1.320969
1155.447, 1.058884
1155.929, 1.143127
1156.411, 1.414536
1156.893, 1.545670
1157.375, 1.418610
1157.858, 1.215179
1158.340, 0.9734340
1158.822, 0.6328740
1159.304, 5.0809998E-03
1159.786, 0.6965030
1160.268, 0.7109530
1160.750, 0.2103880
1161.232, 0.2452700
1161.714, 0.4490360
1162.197, 0.5109710
1162.679, 0.3465730
1163.161, 0.1920470
1163.643, 0.2815400
1164.125, 0.5792850
1164.607, 0.8284300
1165.089, 1.001617
1165.571, 1.125015
1166.053, 1.307495
1166.536, 1.370407
1167.018, 1.041733
1167.500, 0.7375180
1167.982, 1.096481
1168.464, 2.009735
1168.946, 2.263443
1169.428, 1.831970
1169.910, 1.394791
1170.393, 1.533646
1170.875, 1.614395
1171.357, 1.160385
1171.839, 0.5165560
1172.321, 0.2380980
1172.803, 0.3222660
1173.285, 0.6342770
1173.767, 1.172775
1174.250, 1.535667
1174.732, 1.228188
1175.214, 0.8316350
1175.696, 0.7287900
1176.178, 0.8131480
1176.660, 0.7704390
1177.142, 0.6040730
1177.624, 0.7205660
1178.106, 1.234100
1178.589, 1.620598
1179.071, 1.273590
1179.553, 0.7539980
1180.035, 0.4149020
1180.517, 0.2952960
1180.999, 0.6341860
1181.481, 1.491776
1181.963, 1.842728
1182.445, 1.327675
1182.928, 0.7433470
1183.410, 0.9650120
1183.892, 1.389740
1184.374, 1.393295
1184.856, 0.9891740
1185.338, 0.8987580
1185.820, 1.143250
1186.302, 1.295204
1186.785, 1.160103
1187.267, 1.046974
1187.749, 1.474739
1188.231, 1.988190
1188.713, 1.951309
1189.195, 1.266785
1189.677, 1.114456
1190.159, 1.554932
1190.641, 1.910782
1191.124, 1.912666
1191.606, 1.699081
1192.088, 0.5510658
1192.570, 1.398965
1193.052, 1.884694
1193.534, 2.027711
1194.016, 0.8015465
1194.498, 1.343394
1194.980, 1.176699
1195.463, 0.9809973
1195.945, 1.771678
1196.427, 0.7446624
1196.909, 1.519706
1197.391, 1.575394
1197.873, 1.960316
1198.355, 1.632320
1198.837, 1.524525
1199.320, 2.129909
1199.802, 2.340383
1200.284, 1.930324
1200.766, 2.336169
1201.248, 1.284248
1201.730, 1.511536
1202.212, 2.290751
1202.694, 1.916532
1203.177, 2.335458
1203.659, 2.452286
1204.141, 1.196394
1204.623, 1.646454
1205.105, 1.728279
1205.587, 1.916336
1206.069, 2.089485
1206.551, 2.322884
1207.033, 2.211990
1207.516, 1.682549
1207.998, 1.285751
1208.480, 1.679749
1208.962, 2.281570
1209.444, 2.290794
1209.926, 1.926689
1210.408, 1.839737
1210.890, 2.264412
1211.372, 2.462273
1211.854, 2.371231
1212.337, 2.179665
1212.819, 1.979561
1213.301, 1.818176
1213.783, 1.774376
1214.265, 1.822952
1214.747, 1.862938
1215.229, 1.882446
1215.711, 1.921074
1216.194, 1.988564
1216.676, 2.003998
1217.158, 1.754211
1217.640, 1.495705
1218.122, 1.713364
1218.604, 2.248352
1219.086, 2.337975
1219.568, 1.756599
1220.051, 1.435020
1220.533, 1.513985
1221.015, 1.567413
1221.497, 0.9199450
1221.979, 0.2812120
1222.461, 0.5102920
1222.943, 1.406265
1223.425, 1.901894
1223.907, 1.839302
1224.390, 1.949486
1224.872, 2.354233
1225.354, 2.699913
1225.836, 2.667801
1226.318, 2.438454
1226.800, 2.077454
1227.282, 1.649223
1227.764, 1.379799
1228.246, 1.268250
1228.729, 1.443275
1229.211, 1.962524
1229.693, 2.384659
1230.175, 2.204033
1230.657, 1.869064
1231.139, 1.806236
1231.621, 1.946518
1232.103, 1.809814
1232.586, 1.333412
1233.068, 1.133690
1233.550, 1.347328
1234.032, 1.602554
1234.514, 1.565010
1234.996, 1.421494
1235.478, 1.269463
1235.960, 1.162476
1236.443, 1.275269
1236.925, 1.604416
1237.407, 1.772461
1237.889, 1.700470
1238.371, 1.616440
1238.853, 1.824142
1239.335, 2.008057
1239.817, 1.802681
1240.299, 1.385406
1240.781, 1.350464
1241.264, 1.684166
1241.746, 1.662125
1242.228, 1.091232
1242.710, 0.6878280
1243.192, 1.229965
1243.674, 1.843277
1244.156, 2.024315
1244.638, 1.886475
1245.121, 1.753349
1245.603, 1.620079
1246.085, 1.278893
1246.567, 0.6538470
1247.049, 0.1794280
1247.531, 0.1842500
1248.013, 0.3411790
1248.495, 0.5448300
1248.978, 0.7168960
1249.460, 0.7094270
1249.942, 0.6302030
1250.424, 0.5746000
1250.906, 0.5289990
1251.388, 0.8082660
1251.870, 2.228737
1252.352, 3.109276
1252.834, 2.672508
1253.317, 1.615036
1253.799, 1.448189
1254.281, 1.822182
1254.763, 1.752930
1255.245, 1.035179
1255.727, 0.7122800
1256.209, 1.504234
1256.691, 2.151939
1257.173, 2.307007
1257.656, 2.160561
1258.138, 1.838760
1258.620, 1.437622
1259.102, 1.037682
1259.584, 0.6342930
1260.066, 0.5380550
1260.548, 0.9694900
1261.030, 1.254372
1261.513, 1.151131
1261.995, 0.9479750
1262.477, 1.142067
1262.959, 1.467995
1263.441, 1.624062
1263.923, 1.503914
1264.405, 1.393005
1264.887, 1.266243
1265.370, 1.415642
1265.852, 2.032059
1266.334, 2.563217
1266.816, 2.068169
1267.298, 1.325233
1267.780, 1.295319
1268.262, 1.953568
1268.744, 2.168900
1269.226, 1.884758
1269.708, 1.564796
1270.191, 1.333382
1270.673, 1.190544
1271.155, 1.312576
1271.637, 1.440346
1272.119, 1.197449
1272.601, 0.7326430
1273.083, 0.6045070
1273.565, 0.8089220
1274.048, 1.007042
1274.530, 1.125839
1275.012, 1.185013
1275.494, 0.9484100
1275.976, 0.7794490
1276.458, 0.8503040
1276.940, 1.086906
1277.422, 1.236519
1277.905, 1.267693
1278.387, 1.145760
1278.869, 0.9123990
1279.351, 0.7754750
1279.833, 0.7856980
1280.315, 0.9777980
1280.797, 1.409782
1281.279, 1.931824
1281.761, 2.125328
1282.244, 2.057556
1282.726, 1.816719
1283.208, 1.452454
1283.690, 1.235641
1284.172, 1.240135
1284.654, 1.306679
1285.136, 1.427078
1285.618, 1.483101
1286.100, 1.150749
1286.583, 0.7332990
1287.065, 0.8146590
1287.547, 1.378479
1288.029, 1.510239
1288.511, 0.9686810
1288.993, 0.5952680
1289.475, 0.5480190
1289.957, 0.5993040
1290.440, 0.3984830
1290.922, 0.1726230
1291.404, 0.2326510
1291.886, 0.5114900
1292.368, 0.5885090
1292.850, 0.4278410
1293.332, 0.3856120
1293.814, 0.5206680
1294.297, 0.6881030
1294.779, 0.8505400
1295.261, 0.9317780
1295.743, 0.7642140
1296.225, 0.5278320
1296.707, 0.6235280
1297.189, 1.000565
1297.671, 1.119713
1298.153, 0.9390110
1298.635, 0.7326810
1299.118, 0.5527040
1299.600, 0.5283430
1300.082, 0.8040240
1300.564, 1.078880
1301.046, 0.8361430
1301.528, 0.3089070
1302.010, 0.2080380
1302.492, 0.5008090
1302.975, 0.6476750
1303.457, 0.2653730
1303.939, 1.4793000E-02
1304.421, 1.0948000E-02
1304.903, 0.1127320
1305.385, 0.0000000E+00
##END=



