##NAMES=Yugawaralite
##RRUFFID=R060568
##IDEAL CHEMISTRY=Ca(Si_6_Al_2_)O_16_&#183;4H_2_O
##LOCALITY=Khandivali Quarry, near Bombay, India
##OWNER=RRUFF
##SOURCE=Michael Scott
##DESCRIPTION=Colorless fragment
##STATUS=The identification of this mineral is confirmed by single-crystal X-ray diffraction and chemical analysis.
##URL=rruff.info/R060568
##MEASURED CHEMISTRY=Ca_1.00_(Si_6.00_Al_2.00_)O_16_Â·4H_2_O; H_2_O estimated by difference
90.26532, 0.0000000E+00
90.74744, 0.7033690
91.22955, 24.02197
91.71167, 70.03052
92.19379, 124.9651
92.67590, 188.8157
93.15802, 246.0500
93.64014, 282.9324
94.12225, 308.2886
94.60437, 334.5615
95.08649, 361.7417
95.56860, 385.3828
96.05072, 399.3022
96.53284, 406.6282
97.01495, 407.1304
97.49707, 407.5278
97.97919, 404.4158
98.46130, 391.5286
98.94342, 357.0886
99.42554, 310.5479
99.90765, 269.9062
100.3898, 236.0647
100.8719, 205.4343
101.3540, 172.2021
101.8361, 134.7766
102.3182, 99.86255
102.8004, 69.18555
103.2825, 42.73315
103.7646, 20.81982
104.2467, 3.431641
104.7288, 9.530029
105.2109, 18.16113
105.6931, 22.59937
106.1752, 22.86548
106.6573, 18.92847
107.1394, 10.66309
107.6215, 1.426514
108.1036, 20.28223
108.5858, 44.05396
109.0679, 62.21753
109.5500, 70.73120
110.0321, 77.04810
110.5142, 85.06006
110.9963, 93.76807
111.4785, 105.2893
111.9606, 120.5415
112.4427, 139.3977
112.9248, 158.5974
113.4069, 178.5698
113.8890, 198.9419
114.3712, 219.1526
114.8533, 238.5234
115.3354, 258.6746
115.8175, 280.9475
116.2996, 306.1028
116.7817, 328.7307
117.2639, 345.5508
117.7460, 359.4114
118.2281, 373.9094
118.7102, 391.2200
119.1923, 408.9897
119.6744, 425.4482
120.1566, 440.1360
120.6387, 454.8037
121.1208, 469.8025
121.6029, 485.3713
122.0850, 501.8970
122.5671, 520.7361
123.0493, 540.0115
123.5314, 559.1980
124.0135, 580.4167
124.4956, 595.8474
124.9777, 597.1257
125.4598, 585.7424
125.9420, 567.2214
126.4241, 543.3193
126.9062, 514.8071
127.3883, 482.7795
127.8704, 446.3816
128.3525, 408.0225
128.8347, 370.4548
129.3168, 333.5874
129.7989, 298.7158
130.2810, 267.3904
130.7631, 239.0466
131.2452, 210.0347
131.7274, 178.5950
132.2095, 146.3662
132.6916, 117.6582
133.1737, 92.41846
133.6558, 70.11133
134.1379, 49.57495
134.6201, 30.83716
135.1022, 14.49780
135.5843, 0.4675290
136.0664, 11.08301
136.5485, 18.15088
137.0306, 20.35718
137.5128, 18.93774
137.9949, 15.66675
138.4770, 10.88794
138.9591, 16.79082
139.4412, 24.52885
139.9233, 32.26562
140.4055, 50.98535
140.8876, 67.72217
141.3697, 83.23706
141.8518, 98.63208
142.3339, 113.1836
142.8160, 128.9541
143.2982, 146.7537
143.7803, 166.6033
144.2624, 187.9358
144.7445, 210.8105
145.2266, 235.2185
145.7087, 259.9438
146.1909, 285.1052
146.6730, 310.9846
147.1551, 338.0276
147.6372, 366.2019
148.1193, 395.2185
148.6014, 426.2253
149.0836, 458.3381
149.5657, 489.3264
150.0478, 516.9844
150.5299, 544.5610
151.0120, 573.6917
151.4941, 603.5959
151.9763, 635.5002
152.4584, 671.9050
152.9405, 711.3079
153.4226, 747.0146
153.9047, 774.3616
154.3868, 800.5559
154.8690, 829.5068
155.3511, 865.6714
155.8332, 900.1230
156.3153, 931.9509
156.7974, 961.1045
157.2795, 986.7437
157.7617, 1007.862
158.2438, 1025.882
158.7259, 1041.842
159.2080, 1057.417
159.6901, 1069.675
160.1722, 1078.875
160.6544, 1084.850
161.1365, 1084.251
161.6186, 1072.817
162.1007, 1055.078
162.5828, 1035.079
163.0649, 1015.325
163.5471, 993.4285
164.0292, 968.4756
164.5113, 940.6543
164.9934, 910.7295
165.4755, 876.4734
165.9576, 840.4092
166.4398, 806.5977
166.9219, 775.7036
167.4040, 747.7432
167.8861, 723.1375
168.3682, 701.7971
168.8503, 683.2666
169.3325, 666.2109
169.8146, 651.8616
170.2967, 642.3877
170.7788, 640.2114
171.2609, 642.4114
171.7430, 646.5234
172.2252, 652.3989
172.7073, 660.3486
173.1894, 669.3701
173.6715, 680.6934
174.1536, 696.5540
174.6357, 719.6750
175.1179, 747.4763
175.6000, 777.4739
176.0821, 809.4031
176.5642, 842.2341
177.0463, 874.5752
177.5284, 906.9644
178.0106, 940.4668
178.4927, 976.1321
178.9748, 1013.365
179.4569, 1049.997
179.9390, 1085.842
180.4211, 1122.467
180.9033, 1163.079
181.3854, 1207.179
181.8675, 1251.082
182.3496, 1293.559
182.8317, 1334.283
183.3138, 1374.831
183.7960, 1415.108
184.2781, 1454.802
184.7602, 1493.390
185.2423, 1530.981
185.7244, 1565.483
186.2065, 1596.672
186.6887, 1624.103
187.1708, 1647.107
187.6529, 1665.929
188.1350, 1679.459
188.6171, 1685.252
189.0992, 1683.379
189.5814, 1675.458
190.0635, 1662.596
190.5456, 1644.490
191.0277, 1620.239
191.5098, 1589.014
191.9919, 1552.626
192.4741, 1515.507
192.9562, 1477.921
193.4383, 1437.520
193.9204, 1391.141
194.4025, 1339.261
194.8846, 1290.926
195.3668, 1248.268
195.8489, 1208.639
196.3310, 1165.194
196.8131, 1117.513
197.2952, 1070.158
197.7773, 1025.545
198.2595, 983.9316
198.7416, 943.9783
199.2237, 906.2896
199.7058, 870.0876
200.1879, 833.4973
200.6700, 795.7903
201.1522, 758.9299
201.6343, 724.4121
202.1164, 692.3752
202.5985, 660.0105
203.0806, 627.1577
203.5627, 594.3225
204.0449, 563.3555
204.5270, 534.4226
205.0091, 506.7009
205.4912, 479.8042
205.9733, 453.8293
206.4554, 427.8938
206.9376, 401.3906
207.4197, 375.0747
207.9018, 350.8933
208.3839, 329.0815
208.8660, 308.7688
209.3481, 289.7556
209.8303, 272.1135
210.3124, 255.0554
210.7945, 238.2039
211.2766, 222.0273
211.7587, 207.7114
212.2408, 195.2881
212.7230, 184.6418
213.2051, 175.5352
213.6872, 167.8723
214.1693, 162.0864
214.6514, 158.7117
215.1335, 157.1907
215.6157, 155.0574
216.0978, 151.5686
216.5799, 148.6516
217.0620, 147.4397
217.5441, 147.9517
218.0262, 150.0603
218.5084, 153.8965
218.9905, 159.3704
219.4726, 165.7639
219.9547, 173.2375
220.4368, 181.5781
220.9189, 190.5103
221.4011, 199.9128
221.8832, 210.6270
222.3653, 223.1736
222.8474, 237.1394
223.3295, 251.3999
223.8116, 266.2712
224.2938, 280.5291
224.7759, 293.1394
225.2580, 302.8030
225.7401, 314.0447
226.2222, 328.6355
226.7043, 344.9941
227.1865, 357.1650
227.6686, 363.8901
228.1507, 368.3286
228.6328, 372.3152
229.1149, 377.1118
229.5970, 378.2410
230.0792, 374.7922
230.5613, 367.5679
231.0434, 359.5515
231.5255, 350.6162
232.0076, 340.9023
232.4897, 330.5916
232.9719, 319.1609
233.4540, 308.6143
233.9361, 298.7583
234.4182, 289.7761
234.9003, 282.0967
235.3824, 275.7566
235.8646, 270.3760
236.3467, 265.7417
236.8288, 261.6086
237.3109, 258.7080
237.7930, 257.4744
238.2751, 257.1843
238.7573, 255.9182
239.2394, 252.8303
239.7215, 250.1411
240.2036, 248.9382
240.6857, 250.3030
241.1678, 250.6675
241.6500, 250.2742
242.1321, 248.8306
242.6142, 245.3511
243.0963, 238.8679
243.5784, 231.8054
244.0605, 225.6292
244.5427, 222.0027
245.0248, 214.9841
245.5069, 203.4224
245.9890, 188.9172
246.4711, 175.2742
246.9532, 163.3833
247.4354, 150.7368
247.9175, 136.2292
248.3996, 118.7642
248.8817, 102.9189
249.3638, 89.26929
249.8459, 76.96997
250.3281, 64.26807
250.8102, 50.11206
251.2923, 37.43091
251.7744, 27.36450
252.2565, 20.71387
252.7386, 13.64746
253.2208, 10.58119
253.7029, 9.111461
254.1850, 8.384033
254.6671, 10.60156
255.1492, 12.09424
255.6313, 13.62183
256.1135, 15.25781
256.5956, 16.76074
257.0777, 18.52124
257.5598, 19.84497
258.0419, 19.80103
258.5240, 18.35205
259.0062, 15.66748
259.4883, 11.33179
259.9704, 5.235596
260.4525, 0.4880370
260.9346, 2.127441
261.4167, 4.313965
261.8989, 8.139160
262.3810, 14.17334
262.8631, 20.36133
263.3452, 26.25586
263.8273, 31.96265
264.3094, 37.59863
264.7916, 43.34204
265.2737, 48.98071
265.7558, 54.32251
266.2379, 59.20264
266.7200, 64.43433
267.2021, 70.77197
267.6843, 77.86255
268.1664, 82.37085
268.6485, 83.78516
269.1306, 83.62061
269.6127, 82.61133
270.0948, 80.21143
270.5770, 79.45532
271.0591, 81.74072
271.5412, 85.93799
272.0233, 86.45435
272.5054, 82.45337
272.9875, 76.87769
273.4697, 71.42163
273.9518, 65.85840
274.4339, 61.57251
274.9160, 58.89575
275.3981, 57.51489
275.8802, 56.65088
276.3624, 56.50391
276.8445, 56.22241
277.3266, 55.29810
277.8087, 53.72437
278.2908, 51.73633
278.7729, 49.20947
279.2551, 46.48950
279.7372, 44.80566
280.2193, 44.45312
280.7014, 43.20654
281.1835, 39.43945
281.6656, 33.19873
282.1478, 27.26221
282.6299, 21.61157
283.1120, 16.56372
283.5941, 13.10034
284.0762, 11.30493
284.5583, 9.073730
285.0405, 5.090820
285.5226, 6.350622
286.0047, 5.300293
286.4868, 9.452148
286.9689, 13.30835
287.4510, 17.85986
287.9332, 23.02783
288.4153, 27.01855
288.8974, 28.55444
289.3795, 28.30859
289.8616, 28.75952
290.3438, 29.99854
290.8259, 31.34009
291.3080, 32.34692
291.7901, 32.92847
292.2722, 32.51611
292.7543, 30.71851
293.2365, 27.91260
293.7186, 25.00073
294.2007, 22.01855
294.6828, 18.56348
295.1649, 13.72974
295.6470, 8.056885
296.1292, 3.187012
296.6113, 0.1691890
297.0934, 2.756104
297.5755, 5.709717
298.0576, 9.034180
298.5397, 12.48657
299.0219, 15.75879
299.5040, 19.11646
299.9861, 23.09888
300.4682, 27.93652
300.9503, 33.22070
301.4324, 38.81372
301.9146, 44.56860
302.3967, 50.10938
302.8788, 54.36035
303.3609, 58.47803
303.8430, 64.14575
304.3251, 71.78076
304.8073, 80.22461
305.2894, 88.68994
305.7715, 97.14453
306.2536, 105.8057
306.7357, 114.6848
307.2178, 123.7307
307.7000, 132.3679
308.1821, 140.3650
308.6642, 149.4641
309.1463, 161.0168
309.6284, 174.4014
310.1105, 188.8767
310.5927, 204.2666
311.0748, 220.2759
311.5569, 236.7771
312.0390, 253.6824
312.5211, 271.2656
313.0032, 289.7666
313.4854, 309.2358
313.9675, 329.4521
314.4496, 350.9951
314.9317, 372.6650
315.4138, 394.8191
315.8959, 417.2095
316.3781, 438.5002
316.8602, 458.1152
317.3423, 476.4048
317.8244, 493.5947
318.3065, 510.2942
318.7886, 524.6108
319.2708, 536.7422
319.7529, 546.0251
320.2350, 550.5969
320.7171, 548.3137
321.1992, 542.2388
321.6813, 533.9231
322.1635, 524.1165
322.6456, 510.8220
323.1277, 492.7302
323.6098, 471.5237
324.0919, 449.8440
324.5740, 426.5457
325.0562, 404.2581
325.5383, 383.7156
326.0204, 364.9102
326.5025, 346.8906
326.9846, 328.9312
327.4667, 311.8694
327.9489, 296.4048
328.4310, 283.8359
328.9131, 271.4084
329.3952, 258.2183
329.8773, 243.9875
330.3594, 231.0476
330.8416, 220.1895
331.3237, 211.1567
331.8058, 203.8286
332.2879, 198.5759
332.7700, 194.3535
333.2521, 190.9497
333.7343, 188.4316
334.2164, 187.1208
334.6985, 186.7095
335.1806, 187.8987
335.6627, 191.4734
336.1448, 198.5186
336.6270, 204.1384
337.1091, 207.0630
337.5912, 209.2754
338.0733, 215.1675
338.5554, 225.4080
339.0375, 236.9592
339.5197, 248.7625
340.0018, 260.6658
340.4839, 272.9590
340.9660, 285.1860
341.4481, 298.1355
341.9302, 312.4170
342.4124, 328.1396
342.8945, 344.9763
343.3766, 363.1975
343.8587, 382.3542
344.3408, 401.4983
344.8229, 420.5759
345.3051, 439.3120
345.7872, 457.5173
346.2693, 475.1582
346.7514, 492.5774
347.2335, 509.8718
347.7156, 526.8252
348.1978, 543.1658
348.6799, 558.7915
349.1620, 572.2163
349.6441, 582.7053
350.1262, 590.3704
350.6083, 595.6143
351.0905, 598.9395
351.5726, 598.8960
352.0547, 593.3381
352.5368, 582.9834
353.0189, 569.9980
353.5010, 555.4248
353.9832, 538.8025
354.4653, 518.5652
354.9474, 494.3042
355.4295, 470.3386
355.9116, 447.7803
356.3937, 428.0127
356.8759, 413.3535
357.3580, 405.7358
357.8401, 402.3850
358.3222, 401.3584
358.8043, 402.8384
359.2864, 407.9653
359.7686, 418.3513
360.2507, 432.0889
360.7328, 447.5520
361.2149, 464.9512
361.6970, 483.2349
362.1791, 503.0745
362.6613, 523.4817
363.1434, 542.2178
363.6255, 557.8857
364.1076, 572.2056
364.5897, 586.9480
365.0718, 603.6418
365.5540, 614.7800
366.0361, 617.8577
366.5182, 615.0632
367.0003, 609.0273
367.4824, 599.5645
367.9645, 587.4500
368.4467, 572.6553
368.9288, 555.4082
369.4109, 535.9536
369.8930, 513.4971
370.3751, 489.5513
370.8572, 465.0234
371.3394, 440.3154
371.8215, 414.8135
372.3036, 388.1028
372.7857, 360.5640
373.2678, 333.4065
373.7499, 306.9209
374.2321, 279.7942
374.7142, 251.2432
375.1963, 220.2651
375.6784, 191.2434
376.1605, 164.4714
376.6426, 139.4307
377.1248, 116.5132
377.6069, 95.77417
378.0890, 75.31543
378.5711, 54.38037
379.0532, 33.12158
379.5353, 13.87964
380.0175, 3.456299
380.4996, 18.96436
380.9817, 32.92236
381.4638, 45.22412
381.9459, 55.48706
382.4280, 63.77100
382.9102, 69.66797
383.3923, 71.93433
383.8744, 70.73022
384.3565, 67.45337
384.8386, 62.69067
385.3207, 56.57788
385.8029, 50.10010
386.2850, 43.64893
386.7671, 34.81860
387.2492, 19.46680
387.7313, 23.23402
388.2134, 19.40015
388.6956, 33.08130
389.1777, 46.36548
389.6598, 64.08374
390.1419, 86.12134
390.6240, 109.8545
391.1061, 135.4678
391.5883, 161.4995
392.0704, 186.4778
392.5525, 209.3296
393.0346, 231.9998
393.5167, 255.1846
393.9988, 279.1453
394.4810, 304.8467
394.9631, 332.9890
395.4452, 362.6890
395.9273, 393.7803
396.4094, 426.7593
396.8915, 459.4871
397.3737, 490.4133
397.8558, 521.2251
398.3379, 553.9968
398.8200, 591.0269
399.3021, 627.7070
399.7842, 663.7224
400.2664, 699.0164
400.7485, 732.0564
401.2306, 762.8640
401.7127, 790.8938
402.1948, 815.6248
402.6769, 836.5059
403.1591, 855.2859
403.6412, 872.7234
404.1233, 887.7439
404.6054, 898.1177
405.0875, 903.4424
405.5696, 905.0305
406.0518, 903.2039
406.5339, 897.9707
407.0160, 890.2107
407.4981, 880.0725
407.9802, 867.4055
408.4623, 851.5955
408.9445, 832.6516
409.4266, 812.5854
409.9087, 791.5649
410.3908, 770.1860
410.8729, 750.1052
411.3550, 731.2439
411.8372, 712.8672
412.3193, 693.1321
412.8014, 673.4128
413.2835, 656.7676
413.7656, 643.5510
414.2477, 633.0168
414.7299, 624.6812
415.2120, 618.4094
415.6941, 614.1475
416.1762, 612.8213
416.6583, 612.6877
417.1404, 611.6377
417.6226, 609.6829
418.1047, 609.3889
418.5868, 612.2031
419.0689, 617.3254
419.5510, 624.0994
420.0331, 632.6099
420.5153, 642.3247
420.9974, 652.9048
421.4795, 664.5100
421.9616, 677.1077
422.4437, 691.7275
422.9258, 706.7258
423.4080, 720.8782
423.8901, 733.1938
424.3722, 748.8000
424.8543, 772.1062
425.3364, 797.0828
425.8185, 817.5767
426.3007, 829.5920
426.7828, 843.4216
427.2649, 861.5422
427.7470, 882.9570
428.2291, 901.9373
428.7112, 918.5984
429.1934, 932.2839
429.6755, 942.3096
430.1576, 947.7815
430.6397, 953.5317
431.1218, 959.5781
431.6039, 966.0081
432.0861, 972.8743
432.5682, 980.1311
433.0503, 988.5261
433.5324, 997.9285
434.0145, 1008.821
434.4966, 1023.063
434.9788, 1040.722
435.4609, 1060.613
435.9430, 1080.794
436.4251, 1102.668
436.9072, 1130.284
437.3893, 1165.503
437.8715, 1204.093
438.3536, 1241.187
438.8357, 1277.413
439.3178, 1314.664
439.7999, 1354.149
440.2820, 1395.278
440.7642, 1438.297
441.2463, 1483.758
441.7284, 1526.642
442.2105, 1563.512
442.6926, 1597.320
443.1747, 1630.909
443.6569, 1666.437
444.1390, 1700.203
444.6211, 1732.411
445.1032, 1762.445
445.5853, 1786.682
446.0674, 1801.324
446.5496, 1812.131
447.0317, 1821.432
447.5138, 1830.175
447.9959, 1834.757
448.4780, 1833.674
448.9601, 1829.727
449.4423, 1825.798
449.9244, 1823.614
450.4065, 1818.101
450.8886, 1807.890
451.3707, 1793.975
451.8528, 1780.648
452.3350, 1769.208
452.8171, 1753.813
453.2992, 1730.766
453.7813, 1699.813
454.2634, 1664.890
454.7455, 1625.523
455.2277, 1582.439
455.7098, 1535.021
456.1919, 1483.879
456.6740, 1430.235
457.1561, 1374.098
457.6382, 1317.839
458.1204, 1266.709
458.6025, 1220.057
459.0846, 1176.932
459.5667, 1134.087
460.0488, 1094.581
460.5309, 1062.478
461.0131, 1038.945
461.4952, 1021.052
461.9773, 1007.814
462.4594, 998.8877
462.9415, 993.6064
463.4236, 991.4236
463.9058, 993.1560
464.3879, 1000.527
464.8700, 1013.033
465.3521, 1025.877
465.8342, 1037.656
466.3163, 1049.369
466.7985, 1061.959
467.2806, 1078.556
467.7627, 1090.333
468.2448, 1094.810
468.7269, 1095.261
469.2090, 1096.371
469.6912, 1098.871
470.1733, 1100.776
470.6554, 1101.069
471.1375, 1100.129
471.6196, 1101.899
472.1017, 1107.089
472.5839, 1112.980
473.0660, 1117.410
473.5481, 1120.345
474.0302, 1125.054
474.5123, 1131.797
474.9944, 1140.454
475.4766, 1151.298
475.9587, 1164.156
476.4408, 1177.808
476.9229, 1192.222
477.4050, 1206.822
477.8871, 1220.195
478.3693, 1232.542
478.8514, 1245.411
479.3335, 1262.788
479.8156, 1280.142
480.2977, 1291.905
480.7798, 1296.666
481.2620, 1297.165
481.7441, 1295.304
482.2262, 1290.011
482.7083, 1279.719
483.1904, 1263.890
483.6725, 1242.756
484.1547, 1216.582
484.6368, 1185.423
485.1189, 1148.544
485.6010, 1103.184
486.0831, 1053.822
486.5652, 1003.046
487.0474, 949.9309
487.5295, 896.4500
488.0116, 842.2874
488.4937, 788.6208
488.9758, 736.4539
489.4579, 685.5249
489.9401, 636.4028
490.4222, 588.1897
490.9043, 541.8706
491.3864, 500.5852
491.8685, 464.6633
492.3506, 430.4399
492.8328, 394.2251
493.3149, 357.3513
493.7970, 325.4578
494.2791, 299.2346
494.7612, 276.3298
495.2433, 254.2664
495.7255, 233.1484
496.2076, 212.9231
496.6897, 193.2236
497.1718, 174.7917
497.6539, 158.7422
498.1360, 144.9297
498.6182, 132.3745
499.1003, 121.5771
499.5824, 111.2710
500.0645, 100.7791
500.5466, 89.63721
501.0287, 79.11792
501.5109, 69.25244
501.9930, 60.25732
502.4751, 52.49878
502.9572, 47.52026
503.4393, 41.92139
503.9214, 34.69727
504.4036, 26.60376
504.8857, 20.04004
505.3678, 15.22461
505.8499, 11.45532
506.3320, 8.676270
506.8141, 6.986328
507.2963, 5.017578
507.7784, 2.710205
508.2605, 3.478521
508.7426, 2.593994
509.2247, 5.645996
509.7068, 8.274414
510.1890, 10.30615
510.6711, 11.97754
511.1532, 13.75879
511.6353, 15.55737
512.1174, 16.80225
512.5995, 17.28223
513.0817, 17.05713
513.5638, 15.35034
514.0459, 12.31470
514.5280, 10.91504
515.0101, 14.29004
515.4922, 19.52344
515.9744, 23.99243
516.4565, 27.57520
516.9386, 29.51099
517.4207, 28.41602
517.9028, 25.72217
518.3849, 23.78369
518.8671, 23.85791
519.3492, 23.70117
519.8313, 22.91577
520.3134, 21.53833
520.7955, 19.69775
521.2776, 16.89771
521.7598, 14.39771
522.2419, 13.21899
522.7240, 13.86914
523.2061, 12.98145
523.6882, 10.23682
524.1703, 6.711182
524.6525, 3.807373
525.1346, 1.439941
525.6167, 1.277588
526.0988, 4.748779
526.5809, 8.588135
527.0630, 12.06250
527.5452, 15.26416
528.0273, 18.59009
528.5094, 22.00635
528.9915, 25.64307
529.4736, 29.81274
529.9557, 34.59619
530.4379, 39.47729
530.9200, 43.87598
531.4021, 48.41260
531.8842, 53.60425
532.3663, 59.56128
532.8484, 65.87549
533.3306, 72.28027
533.8127, 79.03833
534.2948, 86.63818
534.7769, 96.42236
535.2590, 105.6030
535.7411, 112.9038
536.2233, 118.4421
536.7054, 126.0137
537.1875, 136.4758
537.6696, 147.4265
538.1517, 157.1079
538.6339, 165.2632
539.1160, 175.4519
539.5981, 188.1685
540.0802, 201.8933
540.5623, 215.0554
541.0444, 227.7263
541.5266, 240.5264
542.0087, 253.5347
542.4908, 266.8794
542.9729, 279.9983
543.4550, 293.1692
543.9371, 307.9629
544.4193, 327.8862
544.9014, 348.1936
545.3835, 364.3821
545.8656, 375.8496
546.3477, 387.6494
546.8298, 402.3179
547.3120, 418.1084
547.7941, 433.5154
548.2762, 449.8069
548.7583, 463.7378
549.2404, 475.0552
549.7225, 483.8899
550.2047, 490.2778
550.6868, 493.4609
551.1689, 495.6924
551.6510, 497.7832
552.1331, 499.4539
552.6152, 499.0508
553.0974, 496.8176
553.5795, 491.5176
554.0616, 481.4785
554.5437, 467.4185
555.0258, 452.7900
555.5079, 437.5442
555.9901, 423.2874
556.4722, 413.2549
556.9543, 405.1489
557.4364, 393.8750
557.9185, 376.2896
558.4006, 357.7454
558.8828, 342.3110
559.3649, 329.0391
559.8470, 315.4070
560.3291, 299.3374
560.8112, 283.5583
561.2933, 269.3809
561.7755, 256.8284
562.2576, 243.7405
562.7397, 228.3442
563.2218, 213.6570
563.7039, 201.1760
564.1860, 191.7271
564.6682, 182.3337
565.1503, 172.8901
565.6324, 163.5972
566.1145, 155.0068
566.5966, 147.1436
567.0787, 138.6172
567.5609, 128.9753
568.0430, 118.8850
568.5251, 109.4858
569.0072, 100.8215
569.4893, 93.75732
569.9714, 90.34814
570.4536, 88.10303
570.9357, 82.74048
571.4178, 74.51831
571.8999, 67.21021
572.3820, 63.73853
572.8641, 61.53589
573.3463, 58.41260
573.8284, 53.52148
574.3105, 49.09521
574.7926, 46.99829
575.2747, 45.58154
575.7568, 42.60010
576.2390, 35.51880
576.7211, 29.72363
577.2032, 26.30835
577.6853, 24.62427
578.1674, 22.47949
578.6495, 19.93311
579.1317, 16.92676
579.6138, 12.89648
580.0959, 8.086426
580.5780, 5.356201
581.0601, 4.957275
581.5422, 5.193115
582.0244, 4.769287
582.5065, 3.825195
582.9886, 2.719727
583.4707, 1.513428
583.9528, 0.3022460
584.4349, 1.566162
584.9171, 0.6391384
585.3992, 3.741211
585.8813, 0.7927250
586.3634, 1.752441
586.8455, 2.137695
587.3276, 0.8574220
587.8098, 0.7360840
588.2919, 4.118408
588.7740, 6.020752
589.2561, 4.831543
589.7382, 0.4787600
590.2203, 1.939453
590.7025, 1.903320
591.1846, 0.8090820
591.6667, 1.072754
592.1488, 3.951172
592.6309, 4.181885
593.1130, 5.355876
593.5952, 2.926514
594.0773, 7.017334
594.5594, 10.60303
595.0415, 11.58179
595.5236, 8.442871
596.0057, 4.516602
596.4879, 3.142822
596.9700, 3.876465
597.4521, 5.694580
597.9342, 9.720703
598.4163, 13.29736
598.8984, 14.42725
599.3806, 13.39844
599.8627, 13.10620
600.3448, 14.07910
600.8269, 16.04517
601.3090, 19.13159
601.7911, 23.90552
602.2733, 27.40967
602.7554, 29.06592
603.2375, 30.24463
603.7196, 32.00244
604.2017, 34.33447
604.6838, 37.61255
605.1660, 41.95361
605.6481, 47.19531
606.1302, 53.28882
606.6123, 60.09424
607.0944, 66.91162
607.5765, 73.68823
608.0587, 80.20264
608.5408, 86.22437
609.0229, 91.78638
609.5050, 97.27808
609.9871, 102.2617
610.4692, 107.6384
610.9514, 113.9741
611.4335, 121.3762
611.9156, 129.0823
612.3977, 137.3538
612.8798, 145.5486
613.3619, 152.8992
613.8441, 157.8567
614.3262, 166.3213
614.8083, 179.7043
615.2904, 194.7778
615.7725, 206.8247
616.2546, 215.5920
616.7368, 226.1824
617.2189, 240.0142
617.7010, 255.7346
618.1831, 270.8708
618.6652, 285.6228
619.1473, 300.9216
619.6295, 316.7725
620.1116, 333.5171
620.5937, 352.4504
621.0758, 372.8821
621.5579, 392.0037
622.0400, 406.4495
622.5222, 420.2534
623.0043, 436.1975
623.4864, 455.3018
623.9685, 472.0059
624.4506, 485.5635
624.9327, 496.7559
625.4149, 506.0015
625.8970, 512.9934
626.3791, 518.7822
626.8612, 523.6895
627.3433, 526.9055
627.8254, 527.3171
628.3076, 524.9470
628.7897, 520.2427
629.2718, 513.2559
629.7539, 504.0569
630.2360, 492.2383
630.7181, 478.2744
631.2003, 463.7756
631.6824, 447.9910
632.1645, 433.1819
632.6466, 421.9458
633.1287, 413.7117
633.6108, 405.1956
634.0930, 393.9910
634.5751, 383.1033
635.0572, 374.0420
635.5393, 366.8809
636.0214, 361.2373
636.5035, 357.0808
636.9857, 354.4302
637.4678, 353.5647
637.9499, 354.6917
638.4320, 355.6772
638.9141, 356.1965
639.3962, 357.2158
639.8784, 360.2322
640.3605, 364.8840
640.8426, 369.7139
641.3247, 373.8948
641.8068, 378.7761
642.2889, 387.1506
642.7711, 397.3259
643.2532, 405.7642
643.7353, 409.4238
644.2174, 412.5815
644.6995, 417.8711
645.1816, 424.6917
645.6638, 429.1035
646.1459, 429.5583
646.6280, 428.3003
647.1101, 426.4382
647.5922, 424.2883
648.0743, 419.0371
648.5565, 409.8206
649.0386, 399.1396
649.5207, 388.8660
650.0028, 378.8130
650.4849, 368.3386
650.9670, 357.6208
651.4492, 346.7778
651.9313, 335.2339
652.4134, 323.8452
652.8955, 314.3186
653.3776, 307.1641
653.8597, 301.1519
654.3419, 296.3862
654.8240, 292.2947
655.3061, 287.9409
655.7882, 280.6487
656.2703, 275.8716
656.7524, 275.5000
657.2346, 278.5020
657.7167, 282.0361
658.1988, 285.9236
658.6809, 290.8904
659.1630, 297.7212
659.6451, 305.8589
660.1273, 311.0562
660.6094, 313.2227
661.0915, 316.8489
661.5736, 326.2517
662.0557, 338.8176
662.5378, 349.9412
663.0200, 359.3215
663.5021, 366.7688
663.9842, 371.7593
664.4663, 374.9192
664.9484, 376.8330
665.4305, 377.6111
665.9127, 377.1086
666.3948, 375.5601
666.8769, 372.6238
667.3590, 367.9312
667.8411, 361.3208
668.3232, 353.4326
668.8054, 344.3948
669.2875, 334.1506
669.7696, 322.3628
670.2517, 309.0007
670.7338, 295.3389
671.2159, 281.8179
671.6981, 268.2888
672.1802, 254.2290
672.6623, 239.9905
673.1444, 226.3665
673.6265, 214.0947
674.1086, 202.5349
674.5908, 191.5610
675.0729, 181.1199
675.5550, 170.3225
676.0371, 157.3081
676.5192, 145.4126
677.0013, 136.1968
677.4835, 129.8823
677.9656, 123.5837
678.4477, 117.0710
678.9298, 110.9216
679.4119, 105.4360
679.8940, 100.5469
680.3762, 97.34888
680.8583, 96.16162
681.3404, 94.43311
681.8225, 88.73560
682.3046, 80.64233
682.7867, 73.10522
683.2689, 66.56641
683.7510, 61.44214
684.2331, 59.72510
684.7152, 59.12622
685.1973, 56.75977
685.6794, 49.04639
686.1616, 42.88672
686.6437, 40.43628
687.1258, 40.06934
687.6079, 39.00244
688.0900, 36.96606
688.5721, 34.97314
689.0543, 33.38672
689.5364, 31.90747
690.0185, 29.29614
690.5006, 25.59790
690.9827, 22.52075
691.4648, 21.48755
691.9470, 21.26953
692.4291, 19.83789
692.9112, 17.39429
693.3933, 15.07471
693.8754, 13.15479
694.3575, 11.85986
694.8397, 11.53613
695.3218, 12.30908
695.8039, 13.01196
696.2860, 13.91162
696.7681, 14.38403
697.2502, 13.98193
697.7324, 12.41919
698.2145, 11.59351
698.6966, 11.65479
699.1787, 12.06812
699.6608, 12.48389
700.1429, 12.82275
700.6251, 12.68872
701.1072, 11.95801
701.5893, 11.02930
702.0714, 10.21899
702.5535, 9.452881
703.0356, 8.665039
703.5178, 8.014404
703.9999, 6.955322
704.4820, 4.363037
704.9641, 1.464844
705.4462, 0.2583010
705.9283, 2.354004
706.4105, 3.659668
706.8926, 3.432373
707.3747, 2.289551
707.8568, 1.793213
708.3389, 2.034912
708.8210, 1.838135
709.3032, 1.674268
709.7853, 1.173340
710.2674, 1.432617
710.7495, 0.6462400
711.2316, 0.5156250
711.7137, 2.721191
712.1959, 5.312744
712.6780, 6.965088
713.1601, 7.720947
713.6422, 8.161621
714.1243, 8.462891
714.6064, 8.474609
715.0886, 8.228760
715.5707, 7.729004
716.0528, 6.315918
716.5349, 3.371826
717.0170, 1.016357
717.4991, 0.8908690
717.9813, 2.701660
718.4634, 4.202637
718.9455, 5.344238
719.4276, 6.109619
719.9097, 6.578369
720.3918, 6.623291
720.8740, 5.919434
721.3561, 4.266357
721.8382, 2.815918
722.3203, 2.946777
722.8024, 3.051758
723.2845, 1.586182
723.7667, 3.897461
724.2488, 6.704834
724.7309, 5.699707
725.2130, 3.227539
725.6951, 1.817871
726.1772, 1.483887
726.6594, 2.291748
727.1415, 4.688721
727.6236, 6.935791
728.1057, 5.714111
728.5878, 2.428467
729.0699, 0.8752440
729.5521, 3.536865
730.0342, 6.331543
730.5163, 5.822754
730.9984, 3.680176
731.4805, 2.875488
731.9626, 5.464111
732.4448, 7.919189
732.9269, 9.813721
733.4090, 11.11914
733.8911, 11.33105
734.3732, 9.863037
734.8553, 9.781494
735.3375, 12.53857
735.8196, 16.91968
736.3017, 19.83618
736.7838, 21.45776
737.2659, 22.82227
737.7480, 24.03711
738.2302, 25.58008
738.7123, 28.17676
739.1944, 31.60547
739.6765, 34.79688
740.1586, 38.27295
740.6407, 40.55542
741.1229, 40.29468
741.6050, 37.67700
742.0871, 36.43359
742.5692, 36.89600
743.0513, 37.96680
743.5334, 39.16040
744.0156, 40.50000
744.4977, 42.51172
744.9798, 45.21265
745.4619, 46.75024
745.9440, 44.08252
746.4261, 40.22754
746.9083, 39.35693
747.3904, 41.87476
747.8725, 44.14966
748.3546, 44.74927
748.8367, 44.24365
749.3188, 42.51636
749.8010, 38.60107
750.2831, 37.34131
750.7652, 40.40210
751.2473, 43.48779
751.7294, 43.04443
752.2115, 39.11206
752.6937, 34.56812
753.1758, 29.39551
753.6579, 24.87500
754.1400, 22.66821
754.6221, 21.92212
755.1042, 21.39893
755.5864, 21.08569
756.0685, 20.22607
756.5506, 17.67285
757.0327, 14.79883
757.5148, 13.01953
757.9969, 12.59009
758.4791, 13.22339
758.9612, 15.24438
759.4433, 17.94287
759.9254, 20.66162
760.4075, 23.44531
760.8896, 25.06348
761.3718, 25.06396
761.8539, 24.57324
762.3360, 25.19751
762.8181, 26.41772
763.3002, 27.02026
763.7823, 25.99219
764.2645, 25.63599
764.7466, 28.39404
765.2287, 32.29150
765.7108, 34.40356
766.1929, 32.04736
766.6750, 31.10010
767.1572, 32.50928
767.6393, 35.17236
768.1214, 37.23535
768.6035, 38.69873
769.0856, 40.42334
769.5677, 42.77368
770.0499, 44.88818
770.5320, 44.81323
771.0141, 43.51514
771.4962, 43.37256
771.9783, 46.41772
772.4604, 49.71753
772.9426, 51.79150
773.4247, 53.01099
773.9068, 54.17236
774.3889, 54.64575
774.8710, 56.35596
775.3531, 60.18896
775.8353, 65.00244
776.3174, 67.52954
776.7995, 67.68286
777.2816, 67.87231
777.7637, 68.77124
778.2458, 70.53394
778.7280, 73.69263
779.2101, 78.06055
779.6922, 82.73389
780.1743, 88.07666
780.6564, 92.76050
781.1385, 94.75073
781.6207, 95.30005
782.1028, 99.79175
782.5849, 112.1992
783.0670, 122.5349
783.5491, 127.2710
784.0313, 128.1499
784.5134, 132.7756
784.9955, 141.2332
785.4776, 148.7322
785.9597, 152.4988
786.4418, 154.4104
786.9240, 157.3704
787.4061, 161.0435
787.8882, 164.1736
788.3703, 166.2773
788.8524, 167.4680
789.3345, 168.0686
789.8167, 167.8997
790.2988, 165.7620
790.7809, 160.9626
791.2630, 155.5093
791.7451, 149.7617
792.2272, 144.0002
792.7094, 139.5764
793.1915, 136.4304
793.6736, 131.8516
794.1557, 123.3091
794.6378, 113.1067
795.1199, 103.5518
795.6021, 94.92212
796.0842, 87.77710
796.5663, 84.12012
797.0484, 80.40405
797.5305, 74.77563
798.0126, 67.50244
798.4948, 60.83057
798.9769, 54.56689
799.4590, 49.53418
799.9411, 46.50293
800.4232, 44.91187
800.9053, 42.51953
801.3875, 39.46216
801.8696, 36.99536
802.3517, 36.59497
802.8338, 36.61523
803.3159, 35.31738
803.7980, 32.87256
804.2802, 30.57349
804.7623, 28.98730
805.2444, 27.38208
805.7265, 25.07690
806.2086, 22.29297
806.6907, 21.43921
807.1729, 22.86499
807.6550, 24.59888
808.1371, 26.53687
808.6192, 27.74536
809.1013, 24.49048
809.5834, 17.64893
810.0656, 12.19849
810.5477, 12.37476
811.0298, 13.91724
811.5119, 13.76953
811.9940, 12.17603
812.4761, 11.68970
812.9583, 14.46997
813.4404, 16.22021
813.9225, 15.32764
814.4046, 12.31909
814.8867, 9.910400
815.3688, 8.087646
815.8510, 7.558105
816.3331, 9.592529
816.8152, 12.58862
817.2973, 13.78833
817.7794, 13.49756
818.2615, 12.99023
818.7437, 12.28467
819.2258, 12.03857
819.7079, 13.11060
820.1900, 15.12207
820.6721, 15.38184
821.1542, 12.64038
821.6364, 10.95410
822.1185, 12.32739
822.6006, 15.39355
823.0827, 15.27026
823.5648, 12.34888
824.0469, 9.703369
824.5291, 9.824463
825.0112, 10.33667
825.4933, 8.520508
825.9754, 5.174072
826.4575, 2.748779
826.9396, 3.519531
827.4218, 3.604248
827.9039, 1.348633
828.3860, 2.242432
828.8681, 3.776611
829.3502, 3.117920
829.8323, 4.643584
830.3145, 2.457031
830.7966, 6.458496
831.2787, 8.925781
831.7608, 9.881348
832.2429, 9.354736
832.7250, 5.317871
833.2072, 1.851318
833.6893, 1.697266
834.1714, 3.753174
834.6535, 5.096191
835.1356, 5.512451
835.6177, 5.226563
836.0999, 3.928955
836.5820, 2.299805
837.0641, 1.689453
837.5462, 2.100342
838.0283, 3.792480
838.5104, 7.816895
838.9926, 11.34912
839.4747, 9.736816
839.9568, 5.718018
840.4389, 4.063232
840.9210, 10.01367
841.4031, 14.02344
841.8853, 11.73462
842.3674, 7.441162
842.8495, 7.699707
843.3316, 13.80566
843.8137, 17.57471
844.2958, 17.14429
844.7780, 15.33838
845.2601, 17.19702
845.7422, 20.88062
846.2243, 21.60449
846.7064, 16.71143
847.1885, 12.14478
847.6707, 11.72974
848.1528, 13.34790
848.6349, 14.64624
849.1170, 16.60620
849.5991, 15.72046
850.0812, 10.51587
850.5634, 4.820068
851.0455, 2.752930
851.5276, 4.109131
852.0097, 8.090820
852.4918, 15.21265
852.9739, 20.67139
853.4561, 18.58716
853.9382, 13.19824
854.4203, 8.966309
854.9024, 6.592529
855.3845, 5.729004
855.8666, 7.200439
856.3488, 9.257568
856.8309, 10.54248
857.3130, 10.73999
857.7951, 12.85815
858.2772, 17.24512
858.7593, 20.71265
859.2415, 19.24219
859.7236, 15.40747
860.2057, 13.87427
860.6878, 15.01807
861.1699, 15.54590
861.6520, 12.82617
862.1342, 9.887695
862.6163, 8.785156
863.0984, 9.664307
863.5805, 10.37109
864.0626, 10.87671
864.5447, 10.64575
865.0269, 8.846924
865.5090, 6.152832
865.9911, 4.999268
866.4732, 5.222656
866.9553, 5.650635
867.4374, 5.527832
867.9196, 5.428223
868.4017, 5.925781
868.8838, 6.902100
869.3659, 7.320801
869.8480, 6.068848
870.3301, 5.627441
870.8123, 7.034424
871.2944, 9.694336
871.7765, 11.44263
872.2586, 12.15186
872.7407, 12.15649
873.2228, 11.40649
873.7050, 10.36230
874.1871, 8.987793
874.6692, 7.678711
875.1513, 7.332275
875.6334, 10.16699
876.1155, 11.73267
876.5977, 11.32080
877.0798, 9.683350
877.5619, 7.494873
878.0440, 4.461426
878.5261, 2.104492
879.0082, 0.5502930
879.4904, 0.3920900
879.9725, 3.882080
880.4546, 8.914551
880.9367, 11.53516
881.4188, 9.358398
881.9009, 7.143311
882.3831, 7.194092
882.8652, 7.898438
883.3473, 7.266357
883.8294, 4.353027
884.3115, 3.371094
884.7936, 4.923584
885.2758, 7.005371
885.7579, 7.561523
886.2400, 7.147217
886.7221, 6.955322
887.2042, 7.171875
887.6863, 7.289551
888.1685, 6.764404
888.6506, 6.205811
889.1327, 5.933105
889.6148, 5.902832
890.0969, 6.830566
890.5790, 8.996094
891.0612, 11.02734
891.5433, 11.88306
892.0254, 11.89893
892.5075, 12.39502
892.9896, 13.30322
893.4717, 14.30786
893.9539, 15.74292
894.4360, 16.73730
894.9181, 16.39209
895.4002, 14.96631
895.8823, 14.20898
896.3644, 14.92725
896.8466, 15.07837
897.3287, 13.92310
897.8108, 12.11108
898.2929, 10.94409
898.7750, 10.54736
899.2571, 11.73999
899.7393, 16.68994
900.2214, 20.54956
900.7035, 17.40698
901.1856, 10.78271
901.6677, 6.655518
902.1498, 8.591797
902.6320, 9.830811
903.1141, 9.443359
903.5962, 8.706299
904.0783, 9.781250
904.5604, 12.43481
905.0425, 13.60645
905.5247, 12.73877
906.0068, 11.05298
906.4889, 9.212891
906.9710, 7.492432
907.4531, 6.042725
907.9352, 4.610107
908.4174, 4.759766
908.8995, 8.020508
909.3816, 11.37378
909.8637, 13.01245
910.3458, 12.96680
910.8279, 12.17505
911.3101, 10.60376
911.7922, 9.294922
912.2743, 9.688965
912.7564, 10.23901
913.2385, 8.677979
913.7206, 5.326172
914.2028, 3.115234
914.6849, 4.063477
915.1670, 4.991455
915.6491, 5.041748
916.1312, 4.377930
916.6133, 3.373535
917.0955, 2.038818
917.5776, 1.230469
918.0597, 1.368164
918.5418, 2.072998
919.0239, 3.614014
919.5060, 5.254150
919.9882, 5.527344
920.4703, 0.9814450
920.9524, 0.9768070
921.4345, 2.813721
921.9166, 8.012695
922.3987, 8.707764
922.8809, 4.464355
923.3630, 2.168457
923.8451, 2.703125
924.3272, 4.355225
924.8093, 6.489502
925.2914, 8.073730
925.7736, 7.256104
926.2557, 3.299805
926.7378, 0.2282710
927.2199, 0.1323240
927.7020, 0.4545900
928.1841, 0.2409670
928.6663, 1.921875
929.1484, 1.914551
929.6305, 0.1279300
930.1126, 1.585449
930.5947, 1.761963
931.0768, 1.385254
931.5590, 1.966553
932.0411, 3.174316
932.5232, 3.565186
933.0053, 2.840576
933.4874, 0.8457030
933.9695, 3.422363
934.4517, 8.448975
934.9338, 10.29126
935.4159, 8.864258
935.8980, 7.229980
936.3801, 6.109863
936.8622, 5.344238
937.3444, 5.286865
937.8265, 5.287842
938.3086, 4.239746
938.7907, 0.5153810
939.2728, 1.528809
939.7549, 0.1750490
940.2371, 2.481689
940.7192, 2.776367
941.2013, 1.020996
941.6834, 1.058838
942.1655, 3.424072
942.6476, 5.210693
943.1298, 4.727051
943.6119, 3.849854
944.0940, 5.044189
944.5761, 8.346680
945.0582, 10.56055
945.5403, 10.77173
946.0225, 9.872803
946.5046, 7.550781
946.9867, 4.477783
947.4688, 3.584717
947.9509, 4.767822
948.4330, 6.207275
948.9152, 7.098389
949.3973, 7.964844
949.8794, 9.481201
950.3615, 11.28857
950.8436, 12.75806
951.3257, 13.90063
951.8079, 14.24951
952.2900, 12.98901
952.7721, 12.00439
953.2542, 14.20947
953.7363, 19.07593
954.2184, 22.27051
954.7006, 23.17041
955.1827, 24.35864
955.6648, 29.11328
956.1469, 34.35327
956.6290, 36.80273
957.1111, 35.66895
957.5933, 36.84399
958.0754, 41.52222
958.5575, 46.50098
959.0396, 49.80542
959.5217, 52.35718
960.0038, 57.50317
960.4860, 64.99121
960.9681, 73.55566
961.4502, 82.91138
961.9323, 92.63989
962.4144, 102.2600
962.8965, 112.0437
963.3787, 122.3335
963.8608, 133.1079
964.3429, 144.5862
964.8250, 156.9482
965.3071, 169.8137
965.7892, 182.2451
966.2714, 194.6514
966.7535, 209.0627
967.2356, 226.2537
967.7177, 241.0605
968.1998, 250.2781
968.6819, 256.1118
969.1641, 260.0649
969.6462, 262.3862
970.1283, 261.6541
970.6104, 257.8118
971.0925, 251.2610
971.5746, 241.9941
972.0568, 230.2119
972.5389, 215.0085
973.0210, 197.3540
973.5031, 181.0605
973.9852, 167.7727
974.4673, 155.4504
974.9495, 143.5591
975.4316, 132.4302
975.9137, 123.2192
976.3958, 115.9910
976.8779, 106.7476
977.3600, 94.24194
977.8422, 82.80347
978.3243, 78.05078
978.8064, 76.51733
979.2885, 74.05396
979.7706, 69.49341
980.2527, 64.61621
980.7349, 58.83545
981.2170, 53.95630
981.6991, 51.32861
982.1812, 50.60010
982.6633, 49.24609
983.1454, 47.28345
983.6276, 45.31982
984.1097, 43.55884
984.5918, 41.87524
985.0739, 40.68945
985.5560, 39.62744
986.0381, 37.48462
986.5203, 33.23096
987.0024, 29.90308
987.4845, 28.13232
987.9666, 27.26660
988.4487, 27.12061
988.9308, 27.03003
989.4130, 24.54370
989.8951, 18.88428
990.3772, 14.05615
990.8593, 12.63257
991.3414, 12.68896
991.8235, 12.87939
992.3057, 13.11743
992.7878, 13.44189
993.2699, 14.26001
993.7520, 14.19922
994.2341, 11.61157
994.7162, 8.253906
995.1984, 7.578125
995.6805, 8.646484
996.1626, 8.987305
996.6447, 5.897461
997.1268, 4.572998
997.6089, 6.874756
998.0911, 10.41064
998.5732, 11.98584
999.0553, 11.75195
999.5374, 11.67896
1000.020, 11.95142
1000.502, 12.34180
1000.984, 12.57593
1001.466, 12.78491
1001.948, 12.89868
1002.430, 12.82886
1002.912, 14.41113
1003.394, 19.29590
1003.876, 22.53784
1004.359, 21.25342
1004.841, 17.34204
1005.323, 16.68506
1005.805, 18.81372
1006.287, 21.57861
1006.769, 25.16284
1007.251, 27.73950
1007.733, 27.05151
1008.216, 25.40698
1008.698, 26.25635
1009.180, 30.89185
1009.662, 32.84570
1010.144, 31.38257
1010.626, 29.17065
1011.108, 29.23315
1011.590, 30.05640
1012.072, 28.72559
1012.555, 25.23633
1013.037, 23.46411
1013.519, 26.94482
1014.001, 29.83057
1014.483, 30.42505
1014.965, 28.97168
1015.447, 25.83325
1015.929, 21.22192
1016.411, 17.02612
1016.894, 13.73975
1017.376, 11.33667
1017.858, 9.715820
1018.340, 9.072021
1018.822, 10.01074
1019.304, 14.24756
1019.786, 15.47534
1020.268, 12.78296
1020.751, 9.288574
1021.233, 6.936768
1021.715, 5.714600
1022.197, 5.734375
1022.679, 6.989014
1023.161, 8.835449
1023.643, 12.14893
1024.125, 14.69141
1024.607, 14.78467
1025.090, 13.74731
1025.572, 14.49731
1026.054, 17.27905
1026.536, 17.81079
1027.018, 14.91431
1027.500, 11.51440
1027.982, 10.94238
1028.464, 11.49316
1028.947, 11.42676
1029.429, 10.60938
1029.911, 8.048584
1030.393, 6.867123
1030.875, 2.265625
1031.357, 3.587158
1031.839, 2.575439
1032.321, 3.097900
1032.803, 4.654297
1033.286, 5.230957
1033.768, 2.803955
1034.250, 0.3310550
1034.732, 1.296631
1035.214, 1.978027
1035.696, 1.177002
1036.178, 1.862549
1036.660, 2.030518
1037.143, 1.354004
1037.625, 5.139160
1038.107, 6.554932
1038.589, 6.619629
1039.071, 5.987793
1039.553, 4.843506
1040.035, 5.224365
1040.517, 9.225830
1041.000, 12.09790
1041.482, 11.95483
1041.964, 10.44507
1042.446, 12.37939
1042.928, 16.62231
1043.410, 18.01465
1043.892, 14.00000
1044.374, 10.13159
1044.856, 10.17456
1045.339, 11.70898
1045.821, 12.60034
1046.303, 12.72876
1046.785, 12.94629
1047.267, 13.32373
1047.749, 13.20996
1048.231, 10.65308
1048.713, 8.392334
1049.195, 11.23267
1049.677, 17.35986
1050.160, 21.48315
1050.642, 18.69385
1051.124, 18.81567
1051.606, 24.21509
1052.088, 30.89429
1052.570, 33.15015
1053.052, 32.00537
1053.534, 31.08936
1054.017, 30.81177
1054.499, 31.05420
1054.981, 32.01880
1055.463, 33.27563
1055.945, 34.76660
1056.427, 36.34546
1056.909, 37.01392
1057.391, 36.75098
1057.874, 36.12817
1058.356, 35.28687
1058.838, 34.37671
1059.320, 33.04736
1059.802, 32.01099
1060.284, 32.48804
1060.766, 36.36328
1061.248, 37.66211
1061.730, 35.02490
1062.213, 32.14429
1062.695, 32.53711
1063.177, 29.50190
1063.659, 32.34521
1064.141, 26.44531
1064.623, 22.03442
1065.105, 21.99341
1065.587, 23.46289
1066.070, 26.96045
1066.552, 30.38867
1067.034, 30.06006
1067.516, 25.80005
1067.998, 22.88013
1068.480, 22.03003
1068.962, 21.41479
1069.444, 19.65601
1069.927, 17.19165
1070.409, 14.22900
1070.891, 10.86841
1071.373, 7.739502
1071.855, 4.817383
1072.337, 2.326660
1072.819, 0.2873540
1073.301, 1.193115
1073.783, 1.704346
1074.266, 1.584717
1074.748, 1.459717
1075.230, 1.174805
1075.712, 1.836182
1076.194, 4.984863
1076.676, 7.786621
1077.158, 8.330566
1077.640, 6.880127
1078.122, 6.382080
1078.604, 6.654053
1079.087, 6.104004
1079.569, 2.104736
1080.051, 1.138428
1080.533, 0.2583010
1081.015, 3.652588
1081.497, 3.906006
1081.979, 6.6895001E-02
1082.461, 1.649902
1082.944, 4.6386998E-02
1083.426, 1.481689
1083.908, 2.204346
1084.390, 7.136230
1084.872, 7.755127
1085.354, 4.307861
1085.836, 3.648682
1086.318, 8.716309
1086.801, 12.81689
1087.283, 14.03931
1087.765, 14.07324
1088.247, 15.94653
1088.729, 18.94092
1089.211, 21.83228
1089.693, 24.46021
1090.175, 27.13184
1090.657, 30.87085
1091.140, 33.64111
1091.622, 33.72949
1092.104, 31.81519
1092.586, 34.27783
1093.068, 40.67114
1093.550, 46.13477
1094.032, 48.25220
1094.514, 49.02856
1094.997, 48.88184
1095.479, 48.77515
1095.961, 50.32642
1096.443, 54.30054
1096.925, 57.50244
1097.407, 59.96704
1097.889, 61.48853
1098.371, 60.82104
1098.854, 59.83569
1099.336, 61.40552
1099.818, 64.84790
1100.300, 67.28735
1100.782, 67.57471
1101.264, 67.69482
1101.746, 67.93164
1102.228, 67.97729
1102.710, 67.07422
1103.193, 65.74512
1103.675, 65.16504
1104.157, 65.49902
1104.639, 66.66919
1105.121, 68.89868
1105.603, 71.77173
1106.085, 75.11865
1106.567, 78.99072
1107.049, 83.95996
1107.531, 89.79761
1108.014, 93.84888
1108.496, 94.71216
1108.978, 96.27783
1109.460, 101.3013
1109.942, 108.2124
1110.424, 115.8481
1110.906, 124.2063
1111.388, 132.0793
1111.871, 139.5195
1112.353, 145.4053
1112.835, 147.2722
1113.317, 149.7490
1113.799, 158.9348
1114.281, 171.8315
1114.763, 183.6296
1115.245, 192.2405
1115.728, 202.0789
1116.210, 213.0349
1116.692, 225.6689
1117.174, 241.0801
1117.656, 258.0579
1118.138, 274.7080
1118.620, 290.9358
1119.102, 306.6409
1119.584, 319.9026
1120.067, 335.2148
1120.549, 353.3364
1121.031, 373.3945
1121.513, 395.7822
1121.995, 419.1438
1122.477, 437.2112
1122.959, 449.7656
1123.441, 464.0242
1123.924, 486.0325
1124.406, 508.1624
1124.888, 527.3289
1125.370, 544.2183
1125.852, 561.2485
1126.334, 578.2375
1126.816, 591.7698
1127.298, 600.8118
1127.781, 607.7524
1128.263, 614.4250
1128.745, 619.6965
1129.227, 622.4407
1129.709, 622.8225
1130.191, 621.9429
1130.673, 619.7383
1131.155, 617.1367
1131.637, 614.6841
1132.120, 611.6985
1132.602, 607.8203
1133.084, 602.6782
1133.566, 595.7070
1134.048, 586.3069
1134.530, 576.1365
1135.012, 565.2480
1135.494, 553.7310
1135.976, 540.6650
1136.458, 527.2683
1136.941, 516.8442
1137.423, 507.9434
1137.905, 496.6057
1138.387, 479.5720
1138.869, 462.6265
1139.351, 445.8384
1139.833, 430.3547
1140.315, 418.3210
1140.798, 408.0632
1141.280, 395.7410
1141.762, 381.3025
1142.244, 365.9734
1142.726, 348.2805
1143.208, 332.1277
1143.690, 317.9326
1144.172, 305.9155
1144.655, 296.7949
1145.137, 290.1086
1145.619, 283.2788
1146.101, 276.0525
1146.583, 269.3406
1147.065, 263.3513
1147.547, 258.3564
1148.029, 254.1521
1148.511, 251.0769
1148.994, 250.3381
1149.476, 251.7820
1149.958, 253.7681
1150.440, 255.7520
1150.922, 259.1470
1151.404, 267.0786
1151.886, 274.9368
1152.368, 278.0474
1152.851, 277.2461
1153.333, 282.0928
1153.815, 292.5737
1154.297, 302.1450
1154.779, 308.7183
1155.261, 312.5828
1155.743, 312.6650
1156.225, 310.7708
1156.708, 308.7720
1157.190, 306.7744
1157.672, 305.7549
1158.154, 306.2454
1158.636, 303.5242
1159.118, 293.8962
1159.600, 281.0854
1160.082, 267.7883
1160.564, 254.6321
1161.047, 242.8613
1161.529, 233.5051
1162.011, 224.2207
1162.493, 215.3972
1162.975, 204.9895
1163.457, 189.6533
1163.939, 172.9741
1164.421, 159.7415
1164.903, 149.6907
1165.385, 141.1533
1165.868, 134.9907
1166.350, 127.3123
1166.832, 117.3845
1167.314, 107.6570
1167.796, 101.2661
1168.278, 96.60718
1168.760, 90.67334
1169.242, 83.72681
1169.725, 78.37280
1170.207, 76.67334
1170.689, 74.61890
1171.171, 71.63672
1171.653, 67.76123
1172.135, 62.98413
1172.617, 57.93994
1173.099, 53.37329
1173.582, 49.22314
1174.064, 45.61963
1174.546, 42.94702
1175.028, 41.13062
1175.510, 40.36646
1175.992, 39.89355
1176.474, 38.25659
1176.956, 35.72632
1177.438, 33.56982
1177.921, 32.11548
1178.403, 30.99243
1178.885, 29.74341
1179.367, 28.74707
1179.849, 28.26904
1180.331, 27.94873
1180.813, 27.29419
1181.295, 26.28027
1181.778, 24.26831
1182.260, 20.52319
1182.742, 17.89258
1183.224, 18.55225
1183.706, 19.87817
1184.188, 20.68677
1184.670, 20.85059
1185.152, 19.37573
1185.635, 16.69238
1186.117, 15.30518
1186.599, 17.35254
1187.081, 18.30566
1187.563, 14.09229
1188.045, 9.432373
1188.527, 7.787109
1189.009, 9.052246
1189.491, 12.25195
1189.974, 16.90820
1190.456, 19.44482
1190.938, 16.25391
1191.420, 13.01953
1191.902, 13.39111
1192.384, 14.44116
1192.866, 12.73364
1193.348, 8.150146
1193.830, 7.159424
1194.313, 9.469971
1194.795, 11.45435
1195.277, 10.53052
1195.759, 9.139404
1196.241, 7.982422
1196.723, 7.522217
1197.205, 8.950684
1197.687, 12.40015
1198.169, 12.63745
1198.652, 9.564453
1199.134, 6.316895
1199.616, 4.557373
1200.098, 3.823486
1200.580, 4.846680
1201.062, 6.308838
1201.544, 5.831299
1202.026, 3.352051
1202.509, 1.507568
1202.991, 0.5241700
1203.473, 0.4948730
1203.955, 2.480957
1204.437, 4.396240
1204.919, 4.672607
1205.401, 3.872803
1205.883, 3.215576
1206.365, 2.662109
1206.848, 2.009033
1207.330, 1.165283
1207.812, 0.9228520
1208.294, 3.072510
1208.776, 4.936523
1209.258, 3.822021
1209.740, 1.038086
1210.222, 0.3640140
1210.705, 1.845703
1211.187, 3.305908
1211.669, 4.474121
1212.151, 5.004639
1212.633, 3.950928
1213.115, 2.663086
1213.597, 2.417236
1214.079, 1.453885
1214.562, 1.064636
1215.044, 0.6313480
1215.526, 0.6049800
1216.008, 1.114746
1216.490, 1.365479
1216.972, 2.133545
1217.454, 2.476074
1217.936, 1.617188
1218.418, 0.2248540
1218.901, 2.371094
1219.383, 4.777832
1219.865, 7.271729
1220.347, 10.28784
1220.829, 11.30444
1221.311, 6.400391
1221.793, 0.4919430
1222.275, 3.054688
1222.757, 4.307617
1223.240, 3.404541
1223.722, 0.5451660
1224.204, 1.207031
1224.686, 0.5939940
1225.168, 0.4787600
1225.650, 0.5769040
1226.132, 0.7058110
1226.614, 1.772949
1227.096, 3.580566
1227.579, 4.717285
1228.061, 5.138184
1228.543, 4.278564
1229.025, 1.018311
1229.507, 1.341553
1229.989, 0.5751950
1230.471, -0.1902213
1230.953, -6.4207323E-02
1231.436, 0.2758790
1231.918, 0.2973630
1232.400, 2.019043
1232.882, 3.660400
1233.364, 3.305908
1233.846, 2.183594
1234.328, 0.5371090
1234.810, 2.468994
1235.292, 1.344482
1235.775, 2.246338
1236.257, 3.846680
1236.739, 3.577393
1237.221, 2.178711
1237.703, 0.8356930
1238.185, 3.648193
1238.667, 5.833252
1239.149, 7.238281
1239.632, 7.673584
1240.114, 7.163574
1240.596, 5.345703
1241.078, 2.652344
1241.560, 0.8688960
1242.042, 0.9362790
1242.524, 1.948242
1243.006, 4.753906
1243.489, 6.941162
1243.971, 5.852539
1244.453, 2.567871
1244.935, 1.352051
1245.417, 1.990234
1245.899, 4.205566
1246.381, 11.35693
1246.863, 14.55420
1247.345, 10.69360
1247.828, 6.502930
1248.310, 9.364746
1248.792, 15.83569
1249.274, 15.16602
1249.756, 9.695801
1250.238, 7.726074
1250.720, 18.22583
1251.202, 22.63403
1251.684, 17.70508
1252.167, 11.10791
1252.649, 8.908691
1253.131, 9.938965
1253.613, 13.16064
1254.095, 17.60596
1254.577, 20.38721
1255.059, 20.03003
1255.541, 19.00024
1256.023, 16.93677
1256.506, 15.79663
1256.988, 18.98145
1257.470, 23.01294
1257.952, 22.21167
1258.434, 18.13794
1258.916, 15.71191
1259.398, 16.00708
1259.880, 16.00830
1260.363, 15.89478
1260.845, 16.44360
1261.327, 19.61963
1261.809, 22.53418
1262.291, 21.19214
1262.773, 16.78052
1263.255, 14.04517
1263.737, 12.25635
1264.219, 12.66040
1264.702, 15.28149
1265.184, 16.31055
1265.666, 11.94604
1266.148, 7.604736
1266.630, 6.874512
1267.112, 9.055420
1267.594, 8.644043
1268.076, 6.187256
1268.559, 4.387939
1269.041, 2.282227
1269.523, 0.3950200
1270.005, 1.759521
1270.487, 3.605713
1270.969, 3.387451
1271.451, 2.360107
1271.933, 1.625732
1272.416, 1.416504
1272.898, 4.111084
1273.380, 9.162598
1273.862, 12.20703
1274.344, 9.573242
1274.826, 6.714355
1275.308, 5.200684
1275.790, 4.858887
1276.272, 6.079102
1276.755, 8.275879
1277.237, 9.107910
1277.719, 8.610596
1278.201, 8.057617
1278.683, 7.977295
1279.165, 7.981689
1279.647, 8.025879
1280.129, 8.076172
1280.611, 8.331055
1281.094, 8.470459
1281.576, 7.124023
1282.058, 7.941674
1282.540, 4.294189
1283.022, 8.223877
1283.504, 10.38086
1283.986, 9.931885
1284.468, 8.446777
1284.950, 7.248291
1285.433, 6.202393
1285.915, 4.785645
1286.397, 3.792969
1286.879, 3.378662
1287.361, 3.735107
1287.843, 3.346680
1288.325, 1.631836
1288.807, 0.5922850
1289.290, 2.465088
1289.772, 5.323730
1290.254, 8.340576
1290.736, 10.75342
1291.218, 10.80469
1291.700, 8.173584
1292.182, 7.795410
1292.664, 9.959229
1293.146, 11.82910
1293.629, 11.43311
1294.111, 10.12573
1294.593, 7.674316
1295.075, 5.410400
1295.557, 5.529785
1296.039, 7.602539
1296.521, 7.983154
1297.003, 6.553467
1297.486, 4.557617
1297.968, 2.328125
1298.450, 0.7009280
1298.932, 1.0742000E-02
1299.414, 5.7861000E-02
1299.896, 0.8967290
1300.378, 2.227295
1300.860, 1.757568
1301.343, 2.4400000E-04
1301.825, 0.0000000E+00
##END=



