##NAMES=Yvonite
##RRUFFID=R100010
##IDEAL CHEMISTRY=Cu^3+^(As^5+^O_3_OH)&#183;2H_2_O
##LOCALITY=Salsigne Gold mine, Aude, France
##OWNER=RRUFF
##SOURCE=William Pinch
##DESCRIPTION=Aggregates of pale blue grains
##STATUS=The identification of this mineral has been confirmed by single-crystal X-ray diffraction.
##URL=rruff.info/R100010
147.9396, 0.0000000E+00
148.4218, 0.1421660
148.9039, 0.7412190
149.3860, 1.096535
149.8681, 1.381203
150.3502, 0.7936860
150.8323, 0.4407500
151.3145, 0.3171770
151.7966, 0.3690030
152.2787, 0.7481160
152.7608, 4.214340
153.2429, 6.993134
153.7250, 8.696442
154.2072, 9.541969
154.6893, 10.14933
155.1714, 9.465439
155.6535, 8.598259
156.1356, 8.711365
156.6177, 10.85567
157.0999, 12.86620
157.5820, 14.15091
158.0641, 14.92125
158.5462, 16.05302
159.0283, 18.29199
159.5104, 20.65477
159.9926, 22.50237
160.4747, 23.16328
160.9568, 23.81891
161.4389, 24.75629
161.9210, 25.95928
162.4031, 27.45926
162.8853, 29.48217
163.3674, 31.69629
163.8495, 33.79789
164.3316, 36.10042
164.8137, 37.93369
165.2958, 38.56451
165.7780, 38.02787
166.2601, 37.94745
166.7422, 39.77427
167.2243, 42.41096
167.7064, 44.44028
168.1885, 44.94792
168.6707, 44.94362
169.1528, 44.95509
169.6349, 44.98165
170.1170, 45.42488
170.5991, 47.30298
171.0812, 49.74828
171.5634, 51.21868
172.0455, 50.53351
172.5276, 48.84967
173.0097, 47.19472
173.4918, 45.60378
173.9739, 44.15711
174.4561, 42.85228
174.9382, 41.70642
175.4203, 40.76070
175.9024, 40.55889
176.3845, 40.40784
176.8666, 39.12640
177.3488, 36.33150
177.8309, 33.39455
178.3130, 31.99798
178.7951, 31.78520
179.2772, 31.49953
179.7593, 30.24882
180.2415, 28.44901
180.7236, 26.85352
181.2057, 25.53976
181.6878, 24.47908
182.1699, 23.76857
182.6520, 23.35658
183.1342, 22.80373
183.6163, 21.73848
184.0984, 20.30095
184.5805, 18.86397
185.0626, 17.34676
185.5447, 16.05142
186.0269, 15.68756
186.5090, 16.21822
186.9911, 16.71012
187.4732, 16.33981
187.9553, 15.29712
188.4374, 14.52810
188.9196, 14.24946
189.4017, 14.25330
189.8838, 14.01418
190.3659, 13.50940
190.8480, 13.15103
191.3301, 13.49004
191.8123, 14.42346
192.2944, 14.84825
192.7765, 14.59026
193.2586, 13.72585
193.7407, 13.17522
194.2228, 12.91399
194.7050, 12.70139
195.1871, 12.87558
195.6692, 13.48425
196.1513, 14.06000
196.6334, 14.54501
197.1155, 14.89333
197.5977, 14.66256
198.0798, 13.65870
198.5619, 12.72070
199.0440, 12.74734
199.5261, 13.81665
200.0082, 14.62006
200.4904, 14.80387
200.9725, 14.45192
201.4546, 14.32631
201.9367, 14.50916
202.4188, 14.74371
202.9009, 14.76192
203.3831, 14.55236
203.8652, 14.32749
204.3473, 14.08711
204.8294, 13.85989
205.3115, 13.61233
205.7936, 13.29566
206.2758, 13.00916
206.7579, 12.79310
207.2400, 12.62564
207.7221, 12.64783
208.2042, 13.02651
208.6863, 13.74590
209.1685, 13.88437
209.6506, 13.23447
210.1327, 12.40172
210.6148, 12.06534
211.0969, 12.32675
211.5790, 12.74941
212.0612, 13.24396
212.5433, 13.80641
213.0254, 14.48502
213.5075, 15.45287
213.9896, 16.30458
214.4717, 16.34476
214.9538, 15.03880
215.4360, 14.41129
215.9181, 15.26249
216.4002, 17.73226
216.8823, 19.30055
217.3644, 19.61634
217.8465, 19.42745
218.3287, 19.67501
218.8108, 20.52765
219.2929, 21.43355
219.7750, 22.22873
220.2571, 22.88073
220.7392, 23.78751
221.2214, 25.14642
221.7035, 26.57038
222.1856, 27.57763
222.6677, 28.04906
223.1498, 28.33836
223.6319, 28.51211
224.1141, 28.56298
224.5962, 28.58398
225.0783, 28.62618
225.5604, 28.59357
226.0425, 28.42955
226.5246, 28.40918
227.0068, 27.70699
227.4889, 25.95953
227.9710, 22.93992
228.4531, 20.19814
228.9352, 17.69113
229.4173, 15.49272
229.8995, 13.82346
230.3816, 13.05744
230.8637, 12.09710
231.3458, 10.57944
231.8279, 8.347008
232.3100, 6.421280
232.7922, 4.789726
233.2743, 3.478104
233.7564, 2.534180
234.2385, 2.119499
234.7206, 1.806549
235.2027, 1.532654
235.6849, 1.335060
236.1670, 0.9032520
236.6491, 2.2644000E-02
237.1312, 0.9187550
237.6133, 1.385399
238.0954, 1.062378
238.5776, 0.8312150
239.0597, 1.010437
239.5418, 1.722000
240.0239, 1.934135
240.5060, 1.348000
240.9881, 0.5090330
241.4703, 0.1071930
241.9524, 0.3368230
242.4345, 0.6515960
242.9166, 0.9305500
243.3987, 1.170929
243.8808, 1.405930
244.3630, 1.655632
244.8451, 1.884491
245.3272, 2.072205
245.8093, 2.317825
246.2914, 2.332642
246.7735, 1.974190
247.2557, 1.184601
247.7378, 0.6032330
248.2199, 0.2875520
248.7020, 0.1188430
249.1841, 1.8196000E-02
249.6662, 8.3320998E-02
250.1484, 0.1985020
250.6305, 0.4437870
251.1126, 0.8368300
251.5947, 0.9623340
252.0768, 0.6659850
252.5589, 0.2643280
253.0411, 7.8727998E-02
253.5232, 0.1465070
254.0053, 0.3598330
254.4874, 0.7725830
254.9695, 1.393578
255.4516, 1.759018
255.9338, 1.798424
256.4159, 1.675308
256.8980, 1.554375
257.3801, 1.486946
257.8622, 1.281670
258.3444, 0.7834470
258.8265, 1.9096000E-02
259.3086, 0.1945720
259.7907, 0.3734590
260.2728, 1.162651
260.7549, 1.692741
261.2371, 1.927223
261.7192, 2.001762
262.2013, 1.850517
262.6834, 1.516449
263.1655, 1.492043
263.6476, 1.902458
264.1298, 2.409027
264.6119, 2.734352
265.0940, 2.797478
265.5761, 2.932083
266.0582, 3.161774
266.5403, 3.495079
267.0225, 4.062927
267.5046, 5.007271
267.9867, 5.878487
268.4688, 6.277618
268.9509, 6.060883
269.4330, 6.021873
269.9152, 6.340813
270.3973, 6.888359
270.8794, 7.041107
271.3615, 6.606369
271.8436, 6.308540
272.3257, 6.747437
272.8079, 8.070168
273.2900, 9.180885
273.7721, 10.00649
274.2542, 10.54721
274.7363, 10.73302
275.2184, 10.47326
275.7006, 10.21660
276.1827, 10.36098
276.6648, 10.97551
277.1469, 11.08704
277.6290, 10.47723
278.1111, 9.500542
278.5933, 8.944817
279.0754, 8.849266
279.5575, 8.909187
280.0396, 8.978104
280.5217, 9.054619
281.0038, 9.217262
281.4860, 9.549644
281.9681, 9.822403
282.4502, 9.492096
282.9323, 8.507927
283.4144, 7.642212
283.8965, 7.358025
284.3787, 7.601929
284.8608, 7.694412
285.3429, 7.593117
285.8250, 7.426430
286.3071, 7.378807
286.7892, 7.448738
287.2714, 7.547554
287.7535, 7.652466
288.2356, 7.759834
288.7177, 7.842133
289.1998, 7.900154
289.6819, 7.938103
290.1641, 7.981026
290.6462, 8.021034
291.1283, 7.985641
291.6104, 7.778107
292.0925, 7.484703
292.5746, 7.432083
293.0568, 7.643837
293.5389, 7.801552
294.0210, 7.415329
294.5031, 6.636971
294.9852, 6.082542
295.4673, 6.143456
295.9495, 6.546082
296.4316, 6.616608
296.9137, 6.341469
297.3958, 6.044357
297.8779, 6.002113
298.3600, 6.247925
298.8422, 6.797791
299.3243, 7.806923
299.8064, 8.851204
300.2885, 9.352554
300.7706, 9.359634
301.2527, 9.203957
301.7349, 9.200462
302.2170, 9.175713
302.6991, 8.758781
303.1812, 7.658737
303.6633, 6.549782
304.1454, 6.321671
304.6276, 6.786873
305.1097, 7.220192
305.5918, 7.063675
306.0739, 6.622772
306.5560, 6.239349
307.0381, 5.932762
307.5203, 5.776955
308.0024, 5.887894
308.4845, 6.204506
308.9666, 6.576782
309.4487, 7.242920
309.9308, 7.748703
310.4130, 7.527382
310.8951, 6.387115
311.3772, 5.361351
311.8593, 5.180328
312.3414, 5.537567
312.8235, 5.941025
313.3057, 6.363289
313.7878, 6.646164
314.2699, 6.550354
314.7520, 6.037231
315.2341, 5.780907
315.7162, 6.433044
316.1984, 7.405518
316.6805, 8.013557
317.1626, 7.659416
317.6447, 7.318268
318.1268, 7.481377
318.6089, 8.106277
319.0911, 8.410301
319.5732, 7.525360
320.0553, 6.539772
320.5374, 6.298622
321.0195, 7.910995
321.5016, 9.286263
321.9838, 9.864807
322.4659, 9.781158
322.9480, 9.696594
323.4301, 9.800865
323.9122, 9.892868
324.3943, 9.856186
324.8765, 9.489449
325.3586, 9.266556
325.8407, 9.278488
326.3228, 9.464882
326.8049, 9.673592
327.2870, 9.976364
327.7692, 10.22660
328.2513, 10.34345
328.7334, 10.17082
329.2155, 10.21729
329.6976, 10.47048
330.1797, 10.94949
330.6619, 11.70052
331.1440, 13.03788
331.6261, 14.22974
332.1082, 15.00238
332.5903, 15.23318
333.0724, 15.86900
333.5546, 17.31319
334.0367, 18.79562
334.5188, 19.38136
335.0009, 18.56042
335.4830, 18.02673
335.9651, 18.24166
336.4473, 19.11891
336.9294, 19.51360
337.4115, 19.28429
337.8936, 18.85390
338.3757, 18.48368
338.8578, 18.11994
339.3399, 18.14111
339.8221, 18.79575
340.3042, 19.76572
340.7863, 19.88670
341.2684, 18.99299
341.7505, 18.09189
342.2326, 17.84114
342.7148, 18.23735
343.1969, 18.62226
343.6790, 19.00940
344.1611, 19.24360
344.6432, 18.96327
345.1253, 18.17268
345.6075, 17.32513
346.0896, 16.58865
346.5717, 15.95944
347.0538, 15.50308
347.5359, 15.24172
348.0180, 14.99598
348.5002, 14.39851
348.9823, 13.58532
349.4644, 13.14530
349.9465, 13.62246
350.4286, 14.42970
350.9107, 14.53172
351.3929, 13.94275
351.8750, 13.10805
352.3571, 12.24743
352.8392, 11.41877
353.3213, 10.73824
353.8034, 10.29601
354.2856, 9.932602
354.7677, 9.479576
355.2498, 9.011116
355.7319, 8.631317
356.2140, 8.261139
356.6961, 7.917267
357.1783, 7.745544
357.6604, 7.855934
358.1425, 8.009758
358.6246, 7.994614
359.1067, 7.915161
359.5888, 7.997719
360.0710, 8.648682
360.5531, 9.306152
361.0352, 9.579910
361.5173, 9.339752
361.9994, 9.004890
362.4815, 8.744125
362.9637, 8.584831
363.4458, 8.477249
363.9279, 8.243233
364.4100, 8.075203
364.8921, 8.182678
365.3742, 8.552010
365.8564, 8.662575
366.3385, 8.435699
366.8206, 7.945030
367.3027, 7.203308
367.7848, 5.600784
368.2669, 4.354263
368.7491, 3.668663
369.2312, 3.492020
369.7133, 3.549980
370.1954, 4.336205
370.6775, 4.732147
371.1596, 4.248253
371.6418, 2.447014
372.1239, 1.153320
372.6060, 0.3656620
373.0881, 2.5040001E-02
373.5702, 6.8305999E-02
374.0523, 0.2920380
374.5345, 0.9584120
375.0166, 2.067642
375.4987, 3.536140
375.9808, 3.999947
376.4629, 3.160225
376.9450, 2.076263
377.4272, 1.738007
377.9093, 2.226021
378.3914, 2.716217
378.8735, 3.101074
379.3556, 3.371109
379.8377, 3.434685
380.3199, 3.267326
380.8020, 3.190697
381.2841, 3.493179
381.7662, 4.099976
382.2483, 4.576820
382.7304, 4.868317
383.2126, 5.098450
383.6947, 5.530777
384.1768, 6.097153
384.6589, 6.454262
385.1410, 6.346916
385.6231, 5.968994
386.1053, 5.609871
386.5874, 5.275146
387.0695, 4.987694
387.5516, 4.827225
388.0337, 4.713943
388.5158, 4.499756
388.9980, 3.993141
389.4801, 3.524010
389.9622, 3.411766
390.4443, 3.593903
390.9264, 3.811104
391.4085, 4.042328
391.8907, 4.177666
392.3728, 4.056465
392.8549, 3.467606
393.3370, 3.106056
393.8191, 3.610268
394.3012, 4.492279
394.7834, 4.929214
395.2655, 4.312004
395.7476, 3.528488
396.2297, 2.837273
396.7118, 2.235901
397.1939, 1.912285
397.6761, 2.190430
398.1582, 2.604889
398.6403, 2.766960
399.1224, 2.152863
399.6045, 1.873611
400.0866, 2.278694
400.5688, 3.197891
401.0509, 3.579910
401.5330, 3.028275
402.0151, 2.430710
402.4972, 2.276154
402.9793, 2.943695
403.4615, 3.010399
403.9436, 2.158867
404.4257, 0.9834140
404.9078, 0.6279910
405.3899, 1.348381
405.8720, 1.885353
406.3542, 1.673141
406.8363, 0.8042830
407.3184, 0.6577380
407.8005, 1.381248
408.2826, 2.202805
408.7647, 2.261726
409.2469, 1.625359
409.7290, 1.236206
410.2111, 1.383041
410.6932, 1.732605
411.1753, 1.632385
411.6574, 1.112595
412.1396, 0.4511870
412.6217, 0.5108340
413.1038, 1.416084
413.5859, 1.399002
414.0680, 0.2394940
414.5501, 0.9798740
415.0323, 1.150940
415.5144, 0.6447910
415.9965, 0.1893230
416.4786, 0.2378920
416.9607, 0.3557890
417.4428, 8.9599997E-02
417.9250, 0.5021510
418.4071, 0.8741610
418.8892, 0.3207470
419.3713, 0.3591230
419.8534, 0.4342730
420.3355, 0.7728730
420.8177, 1.746986
421.2998, 1.817528
421.7819, 1.317543
422.2640, 0.9734190
422.7461, 1.020058
423.2282, 1.184464
423.7104, 1.453865
424.1925, 1.937057
424.6746, 2.038719
425.1567, 1.303764
425.6388, 0.4437940
426.1209, 0.1079710
426.6031, 0.7595750
427.0852, 1.179527
427.5673, 1.104546
428.0494, 0.6546550
428.5315, 0.5682220
429.0136, 1.131111
429.4958, 1.465172
429.9779, 0.8161540
430.4600, 1.114632
430.9421, 1.794670
431.4242, 0.8171770
431.9063, 0.7603380
432.3885, 1.270508
432.8706, 0.6988070
433.3527, 5.1879998E-02
433.8348, 0.3648380
434.3169, 0.5855870
434.7990, 0.6304470
435.2812, 0.4983440
435.7633, 0.4487460
436.2454, 0.8468780
436.7275, 1.486015
437.2096, 1.858444
437.6917, 1.786186
438.1739, 1.619743
438.6560, 1.731712
439.1381, 2.049911
439.6202, 2.383728
440.1023, 2.829308
440.5844, 3.121056
441.0666, 2.831696
441.5487, 1.905800
442.0308, 1.379028
442.5129, 2.415848
442.9950, 3.812714
443.4771, 4.419907
443.9593, 3.032631
444.4414, 1.782539
444.9235, 1.158157
445.4056, 1.092850
445.8877, 1.321518
446.3698, 2.341942
446.8520, 3.186996
447.3341, 3.390289
447.8162, 2.631035
448.2983, 2.194847
448.7804, 2.137215
449.2625, 2.366325
449.7447, 2.841240
450.2268, 3.804947
450.7089, 4.458763
451.1910, 4.620102
451.6731, 4.349388
452.1552, 3.876305
452.6374, 3.137932
453.1195, 2.463211
453.6016, 2.080391
454.0837, 1.985832
454.5658, 2.000961
455.0479, 2.178787
455.5301, 2.273369
456.0122, 1.713318
456.4943, 0.6420210
456.9764, 2.6611000E-02
457.4585, 0.2899700
457.9406, 1.063843
458.4228, 1.455269
458.9049, 1.483261
459.3870, 1.372940
459.8691, 1.136230
460.3512, 0.9120330
460.8333, 0.8987050
461.3155, 1.196701
461.7976, 1.532097
462.2797, 1.686913
462.7618, 1.763130
463.2439, 1.938774
463.7260, 2.512497
464.2082, 2.991066
464.6903, 3.160873
465.1724, 3.014900
465.6545, 2.666687
466.1366, 1.737892
466.6187, 0.8742220
467.1009, 0.5002290
467.5830, 1.061356
468.0651, 1.544968
468.5472, 1.950317
469.0293, 2.270966
469.5114, 2.476295
469.9936, 2.480743
470.4757, 2.472336
470.9578, 2.499329
471.4399, 2.619865
471.9220, 3.024353
472.4041, 3.770821
472.8863, 4.432098
473.3684, 4.499931
473.8505, 3.986298
474.3326, 3.861259
474.8147, 4.368980
475.2968, 5.117615
475.7790, 5.363556
476.2611, 5.198990
476.7432, 5.193153
477.2253, 5.593857
477.7074, 6.289436
478.1895, 7.313286
478.6717, 8.660713
479.1538, 9.623817
479.6359, 9.382126
480.1180, 8.544670
480.6001, 7.827805
481.0822, 7.313728
481.5644, 7.103439
482.0465, 7.517250
482.5286, 8.282402
483.0107, 8.807732
483.4928, 8.589470
483.9749, 8.338264
484.4571, 8.287720
484.9392, 8.491280
485.4213, 8.763565
485.9034, 9.388046
486.3855, 9.887268
486.8676, 9.879326
487.3498, 8.933372
487.8319, 8.355003
488.3140, 8.294739
488.7961, 8.573677
489.2782, 8.997009
489.7603, 9.617775
490.2425, 9.966461
490.7246, 9.796463
491.2067, 9.185593
491.6888, 8.972900
492.1709, 9.209091
492.6530, 9.508392
493.1352, 9.448982
493.6173, 9.133484
494.0994, 8.989174
494.5815, 9.112083
495.0636, 9.400536
495.5457, 9.816811
496.0279, 10.30454
496.5100, 10.69250
496.9921, 10.76195
497.4742, 10.78715
497.9563, 11.06450
498.4384, 11.59103
498.9206, 12.04842
499.4027, 12.37949
499.8848, 12.51192
500.3669, 12.35266
500.8490, 11.52654
501.3311, 10.99990
501.8133, 11.21820
502.2954, 11.83821
502.7775, 12.20900
503.2596, 11.86888
503.7417, 11.75332
504.2238, 12.22713
504.7060, 13.27063
505.1881, 13.72770
505.6702, 13.36731
506.1523, 12.79177
506.6344, 12.34778
507.1165, 12.02171
507.5987, 11.96669
508.0808, 12.26337
508.5629, 12.69206
509.0450, 12.96333
509.5271, 13.07652
510.0092, 12.99535
510.4914, 12.53210
510.9735, 11.97778
511.4556, 12.01459
511.9377, 12.58029
512.4199, 13.14496
512.9020, 13.22832
513.3841, 13.15417
513.8662, 13.37799
514.3483, 14.04144
514.8304, 14.60828
515.3126, 14.57131
515.7947, 14.29794
516.2768, 14.25649
516.7589, 14.78956
517.2410, 15.36217
517.7231, 15.75620
518.2053, 16.03060
518.6874, 16.48837
519.1695, 17.48438
519.6516, 18.36531
520.1337, 18.82400
520.6158, 18.69161
521.0980, 18.93729
521.5801, 19.73100
522.0622, 20.68738
522.5443, 21.36008
523.0264, 21.64767
523.5085, 22.32381
523.9907, 23.65683
524.4728, 25.25931
524.9549, 26.17338
525.4370, 26.43596
525.9191, 26.85899
526.4012, 27.93638
526.8834, 29.45650
527.3655, 30.95766
527.8476, 32.43114
528.3297, 33.98750
528.8118, 35.87260
529.2939, 37.80840
529.7761, 39.33963
530.2582, 40.02306
530.7403, 41.07110
531.2224, 43.75369
531.7045, 47.12406
532.1866, 49.61888
532.6688, 49.76690
533.1509, 50.04769
533.6330, 51.19724
534.1151, 53.21128
534.5972, 55.55132
535.0793, 58.58887
535.5615, 61.50639
536.0436, 63.87164
536.5257, 65.53520
537.0078, 67.18694
537.4899, 68.65748
537.9720, 70.37987
538.4542, 72.98854
538.9363, 76.56918
539.4184, 80.25946
539.9005, 84.05020
540.3826, 87.55441
540.8647, 89.61158
541.3469, 90.36572
541.8290, 90.91087
542.3111, 91.94669
542.7932, 93.13872
543.2753, 93.81062
543.7574, 93.97376
544.2396, 94.46594
544.7217, 96.47173
545.2038, 98.74776
545.6859, 99.99495
546.1680, 99.48737
546.6501, 98.71734
547.1323, 98.18982
547.6144, 97.72601
548.0965, 96.99982
548.5786, 96.07842
549.0607, 94.76677
549.5428, 92.95210
550.0250, 90.67403
550.5071, 88.33029
550.9892, 85.89377
551.4713, 83.40907
551.9534, 80.89345
552.4355, 78.35554
552.9177, 75.78468
553.3998, 73.16556
553.8819, 70.56907
554.3640, 68.03275
554.8461, 65.57264
555.3282, 63.28888
555.8104, 61.38284
556.2925, 59.55112
556.7746, 57.31126
557.2567, 54.74363
557.7388, 52.13237
558.2209, 49.47669
558.7031, 46.97657
559.1852, 44.94756
559.6673, 43.36531
560.1494, 41.70408
560.6315, 39.76167
561.1136, 37.68115
561.5958, 35.52271
562.0779, 33.02087
562.5600, 30.96236
563.0421, 29.52654
563.5242, 28.46900
564.0063, 27.54030
564.4885, 26.93596
564.9706, 26.00764
565.4527, 24.51509
565.9348, 22.68013
566.4169, 21.14069
566.8990, 19.92155
567.3812, 18.98721
567.8633, 18.56043
568.3454, 18.41957
568.8275, 17.57677
569.3096, 16.01788
569.7917, 14.48009
570.2739, 13.83137
570.7560, 13.56698
571.2381, 12.83494
571.7202, 11.25074
572.2023, 9.824516
572.6844, 9.392715
573.1666, 9.485931
573.6487, 9.373672
574.1308, 8.674400
574.6129, 7.901398
575.0950, 7.087257
575.5771, 6.289726
576.0593, 5.804367
576.5414, 5.845795
577.0235, 5.941513
577.5056, 5.944756
577.9877, 5.864067
578.4698, 5.546890
578.9520, 4.868256
579.4341, 4.266083
579.9162, 4.322838
580.3983, 4.968666
580.8804, 5.059113
581.3625, 4.321754
581.8447, 3.342278
582.3268, 2.866631
582.8089, 2.810547
583.2910, 2.911896
583.7731, 3.200340
584.2552, 3.473709
584.7373, 3.690430
585.2194, 3.780708
585.7015, 3.473396
586.1837, 1.897316
586.6658, 0.5033110
587.1479, 0.2241670
587.6300, 1.363823
588.1121, 2.129959
588.5942, 1.850281
589.0764, 1.450760
589.5585, 1.594421
590.0406, 2.790024
590.5227, 3.281281
591.0048, 2.777283
591.4869, 1.842529
591.9691, 1.386055
592.4512, 1.436188
592.9333, 1.466530
593.4154, 1.329231
593.8975, 1.089470
594.3796, 0.8927380
594.8618, 0.7248000
595.3439, 0.4987640
595.8260, 5.7060000E-02
596.3081, 0.4015810
596.7902, 0.6542210
597.2723, 0.6987150
597.7545, 0.6816900
598.2366, 0.6809920
598.7187, 0.6428220
599.2008, 0.4900890
599.6829, 2.4796000E-02
600.1650, 0.1376910
600.6472, 0.4156230
601.1293, 1.165371
601.6114, 1.527214
602.0935, 1.321041
602.5756, 1.094776
603.0577, 0.8991550
603.5399, 0.7389530
604.0220, 0.6605950
604.5041, 0.6791530
604.9862, 0.6193350
605.4683, 0.3238530
605.9504, 8.8032000E-02
606.4326, 0.2490620
606.9147, 0.1733470
607.3968, 3.2940000E-02
607.8789, 0.2149730
608.3610, 0.3796010
608.8431, 9.3197003E-02
609.3253, 0.7806280
609.8074, 1.414337
610.2895, 1.040665
610.7716, 0.3653370
611.2537, 6.3492000E-02
611.7358, 1.025948
612.2180, 1.418568
612.7001, 0.6117860
613.1822, 0.7408830
613.6643, 1.597805
614.1464, 1.871189
614.6285, 1.769653
615.1107, 1.219501
615.5928, 0.3723870
616.0749, 0.1616210
616.5570, 0.3735810
617.0391, 0.4949230
617.5212, 0.5802230
618.0034, 0.6712150
618.4855, 1.025753
618.9676, 1.646385
619.4497, 2.043133
619.9318, 1.532120
620.4139, 0.7192800
620.8961, 0.3549730
621.3782, 0.7171290
621.8603, 1.019619
622.3424, 0.7500310
622.8245, 0.3041990
623.3066, 0.1413610
623.7888, 0.5897330
624.2709, 1.088638
624.7530, 1.575443
625.2351, 1.962574
625.7172, 2.087624
626.1993, 1.830265
626.6815, 1.813850
627.1636, 2.452370
627.6457, 3.444401
628.1278, 3.234528
628.6099, 1.805706
629.0920, 0.5614430
629.5742, 0.6949880
630.0563, 1.560379
630.5384, 1.931107
631.0205, 1.738037
631.5026, 1.575352
631.9847, 2.099236
632.4669, 2.744759
632.9490, 2.899216
633.4311, 2.139626
633.9132, 1.596100
634.3953, 1.638271
634.8774, 2.013859
635.3596, 2.429031
635.8417, 3.006687
636.3238, 3.483616
636.8059, 3.869835
637.2880, 4.044609
637.7701, 3.634296
638.2523, 2.526730
638.7344, 1.659000
639.2165, 1.474003
639.6986, 1.747238
640.1807, 1.780128
640.6628, 1.575176
641.1450, 1.432686
641.6271, 1.661343
642.1092, 2.009731
642.5913, 2.128380
643.0734, 1.989998
643.5555, 1.982731
644.0377, 2.602665
644.5198, 3.234798
645.0019, 3.352650
645.4840, 2.424541
645.9661, 1.988503
646.4482, 2.424603
646.9304, 3.150936
647.4125, 3.548660
647.8946, 3.541599
648.3767, 3.474689
648.8588, 3.372932
649.3409, 3.258350
649.8231, 3.153851
650.3052, 3.062511
650.7873, 3.025787
651.2694, 3.032688
651.7515, 3.126907
652.2336, 3.530899
652.7158, 4.115543
653.1979, 4.427753
653.6800, 3.874615
654.1621, 3.238937
654.6442, 3.090500
655.1263, 3.466370
655.6085, 3.695061
656.0906, 3.460396
656.5727, 3.181484
657.0548, 3.087940
657.5369, 3.256393
658.0190, 3.300915
658.5012, 3.134148
658.9833, 2.940403
659.4654, 2.980251
659.9475, 3.275826
660.4296, 3.467731
660.9117, 3.488426
661.3939, 3.448387
661.8760, 3.478874
662.3581, 3.548084
662.8402, 3.601894
663.3223, 3.656918
663.8044, 3.666466
664.2866, 3.541325
664.7687, 3.335861
665.2508, 3.162132
665.7329, 3.052006
666.2150, 2.963646
666.6971, 2.898899
667.1793, 2.859348
667.6614, 2.878593
668.1435, 2.951683
668.6256, 3.103722
669.1077, 3.421932
669.5898, 3.871956
670.0720, 3.947315
670.5541, 3.625973
671.0362, 3.122269
671.5183, 2.485851
672.0004, 1.879257
672.4825, 1.675133
672.9647, 1.953716
673.4468, 2.272903
673.9289, 2.188431
674.4110, 1.978344
674.8931, 1.977356
675.3752, 2.434772
675.8574, 2.716354
676.3395, 2.548595
676.8216, 2.189083
677.3037, 1.918625
677.7858, 1.739422
678.2679, 1.661030
678.7501, 1.727951
679.2322, 1.859398
679.7143, 1.931850
680.1964, 1.940117
680.6785, 1.657913
681.1606, 0.7380410
681.6428, 0.1892430
682.1249, 0.1424790
682.6070, 1.416542
683.0891, 2.468342
683.5712, 2.613331
684.0533, 2.382149
684.5355, 1.993080
685.0176, 1.497097
685.4997, 1.189781
685.9818, 1.273052
686.4639, 1.448769
686.9460, 1.587620
687.4282, 1.706684
687.9103, 1.848576
688.3924, 2.046391
688.8745, 2.163715
689.3566, 2.055019
689.8387, 1.746769
690.3209, 1.498569
690.8030, 1.330521
691.2851, 1.332016
691.7672, 1.825607
692.2493, 2.449203
692.7314, 2.509197
693.2136, 1.595409
693.6957, 0.7718810
694.1778, 0.8277360
694.6599, 1.369469
695.1420, 1.940208
695.6241, 2.725231
696.1063, 3.084747
696.5884, 2.605541
697.0705, 1.835335
697.5526, 1.845387
698.0347, 2.833355
698.5168, 3.665283
698.9990, 4.030251
699.4811, 4.119488
699.9632, 4.342415
700.4453, 4.668514
700.9274, 4.946976
701.4095, 5.085167
701.8917, 5.212399
702.3738, 5.509865
702.8559, 5.929531
703.3380, 6.244717
703.8201, 5.989799
704.3022, 5.888069
704.7844, 6.433517
705.2665, 7.716122
705.7486, 8.637489
706.2307, 9.063782
706.7128, 9.299820
707.1949, 9.408730
707.6771, 9.374245
708.1592, 9.954666
708.6413, 11.23183
709.1234, 12.59044
709.6055, 13.50693
710.0876, 14.08903
710.5698, 14.54953
711.0519, 14.88650
711.5340, 15.29416
712.0161, 15.91280
712.4982, 16.68145
712.9803, 17.56294
713.4625, 18.65600
713.9446, 19.62490
714.4267, 20.13347
714.9088, 20.62796
715.3909, 21.62557
715.8730, 23.34638
716.3552, 24.87130
716.8373, 26.03924
717.3194, 27.05183
717.8015, 28.28181
718.2836, 29.68842
718.7657, 30.84735
719.2479, 31.53802
719.7300, 32.08426
720.2121, 32.78292
720.6942, 33.63567
721.1763, 34.66823
721.6584, 36.49817
722.1406, 37.88110
722.6227, 37.98159
723.1048, 37.12312
723.5869, 36.59896
724.0690, 36.60398
724.5511, 36.72484
725.0333, 36.88624
725.5154, 37.06994
725.9975, 37.17883
726.4796, 37.21752
726.9617, 37.17465
727.4438, 37.14212
727.9260, 36.99497
728.4081, 36.39274
728.8902, 35.37771
729.3723, 34.29989
729.8544, 33.18199
730.3365, 32.23426
730.8187, 31.74706
731.3008, 31.78638
731.7829, 31.51017
732.2650, 30.68669
732.7471, 29.57517
733.2292, 28.21346
733.7114, 26.51605
734.1935, 25.08463
734.6756, 23.94896
735.1577, 22.93546
735.6398, 22.01031
736.1219, 21.09572
736.6041, 19.84385
737.0862, 18.20078
737.5683, 16.46353
738.0504, 14.64664
738.5325, 13.00539
739.0146, 11.90048
739.4968, 11.66282
739.9789, 11.27670
740.4610, 10.27538
740.9431, 9.094574
741.4252, 8.165894
741.9073, 7.542053
742.3895, 7.060188
742.8716, 6.783867
743.3537, 6.512398
743.8358, 5.932617
744.3179, 5.085312
744.8000, 4.213493
745.2822, 3.290398
745.7643, 2.575974
746.2464, 2.650406
746.7285, 3.081810
747.2106, 3.117462
747.6927, 2.229507
748.1749, 1.201004
748.6570, 3.9291002E-02
749.1391, 1.036858
749.6212, 1.572823
750.1033, 1.509117
750.5854, 0.9590070
751.0676, 0.4068150
751.5497, 1.926003
752.0318, 1.655251
752.5139, 0.3277590
752.9960, 1.964996
753.4781, 2.303276
753.9603, 2.069115
754.4424, 2.324478
754.9245, 2.904396
755.4066, 3.269615
755.8887, 2.963219
756.3708, 2.550499
756.8530, 2.315468
757.3351, 2.227913
757.8172, 2.004837
758.2993, 1.424187
758.7814, 1.047943
759.2635, 1.083015
759.7457, 1.457069
760.2278, 1.868591
760.7099, 2.332047
761.1920, 2.518227
761.6741, 2.054710
762.1563, 1.281631
762.6384, 0.7961960
763.1205, 0.5544970
763.6026, 0.2861100
764.0847, 0.2513350
764.5668, 0.7771070
765.0490, 1.145973
765.5311, 1.355530
766.0132, 1.362267
766.4953, 0.9868700
766.9774, 0.6742780
767.4595, 0.5940400
767.9417, 0.7467420
768.4238, 1.210037
768.9059, 2.016357
769.3880, 2.667740
769.8701, 2.501053
770.3522, 2.051674
770.8344, 2.394562
771.3165, 3.532341
771.7986, 4.633781
772.2807, 5.387573
772.7628, 5.794342
773.2449, 5.733200
773.7271, 5.062836
774.2092, 4.770523
774.6913, 4.977531
775.1734, 5.441277
775.6555, 6.145630
776.1376, 7.125168
776.6198, 7.557999
777.1019, 7.404037
777.5840, 7.152931
778.0661, 7.214455
778.5482, 7.469147
779.0303, 7.730286
779.5125, 7.977028
779.9946, 8.203735
780.4767, 8.504112
780.9588, 8.710197
781.4409, 8.644188
781.9230, 8.099945
782.4052, 7.859283
782.8873, 8.022812
783.3694, 8.347618
783.8515, 8.718399
784.3336, 9.132713
784.8157, 9.277458
785.2979, 9.120209
785.7800, 8.832069
786.2621, 8.512497
786.7442, 8.192009
787.2263, 7.911255
787.7084, 7.674774
788.1906, 7.495117
788.6727, 7.202545
789.1548, 7.083237
789.6369, 7.447136
790.1190, 8.619255
790.6011, 9.401527
791.0833, 9.702805
791.5654, 9.753006
792.0475, 9.658562
792.5296, 9.446999
793.0117, 9.544243
793.4938, 10.03874
793.9760, 10.39840
794.4581, 9.776436
794.9402, 8.844551
795.4223, 8.532852
795.9044, 9.078537
796.3865, 9.926361
796.8687, 11.43575
797.3508, 12.79815
797.8329, 13.31967
798.3150, 12.59290
798.7971, 12.10386
799.2792, 11.92705
799.7614, 11.82709
800.2435, 11.59393
800.7256, 11.23434
801.2077, 10.78515
801.6898, 10.25687
802.1719, 9.602898
802.6541, 8.479614
803.1362, 7.366722
803.6183, 6.851830
804.1004, 7.281303
804.5825, 7.604263
805.0646, 7.687828
805.5468, 7.509827
806.0289, 6.911552
806.5110, 5.613022
806.9931, 5.057526
807.4752, 5.523666
807.9573, 6.044418
808.4395, 5.343040
808.9216, 3.957253
809.4037, 3.158157
809.8858, 3.126343
810.3679, 3.284950
810.8500, 3.535858
811.3322, 3.694954
811.8143, 3.536133
812.2964, 2.831573
812.7785, 2.152748
813.2606, 1.494873
813.7427, 0.9771800
814.2249, 0.7065430
814.7070, 0.6832890
815.1891, 0.6378480
815.6712, 0.5684510
816.1533, 0.4949950
816.6354, 0.3390810
817.1176, 0.1716690
817.5997, 0.1083600
818.0818, 0.1654360
818.5639, 0.3463210
819.0460, 0.8489760
819.5281, 1.398193
820.0103, 1.740326
820.4924, 1.747307
820.9745, 1.886276
821.4566, 2.078888
821.9387, 2.585106
822.4208, 3.738701
822.9030, 5.407181
823.3851, 6.779846
823.8672, 7.817703
824.3493, 8.740082
824.8314, 9.596825
825.3135, 10.49635
825.7957, 11.48466
826.2778, 12.54064
826.7599, 13.91946
827.2420, 16.02522
827.7241, 18.17174
828.2062, 20.03036
828.6884, 21.55907
829.1705, 23.07866
829.6526, 24.53329
830.1347, 26.28239
830.6168, 28.85951
831.0989, 31.83509
831.5811, 34.42479
832.0632, 36.57520
832.5453, 38.49620
833.0274, 39.56784
833.5095, 41.02467
833.9916, 43.93969
834.4738, 48.57724
834.9559, 52.38303
835.4380, 55.06856
835.9201, 57.44429
836.4022, 59.79213
836.8843, 62.13940
837.3665, 64.62819
837.8486, 67.26382
838.3307, 70.13645
838.8128, 73.47688
839.2949, 76.96416
839.7770, 80.41730
840.2592, 83.79725
840.7413, 86.73269
841.2234, 88.13318
841.7055, 90.15545
842.1876, 93.80209
842.6697, 98.75638
843.1519, 102.8768
843.6340, 105.9936
844.1161, 109.4782
844.5982, 114.2673
845.0803, 119.5965
845.5624, 123.6659
846.0446, 126.8475
846.5267, 130.3969
847.0088, 135.0433
847.4909, 140.1054
847.9730, 145.5024
848.4551, 151.0894
848.9373, 156.2384
849.4194, 160.5926
849.9015, 165.3943
850.3836, 171.0869
850.8657, 177.1829
851.3478, 182.4899
851.8300, 187.0876
852.3121, 191.4705
852.7942, 195.8631
853.2763, 199.9794
853.7584, 203.4758
854.2405, 206.5720
854.7227, 209.6644
855.2048, 213.3025
855.6869, 216.2878
856.1690, 218.4485
856.6511, 219.9345
857.1332, 221.1707
857.6154, 222.2086
858.0975, 221.9546
858.5796, 220.0156
859.0617, 217.4269
859.5438, 215.5483
860.0259, 213.9381
860.5081, 211.9324
860.9902, 209.5304
861.4723, 206.3020
861.9544, 201.8451
862.4365, 196.6080
862.9186, 191.1185
863.4008, 185.2223
863.8829, 179.4540
864.3650, 173.9356
864.8471, 168.2339
865.3292, 161.5687
865.8113, 154.3402
866.2935, 147.6621
866.7756, 141.6287
867.2577, 135.7545
867.7398, 129.2837
868.2219, 123.0545
868.7040, 117.8200
869.1862, 113.9725
869.6683, 109.4290
870.1504, 103.6812
870.6325, 98.16502
871.1146, 93.90258
871.5967, 90.74853
872.0789, 87.74604
872.5610, 84.84264
873.0431, 81.74398
873.5252, 77.58023
874.0073, 73.61102
874.4894, 71.28936
874.9716, 70.46185
875.4537, 69.28452
875.9358, 67.10041
876.4179, 64.73695
876.9000, 62.19307
877.3821, 59.67094
877.8643, 58.27245
878.3464, 58.01036
878.8285, 57.90681
879.3106, 57.52249
879.7927, 57.06392
880.2748, 56.78932
880.7570, 56.66211
881.2391, 56.59178
881.7212, 56.50995
882.2033, 56.57210
882.6854, 56.69833
883.1675, 56.93257
883.6497, 57.49969
884.1318, 58.49754
884.6139, 59.27410
885.0960, 59.62074
885.5781, 59.92735
886.0602, 60.81447
886.5424, 62.06327
887.0245, 63.15245
887.5066, 63.69829
887.9887, 64.70252
888.4708, 67.46931
888.9529, 70.38680
889.4351, 71.71338
889.9172, 70.54128
890.3993, 70.31506
890.8814, 71.28886
891.3635, 72.57499
891.8456, 73.39433
892.3278, 73.87834
892.8099, 74.34488
893.2920, 74.81774
893.7741, 75.21989
894.2562, 75.63984
894.7383, 75.83041
895.2205, 75.56042
895.7026, 74.78304
896.1847, 73.97321
896.6668, 73.12785
897.1489, 72.33567
897.6310, 71.73511
898.1132, 71.19231
898.5953, 70.16711
899.0774, 68.72584
899.5595, 67.25424
900.0416, 65.99695
900.5237, 64.75108
901.0059, 63.36642
901.4880, 61.91381
901.9701, 60.51845
902.4522, 59.17227
902.9343, 57.84413
903.4164, 56.62045
903.8986, 55.35538
904.3807, 53.49005
904.8628, 51.16776
905.3449, 49.23097
905.8270, 47.98969
906.3091, 47.00618
906.7913, 46.35194
907.2734, 45.57903
907.7555, 44.05946
908.2376, 40.73617
908.7197, 38.14476
909.2018, 36.54237
909.6840, 35.41315
910.1661, 34.16311
910.6482, 32.84794
911.1303, 32.23325
911.6124, 32.42294
912.0945, 32.28155
912.5767, 30.47836
913.0588, 28.14528
913.5409, 26.24782
914.0230, 24.88923
914.5051, 24.16136
914.9872, 24.76382
915.4694, 25.02045
915.9515, 23.96699
916.4336, 21.89308
916.9157, 21.04688
917.3978, 21.37950
917.8799, 21.60293
918.3621, 20.88835
918.8442, 19.79288
919.3263, 18.53873
919.8084, 17.34763
920.2905, 16.80285
920.7726, 17.97175
921.2548, 18.61586
921.7369, 18.28610
922.2190, 17.32180
922.7011, 16.23764
923.1832, 15.06431
923.6653, 14.16782
924.1475, 13.67324
924.6296, 13.32916
925.1117, 12.96091
925.5938, 12.52162
926.0759, 11.93867
926.5580, 11.11506
927.0402, 10.39560
927.5223, 9.858276
928.0044, 9.366783
928.4865, 8.909561
928.9686, 8.473976
929.4507, 7.412819
929.9329, 5.705841
930.4150, 4.597549
930.8971, 5.839218
931.3792, 7.613350
931.8613, 8.023499
932.3434, 7.082214
932.8256, 6.157822
933.3077, 5.699203
933.7898, 5.097054
934.2719, 4.058739
934.7540, 2.800865
935.2361, 2.169609
935.7183, 2.127853
936.2004, 2.265274
936.6825, 2.495575
937.1646, 2.731491
937.6467, 3.227135
938.1288, 3.552269
938.6110, 3.047440
939.0931, 0.2336270
939.5752, 1.469826
940.0573, 1.516502
940.5394, 0.9084170
941.0215, 0.6519620
941.5037, 0.7109300
941.9858, 0.8484120
942.4679, 1.063782
942.9500, 1.217216
943.4321, 1.060333
943.9142, 0.8524400
944.3964, 0.8506010
944.8785, 1.104836
945.3606, 1.327179
945.8427, 1.557152
946.3248, 1.633286
946.8069, 1.454247
947.2891, 1.075928
947.7712, 0.6210250
948.2533, 0.1420900
948.7354, 4.7522999E-02
949.2175, 0.4042210
949.6996, 1.001465
950.1818, 1.532280
950.6639, 1.947289
951.1460, 2.098454
951.6281, 1.896954
952.1102, 1.591713
952.5923, 1.121391
953.0745, 0.7073290
953.5566, 0.7835240
954.0387, 1.181591
954.5208, 1.216404
955.0029, 0.7308620
955.4850, 0.3240170
955.9672, 0.7005690
956.4493, 1.104511
956.9314, 0.6978420
957.4135, 0.7591020
957.8956, 0.8949620
958.3777, 0.8145870
958.8599, 2.277847
959.3420, 2.203556
959.8241, 1.131657
960.3062, 0.1836590
960.7883, 0.5935210
961.2704, 0.9887240
961.7526, 0.5312040
962.2347, 8.1665002E-02
962.7168, 7.3917001E-02
963.1989, 4.6546999E-02
963.6810, 0.5193560
964.1631, 1.565887
964.6453, 1.863655
965.1274, 0.9961280
965.6095, 1.5976001E-02
966.0916, 0.3323020
966.5737, 1.388672
967.0558, 2.026325
967.5380, 2.021255
968.0201, 1.750675
968.5022, 0.7665410
968.9843, 0.1180840
969.4664, 0.5512050
969.9485, 2.050648
970.4307, 3.039734
970.9128, 3.510887
971.3949, 3.532310
971.8770, 2.625694
972.3591, 1.662716
972.8412, 2.007946
973.3234, 3.185001
973.8055, 3.830738
974.2876, 2.965321
974.7697, 2.258888
975.2518, 1.990799
975.7339, 1.989746
976.2161, 2.011871
976.6982, 2.051281
977.1803, 2.066948
977.6624, 2.041748
978.1445, 2.079575
978.6266, 2.299191
979.1088, 2.605106
979.5909, 2.933266
980.0730, 3.299942
980.5551, 3.519875
981.0372, 3.556290
981.5193, 3.504429
982.0015, 3.283905
982.4836, 3.053677
982.9657, 3.591125
983.4478, 4.700882
983.9299, 5.467678
984.4120, 5.031914
984.8942, 4.544731
985.3763, 4.754787
985.8584, 4.372715
986.3405, 5.228817
986.8226, 4.343922
987.3047, 3.995964
987.7869, 4.449062
988.2690, 5.082279
988.7511, 5.017078
989.2332, 4.653603
989.7153, 4.801567
990.1974, 5.615326
990.6796, 6.218590
991.1617, 5.930416
991.6438, 5.685421
992.1259, 6.093388
992.6080, 6.995060
993.0901, 7.017178
993.5723, 6.150883
994.0544, 5.259907
994.5365, 4.565853
995.0186, 4.252632
995.5007, 4.961018
995.9828, 6.091831
996.4650, 6.562515
996.9471, 5.151806
997.4292, 4.409111
997.9113, 4.832924
998.3934, 5.561489
998.8755, 5.450871
999.3577, 4.703941
999.8398, 4.715939
1000.322, 5.573971
1000.804, 6.265491
1001.286, 5.807384
1001.768, 5.219074
1002.250, 5.279579
1002.732, 5.938168
1003.215, 6.264999
1003.697, 6.208836
1004.179, 5.985874
1004.661, 5.579121
1005.143, 5.229195
1005.625, 5.480064
1006.107, 6.072052
1006.589, 6.388500
1007.072, 5.939426
1007.554, 5.730324
1008.036, 6.558193
1008.518, 7.365810
1009.000, 7.278858
1009.482, 6.218372
1009.964, 5.648705
1010.446, 5.584843
1010.928, 5.693241
1011.411, 5.866459
1011.893, 5.910168
1012.375, 5.542927
1012.857, 4.911827
1013.339, 4.576466
1013.821, 4.759487
1014.303, 4.854118
1014.785, 4.808899
1015.268, 4.715561
1015.750, 4.423721
1016.232, 3.963055
1016.714, 3.858852
1017.196, 4.424049
1017.678, 4.859753
1018.160, 4.567276
1018.642, 3.974117
1019.124, 3.259373
1019.607, 2.378189
1020.089, 2.125824
1020.571, 2.617245
1021.053, 2.983070
1021.535, 2.505394
1022.017, 1.911354
1022.499, 2.425377
1022.981, 3.537148
1023.464, 4.136414
1023.946, 3.471069
1024.428, 3.016506
1024.910, 2.940296
1025.392, 3.049145
1025.874, 3.159538
1026.356, 3.240482
1026.838, 3.303013
1027.320, 3.405041
1027.803, 3.538631
1028.285, 3.523079
1028.767, 3.579945
1029.249, 4.065735
1029.731, 4.852238
1030.213, 4.890999
1030.695, 3.984543
1031.177, 3.290852
1031.660, 3.163776
1032.142, 3.269714
1032.624, 3.059204
1033.106, 2.734173
1033.588, 2.710472
1034.070, 3.275993
1034.552, 3.633404
1035.034, 3.395813
1035.516, 3.126255
1035.999, 3.227383
1036.481, 3.660316
1036.963, 3.751789
1037.445, 3.524246
1037.927, 3.285240
1038.409, 3.080044
1038.891, 3.052135
1039.373, 3.531132
1039.855, 4.223885
1040.338, 4.402435
1040.820, 3.779354
1041.302, 3.492615
1041.784, 3.717373
1042.266, 4.055885
1042.748, 4.087952
1043.230, 3.951004
1043.712, 3.865925
1044.195, 3.870060
1044.677, 3.892735
1045.159, 4.088284
1045.641, 4.096119
1046.123, 3.658405
1046.605, 2.984394
1047.087, 2.943810
1047.569, 3.469521
1048.052, 3.679821
1048.534, 3.166683
1049.016, 2.614613
1049.498, 2.455391
1049.980, 2.587139
1050.462, 2.976311
1050.944, 3.769123
1051.426, 4.076668
1051.908, 3.796207
1052.391, 3.431648
1052.873, 3.338387
1053.355, 3.387417
1053.837, 3.369614
1054.319, 3.267796
1054.801, 3.044605
1055.283, 2.425320
1055.765, 2.082211
1056.247, 2.244938
1056.730, 2.565506
1057.212, 2.522495
1057.694, 2.199192
1058.176, 2.187263
1058.658, 2.539268
1059.140, 2.805527
1059.622, 2.499985
1060.104, 2.148636
1060.587, 2.197655
1061.069, 2.556408
1061.551, 2.594158
1062.033, 2.258312
1062.515, 1.844563
1062.997, 1.317631
1063.479, 1.058804
1063.961, 2.068943
1064.443, 3.465321
1064.926, 3.846863
1065.408, 2.492599
1065.890, 1.532673
1066.372, 1.319759
1066.854, 1.251350
1067.336, 0.8428460
1067.818, 1.272774
1068.300, 0.8187750
1068.782, 2.092766
1069.265, 3.146263
1069.747, 3.575851
1070.229, 3.566521
1070.711, 2.825253
1071.193, 1.888607
1071.675, 1.360199
1072.157, 1.260727
1072.639, 1.503143
1073.122, 2.111195
1073.604, 2.502457
1074.086, 1.806049
1074.568, 0.9747660
1075.050, 0.9948770
1075.532, 1.748154
1076.014, 2.274586
1076.496, 2.468616
1076.979, 2.492764
1077.461, 2.342491
1077.943, 2.111900
1078.425, 1.964550
1078.907, 1.812729
1079.389, 1.409405
1079.871, 0.6476440
1080.353, 0.1552770
1080.835, 0.2812350
1081.318, 0.5828700
1081.800, 0.9112780
1082.282, 1.266422
1082.764, 1.739719
1083.246, 2.281013
1083.728, 2.527981
1084.210, 2.206257
1084.692, 1.726944
1085.174, 1.066452
1085.656, 0.5582350
1086.139, 0.5845110
1086.621, 1.280674
1087.103, 1.608833
1087.585, 1.530388
1088.067, 1.531006
1088.549, 2.163593
1089.031, 2.861549
1089.513, 3.132229
1089.996, 2.974121
1090.478, 2.337357
1090.960, 0.5454940
1091.442, 0.3303070
1091.924, 8.1332996E-02
1092.406, 0.9276310
1092.888, 1.360741
1093.370, 1.439796
1093.853, 1.352131
1094.335, 1.137257
1094.817, 0.9538120
1095.299, 0.8277850
1095.781, 0.7987940
1096.263, 0.8625340
1096.745, 1.035172
1097.227, 1.569061
1097.709, 2.319111
1098.192, 2.183037
1098.674, 0.7425800
1099.156, 0.2837410
1099.638, 0.7865410
1100.120, 2.293064
1100.602, 3.055435
1101.084, 3.105301
1101.566, 2.776600
1102.048, 2.041561
1102.531, 1.498070
1103.013, 1.524288
1103.495, 1.573971
1103.977, 0.8612630
1104.459, 9.9636003E-02
1104.941, 0.6022490
1105.423, 0.3624380
1105.905, 0.2149090
1106.388, 0.2431300
1106.870, 8.6025000E-02
1107.352, 0.7726210
1107.834, 1.833702
1108.316, 2.028839
1108.798, 1.594090
1109.280, 1.247993
1109.762, 1.263165
1110.245, 1.365005
1110.727, 1.620060
1111.209, 1.810085
1111.691, 1.557468
1112.173, 1.046703
1112.655, 1.173485
1113.137, 1.883331
1113.619, 2.250057
1114.101, 1.421902
1114.583, 0.5431210
1115.066, 1.4614000E-02
1115.548, 0.2605510
1116.030, 0.1431080
1116.512, 0.3256340
1116.994, 0.9666980
1117.476, 1.788361
1117.958, 2.353798
1118.440, 2.122021
1118.923, 1.667694
1119.405, 1.430500
1119.887, 1.376114
1120.369, 1.118031
1120.851, 0.6059650
1121.333, 0.2776370
1121.815, 0.2120510
1122.297, 0.5191000
1122.780, 1.814995
1123.262, 3.288368
1123.744, 3.980225
1124.226, 3.635334
1124.708, 2.799603
1125.190, 1.193604
1125.672, 2.3125000E-02
1126.154, 2.7725000E-02
1126.636, 0.5144040
1127.119, 0.8145900
1127.601, 0.9489480
1128.083, 1.059074
1128.565, 1.185844
1129.047, 1.291344
1129.529, 1.424114
1130.011, 1.444019
1130.493, 1.134663
1130.975, 0.6619030
1131.458, 0.7446780
1131.940, 1.199192
1132.422, 1.328423
1132.904, 0.3686680
1133.386, 0.3672980
1133.868, 0.5649030
1134.350, 0.4129790
1134.832, 8.1630997E-02
1135.315, 0.8334580
1135.797, 0.9947400
1136.279, 0.5799900
1136.761, 0.2262800
1137.243, 0.2414360
1137.725, 0.5104480
1138.207, 1.339039
1138.689, 2.232712
1139.172, 2.261513
1139.654, 1.403564
1140.136, 0.5654560
1140.618, 0.1714170
1141.100, 0.5493280
1141.582, 2.2338999E-02
1142.064, 0.6918110
1142.546, 0.7067340
1143.028, 0.2143360
1143.510, 7.9838000E-02
1143.993, 0.3542860
1144.475, 0.6795080
1144.957, 0.9887200
1145.439, 1.249817
1145.921, 1.399906
1146.403, 1.495815
1146.885, 1.556030
1147.367, 1.583408
1147.850, 1.914185
1148.332, 2.824413
1148.814, 2.923664
1149.296, 1.460297
1149.778, 0.3328510
1150.260, 0.7156870
1150.742, 0.2554660
1151.224, 0.2653200
1151.707, 0.7592280
1152.189, 0.9893380
1152.671, 0.8596420
1153.153, 0.6911740
1153.635, 0.6249810
1154.117, 0.6245800
1154.599, 0.5629010
1155.081, 0.5171200
1155.563, 0.6756250
1156.046, 1.232185
1156.528, 1.668716
1157.010, 1.909374
1157.492, 2.053997
1157.974, 2.151165
1158.456, 2.182796
1158.938, 2.099434
1159.420, 1.898979
1159.902, 1.568264
1160.385, 0.7585830
1160.867, 0.3362160
1161.349, 0.6922870
1161.831, 1.200829
1162.313, 1.263229
1162.795, 0.9696810
1163.277, 1.129219
1163.759, 1.621159
1164.242, 1.729252
1164.724, 0.5496710
1165.206, 0.4062840
1165.688, 0.4832380
1166.170, 0.1899720
1166.652, 0.1027600
1167.134, 0.1820600
1167.616, 4.6783000E-02
1168.099, 0.5785030
1168.581, 0.9609570
1169.063, 0.7137720
1169.545, 0.4650880
1170.027, 0.5796470
1170.509, 0.8694950
1170.991, 1.097954
1171.473, 1.261356
1171.955, 1.159958
1172.438, 0.7688260
1172.920, 0.3751300
1173.402, 0.1236080
1173.884, 1.1990000E-02
1174.366, 7.0877001E-02
1174.848, 0.2522470
1175.330, 0.5336380
1175.812, 0.9226950
1176.294, 0.9110370
1176.777, 0.3478810
1177.259, 1.7227000E-02
1177.741, 0.9323010
1178.223, 2.025574
1178.705, 2.516331
1179.187, 2.452908
1179.669, 2.090778
1180.151, 1.397175
1180.634, 0.9303860
1181.116, 0.8496060
1181.598, 0.8861660
1182.080, 0.7825050
1182.562, 0.6841510
1183.044, 0.6966780
1183.526, 0.8310890
1184.008, 1.272545
1184.490, 2.103424
1184.973, 2.420490
1185.455, 1.773899
1185.937, 1.060482
1186.419, 1.479965
1186.901, 2.144234
1187.383, 1.960865
1187.865, 0.7940440
1188.347, 0.1861500
1188.829, 0.1623040
1189.312, 0.2391700
1189.794, 0.1821480
1190.276, 0.2440220
1190.758, 0.9540980
1191.240, 1.798809
1191.722, 2.160450
1192.204, 1.938213
1192.686, 1.455288
1193.169, 0.5856400
1193.651, 0.1968080
1194.133, 0.9986340
1194.615, 2.007744
1195.097, 2.054214
1195.579, 1.557152
1196.061, 1.026176
1196.543, 0.4232520
1197.026, 0.3143120
1197.508, 0.7934840
1197.990, 1.207558
1198.472, 1.017372
1198.954, 0.7404250
1199.436, 1.246986
1199.918, 2.065319
1200.400, 2.437183
1200.882, 2.128124
1201.365, 1.779133
1201.847, 1.361813
1202.329, 1.068443
1202.811, 1.095085
1203.293, 1.303394
1203.775, 1.454296
1204.257, 1.516895
1204.739, 1.576439
1205.221, 1.804401
1205.704, 1.504116
1206.186, 0.5390550
1206.668, 0.2307360
1207.150, 2.7470000E-03
1207.632, 0.5953220
1208.114, 0.9936900
1208.596, 1.229797
1209.078, 1.252663
1209.561, 0.9674840
1210.043, 0.7198330
1210.525, 0.5044100
1211.007, 0.4052580
1211.489, 0.5201190
1211.971, 0.7559090
1212.453, 1.178402
1212.935, 1.619778
1213.417, 1.560875
1213.900, 0.6765980
1214.382, 0.3095970
1214.864, 0.5627590
1215.346, 1.129490
1215.828, 2.181328
1216.310, 3.073730
1216.792, 2.930050
1217.274, 2.065205
1217.756, 1.477585
1218.239, 1.296165
1218.721, 1.127808
1219.203, 0.9387510
1219.685, 0.7926450
1220.167, 0.6338350
1220.649, 0.6382560
1221.131, 1.268684
1221.613, 2.179169
1222.096, 2.265678
1222.578, 1.230049
1223.060, 0.6258620
1223.542, 0.6263580
1224.024, 0.9729230
1224.506, 1.885078
1224.988, 2.604572
1225.470, 2.090012
1225.953, 0.8484920
1226.435, 0.7356490
1226.917, 2.012844
1227.399, 2.781647
1227.881, 2.820934
1228.363, 2.548378
1228.845, 2.163189
1229.327, 1.765812
1229.809, 1.441868
1230.292, 1.171852
1230.774, 0.8199770
1231.256, 0.3534200
1231.738, 0.5146140
1232.220, 1.463493
1232.702, 2.220310
1233.184, 1.700531
1233.666, 0.9843250
1234.148, 0.8884700
1234.631, 1.172482
1235.113, 1.169033
1235.595, 0.8743060
1236.077, 0.8545570
1236.559, 1.190102
1237.041, 1.581772
1237.523, 1.989414
1238.005, 2.201603
1238.488, 1.881802
1238.970, 1.356247
1239.452, 1.338478
1239.934, 1.776203
1240.416, 1.966106
1240.898, 1.816277
1241.380, 1.532089
1241.862, 0.9944340
1242.344, 0.6549300
1242.827, 0.8255650
1243.309, 1.258389
1243.791, 1.602310
1244.273, 1.813663
1244.755, 1.451347
1245.237, 0.4770200
1245.719, 0.1963620
1246.201, 0.2426610
1246.683, 0.7142260
1247.166, 0.7663040
1247.648, 1.125141
1248.130, 0.9208950
1248.612, 1.410912
1249.094, 1.636494
1249.576, 1.538563
1250.058, 1.280361
1250.540, 0.7224080
1251.023, 0.2660790
1251.505, 9.9113002E-02
1251.987, 0.1431500
1252.469, 0.9042280
1252.951, 2.452976
1253.433, 3.012737
1253.915, 2.468781
1254.397, 1.883682
1254.880, 1.351788
1255.362, 1.210175
1255.844, 1.637859
1256.326, 2.146317
1256.808, 1.922977
1257.290, 1.378510
1257.772, 1.211029
1258.254, 1.459156
1258.736, 1.828144
1259.219, 2.623333
1259.701, 2.506966
1260.183, 0.9841310
1260.665, 0.6157420
1261.147, 0.6016010
1261.629, 0.1809500
1262.111, 0.8371280
1262.593, 1.272045
1263.075, 1.443130
1263.558, 1.271832
1264.040, 1.224388
1264.522, 1.408043
1265.004, 1.548344
1265.486, 1.285736
1265.968, 0.9273870
1266.450, 0.7368660
1266.932, 0.7089460
1267.415, 0.7512630
1267.897, 0.8764650
1268.379, 0.8874930
1268.861, 0.7410430
1269.343, 0.7037350
1269.825, 1.181065
1270.307, 1.657288
1270.789, 1.690865
1271.271, 1.898350
1271.754, 1.902180
1272.236, 1.725117
1272.718, 1.605949
1273.200, 1.097397
1273.682, 0.6348380
1274.164, 0.2461360
1274.646, 0.2785450
1275.128, 0.9906850
1275.610, 1.949638
1276.093, 2.459648
1276.575, 2.618965
1277.057, 2.885090
1277.539, 3.291309
1278.021, 3.389935
1278.503, 2.500767
1278.985, 1.797577
1279.467, 1.549599
1279.950, 1.557140
1280.432, 1.671745
1280.914, 1.799091
1281.396, 1.682339
1281.878, 1.079525
1282.360, 0.8032680
1282.842, 0.4966770
1283.324, 0.7165870
1283.807, 1.704449
1284.289, 2.633404
1284.771, 2.452793
1285.253, 1.825912
1285.735, 1.648087
1286.217, 1.810268
1286.699, 1.731663
1287.181, 1.321575
1287.663, 0.7950360
1288.146, 0.1212960
1288.628, 0.3093640
1289.110, 4.4537000E-02
1289.592, 0.7367970
1290.074, 1.767262
1290.556, 2.748753
1291.038, 2.894642
1291.520, 2.126133
1292.002, 1.755188
1292.485, 1.844982
1292.967, 1.898689
1293.449, 1.430229
1293.931, 1.087643
1294.413, 1.328114
1294.895, 1.796375
1295.377, 2.106003
1295.859, 2.014877
1296.342, 2.288044
1296.824, 2.536983
1297.306, 2.490337
1297.788, 1.687668
1298.270, 1.040867
1298.752, 0.7650150
1299.234, 0.6238440
1299.716, 0.3578190
1300.198, 4.6268001E-02
1300.681, 7.9150004E-03
1301.163, 0.1374930
1301.645, 0.1054990
1302.127, 0.0000000E+00
##END=



