##NAMES=Zaratite
##RRUFFID=R050268
##IDEAL CHEMISTRY=Ni_3_CO_3_(OH)_4_&#183;4H_2_O
##LOCALITY=Lord Brassy mine, Tasmania, Australia
##OWNER=RRUFF
##SOURCE=Marcus Origlieri
##DESCRIPTION=Green amorphous crust, intimately associated with nepouite
##STATUS=The identification of this mineral has been confirmed only by chemical analysis
##URL=rruff.info/R050268
##MEASURED CHEMISTRY=Ni_3.00_(CO_3_)(OH)_4_Â·4H_2_O
162.9303, 0.0000000E+00
163.4125, 1.0800000E-03
163.8946, 0.1210470
164.3767, 0.2267490
164.8588, 0.2158080
165.3409, 8.8757001E-02
165.8230, 5.9830002E-03
166.3052, 4.8588000E-02
166.7873, 3.1500001E-02
167.2694, 6.4482003E-02
167.7515, 0.2924680
168.2336, 0.4970540
168.7157, 0.5538610
169.1978, 0.4985020
169.6800, 0.4376640
170.1621, 0.3427670
170.6442, 0.3063360
171.1263, 0.4336610
171.6084, 0.8457000
172.0905, 1.290391
172.5727, 1.482858
173.0548, 1.487989
173.5369, 1.613380
174.0190, 2.305214
174.5011, 3.173001
174.9832, 3.650192
175.4654, 3.403184
175.9475, 2.907056
176.4296, 2.582239
176.9117, 2.426011
177.3938, 2.445754
177.8759, 2.773191
178.3581, 3.268806
178.8402, 3.666073
179.3223, 3.845930
179.8044, 3.924928
180.2865, 4.079874
180.7686, 4.308720
181.2508, 4.512578
181.7329, 4.666944
182.2150, 4.738874
182.6971, 4.615188
183.1792, 4.107482
183.6613, 3.464360
184.1435, 3.178783
184.6256, 3.243414
185.1077, 3.568518
185.5898, 4.232215
186.0719, 5.134344
186.5540, 5.841105
187.0362, 6.188803
187.5183, 6.245123
188.0004, 6.177574
188.4825, 5.976748
188.9646, 5.686980
189.4467, 5.324011
189.9289, 4.895430
190.4110, 4.457536
190.8931, 3.936894
191.3752, 3.415768
191.8573, 3.247126
192.3394, 3.464100
192.8216, 3.818202
193.3037, 3.990765
193.7858, 3.988554
194.2679, 4.075516
194.7500, 4.501806
195.2321, 5.151079
195.7143, 5.094851
196.1964, 4.144654
196.6785, 3.092165
197.1606, 3.182659
197.6427, 4.506777
198.1248, 5.425169
198.6070, 5.066283
199.0891, 3.556884
199.5712, 2.988102
200.0533, 3.592955
200.5354, 4.570164
201.0175, 4.760692
201.4997, 4.045190
201.9818, 3.364547
202.4639, 3.082825
202.9460, 3.200698
203.4281, 3.101349
203.9102, 2.654157
204.3924, 2.200724
204.8745, 2.356760
205.3566, 3.295121
205.8387, 3.997517
206.3208, 4.000239
206.8029, 3.249503
207.2851, 2.610237
207.7672, 2.047155
208.2493, 1.666622
208.7314, 1.726609
209.2135, 2.372487
209.6956, 2.984326
210.1778, 3.373342
210.6599, 3.505962
211.1420, 3.617651
211.6241, 3.727999
212.1062, 3.896142
212.5883, 4.325448
213.0705, 5.192101
213.5526, 5.922322
214.0347, 6.295125
214.5168, 6.216458
214.9989, 6.087853
215.4810, 5.819714
215.9632, 5.517466
216.4453, 5.403895
216.9274, 5.523949
217.4095, 5.718598
217.8916, 6.012873
218.3737, 6.315652
218.8559, 6.751500
219.3380, 7.485120
219.8201, 8.214385
220.3022, 8.469012
220.7843, 8.015306
221.2664, 7.553053
221.7486, 7.294398
222.2307, 7.302512
222.7128, 7.175299
223.1949, 6.823084
223.6770, 6.489608
224.1591, 6.570115
224.6413, 7.302080
225.1234, 7.944520
225.6055, 8.252568
226.0876, 8.127626
226.5697, 8.131432
227.0518, 8.288430
227.5340, 8.553099
228.0161, 8.895733
228.4982, 9.341707
228.9803, 9.830924
229.4624, 10.38370
229.9445, 11.06579
230.4267, 11.37540
230.9088, 11.06488
231.3909, 10.54481
231.8730, 10.38191
232.3551, 10.76620
232.8372, 11.16558
233.3194, 11.44476
233.8015, 11.58725
234.2836, 11.65320
234.7657, 11.59452
235.2478, 11.53481
235.7299, 11.57794
236.2121, 11.67512
236.6942, 11.86102
237.1763, 12.29085
237.6584, 13.10586
238.1405, 13.16637
238.6226, 11.91879
239.1048, 10.36341
239.5869, 9.802092
240.0690, 10.95313
240.5511, 11.83720
241.0332, 11.89293
241.5153, 11.00519
241.9975, 10.22733
242.4796, 9.504496
242.9617, 8.971568
243.4438, 8.819901
243.9259, 9.274729
244.4080, 9.677989
244.8902, 9.885898
245.3723, 9.888686
245.8544, 9.893133
246.3365, 9.985480
246.8186, 9.995084
247.3007, 9.688181
247.7829, 8.751031
248.2650, 8.116071
248.7471, 8.104530
249.2292, 8.736439
249.7113, 8.874374
250.1934, 8.234705
250.6756, 7.403633
251.1577, 6.915363
251.6398, 6.962424
252.1219, 6.944715
252.6040, 6.663731
253.0861, 6.152586
253.5683, 6.094442
254.0504, 6.843563
254.5325, 7.612073
255.0146, 7.694069
255.4967, 6.698982
255.9788, 5.923860
256.4609, 5.579759
256.9431, 5.630986
257.4252, 5.731486
257.9073, 5.999865
258.3894, 6.148232
258.8715, 5.903866
259.3536, 4.983581
259.8358, 4.404401
260.3179, 4.425967
260.8000, 4.887517
261.2821, 4.886826
261.7642, 4.156874
262.2463, 3.401264
262.7285, 3.186779
263.2106, 3.900048
263.6927, 3.868917
264.1748, 2.547511
264.6569, 0.4752630
265.1390, 0.3561430
265.6212, 0.5484950
266.1033, 1.689105
266.5854, 2.169864
267.0675, 1.734112
267.5496, 1.660702
268.0317, 2.214601
268.5139, 3.069645
268.9960, 3.296844
269.4781, 2.730797
269.9602, 2.004135
270.4423, 1.411667
270.9244, 0.9789890
271.4066, 0.5675030
271.8887, 0.1022920
272.3708, 0.2660060
272.8529, 7.0926003E-02
273.3350, 0.9048330
273.8171, 1.652949
274.2993, 1.638220
274.7814, 0.7703270
275.2635, 6.1903998E-02
275.7456, 0.4897590
276.2277, 0.4837090
276.7098, 0.3988440
277.1920, 0.5761500
277.6741, 0.3561050
278.1562, 0.5767030
278.6383, 1.0120000E-02
279.1204, 0.1759160
279.6025, 0.3077410
280.0847, 0.1593300
280.5668, 0.1423170
281.0489, 1.4822000E-02
281.5310, 0.1539420
282.0131, 0.2181150
282.4952, 0.2057610
282.9774, 0.3862670
283.4595, 0.2130770
283.9416, 0.2353090
284.4237, 0.4547120
284.9058, 0.4473040
285.3879, 0.4314690
285.8701, 0.5185620
286.3522, 0.6228900
286.8343, 0.4581090
287.3164, 1.4520000E-02
287.7985, 0.2358290
288.2806, 0.1775250
288.7628, 0.4332590
289.2449, 0.6320660
289.7270, 0.7404670
290.2091, 0.8535310
290.6912, 1.003703
291.1733, 1.205242
291.6555, 1.286628
292.1376, 0.9204490
292.6197, 0.2570170
293.1018, 0.1144860
293.5839, 0.8005090
294.0660, 1.780581
294.5482, 2.087305
295.0303, 1.779573
295.5124, 1.423641
295.9945, 1.414964
296.4766, 1.621787
296.9587, 1.620165
297.4409, 1.306047
297.9230, 0.9988350
298.4051, 1.293058
298.8872, 2.020751
299.3693, 2.573800
299.8514, 2.421278
300.3336, 1.907136
300.8157, 1.649651
301.2978, 1.720517
301.7799, 1.938866
302.2620, 2.122314
302.7441, 2.306697
303.2263, 2.584539
303.7084, 3.124146
304.1905, 3.700282
304.6726, 4.068119
305.1547, 4.194345
305.6368, 4.229276
306.1190, 4.262487
306.6011, 4.301427
307.0832, 4.383134
307.5653, 4.634916
308.0474, 4.832747
308.5295, 4.717997
309.0117, 4.336173
309.4938, 4.011825
309.9759, 4.044413
310.4580, 4.223053
310.9401, 4.294878
311.4222, 4.115325
311.9044, 3.915575
312.3865, 3.895149
312.8686, 3.999346
313.3507, 4.029650
313.8328, 3.659272
314.3149, 2.944195
314.7971, 3.469152
315.2792, 3.791267
315.7613, 3.922034
316.2434, 3.292349
316.7255, 3.638433
317.2076, 3.585579
317.6898, 3.511599
318.1719, 3.981603
318.6540, 3.444094
319.1361, 3.902279
319.6182, 3.956436
320.1003, 4.187311
320.5825, 4.019895
321.0646, 3.974984
321.5467, 4.322564
322.0288, 4.442673
322.5109, 4.195821
322.9930, 4.358678
323.4752, 3.752218
323.9573, 2.981184
324.4394, 4.006055
324.9215, 4.547355
325.4036, 4.634061
325.8857, 2.906740
326.3679, 3.537887
326.8500, 3.229756
327.3321, 2.881626
327.8142, 3.840543
328.2963, 2.379552
328.7784, 3.310554
329.2606, 3.280459
329.7427, 3.679540
330.2248, 3.100461
330.7069, 2.832989
331.1890, 3.546024
331.6711, 3.744946
332.1533, 3.120658
332.6354, 3.571552
333.1175, 2.066628
333.5996, 2.211371
334.0817, 3.069574
334.5638, 2.396848
335.0460, 2.789907
335.5281, 2.806348
336.0102, 0.9749630
336.4923, 2.314141
336.9744, 2.280661
337.4565, 0.8432370
337.9387, 2.127081
338.4208, 0.9604930
338.9029, 0.6705300
339.3850, 1.031958
339.8671, 0.6946020
340.3492, 1.454738
340.8313, 1.143101
341.3134, 0.7245520
341.7956, 0.7156210
342.2777, 0.1806720
342.7598, 0.5155320
343.2419, 2.6027000E-02
343.7240, 0.2687070
344.2061, 0.6745400
344.6883, 0.1794760
345.1704, 0.3333970
345.6525, 0.3353440
346.1346, 6.7479998E-02
346.6167, 1.5859000E-02
347.0988, 0.2511600
347.5810, 0.2296300
348.0631, 1.1110000E-02
348.5452, 0.3280710
349.0273, 0.2786380
349.5094, 0.4189260
349.9915, 0.1617670
350.4737, 1.7362000E-02
350.9558, 0.2727110
351.4379, 0.3267950
351.9200, 6.3895002E-02
352.4021, 0.2623290
352.8842, 0.3440660
353.3664, 0.2427560
353.8485, 0.1696100
354.3306, 4.6774000E-02
354.8127, 0.1819640
355.2948, 0.2419480
355.7769, 0.4617810
356.2591, 0.1707320
356.7412, 0.2527030
357.2233, 0.2410980
357.7054, 0.3836560
358.1875, 2.4014000E-02
358.6696, 6.2792003E-02
359.1518, 0.1834950
359.6339, 0.2177220
360.1160, 0.3078500
360.5981, 0.4963400
361.0802, 0.5155320
361.5623, 0.2397440
362.0445, 0.7355840
362.5266, 0.7961970
363.0087, 0.7571670
363.4908, 0.9494760
363.9729, 0.9215750
364.4550, 0.7677340
364.9372, 0.5594990
365.4193, 0.2465220
365.9014, 0.1737850
366.3835, 0.5998220
366.8656, 1.169512
367.3477, 1.642274
367.8299, 1.857916
368.3120, 1.375465
368.7941, 1.126911
369.2762, 1.311046
369.7583, 1.835395
370.2404, 2.278429
370.7226, 2.582390
371.2047, 2.857605
371.6868, 3.165412
372.1689, 3.604954
372.6510, 3.836734
373.1331, 3.712226
373.6153, 3.463409
374.0974, 3.498177
374.5795, 3.992342
375.0616, 4.416892
375.5437, 4.547640
376.0258, 4.374425
376.5080, 4.571940
376.9901, 5.310389
377.4722, 6.112649
377.9543, 6.446309
378.4364, 6.206663
378.9185, 6.209359
379.4007, 6.667924
379.8828, 7.420657
380.3649, 7.967104
380.8470, 8.286550
381.3291, 8.556481
381.8112, 8.861176
382.2934, 9.214939
382.7755, 9.693716
383.2576, 10.35593
383.7397, 10.96939
384.2218, 11.12564
384.7039, 10.90583
385.1861, 10.76635
385.6682, 10.96856
386.1503, 11.37614
386.6324, 11.79529
387.1145, 12.21565
387.5966, 12.60044
388.0788, 12.93216
388.5609, 13.20116
389.0430, 13.37531
389.5251, 13.31224
390.0072, 13.30574
390.4893, 13.81560
390.9715, 14.66324
391.4536, 15.25060
391.9357, 14.97552
392.4178, 14.44070
392.8999, 14.15969
393.3820, 14.26345
393.8642, 14.43838
394.3463, 14.67689
394.8284, 14.87761
395.3105, 14.88398
395.7926, 14.36750
396.2747, 13.92125
396.7569, 13.85976
397.2390, 14.21653
397.7211, 14.45870
398.2032, 14.33860
398.6853, 14.14949
399.1674, 14.11074
399.6496, 14.57370
400.1317, 14.74172
400.6138, 14.55919
401.0959, 14.06372
401.5780, 13.61343
402.0602, 13.06029
402.5423, 12.67546
403.0244, 12.66665
403.5065, 13.06876
403.9886, 13.45003
404.4707, 13.80585
404.9529, 14.17201
405.4350, 14.46455
405.9171, 14.73379
406.3992, 14.94336
406.8813, 15.09489
407.3634, 15.18503
407.8456, 15.22826
408.3277, 15.21776
408.8098, 15.16861
409.2919, 15.07675
409.7740, 14.95376
410.2561, 14.88028
410.7383, 14.84859
411.2204, 14.91368
411.7025, 15.19587
412.1846, 15.67485
412.6667, 16.15946
413.1488, 16.55160
413.6310, 16.87419
414.1131, 17.23004
414.5952, 17.60884
415.0773, 17.93987
415.5594, 18.11779
416.0415, 18.22330
416.5237, 18.37870
417.0058, 18.66859
417.4879, 18.97283
417.9700, 19.11002
418.4521, 19.15199
418.9342, 19.38286
419.4164, 20.09798
419.8985, 20.92501
420.3806, 21.64737
420.8627, 22.24615
421.3448, 22.72814
421.8269, 23.11248
422.3091, 23.40417
422.7912, 23.60879
423.2733, 23.66625
423.7554, 23.69835
424.2375, 23.60477
424.7196, 23.38252
425.2018, 23.59175
425.6839, 24.72998
426.1660, 26.00028
426.6481, 26.94942
427.1302, 27.32537
427.6123, 27.76437
428.0945, 28.31469
428.5766, 28.93156
429.0587, 29.52947
429.5408, 30.14679
430.0229, 30.65713
430.5050, 30.94474
430.9872, 30.99051
431.4693, 31.31672
431.9514, 31.98400
432.4335, 32.78708
432.9156, 33.58335
433.3977, 34.37582
433.8799, 34.93764
434.3620, 35.16447
434.8441, 35.19681
435.3262, 35.29380
435.8083, 35.45886
436.2904, 35.77424
436.7726, 36.43604
437.2547, 37.27055
437.7368, 37.89548
438.2189, 38.28868
438.7010, 38.44423
439.1831, 38.13435
439.6652, 37.60468
440.1473, 37.33522
440.6295, 37.77238
441.1116, 38.33637
441.5937, 38.46843
442.0758, 38.25819
442.5579, 38.17605
443.0400, 38.88931
443.5222, 39.59078
444.0043, 39.62180
444.4864, 38.38218
444.9685, 37.44864
445.4506, 37.53773
445.9327, 38.18683
446.4149, 38.68372
446.8970, 38.86086
447.3791, 38.96422
447.8612, 38.99556
448.3433, 38.94827
448.8254, 38.87693
449.3076, 38.95921
449.7897, 38.88461
450.2718, 38.39253
450.7539, 37.05019
451.2360, 36.36742
451.7181, 36.64243
452.2003, 37.39923
452.6824, 37.68052
453.1645, 37.39152
453.6466, 36.96798
454.1287, 36.54524
454.6108, 36.12584
455.0930, 35.84649
455.5751, 35.73620
456.0572, 35.60078
456.5393, 35.28477
457.0214, 34.77842
457.5035, 34.03337
457.9857, 32.92068
458.4678, 31.84497
458.9499, 31.47152
459.4320, 31.65833
459.9141, 31.89641
460.3962, 31.98679
460.8784, 31.90273
461.3605, 31.71328
461.8426, 31.42801
462.3247, 30.85200
462.8068, 29.46764
463.2889, 27.88815
463.7711, 26.79170
464.2532, 26.66069
464.7353, 26.62881
465.2174, 26.41024
465.6995, 26.04196
466.1816, 25.60666
466.6638, 25.09756
467.1459, 24.56255
467.6280, 24.06999
468.1101, 23.62058
468.5922, 22.96776
469.0743, 21.81604
469.5565, 20.70068
470.0386, 20.09633
470.5207, 20.27061
471.0028, 20.45098
471.4849, 20.69392
471.9670, 20.85108
472.4492, 20.42475
472.9313, 19.28609
473.4134, 18.01093
473.8955, 16.72605
474.3776, 15.44827
474.8597, 14.75479
475.3419, 14.72088
475.8240, 14.84378
476.3061, 14.66288
476.7882, 14.19564
477.2703, 13.52045
477.7524, 12.54089
478.2346, 11.56159
478.7167, 11.04962
479.1988, 10.90754
479.6809, 10.77241
480.1630, 10.41151
480.6451, 9.970899
481.1273, 9.677607
481.6094, 9.556414
482.0915, 9.212192
482.5736, 8.127980
483.0557, 6.870934
483.5378, 5.990489
484.0200, 5.776449
484.5021, 5.666196
484.9842, 5.606437
485.4663, 5.596185
485.9484, 5.494107
486.4305, 5.118095
486.9127, 4.794597
487.3948, 4.680816
487.8769, 4.821020
488.3590, 4.592685
488.8411, 3.853579
489.3232, 2.945139
489.8054, 2.129158
490.2875, 1.324709
490.7696, 0.8005100
491.2517, 0.7056330
491.7338, 0.8782080
492.2159, 0.8577090
492.6981, 0.5957060
493.1802, 0.4526980
493.6623, 0.7441130
494.1444, 1.274127
494.6265, 1.254221
495.1086, 0.6727330
495.5908, 6.7350000E-02
496.0729, 2.8291000E-02
496.5550, 0.1716220
497.0371, 0.2046100
497.5192, 8.8751003E-02
498.0013, 0.4190760
498.4835, 0.5650250
498.9656, 0.5558870
499.4477, 0.4412310
499.9298, 8.1490003E-02
500.4119, 0.4352380
500.8940, 9.1091000E-02
501.3762, 0.9525510
501.8583, 0.3105090
502.3404, 0.2350060
502.8225, 0.4709650
503.3046, 0.7906460
503.7867, 0.4082320
504.2689, 7.8244999E-02
504.7510, 0.5381770
505.2331, 0.5221410
505.7152, 0.4654550
506.1973, 0.1870110
506.6794, 0.5048430
507.1616, 0.4748550
507.6437, 0.1098660
508.1258, 0.4572020
508.6079, 0.5916540
509.0900, 0.6205470
509.5721, 0.5798290
510.0543, 0.4616570
510.5364, 0.2605700
511.0185, 4.8781998E-02
511.5006, 0.3255700
511.9827, 0.3516700
512.4648, 0.1505880
512.9470, 4.4300999E-02
513.4291, 0.1891430
513.9112, 0.2507550
514.3933, 0.1641120
514.8754, 3.4352999E-02
515.3575, 0.2237910
515.8397, 0.4369430
516.3218, 0.5558430
516.8039, 0.3859910
517.2860, 0.1620450
517.7681, 0.3702930
518.2502, 7.3344998E-02
518.7324, 0.5200500
519.2145, 0.8287440
519.6966, 0.4419480
520.1787, 0.1702030
520.6608, 0.1407730
521.1429, 0.2670510
521.6251, 0.3158490
522.1072, 0.1953720
522.5893, 0.1766000
523.0714, 0.4404240
523.5535, 0.9793030
524.0356, 1.006570
524.5178, 0.3615730
524.9999, 0.2526080
525.4820, 7.6791003E-02
525.9641, 0.7841120
526.4462, 1.218533
526.9283, 1.005405
527.4105, 0.5964590
527.8926, 0.5714830
528.3747, 0.8556830
528.8568, 1.206716
529.3389, 1.693939
529.8210, 2.071570
530.3032, 1.967342
530.7853, 1.472179
531.2674, 1.041440
531.7495, 1.041488
532.2316, 1.123142
532.7137, 0.9952870
533.1959, 0.5239890
533.6780, 0.2156180
534.1601, 0.3291040
534.6422, 0.6034000
535.1243, 0.7686750
535.6064, 0.7395800
536.0886, 0.6806180
536.5707, 0.5702710
537.0528, 0.4428060
537.5349, 0.4393570
538.0170, 0.6456080
538.4991, 0.7626410
538.9813, 0.6637360
539.4634, 0.3564850
539.9455, 6.2971003E-02
540.4276, 0.6443400
540.9097, 1.053512
541.3918, 0.7812660
541.8740, 3.7037998E-02
542.3561, 0.3707060
542.8382, 0.1086840
543.3203, 0.4340090
543.8024, 0.7394190
544.2845, 0.8574450
544.7667, 0.7083050
545.2488, 0.2879510
545.7309, 1.096593
546.2130, 1.178743
546.6951, 0.6749530
547.1772, 0.2454740
547.6594, 0.3639300
548.1415, 0.4661340
548.6236, 0.1794430
549.1057, 0.9099830
549.5878, 1.543038
550.0699, 1.812630
550.5521, 1.833191
551.0342, 1.677468
551.5163, 1.243334
551.9984, 0.8467050
552.4805, 0.4962310
552.9626, 0.2128730
553.4448, 0.2067300
553.9269, 0.2237590
554.4090, 0.1897990
554.8911, 0.1557310
555.3732, 0.2465010
555.8553, 0.3124820
556.3375, 0.3572610
556.8196, 0.3959380
557.3017, 0.5340330
557.7838, 0.6583320
558.2659, 0.4667850
558.7480, 0.2620410
559.2302, 0.7547730
559.7123, 0.8534590
560.1944, 0.6830240
560.6765, 0.4327550
561.1586, 0.1122670
561.6407, 6.4599998E-03
562.1229, 0.4246760
562.6050, 0.8411870
563.0871, 0.8894600
563.5692, 0.1479350
564.0513, 0.4591050
564.5334, 0.3041480
565.0156, 0.3471640
565.4977, 0.8859230
565.9798, 0.7155920
566.4619, 0.3420380
566.9440, 0.1001950
567.4261, 4.3609999E-03
567.9083, 6.3911997E-02
568.3904, 8.3021000E-02
568.8725, 0.1386050
569.3546, 0.3538980
569.8367, 0.1688500
570.3188, 0.4937130
570.8010, 0.4082680
571.2831, 0.1618240
571.7652, 5.5886000E-02
572.2473, 6.7129999E-02
572.7294, 9.7576000E-02
573.2115, 4.9149999E-03
573.6937, 4.0534001E-02
574.1758, 0.1634130
574.6579, 0.6336100
575.1400, 0.8927570
575.6221, 0.5931630
576.1042, 0.2168510
576.5864, 5.1371001E-02
577.0685, 0.1374840
577.5506, 0.3722260
578.0327, 0.8466680
578.5148, 1.404980
578.9969, 1.867080
579.4791, 2.256720
579.9612, 2.435645
580.4433, 2.267829
580.9254, 1.964266
581.4075, 2.168710
581.8896, 2.874198
582.3718, 3.503808
582.8539, 3.658532
583.3360, 3.551597
583.8181, 3.455245
584.3002, 3.366199
584.7823, 3.495105
585.2645, 4.215699
585.7466, 5.119075
586.2286, 5.789810
586.7108, 6.113002
587.1929, 6.320914
587.6750, 6.485628
588.1571, 6.601285
588.6392, 6.663608
589.1213, 6.634209
589.6035, 6.589876
590.0856, 6.379725
590.5677, 6.177090
591.0498, 6.521923
591.5319, 7.697672
592.0140, 8.781747
592.4962, 9.454828
592.9783, 9.748538
593.4604, 9.826853
593.9425, 9.662329
594.4246, 9.545221
594.9067, 9.793681
595.3889, 10.26194
595.8710, 10.44835
596.3531, 10.27491
596.8352, 10.16485
597.3173, 10.56739
597.7994, 11.23207
598.2816, 11.84675
598.7637, 12.40904
599.2458, 12.82098
599.7279, 12.88585
600.2100, 12.75765
600.6921, 12.72195
601.1743, 13.00735
601.6564, 13.25262
602.1385, 13.38056
602.6206, 13.38709
603.1027, 13.49727
603.5848, 13.76419
604.0670, 13.94601
604.5491, 13.85771
605.0312, 13.48395
605.5133, 13.27337
605.9954, 13.23334
606.4775, 13.25287
606.9597, 13.21322
607.4418, 13.14090
607.9239, 13.12983
608.4060, 13.22426
608.8881, 13.33859
609.3702, 13.36580
609.8524, 13.36339
610.3345, 13.42536
610.8166, 13.60632
611.2987, 13.82399
611.7808, 14.13172
612.2629, 14.44757
612.7451, 14.53449
613.2272, 14.15913
613.7093, 13.74961
614.1914, 13.39574
614.6735, 13.09815
615.1556, 12.97018
615.6378, 13.08807
616.1199, 13.24211
616.6020, 13.32300
617.0841, 13.32457
617.5662, 13.23890
618.0483, 13.04619
618.5305, 12.82299
619.0126, 12.66177
619.4947, 12.52357
619.9768, 12.30989
620.4589, 11.97039
620.9410, 11.59327
621.4232, 11.24628
621.9053, 10.96305
622.3874, 10.73774
622.8695, 10.54521
623.3516, 10.37722
623.8337, 10.30171
624.3159, 10.30711
624.7980, 10.27513
625.2801, 10.19778
625.7622, 10.05890
626.2443, 9.884109
626.7264, 9.678105
627.2086, 9.170374
627.6907, 8.241989
628.1728, 7.448307
628.6549, 7.339087
629.1370, 7.830087
629.6191, 8.093964
630.1013, 8.082322
630.5834, 7.851805
631.0655, 7.308203
631.5476, 6.611688
632.0297, 6.089632
632.5118, 5.845672
632.9940, 5.737795
633.4761, 5.765775
633.9582, 5.839851
634.4403, 5.813805
634.9224, 5.595535
635.4045, 5.338161
635.8867, 5.104731
636.3688, 4.867560
636.8509, 4.506241
637.3330, 3.890004
637.8151, 3.361017
638.2972, 3.013002
638.7794, 2.849694
639.2615, 3.027629
639.7436, 3.626452
640.2257, 4.080176
640.7078, 3.858208
641.1899, 3.157979
641.6721, 2.596724
642.1542, 2.215386
642.6363, 1.962325
643.1184, 1.876302
643.6005, 1.857051
644.0826, 1.771775
644.5648, 1.553982
645.0469, 1.344049
645.5290, 1.114370
646.0111, 0.9522480
646.4932, 0.9827150
646.9753, 1.460527
647.4575, 1.838293
647.9396, 2.088327
648.4217, 2.190516
648.9038, 2.052424
649.3859, 1.622726
649.8680, 1.131358
650.3502, 0.5999140
650.8323, 8.7219000E-02
651.3144, 0.1839420
651.7965, 0.2199310
652.2786, 0.1122200
652.7607, 0.1848600
653.2429, 0.5394020
653.7250, 0.7803590
654.2071, 0.8940830
654.6892, 0.8849770
655.1713, 0.6934700
655.6534, 0.4201400
656.1356, 0.1167220
656.6177, 0.3007470
657.0998, 0.5141300
657.5819, 0.2820320
658.0640, 5.3493999E-02
658.5461, 0.1604620
659.0283, 6.5665998E-02
659.5104, 0.5652430
659.9925, 6.5541998E-02
660.4746, 0.2343590
660.9567, 0.3451470
661.4388, 0.3021090
661.9210, 3.0358000E-02
662.4031, 2.9287999E-02
662.8852, 0.1044180
663.3673, 0.3674500
663.8494, 0.1670590
664.3315, 0.2972240
664.8137, 0.3638280
665.2958, 0.6137340
665.7779, 0.4697630
666.2600, 0.4488200
666.7421, 0.8240340
667.2242, 0.9866490
667.7064, 0.8229410
668.1885, 1.090357
668.6706, 0.4507650
669.1527, 0.3957160
669.6348, 0.5398430
670.1169, 0.6967630
670.5991, 0.7054620
671.0812, 0.5754580
671.5633, 0.5172800
672.0454, 0.5460240
672.5275, 0.6322370
673.0096, 0.8105650
673.4918, 1.008823
673.9739, 1.083133
674.4560, 0.9767000
674.9381, 0.7945780
675.4202, 0.3711820
675.9023, 1.7834000E-02
676.3845, 2.3986001E-02
676.8666, 1.311495
677.3487, 2.199495
677.8308, 2.135122
678.3129, 1.494319
678.7950, 1.082151
679.2772, 1.001654
679.7593, 0.8821180
680.2414, 0.5456770
680.7235, 0.1207130
681.2056, 0.1268350
681.6877, 0.5557900
682.1699, 1.056746
682.6520, 1.516281
683.1341, 1.880293
683.6162, 2.038784
684.0983, 2.000776
684.5804, 1.850304
685.0626, 1.500357
685.5447, 1.158775
686.0268, 0.9799580
686.5089, 1.004799
686.9910, 1.058059
687.4731, 1.160920
687.9553, 1.244751
688.4374, 1.257456
688.9195, 1.152013
689.4016, 1.119106
689.8837, 1.157596
690.3658, 1.271763
690.8480, 1.552162
691.3301, 1.950840
691.8122, 2.079646
692.2943, 1.779267
692.7764, 1.482258
693.2585, 1.765990
693.7407, 2.383940
694.2228, 2.893311
694.7049, 3.214999
695.1870, 3.294658
695.6691, 2.866184
696.1512, 1.830877
696.6334, 2.284018
697.1155, 2.537055
697.5976, 2.600763
698.0797, 1.906526
698.5618, 2.192176
699.0439, 2.085854
699.5261, 1.963929
700.0082, 2.388962
700.4903, 1.807587
700.9724, 2.224967
701.4545, 2.244370
701.9366, 2.446659
702.4188, 2.254539
702.9009, 2.184919
703.3830, 2.510838
703.8651, 2.641528
704.3472, 2.429160
704.8293, 2.673553
705.3115, 2.093710
705.7936, 2.397034
706.2757, 2.906205
706.7578, 4.043333
707.2399, 4.467265
707.7220, 3.818341
708.2042, 3.024609
708.6863, 2.993993
709.1684, 3.742677
709.6505, 3.812648
710.1326, 3.010037
710.6147, 2.085500
711.0969, 1.850274
711.5790, 2.120192
712.0611, 2.580175
712.5432, 3.294183
713.0253, 3.805378
713.5074, 3.672104
713.9896, 3.237608
714.4717, 2.915719
714.9538, 2.878498
715.4359, 2.904223
715.9180, 3.114413
716.4001, 3.286948
716.8823, 2.976327
717.3644, 1.980608
717.8465, 1.331852
718.3286, 1.275102
718.8107, 1.528716
719.2928, 1.676902
719.7750, 1.764408
720.2571, 1.856943
720.7392, 2.014306
721.2213, 2.131007
721.7034, 2.071219
722.1855, 1.891980
722.6677, 1.692920
723.1498, 1.632703
723.6319, 1.450817
724.1140, 0.8448140
724.5961, 0.1162510
725.0782, 0.4026060
725.5604, 0.3705570
726.0425, 1.179363
726.5246, 1.607868
727.0067, 1.644981
727.4888, 1.512255
727.9709, 1.202508
728.4531, 0.8559070
728.9352, 0.4259820
729.4173, 9.3748003E-02
729.8994, 0.2607700
730.3815, 0.8602940
730.8636, 1.285764
731.3458, 1.062167
731.8279, 0.6806190
732.3100, 0.4951270
732.7921, 0.6155590
733.2742, 0.8096290
733.7563, 1.042361
734.2385, 1.237840
734.7206, 1.391336
735.2027, 1.502058
735.6848, 1.829834
736.1669, 2.425604
736.6490, 2.977862
737.1312, 3.021973
737.6133, 2.763183
738.0954, 2.799903
738.5775, 3.317781
739.0596, 3.735018
739.5417, 3.471419
740.0239, 2.903801
740.5060, 2.470989
740.9881, 2.345126
741.4702, 2.255833
741.9523, 2.178562
742.4344, 2.102680
742.9166, 2.005653
743.3987, 1.888501
743.8808, 1.899649
744.3629, 2.045026
744.8450, 2.219706
745.3271, 2.323905
745.8093, 2.335773
746.2914, 2.194581
746.7735, 1.749435
747.2556, 1.378615
747.7377, 1.544402
748.2198, 2.034731
748.7020, 2.428430
749.1841, 2.585983
749.6662, 2.612439
750.1483, 2.452702
750.6304, 2.184128
751.1125, 2.004145
751.5947, 1.977982
752.0768, 1.858271
752.5589, 1.508933
753.0410, 1.080498
753.5231, 1.085682
754.0052, 1.484957
754.4874, 1.850541
754.9695, 1.966188
755.4516, 1.941709
755.9337, 1.912974
756.4158, 1.856704
756.8979, 1.696231
757.3801, 1.225523
757.8622, 0.8087790
758.3443, 0.6425830
758.8264, 0.7040120
759.3085, 0.7320450
759.7906, 0.7747490
760.2728, 0.6770490
760.7549, 0.2864070
761.2370, 0.3016330
761.7191, 0.2802370
762.2012, 0.3699350
762.6833, 9.5817000E-02
763.1655, 0.2462020
763.6476, 0.5793030
764.1297, 0.8358530
764.6118, 0.9974530
765.0939, 0.9633080
765.5760, 0.4391870
766.0582, 8.0914997E-02
766.5403, 0.3377440
767.0224, 0.3008440
767.5045, 0.1145650
767.9866, 0.3896670
768.4688, 0.7506060
768.9509, 0.6239610
769.4330, 5.2400000E-02
769.9151, 0.1480260
770.3972, 3.0059000E-02
770.8793, 0.2529850
771.3615, 0.2592220
771.8436, 0.1556150
772.3257, 8.4971003E-02
772.8078, 5.8603000E-02
773.2899, 5.4800000E-02
773.7720, 0.2477440
774.2542, 0.3186580
774.7363, 8.5473001E-02
775.2184, 0.6390080
775.7005, 0.9722560
776.1826, 2.6004000E-02
776.6647, 0.3922460
777.1469, 0.3872660
777.6290, 5.5400003E-04
778.1111, 0.2141220
778.5932, 0.1557340
779.0753, 0.5703240
779.5574, 0.8871380
780.0396, 0.8948870
780.5217, 0.6503320
781.0038, 0.1266910
781.4859, 0.2183570
781.9680, 0.2348000
782.4501, 0.1834370
782.9323, 0.1433590
783.4144, 0.5504870
783.8964, 0.7896110
784.3785, 0.4456080
784.8607, 0.1243730
785.3428, 0.2746200
785.8249, 0.9780920
786.3070, 0.8355780
786.7891, 0.1999310
787.2712, 0.8149990
787.7534, 0.3985440
788.2355, 0.1656470
788.7176, 0.8675230
789.1997, 1.060952
789.6818, 0.8657390
790.1639, 0.2173610
790.6461, 0.8523980
791.1282, 1.219580
791.6103, 0.4827390
792.0924, 9.4270997E-02
792.5745, 0.1705180
793.0566, 0.3432710
793.5388, 0.2420510
794.0209, 8.8496000E-02
794.5030, 3.2494999E-02
794.9851, 0.3885040
795.4672, 0.6901630
795.9493, 0.9282270
796.4315, 1.064509
796.9136, 1.022501
797.3957, 0.7017860
797.8778, 0.4752180
798.3599, 0.5019020
798.8420, 0.6116860
799.3242, 0.7185860
799.8063, 0.9064230
800.2884, 0.6880330
800.7705, 8.4458001E-02
801.2526, 0.4946430
801.7347, 0.4458400
802.2169, 0.1387120
802.6990, 2.7244000E-02
803.1811, 0.4947680
803.6632, 0.8158110
804.1453, 0.9466530
804.6274, 0.3186970
805.1096, 0.6697010
805.5917, 0.6278520
806.0738, 0.5695450
806.5559, 1.059163
807.0380, 0.5460540
807.5201, 1.029767
808.0023, 1.114385
808.4844, 1.381550
808.9665, 1.254050
809.4486, 1.248012
809.9307, 1.635612
810.4128, 1.035093
810.8950, 1.058910
811.3771, 1.190888
811.8592, 1.412721
812.3413, 1.877404
812.8234, 2.325317
813.3055, 2.519478
813.7877, 2.322425
814.2698, 2.199627
814.7519, 2.180233
815.2340, 2.195795
815.7161, 2.200911
816.1982, 2.190576
816.6804, 2.189207
817.1625, 2.207063
817.6446, 2.138985
818.1267, 1.754863
818.6088, 1.293168
819.0909, 1.053006
819.5731, 1.136247
820.0552, 1.215125
820.5373, 1.106845
821.0194, 1.018396
821.5015, 1.080907
821.9836, 1.312357
822.4658, 1.725632
822.9479, 2.412176
823.4300, 2.986148
823.9121, 2.992673
824.3942, 2.626742
824.8763, 2.574394
825.3585, 2.878131
825.8406, 3.162366
826.3227, 3.070217
826.8048, 2.916616
827.2869, 3.001430
827.7690, 3.335659
828.2512, 3.570335
828.7333, 3.767542
829.2154, 3.802423
829.6975, 3.464491
830.1796, 2.727793
830.6617, 2.693559
831.1439, 3.448449
831.6260, 4.113134
832.1081, 3.874958
832.5902, 3.242433
833.0723, 2.921407
833.5544, 2.916360
834.0366, 3.095630
834.5187, 3.559860
835.0008, 3.963704
835.4829, 4.086454
835.9650, 3.961454
836.4471, 3.762707
836.9293, 3.383600
837.4114, 3.136113
837.8935, 3.281885
838.3756, 3.759250
838.8577, 4.156037
839.3398, 4.457622
839.8220, 4.653765
840.3041, 4.658021
840.7862, 4.576742
841.2683, 4.452708
841.7504, 4.367519
842.2325, 4.349775
842.7147, 4.433511
843.1968, 4.498496
843.6789, 4.506899
844.1610, 4.469233
844.6431, 4.411644
845.1252, 4.313472
845.6074, 3.917249
846.0895, 4.440329
846.5716, 4.778891
847.0537, 4.939847
847.5358, 4.316730
848.0179, 4.640296
848.5001, 4.494050
848.9822, 4.296265
849.4643, 4.690743
849.9464, 4.117096
850.4285, 4.548995
850.9106, 4.560693
851.3928, 4.739147
851.8749, 4.517870
852.3570, 4.442379
852.8391, 4.768133
853.3212, 4.874553
853.8033, 4.636666
854.2855, 4.771752
854.7676, 5.015124
855.2497, 4.619454
855.7318, 3.930551
856.2139, 3.476825
856.6960, 3.620447
857.1782, 3.578789
857.6603, 3.205321
858.1424, 2.753784
858.6245, 2.539574
859.1066, 2.547985
859.5887, 2.778009
860.0709, 3.310155
860.5530, 3.760691
861.0351, 3.526785
861.5172, 3.042450
861.9993, 2.979700
862.4814, 3.797098
862.9636, 4.190293
863.4457, 3.382964
863.9278, 2.357581
864.4099, 1.833883
864.8920, 1.901913
865.3741, 1.914710
865.8563, 1.844760
866.3384, 1.780123
866.8205, 1.775196
867.3026, 1.842604
867.7847, 2.090950
868.2668, 2.540193
868.7490, 2.767073
869.2311, 2.267533
869.7132, 1.709109
870.1953, 1.572812
870.6774, 1.896716
871.1595, 2.141986
871.6417, 2.368590
872.1238, 2.336010
872.6059, 1.692793
873.0880, 0.6963850
873.5701, 0.3536100
874.0522, 0.5916620
874.5344, 0.8802780
875.0165, 0.9453660
875.4986, 0.9110710
875.9807, 0.8531460
876.4628, 0.7703000
876.9449, 0.6163770
877.4271, 0.2244870
877.9092, 7.8575000E-02
878.3913, 0.4140300
878.8734, 1.027618
879.3555, 1.259637
879.8376, 1.149376
880.3198, 1.064784
880.8019, 1.237506
881.2840, 1.382602
881.7661, 1.115137
882.2482, 0.6378080
882.7303, 0.3387280
883.2125, 0.6473030
883.6946, 0.6993320
884.1767, 0.1918970
884.6588, 0.1309390
885.1409, 7.1157999E-02
885.6230, 1.2290000E-03
886.1052, 0.2267100
886.5873, 7.9704002E-02
887.0694, 0.2120790
887.5515, 0.3042310
888.0336, 0.1239800
888.5157, 0.5766030
888.9979, 1.149004
889.4800, 1.278859
889.9621, 0.2228790
890.4442, 0.1315210
890.9263, 0.4075980
891.4084, 0.3619950
891.8906, 3.1870001E-03
892.3727, 9.2214003E-02
892.8548, 1.7620999E-02
893.3369, 0.1678770
893.8190, 0.3683900
894.3011, 0.3231000
894.7833, 3.6883999E-02
895.2654, 4.0500000E-02
895.7475, 0.3543980
896.2296, 0.2708800
896.7117, 0.6161080
897.1938, 0.6849820
897.6760, 0.4091860
898.1581, 0.3586940
898.6402, 0.1569670
899.1223, 0.4758960
899.6044, 0.2824080
900.0865, 0.3360270
900.5687, 0.1495070
901.0508, 0.4966660
901.5329, 0.4932380
902.0150, 0.5029970
902.4971, 0.4859750
902.9792, 0.4733070
903.4614, 0.2748780
903.9435, 0.3102590
904.4256, 0.5171550
904.9077, 0.1212870
905.3898, 0.5296860
905.8719, 0.2950550
906.3541, 0.1585910
906.8362, 0.1763860
907.3183, 0.3988740
907.8004, 0.5517490
908.2825, 0.4428760
908.7646, 0.1835430
909.2468, 0.1144180
909.7289, 0.4465020
910.2110, 0.7988060
910.6931, 1.171685
911.1752, 1.565513
911.6573, 1.985491
912.1395, 2.427492
912.6216, 2.903141
913.1037, 3.413919
913.5858, 3.834791
914.0679, 3.988312
914.5500, 4.086210
915.0322, 4.240541
915.5143, 4.465493
915.9964, 4.848577
916.4785, 5.413827
916.9606, 6.091712
917.4427, 6.890141
917.9249, 7.761217
918.4070, 8.620512
918.8891, 9.449098
919.3712, 10.14311
919.8533, 10.46000
920.3354, 10.82107
920.8176, 11.59300
921.2997, 12.60948
921.7818, 13.52502
922.2639, 14.23202
922.7460, 14.92725
923.2281, 15.58067
923.7103, 16.30222
924.1924, 17.17717
924.6745, 18.25935
925.1566, 20.01651
925.6387, 22.79330
926.1208, 24.87329
926.6030, 24.24862
927.0851, 22.63887
927.5672, 21.65635
928.0493, 21.69585
928.5314, 21.95000
929.0135, 22.59311
929.4957, 23.08325
929.9778, 22.87394
930.4599, 22.13662
930.9420, 22.05425
931.4241, 22.56672
931.9063, 22.93265
932.3884, 22.52082
932.8705, 21.89839
933.3526, 21.40193
933.8347, 21.04501
934.3168, 20.77753
934.7990, 20.55501
935.2811, 20.49989
935.7632, 20.72280
936.2453, 21.07188
936.7274, 21.17289
937.2095, 21.03913
937.6917, 20.72139
938.1738, 20.15546
938.6559, 19.60283
939.1380, 19.22260
939.6201, 18.96943
940.1022, 18.80933
940.5844, 18.83632
941.0665, 18.74716
941.5486, 18.48814
942.0307, 18.19653
942.5128, 17.91666
942.9949, 17.73020
943.4771, 17.86999
943.9592, 18.31421
944.4413, 18.75170
944.9234, 19.10981
945.4055, 19.31341
945.8876, 19.13645
946.3698, 18.58467
946.8519, 18.76398
947.3340, 20.03505
947.8161, 20.99201
948.2982, 20.89433
948.7803, 20.35958
949.2625, 20.94619
949.7446, 22.33802
950.2267, 23.42341
950.7088, 23.49076
951.1909, 23.51415
951.6730, 23.69014
952.1552, 24.15829
952.6373, 25.13165
953.1194, 26.84744
953.6015, 28.10308
954.0836, 28.71634
954.5657, 29.30350
955.0479, 30.66198
955.5300, 32.51566
956.0121, 34.33877
956.4942, 36.08314
956.9763, 37.64144
957.4584, 38.90284
957.9406, 40.08763
958.4227, 41.25269
958.9048, 42.37416
959.3869, 44.16520
959.8690, 46.73304
960.3511, 49.12432
960.8333, 50.75874
961.3154, 52.07740
961.7975, 53.76555
962.2796, 55.74649
962.7617, 57.77442
963.2438, 59.83192
963.7260, 61.78873
964.2081, 63.37665
964.6902, 64.99644
965.1723, 67.27190
965.6544, 70.35924
966.1365, 72.66502
966.6187, 73.91277
967.1008, 75.04892
967.5829, 77.06660
968.0650, 79.48699
968.5471, 81.79906
969.0292, 83.93882
969.5114, 85.98582
969.9935, 88.05276
970.4756, 89.94020
970.9577, 91.57326
971.4398, 92.97231
971.9219, 94.25612
972.4041, 95.44392
972.8862, 96.83260
973.3683, 98.58353
973.8504, 100.6016
974.3325, 103.7422
974.8146, 106.9793
975.2968, 108.1081
975.7789, 105.3341
976.2610, 103.0376
976.7431, 101.6321
977.2252, 100.6941
977.7073, 99.82736
978.1895, 98.99342
978.6716, 98.07851
979.1537, 97.06551
979.6358, 95.91400
980.1179, 94.59033
980.6000, 93.12912
981.0822, 91.57201
981.5642, 89.94202
982.0463, 87.91355
982.5284, 85.37720
983.0106, 82.84772
983.4927, 80.54620
983.9748, 78.41830
984.4569, 76.44288
984.9390, 74.53792
985.4211, 72.40189
985.9033, 69.92194
986.3854, 67.17634
986.8675, 63.94999
987.3496, 60.60040
987.8317, 57.47995
988.3138, 54.55889
988.7960, 52.25037
989.2781, 50.69434
989.7602, 49.11526
990.2423, 46.55183
990.7244, 43.65278
991.2065, 41.31910
991.6887, 39.62725
992.1708, 37.76177
992.6529, 35.40022
993.1350, 33.03733
993.6171, 30.80308
994.0992, 28.70016
994.5814, 26.79792
995.0635, 25.07889
995.5456, 23.47930
996.0277, 22.05772
996.5098, 20.63598
996.9919, 19.00148
997.4741, 17.29969
997.9562, 15.74304
998.4383, 14.48061
998.9204, 13.08398
999.4025, 11.46421
999.8846, 9.909101
1000.367, 8.739797
1000.849, 7.826361
1001.331, 6.887110
1001.813, 5.898561
1002.295, 4.890634
1002.777, 3.626917
1003.259, 2.591370
1003.742, 2.203767
1004.224, 2.229737
1004.706, 1.871292
1005.188, 1.075389
1005.670, 0.3889330
1006.152, 3.6545999E-02
1006.634, 0.3043710
1007.116, 0.4223720
1007.599, 0.5239650
1008.081, 0.8415820
1008.563, 1.581907
1009.045, 1.100833
1009.527, 0.8841250
1010.009, 0.7687160
1010.491, 0.6083140
1010.973, 0.4084900
1011.455, 0.2353560
1011.938, 9.3507998E-02
1012.420, 3.3059001E-02
1012.902, 0.1488070
1013.384, 0.2982210
1013.866, 0.4571910
1014.348, 0.5686260
1014.830, 0.4391930
1015.312, 0.1059200
1015.794, 0.3430270
1016.277, 9.7374000E-02
1016.759, 0.3055340
1017.241, 0.3845230
1017.723, 0.3026800
1018.205, 0.3773630
1018.687, 0.6667250
1019.169, 1.064237
1019.651, 1.649743
1020.134, 1.418465
1020.616, 1.017685
1021.098, 0.7413730
1021.580, 0.5576610
1022.062, 0.8242090
1022.544, 0.1919330
1023.026, 1.008418
1023.508, 1.636073
1023.990, 1.506419
1024.473, 2.358468
1024.955, 2.817783
1025.437, 3.262259
1025.919, 4.254215
1026.401, 4.240629
1026.883, 5.226485
1027.365, 5.814766
1027.847, 6.586612
1028.330, 6.965577
1028.812, 7.466558
1029.294, 8.363476
1029.776, 9.042830
1030.258, 9.379478
1030.740, 10.16900
1031.222, 10.15218
1031.704, 10.84479
1032.187, 11.84523
1032.669, 12.20628
1033.151, 13.00769
1033.633, 13.64284
1034.115, 13.51846
1034.597, 14.71779
1035.079, 15.34623
1035.561, 15.38877
1036.043, 16.54610
1036.526, 17.60578
1037.008, 18.98571
1037.490, 19.68488
1037.972, 19.91720
1038.454, 20.53410
1038.936, 21.49434
1039.418, 22.62067
1039.900, 24.07533
1040.382, 25.38362
1040.865, 26.10540
1041.347, 26.60777
1041.829, 27.44002
1042.311, 28.65098
1042.793, 29.99604
1043.275, 31.50587
1043.757, 32.87833
1044.239, 33.67416
1044.722, 34.25539
1045.204, 34.95473
1045.686, 35.81124
1046.168, 37.09309
1046.650, 39.18250
1047.132, 41.10100
1047.614, 42.51762
1048.096, 43.66161
1048.578, 45.09562
1049.061, 46.74143
1049.543, 48.31032
1050.025, 49.61192
1050.507, 51.09269
1050.989, 53.22019
1051.471, 55.47238
1051.953, 57.32439
1052.435, 58.72631
1052.917, 60.55198
1053.400, 62.84122
1053.882, 65.00597
1054.364, 66.46333
1054.846, 67.75896
1055.328, 69.43484
1055.810, 71.44968
1056.292, 73.73365
1056.774, 76.49841
1057.257, 79.16496
1057.739, 81.66216
1058.221, 84.09367
1058.703, 86.55133
1059.185, 89.05870
1059.667, 91.63281
1060.149, 94.28717
1060.631, 97.03671
1061.114, 99.98637
1061.596, 102.9366
1062.078, 105.8541
1062.560, 108.6813
1063.042, 111.1626
1063.524, 113.2772
1064.006, 115.8770
1064.488, 119.3045
1064.970, 122.9835
1065.453, 126.6714
1065.935, 130.1359
1066.417, 133.0543
1066.899, 135.2014
1067.381, 137.5467
1067.863, 140.1519
1068.345, 142.7867
1068.827, 145.3087
1069.309, 147.8120
1069.792, 150.4931
1070.274, 153.2979
1070.756, 156.1250
1071.238, 159.3150
1071.720, 161.9420
1072.202, 163.5781
1072.684, 164.8278
1073.166, 166.3353
1073.649, 168.0572
1074.131, 169.4414
1074.613, 170.4496
1075.095, 171.3478
1075.577, 172.5313
1076.059, 173.5178
1076.541, 173.9824
1077.023, 173.9502
1077.505, 173.6551
1077.988, 173.1038
1078.470, 172.4898
1078.952, 171.8562
1079.434, 171.0967
1079.916, 170.0481
1080.398, 168.7986
1080.880, 167.3295
1081.362, 165.6685
1081.844, 163.9341
1082.327, 162.1992
1082.809, 160.3451
1083.291, 158.3311
1083.773, 156.1247
1084.255, 153.5045
1084.737, 150.5359
1085.219, 147.6236
1085.701, 144.9913
1086.183, 142.1798
1086.666, 138.8437
1087.148, 135.3752
1087.630, 132.1344
1088.112, 129.1445
1088.594, 125.6956
1089.076, 121.8132
1089.558, 118.0165
1090.040, 114.4843
1090.523, 111.3507
1091.005, 109.0818
1091.487, 107.1962
1091.969, 104.5599
1092.451, 100.7190
1092.933, 97.51599
1093.415, 95.23040
1093.897, 93.07731
1094.380, 90.19356
1094.862, 86.98978
1095.344, 84.07907
1095.826, 81.48470
1096.308, 78.72668
1096.790, 75.15483
1097.272, 72.22459
1097.754, 70.57571
1098.236, 69.40876
1098.719, 67.27839
1099.201, 64.42467
1099.683, 61.31996
1100.165, 57.95962
1100.647, 55.13778
1101.129, 53.65346
1101.611, 52.46102
1102.093, 51.02438
1102.575, 49.35563
1103.058, 47.44323
1103.540, 45.32356
1104.022, 43.27617
1104.504, 41.41376
1104.986, 39.64505
1105.468, 37.79930
1105.950, 36.07984
1106.432, 34.77819
1106.915, 34.12730
1107.397, 32.75097
1107.879, 30.54784
1108.361, 28.66945
1108.843, 28.38745
1109.325, 28.49406
1109.807, 27.46824
1110.289, 25.63017
1110.771, 23.87260
1111.254, 22.15549
1111.736, 21.00571
1112.218, 20.63374
1112.700, 20.39149
1113.182, 19.60802
1113.664, 18.41388
1114.146, 16.81917
1114.628, 14.96002
1115.110, 13.81405
1115.593, 14.84376
1116.075, 15.27334
1116.557, 14.15455
1117.039, 12.27756
1117.521, 11.11408
1118.003, 10.54163
1118.485, 10.06857
1118.967, 9.619894
1119.450, 9.048737
1119.932, 8.001550
1120.414, 7.075517
1120.896, 6.699440
1121.378, 6.740211
1121.860, 6.473127
1122.342, 5.913098
1122.824, 5.491785
1123.307, 5.426918
1123.789, 5.326381
1124.271, 4.783945
1124.753, 4.066721
1125.235, 3.449112
1125.717, 2.947742
1126.199, 2.461178
1126.681, 1.947525
1127.163, 1.741920
1127.646, 2.284826
1128.128, 2.936912
1128.610, 2.850239
1129.092, 2.278452
1129.574, 1.668224
1130.056, 0.8997770
1130.538, 0.5828540
1131.020, 0.8922640
1131.502, 1.161207
1131.985, 0.7169650
1132.467, 9.0600997E-02
1132.949, 0.5589720
1133.431, 0.7364890
1133.913, 0.8194140
1134.395, 0.8316350
1134.877, 0.8108600
1135.359, 0.7566830
1135.842, 0.6913800
1136.324, 0.6590210
1136.806, 0.6308180
1137.288, 0.4338230
1137.770, 8.7985002E-02
1138.252, 1.9680001E-03
1138.734, 0.6364540
1139.216, 0.2023910
1139.698, 0.2289080
1140.181, 0.4907090
1140.663, 0.7435070
1141.145, 0.9556700
1141.627, 0.8087830
1142.109, 0.2243950
1142.591, 0.3208340
1143.073, 0.5332620
1143.555, 0.5787880
1144.037, 0.5592480
1144.520, 0.5140440
1145.002, 0.3783940
1145.484, 0.1729750
1145.966, 0.2146530
1146.448, 0.3038620
1146.930, 0.1473930
1147.412, 0.1328430
1147.894, 0.1317600
1148.377, 0.3791400
1148.859, 0.1087460
1149.341, 0.4623510
1149.823, 0.6868520
1150.305, 0.7061430
1150.787, 0.3954150
1151.269, 2.1252001E-02
1151.751, 0.1931500
1152.234, 0.2484860
1152.716, 9.8011002E-02
1153.198, 0.3986500
1153.680, 0.6203350
1154.162, 0.5333210
1154.644, 0.2914900
1155.126, 0.1274670
1155.608, 6.7431003E-02
1156.090, 0.1010920
1156.573, 9.2499003E-02
1157.055, 0.1774110
1157.537, 1.0633000E-02
1158.019, 0.2137050
1158.501, 0.5497430
1158.983, 0.7982390
1159.465, 0.7459700
1159.947, 0.5208370
1160.429, 0.3039940
1160.912, 0.1267900
1161.394, 0.1000780
1161.876, 0.3726370
1162.358, 0.6772150
1162.840, 1.033272
1163.322, 1.328187
1163.804, 1.420672
1164.286, 1.305689
1164.769, 0.9654040
1165.251, 0.4611370
1165.733, 0.1687450
1166.215, 0.4153390
1166.697, 0.7076770
1167.179, 0.9347040
1167.661, 1.106234
1168.143, 1.172643
1168.625, 1.202286
1169.108, 1.367419
1169.590, 1.709471
1170.072, 1.952408
1170.554, 1.834532
1171.036, 1.711610
1171.518, 1.664368
1172.000, 1.671213
1172.482, 1.599261
1172.964, 1.490641
1173.447, 1.604336
1173.929, 2.014711
1174.411, 2.306328
1174.893, 2.144203
1175.375, 1.877970
1175.857, 1.626705
1176.339, 1.448932
1176.821, 1.672886
1177.304, 2.233352
1177.786, 2.585921
1178.268, 2.538317
1178.750, 2.425129
1179.232, 2.428239
1179.714, 2.488711
1180.196, 2.544990
1180.678, 2.605755
1181.161, 2.753979
1181.643, 2.978127
1182.125, 3.165546
1182.607, 3.285018
1183.089, 3.308317
1183.571, 3.141978
1184.053, 2.918801
1184.535, 2.764662
1185.017, 2.678530
1185.500, 2.579765
1185.982, 2.469165
1186.464, 2.425207
1186.946, 2.549116
1187.428, 2.642477
1187.910, 2.448459
1188.392, 2.200536
1188.874, 2.208753
1189.356, 2.530169
1189.839, 2.554623
1190.321, 2.271181
1190.803, 1.971364
1191.285, 1.861251
1191.767, 1.825641
1192.249, 1.714907
1192.731, 1.652891
1193.213, 1.863396
1193.696, 2.475370
1194.178, 2.666116
1194.660, 2.412108
1195.142, 2.092271
1195.624, 1.965022
1196.106, 1.869759
1196.588, 1.572539
1197.070, 1.234903
1197.552, 1.115659
1198.035, 1.279904
1198.517, 1.308740
1198.999, 1.169385
1199.481, 1.126927
1199.963, 1.546070
1200.445, 2.008517
1200.927, 2.190507
1201.409, 2.126050
1201.891, 1.905240
1202.374, 1.413249
1202.856, 1.250935
1203.338, 1.486598
1203.820, 1.763254
1204.302, 1.837579
1204.784, 1.800754
1205.266, 1.608888
1205.748, 1.325067
1206.231, 1.184717
1206.713, 1.256724
1207.195, 1.322882
1207.677, 1.378723
1208.159, 1.400595
1208.641, 1.362114
1209.123, 1.288112
1209.605, 1.123085
1210.088, 0.9204610
1210.570, 0.8881630
1211.052, 1.085176
1211.534, 0.9495730
1212.016, 0.3570390
1212.498, 0.1088420
1212.980, 0.3263810
1213.462, 0.9959320
1213.944, 1.237104
1214.427, 1.054597
1214.909, 0.9058560
1215.391, 0.8272620
1215.873, 0.8097040
1216.355, 0.8642450
1216.837, 0.8548940
1217.319, 0.4835870
1217.801, 0.1168180
1218.283, 0.1866460
1218.766, 0.6146970
1219.248, 0.7858430
1219.730, 0.7019520
1220.212, 0.4311050
1220.694, 8.5340001E-02
1221.176, 1.8830000E-03
1221.658, 0.2135690
1222.140, 0.9465050
1222.623, 0.8791390
1223.105, 0.1183930
1223.587, 0.1922260
1224.069, 4.9610000E-02
1224.551, 2.2906000E-02
1225.033, 0.3040620
1225.515, 0.3971080
1225.997, 0.1286810
1226.479, 4.4675000E-02
1226.962, 3.3900000E-02
1227.444, 0.1277270
1227.926, 0.3242960
1228.408, 0.1561980
1228.890, 0.2110540
1229.372, 0.2554570
1229.854, 0.4855160
1230.336, 0.1915520
1230.818, 0.1101280
1231.301, 0.3318300
1231.783, 0.8118630
1232.265, 0.9920830
1232.747, 0.8724400
1233.229, 0.7266170
1233.711, 0.6156080
1234.193, 0.5349850
1234.675, 0.4733490
1235.158, 8.1129998E-02
1235.640, 0.5722180
1236.122, 0.8615490
1236.604, 0.9599200
1237.086, 0.2985270
1237.568, 0.6129310
1238.050, 0.5321620
1238.532, 0.4339650
1239.015, 0.8731590
1239.497, 0.3100930
1239.979, 0.7338890
1240.461, 0.7516760
1240.943, 0.9477080
1241.425, 0.7629020
1241.907, 0.7082150
1242.389, 0.5974800
1242.871, 0.3737910
1243.354, 0.2658730
1243.836, 0.2221050
1244.318, 0.2003560
1244.800, 0.2137570
1245.282, 0.1763510
1245.764, 0.1071070
1246.246, 0.1630850
1246.728, 0.4678270
1247.210, 0.7235400
1247.693, 0.8304800
1248.175, 0.8438110
1248.657, 0.7716280
1249.139, 0.6217250
1249.621, 0.3375760
1250.103, 2.0993000E-02
1250.585, 5.5645000E-02
1251.067, 0.2456740
1251.550, 0.5911460
1252.032, 0.8413560
1252.514, 1.069407
1252.996, 1.372484
1253.478, 1.607230
1253.960, 1.368838
1254.442, 0.8794080
1254.924, 0.5390050
1255.406, 0.5052300
1255.889, 0.6666990
1256.371, 0.9397290
1256.853, 1.185743
1257.335, 1.430859
1257.817, 1.466723
1258.299, 0.9457780
1258.781, 0.2015680
1259.263, 0.1714520
1259.745, 1.2238000E-02
1260.228, 0.3206780
1260.710, 0.8104620
1261.192, 1.259617
1261.674, 1.598519
1262.156, 1.786129
1262.638, 1.774525
1263.120, 1.600463
1263.602, 1.336716
1264.085, 0.9865340
1264.567, 0.5245950
1265.049, 7.3772997E-02
1265.531, 1.0250000E-02
1266.013, 2.7683999E-02
1266.495, 0.1651240
1266.977, 0.2211540
1267.459, 0.5820230
1267.942, 0.6456290
1268.424, 4.2148001E-02
1268.906, 0.5176280
1269.388, 0.7831380
1269.870, 0.8287260
1270.352, 0.1415690
1270.834, 0.4462310
1271.316, 0.3607170
1271.798, 0.2551480
1272.281, 0.6841500
1272.763, 0.1151040
1273.245, 0.5511840
1273.727, 0.5905170
1274.209, 0.7563730
1274.691, 0.5640320
1275.173, 0.5113700
1275.655, 0.8533060
1276.137, 0.9762360
1276.620, 0.7552640
1277.102, 0.9569950
1277.584, 0.2586430
1278.066, 0.3135450
1278.548, 0.7420470
1279.030, 0.5184740
1279.512, 0.7460220
1279.994, 0.7965900
1280.476, 8.6038001E-02
1280.959, 0.6957590
1281.441, 0.7406210
1281.923, 0.1998440
1282.405, 0.7707420
1282.887, 0.3054400
1283.369, 0.2116060
1283.851, 0.4067060
1284.333, 0.3140400
1284.816, 0.6723600
1285.298, 0.9269270
1285.780, 1.407176
1286.262, 0.8818640
1286.744, 3.5707999E-02
1287.226, 7.8969998E-03
1287.708, 0.9919400
1288.190, 0.8663140
1288.672, 0.0000000E+00
##END=



