##NAMES=Zemannite
##RRUFFID=R050273
##IDEAL CHEMISTRY=Mg_0.5_ZnFe^3+^(Te^4+^O_3_)_3_&#183;4.5H_2_O
##LOCALITY=Mina Bambollita, Moctezuma, Sonora, Mexico
##OWNER=RRUFF
##SOURCE=Marcus Origlieri
##DESCRIPTION=Dark reddish-brown hexagonal prisms
##STATUS=The identification of this mineral has been confirmed by single-crystal X-ray diffraction.
##URL=rruff.info/R050273
81.304, 0.000
82.701, 25.917
84.099, 28.917
85.496, 133.665
86.892, 387.127
88.289, 791.628
89.685, 1329.385
91.081, 1906.364
92.477, 2463.595
93.873, 3293.425
95.268, 3852.249
96.663, 4718.175
98.058, 5040.651
99.453, 5673.322
100.848, 5802.049
102.242, 5626.871
103.636, 5196.978
105.030, 4875.701
106.423, 4596.723
107.817, 4150.899
109.210, 3904.008
110.603, 3578.777
111.996, 3489.806
113.388, 3284.636
114.780, 3239.884
116.172, 3270.235
117.564, 3004.430
118.956, 3217.245
120.347, 3046.496
121.738, 3528.025
123.129, 3595.697
124.519, 3883.368
125.910, 3960.922
127.300, 4254.267
128.690, 4416.672
130.080, 4594.548
131.469, 4830.184
132.858, 4769.711
134.248, 4781.045
135.636, 4804.139
137.025, 4525.811
138.413, 4488.672
139.801, 3991.277
141.189, 3792.867
142.577, 3432.168
143.964, 3232.188
145.352, 2969.962
146.739, 2653.512
148.125, 2507.864
149.512, 2283.037
150.898, 2103.049
152.284, 2051.912
153.670, 1906.641
155.056, 1764.244
156.441, 1572.733
157.827, 1562.117
159.212, 1463.408
160.596, 1512.619
161.981, 1368.764
163.365, 1419.853
164.749, 1325.795
166.133, 1364.355
167.517, 1339.680
168.900, 1254.863
170.283, 1346.967
171.666, 1441.035
173.049, 1335.102
174.431, 1348.487
175.813, 1173.792
177.195, 1390.877
178.577, 1334.633
179.959, 1370.565
181.340, 1351.548
182.721, 1347.903
184.102, 1385.354
185.483, 1411.833
186.863, 1478.153
188.244, 1540.330
189.624, 1621.887
191.003, 1705.383
192.383, 1762.522
193.762, 1810.410
195.141, 1965.949
196.520, 2057.796
197.899, 2035.143
199.277, 2064.048
200.656, 2206.334
202.034, 2281.468
203.411, 2474.741
204.789, 2445.148
206.166, 2562.687
207.543, 2579.348
208.920, 2611.131
210.297, 2513.029
211.673, 2532.040
213.049, 2592.154
214.425, 2427.358
215.801, 2525.646
217.176, 2488.008
218.552, 2414.436
219.927, 2330.921
221.302, 2266.229
222.676, 2194.193
224.051, 2147.664
225.425, 2015.331
226.799, 2037.037
228.173, 1858.785
229.546, 1917.572
230.919, 1741.403
232.292, 1693.286
233.665, 1563.224
235.038, 1470.230
236.410, 1480.327
237.782, 1324.557
239.154, 1229.909
240.526, 1089.393
241.898, 1099.994
243.269, 957.690
244.640, 941.475
246.011, 847.300
247.381, 776.873
248.752, 793.622
250.122, 602.206
251.492, 599.754
252.861, 430.482
254.231, 437.186
255.600, 318.716
256.969, 254.954
258.338, 299.809
259.707, 176.205
261.075, 208.080
262.443, 109.380
263.811, 36.060
265.179, 69.079
266.546, 54.596
267.914, 29.993
269.281, 120.167
270.647, 154.127
272.014, 200.914
273.380, 309.560
274.747, 212.109
276.113, 284.559
277.478, 172.940
278.844, 137.243
280.209, 140.472
281.574, 160.637
282.939, 159.754
284.304, 76.831
285.668, 157.856
287.032, 93.855
288.396, 204.821
289.760, 191.782
291.123, 144.743
292.487, 174.696
293.850, 124.655
295.212, 150.620
296.575, 134.611
297.937, 147.633
299.300, 144.699
300.662, 98.817
302.023, 172.985
303.385, 57.226
304.746, 132.516
306.107, 96.875
307.468, 83.295
308.829, 108.770
310.189, 6.307
311.549, 22.881
312.909, 25.502
314.269, 99.855
315.629, 58.191
316.988, 102.503
318.347, 158.798
319.706, 195.080
321.065, 235.352
322.423, 303.612
323.781, 332.532
325.139, 379.994
326.497, 422.335
327.855, 470.557
329.212, 540.770
330.569, 612.975
331.926, 669.176
333.283, 733.575
334.639, 745.561
335.995, 864.746
337.351, 931.927
338.707, 1030.079
340.063, 1145.178
341.418, 1071.128
342.773, 1219.866
344.128, 1187.416
345.483, 1346.843
346.837, 1409.132
348.192, 1502.312
349.546, 1534.356
350.899, 1647.252
352.253, 1750.009
353.606, 1795.633
354.960, 1889.119
356.313, 2048.474
357.665, 2031.723
359.018, 2334.870
360.370, 2326.933
361.722, 2438.948
363.074, 2548.956
364.426, 2587.969
365.777, 2801.995
367.128, 2771.034
368.479, 2753.086
369.830, 2953.148
371.181, 2892.222
372.531, 2961.306
373.881, 2804.399
375.231, 2806.504
376.581, 2731.616
377.930, 2687.737
379.280, 2807.961
380.629, 2622.961
381.977, 2661.106
383.326, 2566.681
384.674, 2512.355
386.023, 2575.744
387.370, 2597.836
388.718, 2583.857
390.066, 2576.878
391.413, 2552.523
392.760, 2510.300
394.107, 2458.187
395.454, 2448.127
396.800, 2415.461
398.146, 2491.573
399.492, 2326.096
400.838, 2400.900
402.184, 2360.122
403.529, 2305.025
404.874, 2436.956
406.219, 2298.181
407.564, 2494.599
408.908, 2415.414
410.252, 2383.023
411.596, 2458.650
412.940, 2384.589
414.284, 2531.291
415.627, 2669.825
416.970, 2616.241
418.313, 2742.669
419.656, 2809.105
420.999, 2935.548
422.341, 3009.995
423.683, 3164.442
425.025, 3284.888
426.367, 3368.332
427.708, 3609.772
429.049, 3642.779
430.390, 3913.207
431.731, 4080.759
433.072, 4363.447
434.412, 4475.480
435.752, 4755.407
437.092, 5022.438
438.432, 5195.333
439.772, 5587.101
441.111, 5888.619
442.450, 6152.764
443.789, 6655.618
445.127, 6798.329
446.466, 7305.289
447.804, 7687.718
449.142, 8013.440
450.480, 8532.938
451.817, 8722.958
453.155, 9175.351
454.492, 9645.932
455.829, 9889.055
457.166, 10230.585
458.502, 10272.810
459.838, 10724.153
461.175, 10575.482
462.510, 10579.146
463.846, 10598.608
465.181, 10054.206
466.517, 10125.552
467.852, 9538.681
469.186, 9172.397
470.521, 8854.582
471.855, 8322.195
473.190, 7918.764
474.523, 7257.754
475.857, 6949.151
477.191, 6589.250
478.524, 5970.541
479.857, 5712.679
481.190, 5167.856
482.523, 4867.034
483.855, 4676.211
485.187, 4196.387
486.519, 3815.563
487.851, 3511.739
489.183, 3320.916
490.514, 3005.093
491.845, 2847.271
493.176, 2692.448
494.507, 2418.625
495.837, 2304.804
497.168, 2119.624
498.498, 1951.164
499.828, 1795.346
501.157, 1633.528
502.487, 1437.713
503.816, 1342.901
505.145, 1322.093
506.474, 1149.290
507.802, 1088.492
509.131, 1106.701
510.459, 858.916
511.787, 772.138
513.115, 784.368
514.442, 654.607
515.770, 647.856
517.097, 508.116
518.424, 612.385
519.750, 423.667
521.077, 440.959
522.403, 407.264
523.729, 280.582
525.055, 387.911
526.381, 220.252
527.706, 205.606
529.031, 248.972
530.356, 100.351
531.681, 202.741
533.006, 150.143
534.330, 102.559
535.654, 149.986
536.978, 13.427
538.302, 69.869
539.625, 16.322
540.949, 107.779
542.272, 16.752
543.595, 1.295
544.917, 50.159
546.240, 27.372
547.562, 60.917
548.884, 57.487
550.206, 94.084
551.527, 41.729
552.849, 61.395
554.170, 63.078
555.491, 121.787
556.812, 50.533
558.132, 41.300
559.453, 64.064
560.773, 20.841
562.093, 84.625
563.412, 1.559
564.732, 89.757
566.051, 45.018
567.370, 52.793
568.689, 13.433
570.008, 13.675
571.326, 1.062
572.644, 9.219
573.963, 24.532
575.280, 58.865
576.598, 44.229
577.915, 146.625
579.233, 116.034
580.550, 208.479
581.866, 146.951
583.183, 305.441
584.499, 269.952
585.815, 300.483
587.131, 387.031
588.447, 444.605
589.763, 487.195
591.078, 533.829
592.393, 563.516
593.708, 769.270
595.022, 686.119
596.337, 922.037
597.651, 933.054
598.965, 982.131
600.279, 1134.269
601.593, 1200.471
602.906, 1397.733
604.219, 1472.071
605.532, 1626.452
606.845, 1742.894
608.158, 1898.385
609.470, 2119.950
610.782, 2147.592
612.094, 2353.296
613.406, 2472.070
614.718, 2515.916
616.029, 2891.829
617.340, 2956.804
618.651, 3127.844
619.962, 3441.949
621.272, 3507.113
622.582, 3741.351
623.892, 3940.638
625.202, 4080.989
626.512, 4458.398
627.821, 4473.861
629.131, 4870.387
630.440, 4973.953
631.749, 5207.561
633.057, 5559.202
634.366, 5615.867
635.674, 5804.557
636.982, 6010.267
638.290, 5965.000
639.597, 6339.746
640.905, 6154.509
642.212, 6389.293
643.519, 6244.093
644.825, 6508.910
646.132, 6553.741
647.438, 6398.591
648.744, 6513.456
650.050, 6448.337
651.356, 6453.235
652.662, 6208.147
653.967, 5993.075
655.272, 6048.018
656.577, 5877.977
657.882, 5795.951
659.186, 5770.940
660.490, 5351.944
661.794, 5391.965
663.098, 5233.003
664.402, 5053.056
665.705, 4926.123
667.009, 4752.204
668.312, 4769.304
669.614, 4479.416
670.917, 4592.544
672.219, 4371.688
673.522, 4180.846
674.824, 4237.021
676.125, 4012.207
677.427, 4076.409
678.728, 4187.622
680.030, 3921.851
681.331, 4034.094
682.631, 3917.351
683.932, 4098.622
685.232, 4168.904
686.532, 4016.202
687.832, 4383.511
689.132, 4141.832
690.432, 4470.167
691.731, 4502.515
693.030, 4502.143
694.329, 4739.513
695.628, 4613.951
696.926, 4784.509
698.224, 4994.915
699.522, 4964.209
700.820, 5244.157
702.118, 5262.622
703.415, 5512.358
704.713, 5675.712
706.010, 5717.159
707.307, 6025.951
708.603, 6074.301
709.900, 6352.967
711.196, 6694.747
712.492, 6687.319
713.788, 7239.797
715.083, 7256.898
716.379, 7501.643
717.674, 7985.623
718.969, 7936.967
720.264, 8603.969
721.558, 8672.739
722.853, 9019.178
724.147, 9516.470
725.441, 9573.191
726.735, 10260.804
728.028, 10219.083
729.322, 10499.884
730.615, 10987.175
731.908, 10837.311
733.201, 11256.957
734.493, 11283.216
735.785, 11464.089
737.078, 11462.913
738.370, 11299.625
739.661, 11537.229
740.953, 11034.544
742.244, 10760.959
743.535, 10776.982
744.826, 10293.206
746.117, 9959.434
747.407, 9616.302
748.698, 9113.146
749.988, 8718.374
751.278, 8247.364
752.567, 7787.412
753.857, 7333.584
755.146, 6861.872
756.435, 6500.313
757.724, 6089.856
759.013, 5841.829
760.301, 5492.154
761.590, 5046.629
762.878, 4872.245
764.165, 4550.673
765.453, 4270.268
766.741, 4100.542
768.028, 3743.208
769.315, 3661.614
770.602, 3428.254
771.888, 3308.626
773.175, 2990.991
774.461, 2839.055
775.747, 2854.919
777.033, 2587.338
778.319, 2435.896
779.604, 2387.816
780.889, 2154.141
782.174, 2046.298
783.459, 1965.203
784.744, 1813.812
786.028, 1822.007
787.312, 1682.209
788.596, 1656.545
789.880, 1467.719
791.164, 1417.656
792.447, 1458.394
793.730, 1243.322
795.013, 1274.948
796.296, 1271.602
797.579, 1195.391
798.861, 1127.932
800.143, 1058.800
801.425, 1064.918
802.707, 953.375
803.989, 953.190
805.270, 969.524
806.551, 833.169
807.832, 891.972
809.113, 791.090
810.394, 763.881
811.674, 747.836
812.954, 750.882
814.234, 713.724
815.514, 659.915
816.794, 627.913
818.073, 539.675
819.352, 527.678
820.631, 510.245
821.910, 503.569
823.189, 430.162
824.467, 459.172
825.745, 375.105
827.023, 377.810
828.301, 358.873
829.578, 346.374
830.856, 386.997
832.133, 303.669
833.410, 257.268
834.687, 254.955
835.963, 162.738
837.240, 226.344
838.516, 180.989
839.792, 163.504
841.068, 171.794
842.343, 93.154
843.618, 125.724
844.894, 146.982
846.169, 5.324
847.443, 128.478
848.718, 18.944
849.992, 39.118
851.266, 76.275
852.540, 8.631
853.814, 39.950
855.088, 15.946
856.361, 21.230
857.634, 22.767
858.907, 1.445
860.180, 60.791
861.453, 6.093
862.725, 38.535
863.997, 8.631
865.269, 74.553
866.541, 4.619
867.812, 68.604
869.084, 50.798
870.355, 16.973
871.626, 12.761
872.897, 22.984
874.167, 39.274
875.438, 52.295
876.708, 71.677
877.978, 10.054
879.248, 23.276
880.517, 37.717
881.787, 73.103
883.056, 13.624
884.325, 56.288
885.594, 48.015
886.862, 19.200
888.130, 66.589
889.399, 33.473
890.667, 0.592
891.934, 13.172
893.202, 8.174
894.469, 15.113
895.737, 56.004
897.004, 33.896
898.270, 35.052
899.537, 0.959
900.803, 1.758
902.070, 15.362
903.336, 22.357
904.601, 45.865
905.867, 50.762
907.132, 19.640
908.398, 21.773
909.663, 17.792
910.928, 45.666
912.192, 37.941
913.457, 25.319
914.721, 14.720
915.985, 30.033
917.249, 6.687
918.512, 47.550
919.776, 12.757
921.039, 35.072
922.302, 15.230
923.565, 37.309
924.827, 38.404
926.090, 74.495
927.352, 6.479
928.614, 33.491
929.876, 22.404
931.138, 100.282
932.399, 43.224
933.660, 63.041
934.922, 102.005
936.182, 17.885
937.443, 57.611
938.704, 56.403
939.964, 40.065
941.224, 58.693
942.484, 88.290
943.744, 9.857
945.003, 87.430
946.262, 43.930
947.521, 4.409
948.780, 116.016
950.039, 19.414
951.298, 93.774
952.556, 59.175
953.814, 24.473
955.072, 100.735
956.330, 32.996
957.587, 137.193
958.845, 97.360
960.102, 53.498
961.359, 95.709
962.615, 70.782
963.872, 58.822
965.128, 82.152
966.384, 39.127
967.640, 61.068
968.896, 88.242
970.152, 78.118
971.407, 88.971
972.662, 23.800
973.917, 117.580
975.172, 51.608
976.427, 59.329
977.681, 85.170
978.935, 40.825
980.189, 124.446
981.443, 92.182
982.697, 82.783
983.950, 91.311
985.203, 77.628
986.456, 64.441
987.709, 83.980
988.962, 77.438
990.214, 93.810
991.467, 144.413
992.719, 123.748
993.971, 79.028
995.222, 140.370
996.474, 116.589
997.725, 156.507
998.976, 83.705
1000.227, 144.694
1001.478, 145.986
1002.728, 94.148
1003.978, 100.910
1005.229, 150.133
1006.479, 124.888
1007.728, 164.656
1008.978, 85.072
1010.227, 103.419
1011.476, 90.458
1012.725, 78.878
1013.974, 175.888
1015.223, 132.072
1016.471, 154.673
1017.719, 132.733
1018.967, 177.789
1020.215, 196.712
1021.462, 57.201
1022.710, 156.392
1023.957, 179.896
1025.204, 83.609
1026.451, 166.157
1027.697, 138.583
1028.944, 92.693
1030.190, 132.936
1031.436, 106.408
1032.682, 117.433
1033.928, 154.161
1035.173, 179.085
1036.418, 170.183
1037.663, 128.264
1038.908, 133.445
1040.153, 132.610
1041.398, 78.191
1042.642, 123.538
1043.886, 154.279
1045.130, 50.892
1046.374, 128.763
1047.617, 54.584
1048.860, 107.471
1050.104, 168.442
1051.347, 95.731
1052.589, 153.704
1053.832, 100.055
1055.074, 122.227
1056.316, 149.798
1057.558, 40.316
1058.800, 98.667
1060.042, 95.798
1061.283, 63.450
1062.524, 206.923
1063.765, 97.063
1065.006, 114.281
1066.247, 148.411
1067.487, 117.354
1068.728, 159.776
1069.968, 118.595
1071.208, 59.842
1072.447, 186.636
1073.687, 92.671
1074.926, 85.713
1076.165, 106.003
1077.404, 87.550
1078.643, 139.486
1079.881, 123.199
1081.120, 80.738
1082.358, 119.630
1083.596, 59.660
1084.834, 74.102
1086.071, 113.625
1087.309, 78.716
1088.546, 147.587
1089.783, 139.295
1091.020, 132.426
1092.256, 149.524
1093.493, 89.839
1094.729, 147.234
1095.965, 96.845
1097.201, 55.828
1098.436, 143.318
1099.672, 119.573
1100.907, 81.796
1102.142, 196.417
1103.377, 111.670
1104.612, 90.735
1105.846, 145.103
1107.081, 111.071
1108.315, 137.127
1109.549, 70.661
1110.782, 97.387
1112.016, 143.917
1113.249, 18.323
1114.483, 156.211
1115.716, 109.567
1116.948, 30.923
1118.181, 117.613
1119.413, 92.066
1120.646, 91.835
1121.878, 135.772
1123.110, 27.367
1124.341, 111.890
1125.573, 57.076
1126.804, 112.564
1128.035, 128.052
1129.266, 58.572
1130.497, 83.269
1131.727, 95.736
1132.957, 53.054
1134.188, 130.515
1135.418, 67.854
1136.647, 79.061
1137.877, 93.501
1139.106, 28.822
1140.335, 85.420
1141.564, 110.068
1142.793, 68.332
1144.022, 104.917
1145.250, 112.663
1146.479, 81.146
1147.707, 144.063
1148.934, 41.433
1150.162, 71.855
1151.390, 122.468
1152.617, 39.521
1153.844, 166.229
1155.071, 106.573
1156.298, 44.067
1157.524, 164.172
1158.751, 56.335
1159.977, 113.261
1161.203, 85.412
1162.428, 3.061
1163.654, 124.301
1164.879, 57.346
1166.105, 46.680
1167.330, 129.424
1168.555, 37.037
1169.779, 158.772
1171.004, 153.525
1172.228, 25.885
1173.452, 177.079
1174.676, 60.769
1175.900, 90.945
1177.123, 86.123
1178.346, 40.551
1179.570, 81.596
1180.793, 76.072
1182.015, 119.479
1183.238, 109.774
1184.460, 89.797
1185.683, 83.064
1186.905, 116.284
1188.126, 16.889
1189.348, 118.886
1190.569, 64.494
1191.791, 67.098
1193.012, 135.042
1194.233, 55.277
1195.453, 33.173
1196.674, 130.232
1197.894, 21.283
1199.114, 68.304
1200.334, 162.510
1201.554, 22.618
1202.774, 101.710
1203.993, 75.124
1205.212, 72.910
1206.431, 114.917
1207.650, 15.301
1208.869, 55.556
1210.087, 93.598
1211.305, 35.697
1212.524, 186.715
1213.741, 95.881
1214.959, 50.912
1216.177, 154.901
1217.394, 48.941
1218.611, 127.774
1219.828, 95.742
1221.045, 88.880
1222.261, 141.750
1223.478, 74.731
1224.694, 81.615
1225.910, 129.528
1227.126, 43.957
1228.342, 119.754
1229.557, 130.632
1230.772, 17.450
1231.987, 165.273
1233.202, 52.164
1234.417, 122.064
1235.631, 100.873
1236.846, 25.672
1238.060, 83.618
1239.274, 71.392
1240.488, 7.112
1241.701, 157.866
1242.915, 65.596
1244.128, 1.235
1245.341, 123.964
1246.554, 17.686
1247.767, 98.084
1248.979, 129.788
1250.191, 48.487
1251.403, 83.199
1252.615, 130.879
1253.827, 30.545
1255.039, 72.202
1256.250, 112.737
1257.461, 100.397
1258.672, 119.020
1259.883, 22.312
1261.094, 58.101
1262.304, 173.691
1263.514, 65.006
1264.724, 161.689
1265.934, 14.760
1267.144, 86.758
1268.354, 110.282
1269.563, 16.501
1270.772, 115.979
1271.981, 70.289
1273.190, 0.242
1274.398, 173.111
1275.607, 18.389
1276.815, 51.758
1278.023, 149.157
1279.231, 13.639
1280.439, 30.809
1281.646, 109.041
1282.853, 22.311
1284.060, 73.887
1285.267, 52.922
1286.474, 18.185
1287.681, 48.603
1288.887, 37.770
1290.093, 0.012
1291.299, 69.389
1292.505, 38.434
1293.711, 75.751
1294.916, 59.714
1296.121, 49.206
1297.327, 134.718
1298.531, 2.614
1299.736, 42.724
1300.941, 42.824
1302.145, 10.292
1303.349, 55.781
1304.553, 112.689
1305.757, 20.743
1306.961, 13.752
1308.164, 55.386
1309.367, 20.607
1310.570, 36.230
1311.773, 2.012
1312.976, 15.974
1314.178, 125.692
1315.381, 47.368
1316.583, 61.530
1317.785, 24.128
1318.987, 13.999
1320.188, 109.712
1321.390, 44.539
1322.591, 25.333
1323.792, 113.923
1324.993, 14.673
1326.193, 45.386
1327.394, 73.163
1328.594, 3.073
1329.794, 70.646
1330.994, 89.386
1332.194, 10.100
1333.394, 118.475
1334.593, 6.158
1335.792, 6.705
1336.991, 70.247
1338.190, 7.111
1339.389, 78.350
1340.587, 100.708
1341.786, 4.700
1342.984, 81.568
1344.182, 63.021
1345.379, 7.428
1346.577, 160.803
1347.774, 15.325
1348.972, 79.750
1350.169, 111.156
1351.365, 2.357
1352.562, 87.145
1353.759, 88.440
1354.955, 54.882
1356.151, 136.071
1357.347, 46.924
1358.543, 77.339
1359.738, 114.557
1360.934, 68.949
1362.129, 73.139
1363.324, 165.512
1364.519, 27.900
1365.713, 108.229
1366.908, 70.574
1368.102, 75.827
1369.296, 210.102
1370.490, 2.443
1371.684, 86.521
1372.877, 114.806
1374.071, 8.917
1375.264, 98.162
1376.457, 65.418
1377.650, 36.482
1378.843, 128.724
1380.035, 123.962
1381.227, 40.075
1382.419, 225.267
1383.611, 116.247
1384.803, 100.896
1385.995, 138.347
1387.186, 58.034
1388.377, 90.024
1389.568, 161.730
1390.759, 16.601
1391.950, 232.234
1393.140, 127.164
1394.331, 64.573
1395.521, 151.330
1396.711, 100.839
1397.900, 109.654
1399.090, 167.955
1400.279, 68.089
1401.469, 156.502
1402.658, 167.064
1403.847, 28.033
1405.035, 147.406
1406.224, 125.800
1407.412, 46.863
1408.600, 171.621
1409.788, 105.613
1410.976, 122.941
1412.164, 143.062
1413.351, 108.724
1414.538, 103.457
1415.725, 61.727
1416.912, 5.709
1418.099, 168.084
1419.285, 79.522
1420.472, 74.428
1421.658, 168.770
1422.844, 31.649
1424.030, 89.628
1425.215, 160.475
1426.401, 2.911
1427.586, 86.841
1428.771, 104.881
1429.956, 19.456
1431.141, 199.329
1432.325, 89.679
1433.510, 16.686
1434.694, 120.253
1435.878, 50.368
1437.062, 108.826
1438.245, 180.753
1439.429, 8.595
1440.612, 96.137
1441.795, 108.794
1442.978, 73.646
1444.161, 139.351
1445.343, 118.815
1446.526, 49.575
1447.708, 214.360
1448.890, 71.202
1450.072, 63.672
1451.253, 196.314
1452.435, 93.703
1453.616, 102.100
1454.797, 200.788
1455.978, 74.449
1457.159, 146.904
1458.340, 113.766
1459.520, 193.229
1460.700, 169.688
1461.880, 340.918
1463.060, 68.219
1464.240, 255.544
1465.420, 74.398
1466.599, 74.384
1467.778, 175.639
1468.957, 87.927
1470.136, 181.245
1471.315, 147.119
1472.493, 11.393
1473.671, 234.695
1474.849, 121.779
1476.027, 57.367
1477.205, 200.693
1478.383, 29.571
1479.560, 170.440
1480.737, 177.778
1481.914, 66.118
1483.091, 147.802
1484.268, 206.045
1485.444, 32.260
1486.621, 184.442
1487.797, 63.652
1488.973, 99.872
1490.149, 194.071
1491.324, 100.238
1492.500, 87.514
1493.675, 220.780
1494.850, 29.037
1496.025, 81.312
1497.200, 164.588
1498.374, 9.086
1499.548, 35.952
1500.723, 115.349
1501.897, 88.778
1503.071, 145.248
1504.244, 89.805
1505.418, 6.475
1506.591, 144.196
1507.764, 48.977
1508.937, 13.832
1510.110, 183.767
1511.282, 8.802
1512.455, 67.114
1513.627, 130.922
1514.799, 50.776
1515.971, 134.261
1517.143, 57.039
1518.314, 14.277
1519.486, 122.691
1520.657, 68.337
1521.828, 0.398
1522.999, 174.756
1524.169, 0.000
##END=



