##NAMES=Zincroselite
##RRUFFID=R100192
##IDEAL CHEMISTRY=Ca_2_Zn^2+^(As^5+^O_4_)_2_&#183;2H_2_O
##LOCALITY=Tsumeb, Namibia
##OWNER=RRUFF
##SOURCE=William W Pinch
##DESCRIPTION=Colorless, lathlike, elongated and striated, associated with tennantite ore. Cotype specimen from John Innes
##STATUS=The identification of this mineral has been confirmed by single-crystal X-ray diffraction.
##URL=rruff.info/R100192
##MEASURED CHEMISTRY=Ca_2.06_(Zn_0.90_Mn_0.06_Mg_0.05_Fe_0.01_)(As_0.99_O_4_)_2_Â·2H_2_O
130.1390, 0.0000000E+00
130.6211, 2.251740
131.1032, 4.483551
131.5854, 5.932007
132.0675, 3.790131
132.5496, 0.8425600
133.0317, 0.7606810
133.5138, 1.220154
133.9959, 1.089966
134.4781, 0.2977290
134.9602, 0.9183960
135.4423, 1.974121
135.9244, 3.431580
136.4065, 6.100281
136.8886, 10.59344
137.3708, 16.78888
137.8529, 22.63226
138.3350, 27.53381
138.8171, 32.64240
139.2992, 38.24500
139.7813, 44.28235
140.2635, 50.74640
140.7456, 57.80096
141.2277, 65.76990
141.7098, 70.93530
142.1919, 71.36829
142.6740, 71.23016
143.1561, 72.70386
143.6383, 75.94067
144.1204, 79.76282
144.6025, 82.91431
145.0846, 85.20801
145.5667, 88.32971
146.0488, 92.60492
146.5310, 97.60950
147.0131, 102.9177
147.4952, 108.4678
147.9773, 114.3139
148.4594, 120.5557
148.9415, 127.1340
149.4237, 134.3429
149.9058, 142.1498
150.3879, 150.6543
150.8700, 160.0432
151.3521, 170.6189
151.8342, 181.9542
152.3164, 193.6946
152.7985, 205.7797
153.2806, 218.1988
153.7627, 230.5939
154.2448, 242.9576
154.7269, 256.5574
155.2091, 271.8903
155.6912, 288.3600
156.1733, 305.6414
156.6554, 323.7866
157.1375, 342.9307
157.6196, 363.8177
158.1018, 387.8078
158.5839, 409.4214
159.0660, 428.4464
159.5481, 445.3650
160.0302, 460.3224
160.5123, 473.3630
160.9945, 484.4246
161.4766, 493.4038
161.9587, 501.0848
162.4408, 504.9510
162.9229, 503.1001
163.4050, 498.7117
163.8871, 494.2570
164.3693, 490.6838
164.8514, 488.0032
165.3335, 486.2911
165.8156, 485.2233
166.2977, 485.5935
166.7798, 487.4609
167.2620, 490.8201
167.7441, 495.5187
168.2262, 501.3588
168.7083, 508.8064
169.1904, 519.3242
169.6725, 533.4045
170.1547, 548.6666
170.6368, 564.5804
171.1189, 581.0034
171.6010, 597.3263
172.0831, 612.8860
172.5652, 628.5411
173.0474, 646.0961
173.5295, 666.0965
174.0116, 686.8453
174.4937, 707.3476
174.9758, 727.6503
175.4579, 747.0752
175.9401, 764.2924
176.4222, 781.0924
176.9043, 799.3067
177.3864, 819.5422
177.8685, 840.5980
178.3506, 861.1813
178.8328, 881.2838
179.3149, 901.0546
179.7970, 921.1230
180.2791, 940.7441
180.7612, 959.1190
181.2433, 976.1032
181.7255, 991.6956
182.2076, 1006.193
182.6897, 1020.765
183.1718, 1031.587
183.6539, 1038.378
184.1360, 1041.669
184.6181, 1041.769
185.1003, 1038.788
185.5824, 1032.977
186.0645, 1025.287
186.5466, 1015.257
187.0287, 1003.489
187.5108, 990.6222
187.9930, 975.8646
188.4751, 958.5013
188.9572, 938.0322
189.4393, 914.8709
189.9214, 891.4012
190.4035, 869.6324
190.8857, 845.4570
191.3678, 818.5726
191.8499, 788.9210
192.3320, 756.2029
192.8141, 719.9726
193.2962, 680.4893
193.7784, 639.5319
194.2605, 595.1618
194.7426, 551.9581
195.2247, 510.9699
195.7068, 472.1545
196.1889, 435.0179
196.6711, 399.1298
197.1532, 364.9050
197.6353, 333.4927
198.1174, 304.0206
198.5995, 277.6173
199.0816, 255.3946
199.5638, 236.9134
200.0459, 219.9420
200.5280, 203.1476
201.0101, 187.1282
201.4922, 173.2122
201.9743, 161.7048
202.4565, 151.6573
202.9386, 142.6594
203.4207, 134.7787
203.9028, 127.3802
204.3849, 119.9990
204.8670, 112.9275
205.3492, 106.8009
205.8313, 102.1461
206.3134, 98.09027
206.7955, 93.66791
207.2776, 88.82867
207.7597, 83.89319
208.2419, 78.71545
208.7240, 73.61102
209.2061, 68.96976
209.6882, 64.95804
210.1703, 61.36130
210.6524, 57.82913
211.1346, 54.38580
211.6167, 51.00714
212.0988, 47.79199
212.5809, 44.60092
213.0630, 41.32428
213.5451, 37.96841
214.0273, 34.39621
214.5094, 30.09882
214.9915, 23.91644
215.4736, 19.22113
215.9557, 17.57550
216.4378, 17.05450
216.9200, 15.60971
217.4021, 12.31647
217.8842, 7.996185
218.3663, 4.978485
218.8484, 3.894623
219.3305, 3.391235
219.8127, 3.848297
220.2948, 4.525940
220.7769, 4.596619
221.2590, 3.683319
221.7411, 2.134918
222.2232, 0.9743350
222.7054, 0.2400210
223.1875, 7.0343003E-02
223.6696, 0.2563480
224.1517, 0.9248350
224.6338, 1.654388
225.1159, 2.322357
225.5980, 2.902222
226.0802, 3.311798
226.5623, 3.176300
227.0444, 3.318848
227.5265, 4.174408
228.0086, 5.235413
228.4907, 5.716827
228.9729, 5.254517
229.4550, 4.352325
229.9371, 4.359070
230.4192, 5.769958
230.9013, 7.239014
231.3834, 8.394470
231.8656, 9.525055
232.3477, 11.12314
232.8298, 13.41913
233.3119, 16.09113
233.7940, 18.50171
234.2761, 20.74518
234.7583, 22.60297
235.2404, 23.67212
235.7225, 24.36639
236.2046, 25.43369
236.6867, 27.16245
237.1688, 29.25403
237.6510, 31.30661
238.1331, 33.38629
238.6152, 35.16061
239.0973, 36.20612
239.5794, 36.88437
240.0615, 38.14566
240.5437, 40.56931
241.0258, 42.95789
241.5079, 43.64087
241.9900, 42.70584
242.4721, 41.35229
242.9542, 40.31570
243.4364, 39.24579
243.9185, 37.04160
244.4006, 33.01059
244.8827, 28.69461
245.3648, 25.80377
245.8469, 24.15033
246.3290, 22.44293
246.8112, 20.15540
247.2933, 17.35251
247.7754, 14.05536
248.2575, 9.954254
248.7396, 5.898621
249.2217, 2.325806
249.7039, 0.7456670
250.1860, 3.116180
250.6681, 4.177551
251.1502, 4.360992
251.6323, 5.410461
252.1144, 7.974274
252.5966, 10.45773
253.0787, 12.03198
253.5608, 12.84622
254.0429, 13.22092
254.5250, 13.18387
255.0071, 12.83426
255.4893, 12.59998
255.9714, 12.70792
256.4535, 12.53412
256.9356, 11.49750
257.4177, 10.08377
257.8998, 9.161896
258.3820, 9.488800
258.8641, 10.52209
259.3462, 10.23517
259.8283, 7.739349
260.3104, 5.330566
260.7925, 4.053406
261.2747, 3.214142
261.7568, 1.977539
262.2389, 2.1240000E-02
262.7210, 2.777496
263.2031, 6.479370
263.6852, 12.13736
264.1674, 16.99063
264.6495, 19.58014
265.1316, 21.48520
265.6137, 24.58694
266.0958, 29.76181
266.5779, 35.89447
267.0601, 40.24091
267.5422, 41.68463
268.0243, 43.22882
268.5064, 44.72498
268.9885, 46.79877
269.4706, 50.16220
269.9528, 55.03867
270.4349, 60.80377
270.9170, 66.27783
271.3991, 71.13446
271.8812, 76.28857
272.3633, 81.25674
272.8455, 86.80737
273.3276, 93.50504
273.8097, 101.4940
274.2918, 110.4911
274.7739, 120.1038
275.2560, 130.4216
275.7382, 141.2692
276.2202, 152.5159
276.7024, 164.2696
277.1845, 176.5154
277.6666, 189.3501
278.1487, 203.0319
278.6308, 218.0566
279.1129, 235.0057
279.5951, 251.1428
280.0772, 265.5080
280.5593, 280.0546
281.0414, 296.5280
281.5235, 314.4794
282.0056, 331.8086
282.4878, 346.4497
282.9699, 358.2123
283.4520, 369.0411
283.9341, 380.4564
284.4162, 389.7401
284.8983, 395.2633
285.3805, 397.6330
285.8626, 398.3548
286.3447, 398.3438
286.8268, 397.6351
287.3089, 398.6310
287.7910, 402.4322
288.2732, 406.6171
288.7553, 409.7920
289.2374, 412.8819
289.7195, 417.5580
290.2016, 424.8078
290.6837, 434.4482
291.1659, 445.9028
291.6480, 460.0862
292.1301, 474.9062
292.6122, 490.0659
293.0943, 505.6561
293.5764, 521.7875
294.0586, 538.5867
294.5407, 556.0122
295.0228, 574.0474
295.5049, 594.7777
295.9870, 613.5328
296.4691, 629.9355
296.9513, 644.3779
297.4334, 658.0021
297.9155, 671.0081
298.3976, 681.5046
298.8797, 686.3422
299.3618, 684.5675
299.8440, 677.3968
300.3261, 663.9629
300.8082, 645.9190
301.2903, 623.4849
301.7724, 597.1488
302.2545, 568.7127
302.7367, 540.0600
303.2188, 511.4073
303.7009, 481.7756
304.1830, 448.6515
304.6651, 416.5162
305.1472, 387.8573
305.6294, 362.8439
306.1115, 340.6158
306.5936, 320.6304
307.0757, 302.8918
307.5578, 286.0529
308.0399, 269.6302
308.5221, 254.4275
309.0042, 241.0376
309.4863, 229.1542
309.9684, 218.2349
310.4505, 208.0537
310.9326, 198.6436
311.4148, 190.2583
311.8969, 182.6063
312.3790, 176.1552
312.8611, 171.1523
313.3432, 167.4275
313.8253, 164.7434
314.3075, 163.0564
314.7896, 162.2736
315.2717, 162.0781
315.7538, 162.5503
316.2359, 163.3647
316.7180, 164.4480
317.2001, 165.9859
317.6823, 168.2604
318.1644, 171.2657
318.6465, 174.6893
319.1286, 178.1510
319.6107, 181.2834
320.0928, 185.5597
320.5750, 191.4903
321.0571, 198.1288
321.5392, 204.9614
322.0213, 211.7697
322.5034, 218.4183
322.9855, 224.6441
323.4677, 230.3445
323.9498, 236.4865
324.4319, 242.8669
324.9140, 249.8394
325.3961, 257.5721
325.8782, 265.9679
326.3604, 274.9883
326.8425, 284.7105
327.3246, 295.1228
327.8067, 305.8218
328.2888, 316.0340
328.7709, 327.3676
329.2531, 340.8674
329.7352, 355.6286
330.2173, 370.0953
330.6994, 383.5014
331.1815, 396.4144
331.6636, 410.4922
332.1458, 426.8861
332.6279, 443.0833
333.1100, 459.6625
333.5921, 475.6050
334.0742, 489.9301
334.5563, 502.2745
335.0385, 513.2874
335.5206, 524.0084
336.0027, 535.8528
336.4848, 543.1954
336.9669, 544.8309
337.4490, 543.5362
337.9312, 541.0198
338.4133, 537.4017
338.8954, 531.8363
339.3775, 523.3800
339.8596, 511.7785
340.3417, 500.1585
340.8239, 488.3040
341.3060, 476.6764
341.7881, 464.8449
342.2702, 453.3640
342.7523, 443.3107
343.2344, 435.3766
343.7166, 429.4117
344.1987, 424.7918
344.6808, 422.1967
345.1629, 420.3287
345.6450, 419.0048
346.1271, 418.4087
346.6093, 418.8140
347.0914, 420.3054
347.5735, 422.6864
348.0556, 425.6712
348.5377, 430.1353
349.0198, 433.6086
349.5020, 435.5150
349.9841, 437.0199
350.4662, 439.1759
350.9483, 441.9150
351.4304, 444.1806
351.9125, 444.8385
352.3947, 443.7948
352.8768, 441.7502
353.3589, 439.7620
353.8410, 435.7603
354.3231, 428.7270
354.8052, 419.0863
355.2874, 407.6876
355.7695, 395.0487
356.2516, 381.2488
356.7337, 366.4102
357.2158, 350.1100
357.6979, 333.2169
358.1800, 315.9491
358.6621, 298.1801
359.1443, 279.5958
359.6264, 259.9873
360.1085, 240.2646
360.5906, 221.9108
361.0727, 205.2421
361.5548, 189.1585
362.0370, 173.2917
362.5191, 158.1504
363.0012, 144.1969
363.4833, 131.3143
363.9654, 119.1873
364.4475, 107.3315
364.9297, 95.69086
365.4118, 85.25729
365.8939, 76.43842
366.3760, 68.52286
366.8581, 61.22519
367.3402, 54.60428
367.8224, 48.90723
368.3045, 44.61160
368.7866, 41.11606
369.2687, 36.38608
369.7508, 29.46072
370.2329, 23.48694
370.7151, 19.89417
371.1972, 17.50250
371.6793, 15.29776
372.1614, 13.05759
372.6435, 10.65768
373.1256, 7.901337
373.6078, 4.769104
374.0899, 1.632019
374.5720, 1.811127
375.0541, 4.861511
375.5362, 6.969116
376.0183, 8.183868
376.5005, 9.013947
376.9826, 9.764893
377.4647, 10.40244
377.9468, 10.78415
378.4289, 10.84638
378.9110, 10.77881
379.3932, 10.80267
379.8753, 10.79288
380.3574, 10.45959
380.8395, 9.557617
381.3216, 8.436401
381.8037, 7.659088
382.2859, 7.240570
382.7680, 6.344086
383.2501, 4.197906
383.7322, 1.624908
384.2143, 3.5216998E-02
384.6964, 0.5345150
385.1786, 0.9013370
385.6607, 1.518250
386.1428, 2.442993
386.6249, 3.999817
387.1070, 6.476074
387.5891, 8.992401
388.0713, 10.36548
388.5534, 10.71368
389.0355, 11.16840
389.5176, 12.23993
389.9997, 13.34634
390.4818, 13.68271
390.9640, 13.27634
391.4461, 13.12137
391.9282, 13.81183
392.4103, 15.36163
392.8924, 17.54428
393.3745, 20.35846
393.8567, 23.73642
394.3388, 27.85849
394.8209, 32.49976
395.3030, 37.10461
395.7851, 41.47104
396.2672, 45.93893
396.7494, 51.17920
397.2315, 57.37259
397.7136, 63.94116
398.1957, 71.63190
398.6778, 79.22498
399.1599, 85.34451
399.6420, 90.09421
400.1241, 95.07608
400.6063, 101.8588
401.0884, 110.5609
401.5705, 117.7847
402.0526, 122.6023
402.5347, 127.2162
403.0168, 132.2102
403.4990, 137.4752
403.9811, 142.8159
404.4632, 148.1292
404.9453, 153.2747
405.4274, 157.8598
405.9095, 161.4526
406.3917, 165.1566
406.8738, 168.6326
407.3559, 172.4712
407.8380, 177.2470
408.3201, 182.9282
408.8022, 188.9363
409.2844, 194.7325
409.7665, 200.2580
410.2486, 206.1388
410.7307, 212.3784
411.2128, 218.9948
411.6949, 226.1357
412.1771, 233.6134
412.6592, 241.2673
413.1413, 249.1030
413.6234, 256.7775
414.1055, 263.5406
414.5876, 269.3136
415.0698, 274.4872
415.5519, 279.3339
416.0340, 283.4638
416.5161, 286.5910
416.9982, 288.6853
417.4803, 289.7686
417.9625, 289.8431
418.4446, 288.9265
418.9267, 287.2062
419.4088, 285.0555
419.8909, 281.3885
420.3730, 274.9156
420.8552, 266.6010
421.3373, 258.3538
421.8194, 250.8136
422.3015, 243.6212
422.7836, 236.4359
423.2657, 229.2700
423.7479, 221.9770
424.2300, 214.4102
424.7121, 206.7824
425.1942, 199.4501
425.6763, 192.5569
426.1584, 185.3467
426.6406, 176.9995
427.1227, 168.2520
427.6048, 160.5151
428.0869, 154.0090
428.5690, 147.9069
429.0511, 141.4544
429.5333, 134.6605
430.0154, 128.3957
430.4975, 122.9149
430.9796, 117.7137
431.4617, 112.4112
431.9438, 107.1805
432.4260, 102.2585
432.9081, 97.70612
433.3902, 93.77417
433.8723, 91.14627
434.3544, 91.41623
434.8365, 90.39343
435.3187, 86.40652
435.8008, 82.11969
436.2829, 80.08102
436.7650, 80.34286
437.2471, 80.94006
437.7292, 79.87854
438.2114, 77.03400
438.6935, 75.42197
439.1756, 76.08545
439.6577, 76.94083
440.1398, 77.39554
440.6219, 77.77841
441.1040, 78.68835
441.5862, 80.41177
442.0683, 82.64581
442.5504, 84.62964
443.0325, 85.94827
443.5146, 87.84418
443.9967, 90.73413
444.4789, 94.13873
444.9610, 97.80740
445.4431, 101.6456
445.9252, 105.7038
446.4073, 110.0177
446.8894, 114.6965
447.3716, 120.0303
447.8537, 126.4355
448.3358, 132.3514
448.8179, 137.6067
449.3000, 141.7094
449.7821, 143.9175
450.2643, 143.9622
450.7464, 142.9857
451.2285, 142.1869
451.7106, 141.2875
452.1927, 138.8724
452.6748, 134.6388
453.1570, 128.8124
453.6391, 120.9221
454.1212, 111.4073
454.6033, 102.0435
455.0854, 93.25528
455.5675, 84.86420
456.0497, 76.44620
456.5318, 68.09720
457.0139, 60.39636
457.4960, 53.61395
457.9781, 47.77545
458.4602, 42.97443
458.9424, 39.21912
459.4245, 36.23947
459.9066, 34.38171
460.3887, 33.20901
460.8708, 32.10693
461.3529, 30.92917
461.8351, 30.04602
462.3172, 29.91214
462.7993, 30.58023
463.2814, 31.12897
463.7635, 31.50461
464.2456, 31.90152
464.7278, 32.09894
465.2099, 32.34259
465.6920, 32.90720
466.1741, 33.90848
466.6562, 35.38037
467.1383, 37.54895
467.6205, 40.91251
468.1026, 43.45206
468.5847, 44.24066
469.0668, 44.97455
469.5489, 46.56146
470.0310, 48.75082
470.5132, 50.65955
470.9953, 51.57065
471.4774, 52.00516
471.9595, 53.60236
472.4416, 56.94672
472.9237, 59.29697
473.4059, 58.83438
473.8880, 57.42963
474.3701, 56.65738
474.8522, 56.69901
475.3343, 56.99380
475.8164, 57.74265
476.2986, 58.43884
476.7807, 57.51584
477.2628, 54.53226
477.7449, 51.41129
478.2270, 49.78552
478.7091, 49.23782
479.1913, 47.96777
479.6734, 45.27344
480.1555, 42.52090
480.6376, 40.51797
481.1197, 38.95560
481.6018, 37.15848
482.0839, 34.89981
482.5660, 32.43729
483.0482, 30.07797
483.5303, 27.79810
484.0124, 25.80759
484.4945, 24.40451
484.9766, 23.00281
485.4587, 21.13162
485.9409, 18.99457
486.4230, 17.15286
486.9051, 15.92743
487.3872, 15.09610
487.8693, 14.05676
488.3514, 12.83160
488.8336, 11.29272
489.3157, 8.739594
489.7978, 6.474487
490.2799, 5.641388
490.7620, 6.067017
491.2441, 6.574493
491.7263, 6.227020
492.2084, 5.184692
492.6905, 4.215302
493.1726, 3.380432
493.6547, 2.481842
494.1368, 1.082855
494.6190, 0.2361450
495.1011, 0.7531430
495.5832, 0.2616270
496.0653, 0.3798830
496.5474, 0.5021060
497.0295, 0.2609250
497.5117, 0.2220760
497.9938, 0.5704350
498.4759, 0.6589050
498.9580, 0.3605350
499.4401, 2.191437
499.9222, 3.211578
500.4044, 2.540771
500.8865, 1.854126
501.3686, 2.284882
501.8507, 3.293884
502.3328, 3.658691
502.8149, 2.940033
503.2971, 1.912628
503.7792, 1.705261
504.2613, 2.653931
504.7434, 3.239197
505.2255, 3.569763
505.7076, 3.474152
506.1898, 2.478485
506.6719, 1.035522
507.1540, 1.9623000E-02
507.6361, 0.1066280
508.1182, 0.3795470
508.6003, 0.8993230
509.0825, 1.570892
509.5646, 1.972656
510.0467, 1.859039
510.5288, 1.630920
511.0109, 1.441040
511.4930, 1.323883
511.9752, 1.325409
512.4573, 1.613220
512.9394, 1.947449
513.4215, 1.684738
513.9036, 0.7230830
514.3857, 0.1538090
514.8679, 0.6821290
515.3500, 0.9582210
515.8321, 1.195724
516.3142, 1.435379
516.7963, 1.267242
517.2784, 0.1346130
517.7606, 1.746872
518.2427, 1.926193
518.7248, 0.5990450
519.2069, 0.8638000
519.6890, 1.629471
520.1711, 1.771057
520.6533, 1.603012
521.1354, 0.4450230
521.6175, 7.3471002E-02
522.0996, 0.7799680
522.5817, 2.130081
523.0638, 3.143494
523.5460, 3.662109
524.0281, 3.972443
524.5102, 4.367004
524.9923, 4.839127
525.4744, 4.983688
525.9565, 4.571274
526.4387, 4.116364
526.9208, 3.374588
527.4029, 2.819458
527.8850, 3.103577
528.3671, 4.347992
528.8492, 5.759109
529.3314, 6.666229
529.8135, 7.062286
530.2956, 6.674210
530.7777, 4.922455
531.2598, 3.569931
531.7419, 4.273590
532.2241, 5.974747
532.7062, 6.973877
533.1883, 6.697693
533.6704, 6.224701
534.1525, 6.322891
534.6346, 6.775925
535.1168, 6.997482
535.5989, 6.824570
536.0810, 6.709641
536.5631, 7.166748
537.0452, 8.232254
537.5273, 9.008987
538.0095, 9.342056
538.4916, 9.591125
538.9737, 9.770981
539.4558, 9.984161
539.9379, 10.46445
540.4200, 11.26433
540.9022, 12.05893
541.3843, 12.37026
541.8664, 12.11407
542.3485, 11.84163
542.8306, 11.39157
543.3127, 11.11363
543.7948, 11.17390
544.2769, 11.45959
544.7590, 11.69450
545.2411, 11.71532
545.7233, 12.09959
546.2054, 14.14119
546.6875, 17.64307
547.1696, 19.37141
547.6517, 18.10297
548.1339, 16.37045
548.6160, 16.51343
549.0981, 17.91624
549.5802, 18.90337
550.0623, 18.98175
550.5444, 18.74159
551.0266, 18.52116
551.5087, 18.27031
551.9908, 17.81128
552.4729, 17.03229
552.9550, 16.24646
553.4371, 15.90491
553.9193, 16.10376
554.4014, 16.20593
554.8835, 16.08224
555.3656, 15.99623
555.8477, 16.10376
556.3298, 16.29977
556.8120, 16.41791
557.2941, 16.34430
557.7762, 16.09435
558.2583, 15.67390
558.7404, 15.04941
559.2225, 14.48602
559.7047, 14.00557
560.1868, 13.53377
560.6689, 13.07405
561.1510, 12.66887
561.6331, 12.31844
562.1152, 11.99164
562.5974, 11.59998
563.0795, 10.98367
563.5616, 10.24870
564.0437, 9.789139
564.5258, 9.746216
565.0079, 9.753098
565.4901, 9.344879
565.9722, 8.534515
566.4543, 8.172440
566.9364, 8.996719
567.4185, 9.423599
567.9006, 8.488647
568.3828, 6.983368
568.8649, 6.048325
569.3470, 5.951187
569.8291, 6.060745
570.3112, 5.544006
570.7933, 4.315765
571.2755, 4.022598
571.7576, 6.008881
572.2397, 7.329315
572.7218, 6.728531
573.2039, 5.343124
573.6860, 4.497528
574.1682, 4.511673
574.6503, 4.692383
575.1324, 4.160141
575.6145, 3.113297
576.0966, 2.783401
576.5787, 3.507675
577.0609, 4.373108
577.5430, 4.910736
578.0251, 5.054123
578.5072, 4.720032
578.9893, 3.650589
579.4714, 2.568329
579.9536, 1.489197
580.4357, 0.7873380
580.9178, 1.168610
581.3999, 2.559052
581.8820, 4.010849
582.3641, 4.854538
582.8463, 5.106995
583.3284, 4.850632
583.8105, 3.545547
584.2926, 2.489395
584.7747, 1.811310
585.2568, 1.371506
585.7390, 1.144943
586.2211, 1.089767
586.7032, 1.082352
587.1853, 1.060349
587.6674, 0.9923250
588.1495, 0.6806180
588.6317, 6.9579999E-03
589.1138, 0.2252960
589.5959, 0.5312190
590.0780, 1.637314
590.5601, 2.420898
591.0422, 2.877472
591.5244, 2.900726
592.0065, 1.988464
592.4886, 1.005295
592.9707, 0.8205410
593.4528, 1.261688
593.9349, 1.685913
594.4171, 1.822327
594.8992, 1.747223
595.3813, 1.547409
595.8634, 1.057098
596.3455, 0.9374080
596.8276, 1.747330
597.3098, 2.287979
597.7919, 1.819611
598.2740, 0.8004000
598.7561, 5.9810001E-03
599.2382, 0.2513280
599.7203, 0.1832580
600.2025, 6.4377002E-02
600.6846, 0.1096340
601.1667, 0.5530400
601.6488, 1.543121
602.1309, 2.294144
602.6130, 2.014297
603.0952, 1.139526
603.5773, 0.5071870
604.0594, 0.1781770
604.5415, 0.2052920
605.0236, 1.100922
605.5057, 2.178497
605.9879, 2.176102
606.4700, 0.9826970
606.9521, 0.3223570
607.4342, 0.8834080
607.9163, 0.7531280
608.3984, 0.3015440
608.8806, 1.119232
609.3627, 1.944550
609.8448, 1.672394
610.3269, 1.051727
610.8090, 0.4485170
611.2911, 2.6581001E-02
611.7733, 0.1006470
612.2554, 1.212860
612.7375, 2.675964
613.2196, 2.601379
613.7017, 0.7886660
614.1838, 0.3669130
614.6660, 0.2072450
615.1481, 1.301727
615.6302, 1.449249
616.1123, 0.7257080
616.5944, 0.1308900
617.0765, 0.1211850
617.5587, 0.1893010
618.0408, 0.1274110
618.5229, 3.0884000E-02
619.0050, 0.2788390
619.4871, 0.6103520
619.9692, 0.8588870
620.4514, 0.7732850
620.9335, 0.3013920
621.4156, 2.6611000E-02
621.8977, 0.1636660
622.3798, 0.1199950
622.8619, 0.5996090
623.3441, 1.470734
623.8262, 1.874969
624.3083, 1.652374
624.7904, 1.124298
625.2725, 0.2169490
625.7546, 0.7331540
626.2367, 0.6013790
626.7188, 0.7723080
627.2009, 2.130402
627.6830, 2.839966
628.1652, 3.068573
628.6473, 3.272430
629.1294, 3.608093
629.6115, 3.496765
630.0936, 2.048615
630.5757, 0.7949220
631.0579, 1.031189
631.5400, 2.415527
632.0221, 3.901062
632.5042, 4.956146
632.9863, 5.715271
633.4684, 6.458710
633.9506, 7.262787
634.4327, 7.696442
634.9148, 7.372833
635.3969, 7.174255
635.8790, 7.534973
636.3611, 8.219879
636.8433, 8.981537
637.3254, 9.919312
637.8075, 10.46033
638.2896, 9.683167
638.7717, 8.349365
639.2538, 8.089508
639.7360, 9.107391
640.2181, 10.27817
640.7002, 10.80124
641.1823, 10.77267
641.6644, 10.75116
642.1465, 10.54572
642.6287, 10.67215
643.1108, 11.57925
643.5929, 12.42703
644.0750, 12.52109
644.5571, 12.06125
645.0392, 11.76294
645.5214, 12.06625
646.0035, 12.58255
646.4856, 12.63376
646.9677, 12.22272
647.4498, 11.73889
647.9319, 11.06616
648.4141, 10.71109
648.8962, 11.36612
649.3783, 12.72247
649.8604, 13.58255
650.3425, 13.36951
650.8246, 13.30685
651.3068, 14.06396
651.7889, 15.13519
652.2710, 16.11093
652.7531, 16.80450
653.2352, 16.74283
653.7173, 15.40289
654.1995, 13.26605
654.6816, 12.44113
655.1637, 13.57043
655.6458, 14.47229
656.1279, 14.55692
656.6100, 14.52722
657.0922, 14.69171
657.5743, 15.08133
658.0564, 15.74356
658.5385, 17.06375
659.0206, 18.15292
659.5027, 18.12515
659.9849, 17.18344
660.4670, 15.66278
660.9491, 13.60953
661.4312, 11.93414
661.9133, 11.58978
662.3954, 12.44977
662.8776, 12.68787
663.3597, 11.43658
663.8418, 10.69373
664.3239, 11.00507
664.8060, 11.62100
665.2881, 12.13000
665.7703, 12.39444
666.2524, 12.22464
666.7345, 11.39899
667.2166, 10.21124
667.6987, 9.034515
668.1808, 7.884155
668.6630, 7.459717
669.1451, 8.208832
669.6272, 9.048615
670.1093, 8.867004
670.5914, 7.734161
671.0735, 6.812195
671.5557, 6.227081
672.0378, 5.713623
672.5199, 5.032043
673.0020, 4.487335
673.4841, 4.711090
673.9662, 5.565369
674.4484, 6.074951
674.9305, 5.434509
675.4126, 4.014893
675.8947, 3.031219
676.3768, 2.572174
676.8589, 2.014557
677.3411, 1.091034
677.8232, 0.2199400
678.3053, 0.3790280
678.7874, 0.6535950
679.2695, 0.3828430
679.7516, 0.9827580
680.2338, 2.241150
680.7159, 2.285858
681.1980, 1.792755
681.6801, 2.080444
682.1622, 3.344666
682.6443, 4.645142
683.1265, 5.197418
683.6086, 5.109283
684.0907, 4.884308
684.5728, 4.274994
685.0549, 4.107758
685.5370, 4.710938
686.0192, 5.478027
686.5013, 6.142456
686.9834, 6.723831
687.4655, 7.319702
687.9476, 7.972992
688.4297, 8.640320
688.9119, 9.275955
689.3940, 9.897018
689.8761, 10.57793
690.3582, 11.32172
690.8403, 11.96722
691.3224, 12.40855
691.8046, 12.61479
692.2867, 12.44351
692.7688, 11.11932
693.2509, 10.70601
693.7330, 11.94783
694.2151, 13.45459
694.6973, 14.38293
695.1794, 14.89601
695.6615, 15.68800
696.1436, 17.27074
696.6257, 18.46309
697.1078, 17.32109
697.5900, 14.71312
698.0721, 13.82198
698.5542, 15.19249
699.0363, 16.73332
699.5184, 16.91100
700.0005, 16.27371
700.4827, 16.77991
700.9648, 20.09698
701.4469, 21.79889
701.9290, 20.36272
702.4111, 18.67729
702.8932, 18.53688
703.3754, 19.47092
703.8575, 20.21320
704.3396, 20.22417
704.8217, 20.09622
705.3038, 20.59641
705.7859, 21.58508
706.2681, 22.43875
706.7502, 23.12085
707.2323, 23.55542
707.7144, 23.68173
708.1965, 23.55023
708.6786, 23.19717
709.1607, 22.35513
709.6428, 22.08005
710.1249, 23.04022
710.6071, 23.98859
711.0892, 24.09540
711.5713, 23.73419
712.0534, 23.61511
712.5355, 23.97443
713.0176, 24.45938
713.4998, 24.73804
713.9819, 24.81284
714.4640, 24.72928
714.9461, 24.51007
715.4282, 23.92871
715.9103, 22.59717
716.3925, 21.17819
716.8746, 20.75812
717.3567, 21.41351
717.8388, 22.19168
718.3209, 23.69623
718.8030, 24.55862
719.2852, 23.69040
719.7673, 21.98618
720.2494, 20.58292
720.7315, 19.78323
721.2136, 19.33380
721.6957, 19.07861
722.1779, 18.95343
722.6600, 18.75616
723.1421, 18.49707
723.6242, 18.08862
724.1063, 17.53104
724.5884, 16.77243
725.0706, 15.60245
725.5527, 14.07376
726.0348, 12.98044
726.5169, 12.87775
726.9990, 12.58206
727.4811, 11.27853
727.9633, 9.847595
728.4454, 9.550293
728.9275, 10.21555
729.4096, 10.40292
729.8917, 9.037506
730.3738, 6.837708
730.8560, 5.337585
731.3381, 4.561554
731.8202, 3.664795
732.3023, 2.388885
732.7844, 1.279541
733.2665, 0.8247990
733.7487, 0.8620300
734.2308, 0.7471920
734.7129, 0.5195010
735.1950, 5.6853998E-02
735.6771, 0.6091920
736.1592, 1.612549
736.6414, 3.494141
737.1235, 5.701782
737.6056, 6.836395
738.0877, 6.318604
738.5698, 5.327789
739.0519, 5.639496
739.5341, 7.048309
740.0162, 7.652771
740.4983, 7.142395
740.9804, 6.957367
741.4625, 8.083862
741.9446, 9.717865
742.4268, 10.27148
742.9089, 9.486969
743.3910, 9.034027
743.8731, 9.228485
744.3552, 9.583618
744.8373, 9.913605
745.3195, 10.23932
745.8016, 10.63397
746.2837, 11.10129
746.7658, 11.54517
747.2479, 11.95227
747.7300, 12.23483
748.2122, 12.12708
748.6943, 11.62387
749.1764, 10.92847
749.6585, 10.05078
750.1406, 9.139038
750.6227, 8.369324
751.1049, 7.718689
751.5870, 6.888580
752.0691, 5.751190
752.5512, 4.627502
753.0333, 3.735077
753.5154, 2.751709
753.9976, 1.253937
754.4797, 0.5790100
754.9618, 2.090271
755.4439, 2.811249
755.9260, 3.513885
756.4081, 5.355713
756.8903, 8.089081
757.3724, 10.56622
757.8545, 12.61325
758.3366, 15.05896
758.8187, 18.45538
759.3008, 22.52972
759.7830, 26.62891
760.2651, 30.73309
760.7472, 34.95044
761.2293, 39.36728
761.7114, 43.77545
762.1935, 47.57797
762.6757, 51.55121
763.1578, 56.81039
763.6399, 63.57718
764.1220, 71.03058
764.6041, 78.16953
765.0862, 85.88034
765.5684, 95.98654
766.0505, 108.0849
766.5326, 119.6498
767.0147, 129.8685
767.4968, 140.2064
767.9789, 152.2939
768.4611, 166.1263
768.9432, 179.3337
769.4253, 191.0369
769.9074, 203.7312
770.3895, 217.7097
770.8716, 232.8409
771.3538, 249.4641
771.8359, 267.1012
772.3180, 284.3023
772.8001, 300.1994
773.2822, 316.3580
773.7643, 333.8129
774.2465, 352.1145
774.7286, 370.6687
775.2107, 389.4074
775.6928, 408.4185
776.1749, 427.8477
776.6570, 447.6173
777.1392, 467.2847
777.6213, 486.6575
778.1034, 507.8438
778.5855, 531.9736
779.0676, 555.8113
779.5497, 577.9359
780.0319, 598.9188
780.5140, 619.4416
780.9961, 639.7445
781.4782, 658.4720
781.9603, 676.8431
782.4424, 691.8962
782.9246, 701.0231
783.4067, 706.2074
783.8888, 710.9585
784.3709, 715.4775
784.8530, 716.4466
785.3351, 711.2030
785.8173, 700.6277
786.2994, 686.1890
786.7815, 667.9330
787.2636, 648.9128
787.7457, 629.8303
788.2278, 609.5910
788.7100, 587.3160
789.1921, 563.3587
789.6742, 539.3872
790.1563, 514.5214
790.6384, 491.0465
791.1205, 468.9998
791.6026, 448.5587
792.0847, 429.5802
792.5668, 412.2545
793.0490, 396.7781
793.5311, 383.2440
794.0132, 371.2066
794.4953, 360.1313
794.9774, 350.3047
795.4595, 342.6847
795.9417, 337.1358
796.4238, 332.2995
796.9059, 327.5588
797.3880, 324.2139
797.8701, 323.8322
798.3522, 326.4000
798.8344, 330.4941
799.3165, 335.9268
799.7986, 343.0056
800.2807, 351.0051
800.7628, 361.6172
801.2449, 375.7759
801.7271, 393.2726
802.2092, 413.1339
802.6913, 434.0371
803.1734, 459.9013
803.6555, 492.6259
804.1376, 531.1626
804.6198, 573.0460
805.1019, 619.5489
805.5840, 674.4386
806.0661, 739.1402
806.5482, 815.3207
807.0303, 904.2833
807.5125, 1006.259
807.9946, 1122.248
808.4767, 1253.030
808.9588, 1397.248
809.4409, 1557.191
809.9230, 1725.202
810.4052, 1895.892
810.8873, 2068.952
811.3694, 2229.069
811.8515, 2373.545
812.3336, 2508.205
812.8157, 2628.567
813.2979, 2743.617
813.7800, 2854.962
814.2621, 2966.401
814.7442, 3084.249
815.2263, 3209.993
815.7084, 3346.880
816.1906, 3496.894
816.6727, 3659.238
817.1548, 3831.102
817.6369, 4013.045
818.1190, 4208.451
818.6011, 4418.233
819.0833, 4647.922
819.5654, 4905.507
820.0475, 5191.707
820.5296, 5500.415
821.0117, 5839.949
821.4938, 6190.752
821.9760, 6573.985
822.4581, 6942.167
822.9402, 7279.985
823.4223, 7573.816
823.9044, 7761.830
824.3865, 7851.054
824.8687, 7803.270
825.3508, 7581.697
825.8329, 7233.032
826.3150, 6768.166
826.7971, 6220.225
827.2792, 5642.021
827.7614, 5053.660
828.2435, 4490.596
828.7256, 3988.740
829.2077, 3547.292
829.6898, 3165.856
830.1719, 2846.158
830.6541, 2573.718
831.1362, 2346.852
831.6183, 2156.914
832.1004, 1993.776
832.5825, 1858.088
833.0646, 1741.604
833.5468, 1650.131
834.0289, 1570.759
834.5110, 1504.360
834.9931, 1447.061
835.4752, 1397.277
835.9573, 1354.218
836.4395, 1316.151
836.9216, 1283.219
837.4037, 1253.168
837.8858, 1225.386
838.3679, 1199.319
838.8500, 1175.386
839.3322, 1152.466
839.8143, 1128.477
840.2964, 1102.629
840.7785, 1074.350
841.2606, 1043.207
841.7427, 1009.445
842.2249, 973.5628
842.7070, 935.6218
843.1891, 898.2722
843.6712, 862.6743
844.1533, 827.0363
844.6354, 789.7549
845.1176, 751.1984
845.5997, 713.9973
846.0818, 677.9857
846.5639, 644.2663
847.0460, 612.7473
847.5281, 583.2190
848.0103, 555.4782
848.4924, 529.6633
848.9745, 506.0207
849.4566, 484.5895
849.9387, 464.4514
850.4208, 444.9783
850.9030, 426.5726
851.3851, 409.1103
851.8672, 393.0775
852.3493, 379.5480
852.8314, 368.5150
853.3135, 358.5013
853.7957, 348.6302
854.2778, 339.1447
854.7599, 330.6084
855.2420, 322.9577
855.7241, 315.8413
856.2062, 309.3140
856.6884, 303.6571
857.1705, 299.2888
857.6526, 295.3401
858.1347, 290.0509
858.6168, 282.7358
859.0989, 277.1542
859.5811, 275.9514
860.0632, 273.1483
860.5453, 265.1808
861.0274, 256.7090
861.5095, 252.4285
861.9916, 251.5772
862.4738, 249.7207
862.9559, 245.1914
863.4380, 239.5759
863.9201, 233.0728
864.4022, 226.6169
864.8843, 221.7865
865.3665, 218.0701
865.8486, 213.8519
866.3307, 208.4539
866.8128, 202.2404
867.2949, 195.5907
867.7770, 188.5549
868.2592, 181.0177
868.7413, 172.9720
869.2234, 165.8727
869.7055, 160.3285
870.1876, 154.7771
870.6697, 147.8164
871.1519, 139.6646
871.6340, 131.5479
872.1161, 123.2231
872.5981, 115.4009
873.0803, 108.3495
873.5624, 101.6079
874.0445, 94.79382
874.5266, 88.27225
875.0087, 82.64920
875.4908, 78.10645
875.9730, 73.31818
876.4551, 67.38699
876.9372, 61.61563
877.4193, 56.72064
877.9014, 52.51138
878.3835, 48.82675
878.8657, 45.53854
879.3478, 42.27921
879.8299, 38.72559
880.3120, 35.53136
880.7941, 33.91536
881.2762, 33.36707
881.7584, 32.38892
882.2405, 30.84863
882.7226, 28.58131
883.2047, 25.43359
883.6868, 22.22366
884.1689, 20.17334
884.6511, 19.22656
885.1332, 17.69739
885.6153, 15.33847
886.0974, 13.04413
886.5795, 10.78236
887.0616, 8.881439
887.5438, 7.791107
888.0259, 7.234695
888.5080, 6.367844
888.9901, 5.118713
889.4722, 3.676407
889.9543, 1.661499
890.4365, 0.1157380
890.9186, 1.142822
891.4007, 1.711151
891.8828, 2.066040
892.3649, 2.342224
892.8470, 2.929703
893.3292, 4.383148
893.8113, 5.825073
894.2934, 6.286835
894.7755, 6.199158
895.2576, 6.278397
895.7397, 6.572372
896.2219, 6.786530
896.7040, 6.756882
897.1861, 6.605911
897.6682, 6.434326
898.1503, 6.273499
898.6324, 6.470581
899.1146, 7.057358
899.5967, 7.547867
900.0788, 7.781265
900.5609, 7.940567
901.0430, 8.293518
901.5251, 8.716980
902.0073, 8.360825
902.4894, 6.377838
902.9715, 5.374344
903.4536, 6.438934
903.9357, 7.383850
904.4178, 6.977936
904.9000, 6.014114
905.3821, 5.597610
905.8642, 5.841293
906.3463, 6.037750
906.8284, 6.061417
907.3105, 5.946884
907.7927, 5.462830
908.2748, 5.016510
908.7569, 5.321167
909.2390, 6.066513
909.7211, 6.087143
910.2032, 4.749329
910.6854, 3.264435
911.1675, 2.937119
911.6496, 3.076813
912.1317, 2.254761
912.6138, 0.8504330
913.0959, 0.5740810
913.5781, 1.859589
914.0602, 3.262177
914.5423, 3.469528
915.0244, 2.728668
915.5065, 1.594040
915.9886, 5.7174999E-02
916.4708, 0.8697360
916.9529, 0.9984740
917.4350, 0.7981410
917.9171, 0.3237760
918.3992, 4.4052001E-02
918.8813, 0.9036870
919.3635, 3.151566
919.8456, 4.642685
920.3277, 5.025513
920.8098, 5.233124
921.2919, 5.156799
921.7740, 5.243576
922.2562, 6.029587
922.7383, 7.228561
923.2204, 7.971741
923.7025, 8.032623
924.1846, 7.961502
924.6667, 7.809586
925.1489, 7.649033
925.6310, 7.200455
926.1131, 6.943817
926.5952, 7.787582
927.0773, 9.657379
927.5594, 11.20288
928.0416, 11.61049
928.5237, 11.51303
929.0058, 11.29513
929.4879, 11.04672
929.9700, 10.74684
930.4521, 10.53700
930.9343, 10.97807
931.4164, 12.28230
931.8985, 13.72891
932.3806, 14.55954
932.8627, 14.82620
933.3448, 14.53546
933.8270, 13.75934
934.3091, 13.21046
934.7912, 13.03992
935.2733, 13.30217
935.7554, 14.07993
936.2375, 15.12848
936.7197, 15.90381
937.2018, 16.37230
937.6839, 16.82677
938.1660, 17.29601
938.6481, 17.64256
939.1302, 17.76186
939.6124, 17.81113
940.0945, 17.89491
940.5766, 18.03679
941.0587, 18.42084
941.5408, 19.26479
942.0229, 19.98592
942.5051, 20.52589
942.9872, 20.97366
943.4693, 21.23059
943.9514, 21.49078
944.4335, 22.25011
944.9156, 23.51251
945.3978, 23.99945
945.8799, 22.21777
946.3620, 20.84258
946.8441, 21.65431
947.3262, 23.24553
947.8083, 24.37991
948.2905, 24.95732
948.7726, 25.21677
949.2547, 25.24966
949.7368, 25.09039
950.2189, 24.53488
950.7010, 23.95901
951.1832, 23.80119
951.6653, 24.02058
952.1474, 24.65031
952.6295, 25.62265
953.1116, 26.54926
953.5938, 27.19659
954.0759, 27.56625
954.5580, 27.67058
955.0400, 27.51108
955.5222, 26.82823
956.0043, 25.64543
956.4864, 25.36456
956.9685, 26.51952
957.4506, 27.79846
957.9327, 27.90437
958.4149, 27.12126
958.8970, 26.61287
959.3791, 26.42560
959.8612, 26.27429
960.3433, 26.18877
960.8254, 26.33749
961.3076, 26.83844
961.7897, 27.33807
962.2718, 27.43501
962.7539, 27.15858
963.2360, 26.79059
963.7181, 26.07686
964.2003, 25.56190
964.6824, 25.29813
965.1645, 25.26709
965.6466, 25.66646
966.1287, 26.23705
966.6108, 26.53207
967.0930, 26.49178
967.5751, 26.16129
968.0572, 25.37946
968.5393, 24.71483
969.0214, 24.37653
969.5035, 24.11478
969.9857, 23.73802
970.4678, 23.34467
970.9499, 23.04016
971.4320, 22.76971
971.9141, 22.60500
972.3962, 22.84323
972.8784, 23.17506
973.3605, 23.46124
973.8426, 23.59450
974.3247, 23.14714
974.8068, 22.21277
975.2889, 21.52057
975.7711, 21.48352
976.2532, 21.73166
976.7353, 22.22890
977.2174, 22.68440
977.6995, 22.06819
978.1816, 20.70163
978.6638, 20.03937
979.1459, 20.41284
979.6280, 20.96654
980.1101, 21.05672
980.5922, 20.83041
981.0743, 20.47641
981.5565, 20.01361
982.0386, 19.72821
982.5207, 19.62560
983.0028, 19.09761
983.4849, 17.86172
983.9670, 16.54871
984.4492, 15.87895
984.9313, 15.77733
985.4134, 15.82166
985.8955, 16.03493
986.3776, 15.97720
986.8597, 15.55722
987.3419, 15.04091
987.8240, 14.60912
988.3061, 14.03183
988.7882, 12.85518
989.2703, 11.10428
989.7524, 10.25996
990.2346, 10.60199
990.7167, 11.26746
991.1988, 13.04994
991.6809, 13.80272
992.1630, 11.19240
992.6451, 7.386673
993.1273, 6.620117
993.6094, 9.516663
994.0915, 10.94023
994.5736, 9.270370
995.0557, 8.277527
995.5378, 9.414627
996.0200, 10.71100
996.5021, 10.99962
996.9842, 10.44456
997.4663, 9.284027
997.9484, 7.379578
998.4305, 6.165024
998.9127, 6.501968
999.3948, 6.991364
999.8769, 6.998901
1000.359, 6.916245
1000.841, 7.282303
1001.323, 7.865280
1001.805, 7.940674
1002.287, 7.234222
1002.770, 6.546906
1003.252, 6.385315
1003.734, 6.268158
1004.216, 5.648743
1004.698, 5.006073
1005.180, 5.082672
1005.662, 5.753586
1006.144, 6.254349
1006.627, 6.218842
1007.109, 6.242462
1007.591, 7.398087
1008.073, 8.397766
1008.555, 7.107559
1009.037, 4.713837
1009.519, 3.747147
1010.001, 4.421677
1010.483, 5.147858
1010.966, 5.009811
1011.448, 4.612900
1011.930, 4.723099
1012.412, 5.059799
1012.894, 5.139999
1013.376, 4.939590
1013.858, 4.277618
1014.340, 3.226822
1014.823, 2.585999
1015.305, 2.946106
1015.787, 3.786667
1016.269, 4.390625
1016.751, 4.735352
1017.233, 4.625412
1017.715, 4.095978
1018.197, 3.555420
1018.679, 3.126709
1019.162, 2.725250
1019.644, 2.253647
1020.126, 1.864288
1020.608, 2.021301
1021.090, 2.666504
1021.572, 2.968826
1022.054, 2.888321
1022.536, 2.570694
1023.018, 2.025452
1023.501, 1.583939
1023.983, 1.550903
1024.465, 1.828461
1024.947, 2.247742
1025.429, 2.880875
1025.911, 2.477646
1026.393, 0.6407170
1026.875, 0.2514340
1027.358, 0.8126070
1027.840, 2.472382
1028.322, 3.460907
1028.804, 3.907700
1029.286, 4.380920
1029.768, 5.069351
1030.250, 4.898392
1030.732, 3.446640
1031.214, 2.252808
1031.697, 1.978577
1032.179, 1.938736
1032.661, 1.361542
1033.143, 0.4401700
1033.625, 0.1793980
1034.107, 0.8890990
1034.589, 1.487961
1035.071, 1.898911
1035.553, 2.322006
1036.036, 2.960953
1036.518, 3.490005
1037.000, 3.442947
1037.482, 2.959290
1037.964, 2.893845
1038.446, 3.610107
1038.928, 4.041061
1039.410, 4.169174
1039.893, 4.036652
1040.375, 3.320847
1040.857, 2.608597
1041.339, 2.696945
1041.821, 3.358795
1042.303, 3.329651
1042.785, 2.011169
1043.267, 1.128174
1043.750, 0.8714140
1044.232, 0.9039000
1044.714, 1.501236
1045.196, 2.029251
1045.678, 1.627945
1046.160, 0.5986630
1046.642, 0.2419430
1047.124, 1.096466
1047.606, 1.696259
1048.089, 1.546570
1048.571, 1.566483
1049.053, 2.249802
1049.535, 2.985199
1050.017, 3.027100
1050.499, 2.509750
1050.981, 2.204391
1051.463, 2.378632
1051.945, 2.422791
1052.428, 1.847137
1052.910, 1.605499
1053.392, 2.628159
1053.874, 3.700073
1054.356, 3.197281
1054.838, 1.606293
1055.320, 0.9369200
1055.802, 1.922195
1056.285, 2.761047
1056.767, 2.919678
1057.249, 2.989365
1057.731, 3.280563
1058.213, 3.473740
1058.695, 2.990326
1059.177, 1.984161
1059.659, 1.379944
1060.141, 1.377762
1060.624, 1.918015
1061.106, 3.776138
1061.588, 5.212723
1062.070, 5.003326
1062.552, 4.219711
1063.034, 3.865616
1063.516, 3.900818
1063.998, 3.998886
1064.480, 4.151688
1064.963, 3.787552
1065.445, 1.827408
1065.927, 0.3658750
1066.409, 1.015030
1066.891, 2.240036
1067.373, 2.588272
1067.855, 2.270874
1068.337, 2.067764
1068.820, 2.217194
1069.302, 2.330521
1069.784, 2.014359
1070.266, 1.948730
1070.748, 2.827866
1071.230, 3.723709
1071.712, 3.695984
1072.194, 3.005463
1072.677, 2.330017
1073.159, 1.826355
1073.641, 1.293808
1074.123, 0.1497040
1074.605, 0.4072270
1075.087, 0.9079440
1075.569, 2.454742
1076.051, 2.711166
1076.533, 2.157776
1077.016, 1.890213
1077.498, 2.092041
1077.980, 2.144409
1078.462, 1.616684
1078.944, 1.138702
1079.426, 1.092056
1079.908, 1.132263
1080.390, 0.9443510
1080.872, 0.6658780
1081.354, 0.4441830
1081.837, 0.3631900
1082.319, 0.7273410
1082.801, 2.004501
1083.283, 3.053543
1083.765, 3.196564
1084.247, 3.052216
1084.729, 3.077469
1085.211, 3.121750
1085.694, 2.844559
1086.176, 2.285492
1086.658, 1.834381
1087.140, 1.618622
1087.622, 1.505875
1088.104, 1.398453
1088.586, 1.425964
1089.068, 1.884460
1089.551, 2.371765
1090.033, 2.422470
1090.515, 2.068512
1090.997, 1.516144
1091.479, 0.6622010
1091.961, 0.3502960
1092.443, 1.651840
1092.925, 2.618622
1093.407, 1.666595
1093.890, 0.3753510
1094.372, 0.3961330
1094.854, 1.365021
1095.336, 2.167053
1095.818, 2.608078
1096.300, 2.605377
1096.782, 1.666656
1097.264, 0.8739170
1097.746, 0.7261200
1098.229, 0.8273320
1098.711, 0.9998170
1099.193, 1.127167
1099.675, 0.9739230
1100.157, 0.5028840
1100.639, 0.2260440
1101.121, 0.3109440
1101.603, 0.5583650
1102.086, 1.419952
1102.568, 1.869827
1103.050, 0.6170200
1103.532, 0.9706420
1104.014, 0.5103150
1104.496, 1.850220
1104.978, 2.760193
1105.460, 1.9547001E-02
1105.943, 1.445358
1106.425, 0.5666200
1106.907, 2.515976
1107.389, 2.794907
1107.871, 2.265244
1108.353, 1.812317
1108.835, 1.420029
1109.317, 0.7287450
1109.799, 0.7880550
1110.281, 1.376404
1110.764, 1.7197000E-02
1111.246, 1.134079
1111.728, 1.292328
1112.210, 0.9655760
1112.692, 0.1323240
1113.174, 0.8298800
1113.656, 0.7446590
1114.138, 1.503906
1114.621, 2.358978
1115.103, 1.732101
1115.585, 1.889145
1116.067, 2.355469
1116.549, 0.7209320
1117.031, 0.7797550
1117.513, 2.023499
1117.995, 2.840622
1118.478, 3.235626
1118.960, 3.054520
1119.442, 1.919098
1119.924, 1.094452
1120.406, 0.7904210
1120.888, 0.5651400
1121.370, 6.3538000E-02
1121.852, 0.1518400
1122.334, 0.7650150
1122.817, 2.483856
1123.299, 3.163818
1123.781, 2.610153
1124.263, 1.627182
1124.745, 0.2199250
1125.227, 0.5889130
1125.709, 1.820602
1126.191, 3.952148
1126.673, 3.067032
1127.156, 0.4874110
1127.638, 0.5467990
1128.120, 2.4460001E-02
1128.602, 0.4443210
1129.084, 0.7038570
1129.566, 0.8197780
1130.048, 0.7545620
1130.530, 0.9615780
1131.013, 1.783264
1131.495, 2.537979
1131.977, 2.082108
1132.459, 0.7503050
1132.941, 0.2074430
1133.423, 0.4077610
1133.905, 0.9096680
1134.387, 1.637497
1134.870, 2.180130
1135.352, 2.378036
1135.834, 2.229645
1136.316, 1.644516
1136.798, 0.9493560
1137.280, 0.8887940
1137.762, 1.305038
1138.244, 1.734238
1138.726, 2.105011
1139.208, 2.175385
1139.691, 1.934250
1140.173, 1.792511
1140.655, 2.022125
1141.137, 2.351563
1141.619, 2.431625
1142.101, 2.385056
1142.583, 2.512421
1143.065, 2.685684
1143.548, 2.345856
1144.030, 1.632477
1144.512, 1.542191
1144.994, 2.423035
1145.476, 3.154800
1145.958, 2.520782
1146.440, 1.724411
1146.922, 2.360352
1147.405, 3.260056
1147.887, 2.708511
1148.369, 1.313797
1148.851, 0.3527680
1149.333, 0.1472020
1149.815, 0.6445920
1150.297, 2.269913
1150.779, 3.379242
1151.261, 2.348358
1151.744, 1.163254
1152.226, 1.580597
1152.708, 2.472763
1153.190, 2.186737
1153.672, 1.088623
1154.154, 0.8591310
1154.636, 2.040085
1155.118, 2.863190
1155.600, 2.596664
1156.083, 2.189682
1156.565, 1.694229
1157.047, 1.454544
1157.529, 2.211884
1158.011, 3.157425
1158.493, 2.637756
1158.975, 0.6598820
1159.457, 6.7139000E-02
1159.940, 1.836334
1160.422, 3.001724
1160.904, 2.807465
1161.386, 2.586761
1161.868, 3.104980
1162.350, 3.521393
1162.832, 2.887787
1163.314, 1.596710
1163.796, 0.8511050
1164.279, 0.8383180
1164.761, 1.176147
1165.243, 2.081314
1165.725, 2.467957
1166.207, 1.942978
1166.689, 1.522064
1167.171, 1.824860
1167.653, 2.417419
1168.135, 2.781631
1168.618, 2.964188
1169.100, 2.598358
1169.582, 1.693359
1170.064, 1.214905
1170.546, 1.235672
1171.028, 1.190918
1171.510, 0.9409940
1171.992, 0.9776150
1172.474, 1.842987
1172.957, 2.967514
1173.439, 3.428909
1173.921, 3.307190
1174.403, 2.871048
1174.885, 2.177048
1175.367, 1.442825
1175.849, 0.8025670
1176.331, 0.6699370
1176.814, 1.209518
1177.296, 1.970947
1177.778, 2.812256
1178.260, 3.322510
1178.742, 2.416122
1179.224, 1.332016
1179.706, 1.888458
1180.188, 3.592545
1180.671, 5.690094
1181.153, 7.616135
1181.635, 7.733765
1182.117, 4.714432
1182.599, 2.003830
1183.081, 1.552567
1183.563, 1.939850
1184.045, 2.830185
1184.527, 3.543457
1185.010, 3.321945
1185.492, 2.432434
1185.974, 1.546097
1186.456, 0.6940770
1186.938, 0.4755550
1187.420, 1.589828
1187.902, 2.425568
1188.384, 2.521408
1188.866, 2.548340
1189.349, 2.753357
1189.831, 3.063858
1190.313, 3.467438
1190.795, 3.900009
1191.277, 4.112869
1191.759, 4.126877
1192.241, 3.775375
1192.723, 2.894043
1193.206, 2.192444
1193.688, 1.776382
1194.170, 1.809891
1194.652, 2.540375
1195.134, 3.192978
1195.616, 2.549973
1196.098, 1.018967
1196.580, 0.3128510
1197.063, 0.3795170
1197.545, 0.7579500
1198.027, 1.367767
1198.509, 1.984818
1198.991, 2.498123
1199.473, 2.363281
1199.955, 1.128983
1200.437, 0.2889860
1200.919, 0.7078860
1201.401, 0.5000460
1201.884, 0.2127990
1202.366, 0.1448670
1202.848, 0.4860080
1203.330, 0.9130100
1203.812, 2.071869
1204.294, 3.965363
1204.776, 4.676010
1205.258, 2.207413
1205.741, 1.8051000E-02
1206.223, 0.4804380
1206.705, 1.745651
1207.187, 2.760376
1207.669, 3.306717
1208.151, 2.850830
1208.633, 1.808701
1209.115, 1.623749
1209.598, 2.780075
1210.080, 3.328491
1210.562, 2.214111
1211.044, 1.601669
1211.526, 2.460236
1212.008, 3.232132
1212.490, 3.219208
1212.972, 2.744644
1213.454, 2.140411
1213.937, 1.417328
1214.419, 0.5411380
1214.901, 0.6763000
1215.383, 0.9768830
1215.865, 0.2006680
1216.347, 0.4634250
1216.829, 0.7353060
1217.311, 0.8487400
1217.793, 0.9850770
1218.276, 1.308350
1218.758, 2.234940
1219.240, 3.333267
1219.722, 3.232986
1220.204, 2.263550
1220.686, 1.427536
1221.168, 0.8716890
1221.650, 0.7646030
1222.133, 1.135315
1222.615, 2.058472
1223.097, 3.703522
1223.579, 4.728287
1224.061, 3.318924
1224.543, 1.341721
1225.025, 0.2625890
1225.507, 3.1815000E-02
1225.990, 0.7134400
1226.472, 1.892914
1226.954, 2.321106
1227.436, 1.889664
1227.918, 1.737640
1228.400, 2.700684
1228.882, 2.893463
1229.364, 0.7664490
1229.846, 0.7558750
1230.328, 1.6220000E-02
1230.811, 1.226898
1231.293, 1.831924
1231.775, 1.905487
1232.257, 1.479874
1232.739, 0.5660250
1233.221, 0.6287380
1233.703, 1.956161
1234.185, 2.974426
1234.668, 3.523270
1235.150, 4.011765
1235.632, 4.581680
1236.114, 5.103851
1236.596, 5.534348
1237.078, 5.675125
1237.560, 5.007431
1238.042, 3.853729
1238.525, 3.234787
1239.007, 3.053207
1239.489, 3.049545
1239.971, 3.159088
1240.453, 3.393585
1240.935, 3.697647
1241.417, 3.663956
1241.899, 2.856674
1242.381, 2.306839
1242.864, 2.917984
1243.346, 3.906006
1243.828, 5.492096
1244.310, 6.723282
1244.792, 6.190811
1245.274, 4.616257
1245.756, 3.609665
1246.238, 3.460190
1246.720, 3.692719
1247.203, 4.886658
1247.685, 5.372620
1248.167, 4.427002
1248.649, 3.683853
1249.131, 3.546188
1249.613, 3.970673
1250.095, 5.143112
1250.577, 6.355118
1251.059, 6.290039
1251.542, 4.954529
1252.024, 4.083740
1252.506, 3.672668
1252.988, 3.374893
1253.470, 3.160278
1253.952, 3.150452
1254.434, 3.368118
1254.916, 3.591797
1255.399, 3.648178
1255.881, 3.632385
1256.363, 3.374435
1256.845, 3.253098
1257.327, 4.237366
1257.809, 5.320847
1258.291, 5.226303
1258.773, 4.273285
1259.255, 3.671844
1259.738, 3.659302
1260.220, 3.850479
1260.702, 4.243408
1261.184, 4.457642
1261.666, 4.023422
1262.148, 3.858200
1262.630, 5.039566
1263.112, 5.848221
1263.594, 4.433411
1264.077, 2.397049
1264.559, 2.286667
1265.041, 3.781189
1265.523, 4.048859
1266.005, 2.737854
1266.487, 2.414566
1266.969, 3.304062
1267.451, 3.565369
1267.934, 2.746017
1268.416, 2.082748
1268.898, 2.279434
1269.380, 2.664886
1269.862, 2.329498
1270.344, 1.864532
1270.826, 2.909058
1271.308, 4.270813
1271.791, 3.155762
1272.273, 0.7450260
1272.755, 0.2085270
1273.237, 0.4768220
1273.719, 1.511353
1274.201, 2.510330
1274.683, 2.975113
1275.165, 2.253723
1275.647, 1.582596
1276.130, 1.578629
1276.612, 1.578217
1277.094, 0.9069060
1277.576, 0.2948910
1278.058, 0.7149200
1278.540, 1.722748
1279.022, 2.010971
1279.504, 1.608002
1279.986, 1.401871
1280.469, 1.407303
1280.951, 1.579987
1281.433, 1.951141
1281.915, 1.749130
1282.397, 0.6958920
1282.879, 3.8330000E-02
1283.361, 0.5448000
1283.843, 1.496964
1284.326, 1.137772
1284.808, 0.0000000E+00
##END=



