##NAMES=Zircon
##RRUFFID=R050286
##IDEAL CHEMISTRY=ZrSiO_4_
##LOCALITY=Renfrew County, Ontario, Canada
##OWNER=RRUFF
##SOURCE=Marcus Origlieri
##DESCRIPTION=Brownish red prismatic crystal frozen in matrix, associated with apatite
##STATUS=The identification of this mineral has been confirmed by X-ray diffraction and chemical analysis
##URL=rruff.info/R050286
##MEASURED CHEMISTRY=Zr_1.00_Si_1.00_O_4_; trace amounts of Hf
143.6959, 0.0000000E+00
144.1780, 0.1476440
144.6601, 0.7357180
145.1422, 2.494690
145.6243, 4.788696
146.1064, 7.384094
146.5886, 10.38562
147.0707, 14.54126
147.5528, 18.07715
148.0349, 19.88000
148.5170, 19.07275
148.9991, 17.96594
149.4813, 16.83740
149.9634, 15.58838
150.4455, 13.55334
150.9276, 8.416504
151.4097, 3.507568
151.8918, 0.7821040
152.3740, 1.840942
152.8561, 3.056519
153.3382, 4.274780
153.8203, 5.458496
154.3024, 6.139526
154.7845, 6.441650
155.2667, 6.123901
155.7488, 5.018799
156.2309, 1.121338
156.7130, 1.601440
157.1951, 1.816528
157.6772, 0.6032710
158.1594, 2.745850
158.6415, 3.645752
159.1236, 4.106445
159.6057, 4.923096
160.0878, 6.115723
160.5699, 7.802734
161.0521, 10.45557
161.5342, 14.28027
162.0163, 17.21680
162.4984, 17.86194
162.9805, 17.39539
163.4626, 17.31006
163.9448, 18.52124
164.4269, 19.95996
164.9090, 21.23047
165.3911, 22.37598
165.8732, 22.94360
166.3553, 22.25806
166.8375, 20.89941
167.3196, 19.82153
167.8017, 19.40332
168.2838, 19.44031
168.7659, 19.99207
169.2480, 21.29102
169.7302, 22.17029
170.2123, 21.25098
170.6944, 19.26477
171.1765, 17.88354
171.6586, 18.52051
172.1407, 19.86975
172.6229, 20.52747
173.1050, 20.01184
173.5871, 19.52380
174.0692, 20.50769
174.5513, 22.46497
175.0334, 23.90991
175.5156, 22.92212
175.9977, 21.18872
176.4798, 21.25732
176.9619, 23.95081
177.4440, 27.61047
177.9261, 30.44128
178.4083, 32.63269
178.8904, 34.92920
179.3725, 37.59229
179.8546, 40.72656
180.3367, 44.59558
180.8188, 49.52979
181.3010, 54.70874
181.7831, 58.22461
182.2652, 60.38025
182.7473, 63.91968
183.2294, 71.88245
183.7115, 82.87952
184.1937, 92.88171
184.6758, 101.3110
185.1579, 108.2306
185.6400, 113.3988
186.1221, 116.8517
186.6042, 120.6876
187.0864, 127.1620
187.5685, 135.6542
188.0506, 142.7751
188.5327, 146.8210
189.0148, 150.0262
189.4969, 157.8955
189.9791, 170.5271
190.4612, 185.0826
190.9433, 199.9656
191.4254, 214.9908
191.9075, 229.6152
192.3896, 243.3274
192.8718, 256.6376
193.3539, 271.1244
193.8360, 286.8761
194.3181, 304.1229
194.8002, 322.6466
195.2823, 342.6287
195.7645, 365.2072
196.2466, 389.9965
196.7287, 417.6697
197.2108, 450.7509
197.6929, 489.1243
198.1750, 533.2939
198.6572, 584.2471
199.1393, 641.8339
199.6214, 704.5328
200.1035, 773.4379
200.5856, 847.2731
201.0677, 923.6490
201.5499, 1010.400
202.0320, 1075.248
202.5141, 1081.114
202.9962, 1022.804
203.4783, 945.9296
203.9604, 851.7267
204.4426, 744.9669
204.9247, 666.0984
205.4068, 618.1055
205.8889, 592.1440
206.3710, 582.3412
206.8531, 590.4532
207.3353, 605.7698
207.8174, 626.4729
208.2995, 652.4755
208.7816, 683.2466
209.2637, 719.4279
209.7458, 758.4524
210.2280, 798.5962
210.7101, 841.1265
211.1922, 880.4966
211.6743, 917.7504
212.1564, 952.2078
212.6385, 972.1621
213.1207, 976.2893
213.6028, 967.8103
214.0849, 947.6378
214.5670, 911.9167
215.0491, 876.5897
215.5313, 843.2737
216.0134, 811.8950
216.4955, 790.4724
216.9776, 778.8313
217.4597, 777.0923
217.9418, 785.7089
218.4239, 805.6187
218.9061, 833.1189
219.3882, 867.6525
219.8703, 908.8458
220.3524, 958.0677
220.8345, 1018.223
221.3166, 1082.455
221.7988, 1146.364
222.2809, 1213.790
222.7630, 1270.588
223.2451, 1317.995
223.7272, 1356.701
224.2093, 1360.673
224.6915, 1327.289
225.1736, 1262.023
225.6557, 1168.096
226.1378, 1029.234
226.6199, 893.1466
227.1020, 766.2805
227.5842, 647.4122
228.0663, 545.6973
228.5484, 462.3762
229.0305, 393.3168
229.5126, 335.1082
229.9947, 289.9309
230.4769, 251.9451
230.9590, 220.5497
231.4411, 195.7721
231.9232, 173.6217
232.4053, 153.6815
232.8874, 136.4839
233.3696, 122.9244
233.8517, 115.1880
234.3338, 107.2002
234.8159, 97.20227
235.2980, 85.07581
235.7801, 76.00403
236.2623, 71.35303
236.7444, 68.51257
237.2265, 65.40735
237.7086, 62.12036
238.1907, 58.33606
238.6728, 53.52100
239.1550, 47.73547
239.6371, 43.22266
240.1192, 40.58313
240.6013, 39.03601
241.0834, 37.97131
241.5655, 37.88965
242.0477, 36.88013
242.5298, 33.96643
243.0119, 29.44482
243.4940, 27.05371
243.9761, 28.19824
244.4582, 29.93469
244.9404, 29.98621
245.4225, 27.20947
245.9046, 24.98523
246.3867, 23.89294
246.8688, 23.86230
247.3509, 23.56897
247.8331, 22.50513
248.3152, 21.49878
248.7973, 21.31641
249.2794, 22.93030
249.7615, 23.35291
250.2436, 21.74878
250.7258, 18.71582
251.2079, 17.12659
251.6900, 17.52319
252.1721, 18.59912
252.6542, 19.72424
253.1363, 21.15308
253.6185, 21.97644
254.1006, 21.63489
254.5827, 20.67395
255.0648, 21.07593
255.5469, 23.63208
256.0291, 26.27539
256.5112, 27.95227
256.9933, 28.45239
257.4754, 28.44409
257.9575, 27.47229
258.4396, 26.16821
258.9218, 26.47766
259.4039, 29.19299
259.8860, 32.09827
260.3681, 34.31641
260.8502, 35.98230
261.3323, 36.42566
261.8145, 34.98352
262.2966, 32.69287
262.7787, 31.78552
263.2608, 32.49365
263.7429, 34.05396
264.2250, 36.57153
264.7072, 40.68518
265.1893, 42.74414
265.6714, 41.98022
266.1535, 39.73535
266.6356, 38.52856
267.1177, 38.85791
267.5999, 38.83423
268.0820, 37.48450
268.5641, 34.47876
269.0462, 32.91211
269.5283, 33.70435
270.0104, 34.82544
270.4926, 32.87451
270.9747, 26.83752
271.4568, 21.36133
271.9389, 17.95728
272.4210, 16.66174
272.9031, 16.26575
273.3853, 17.19458
273.8674, 18.30359
274.3495, 17.99170
274.8316, 16.00537
275.3137, 13.89062
275.7958, 11.83398
276.2780, 9.890381
276.7601, 9.286377
277.2422, 10.65186
277.7243, 11.68018
278.2064, 9.138428
278.6885, 2.406250
279.1707, 2.509644
279.6528, 3.892456
280.1349, 2.333984
280.6170, 0.6453860
281.0991, 1.301270
281.5812, 2.940796
282.0634, 3.933472
282.5455, 4.333496
283.0276, 3.439941
283.5097, 0.5937500
283.9918, 3.303223
284.4739, 5.422241
284.9561, 5.658325
285.4382, 4.893433
285.9203, 3.104004
286.4024, 0.4572750
286.8845, 0.5032960
287.3666, 1.134766
287.8488, 3.991821
288.3309, 5.089844
288.8130, 4.411133
289.2951, 3.217163
289.7772, 1.769287
290.2593, 0.3205570
290.7415, 0.5401610
291.2236, 3.055176
291.7057, 6.188721
292.1878, 6.989502
292.6699, 5.623657
293.1520, 4.216431
293.6342, 4.057983
294.1163, 4.796143
294.5984, 5.449219
295.0805, 6.013428
295.5626, 6.192749
296.0447, 4.934326
296.5269, 2.664307
297.0090, 1.453491
297.4911, 3.285034
297.9732, 6.745605
298.4553, 8.815063
298.9374, 9.427612
299.4196, 9.080811
299.9017, 7.839844
300.3838, 6.003662
300.8659, 4.392212
301.3480, 3.696533
301.8301, 3.263916
302.3123, 1.710327
302.7944, 0.9222410
303.2765, 2.857178
303.7586, 1.843384
304.2407, 0.7532960
304.7228, 2.407715
305.2050, 1.834961
305.6871, 0.4633790
306.1692, 0.2138670
306.6513, 0.3062740
307.1334, 0.2277830
307.6155, 0.1787110
308.0977, 0.1700440
308.5798, 0.2293700
309.0619, 0.4959720
309.5440, 0.6536870
310.0261, 4.0527001E-02
310.5082, 0.9875490
310.9904, 1.335571
311.4725, 3.1493999E-02
311.9546, 2.097534
312.4367, 4.034546
312.9188, 5.745483
313.4009, 7.190552
313.8831, 7.806030
314.3652, 8.123901
314.8473, 9.174561
315.3294, 11.99377
315.8115, 15.28247
316.2936, 18.37317
316.7758, 21.23767
317.2579, 23.69006
317.7400, 24.87939
318.2221, 25.86743
318.7042, 28.04785
319.1863, 33.30847
319.6685, 38.56323
320.1506, 42.27112
320.6327, 44.34448
321.1148, 46.94922
321.5969, 50.60547
322.0790, 55.08313
322.5612, 60.30969
323.0433, 67.87866
323.5254, 74.42249
324.0075, 78.12915
324.4896, 79.55090
324.9717, 82.76843
325.4539, 90.39502
325.9360, 98.72559
326.4181, 105.5743
326.9002, 108.4242
327.3823, 112.8325
327.8644, 119.8420
328.3466, 128.7529
328.8287, 137.4150
329.3108, 144.7769
329.7929, 152.8557
330.2750, 162.1613
330.7571, 173.0270
331.2393, 184.6597
331.7214, 196.8025
332.2035, 209.8434
332.6856, 224.0266
333.1677, 238.2360
333.6498, 255.2826
334.1320, 276.2578
334.6141, 301.0017
335.0962, 327.8407
335.5783, 356.8331
336.0604, 387.7611
336.5425, 420.9919
337.0247, 457.5659
337.5068, 494.1346
337.9889, 530.5692
338.4710, 566.8196
338.9531, 603.2161
339.4352, 639.2018
339.9173, 677.1644
340.3994, 718.6191
340.8816, 764.1893
341.3637, 811.2065
341.8458, 860.0438
342.3279, 909.9055
342.8100, 960.5142
343.2921, 1010.926
343.7743, 1066.024
344.2564, 1128.465
344.7385, 1198.467
345.2206, 1270.096
345.7027, 1342.674
346.1848, 1419.600
346.6670, 1505.346
347.1491, 1600.018
347.6312, 1704.433
348.1133, 1820.804
348.5954, 1947.729
349.0775, 2082.503
349.5597, 2226.439
350.0418, 2377.141
350.5239, 2534.395
351.0060, 2697.089
351.4881, 2855.764
351.9702, 3013.430
352.4524, 3160.761
352.9345, 3288.459
353.4166, 3394.810
353.8987, 3464.180
354.3808, 3489.090
354.8629, 3468.375
355.3451, 3396.551
355.8272, 3266.472
356.3093, 3097.943
356.7914, 2896.075
357.2735, 2667.290
357.7556, 2433.377
358.2378, 2194.532
358.7199, 1964.655
359.2020, 1756.094
359.6841, 1570.802
360.1662, 1403.544
360.6483, 1253.016
361.1305, 1118.225
361.6126, 997.8777
362.0947, 893.2754
362.5768, 801.4131
363.0589, 721.9281
363.5410, 654.6946
364.0232, 593.7605
364.5053, 537.8464
364.9874, 487.0472
365.4695, 441.4426
365.9516, 402.3308
366.4337, 367.0073
366.9159, 334.7129
367.3980, 305.5598
367.8801, 279.9215
368.3622, 260.3867
368.8443, 242.5985
369.3264, 224.7634
369.8086, 206.0433
370.2907, 188.3849
370.7728, 171.0697
371.2549, 155.0262
371.7370, 142.0461
372.2191, 134.1232
372.7013, 126.4600
373.1834, 117.6930
373.6655, 107.5531
374.1476, 98.56628
374.6297, 90.74280
375.1118, 84.29431
375.5940, 79.98352
376.0761, 78.99536
376.5582, 76.36450
377.0403, 70.53809
377.5224, 62.57507
378.0045, 57.05347
378.4867, 54.44763
378.9688, 52.84387
379.4509, 51.30835
379.9330, 49.85608
380.4151, 47.69202
380.8972, 44.44556
381.3794, 41.09229
381.8615, 39.50549
382.3436, 39.63257
382.8257, 40.00073
383.3078, 39.74512
383.7899, 39.17273
384.2721, 39.46252
384.7542, 40.64661
385.2363, 42.23218
385.7184, 44.07300
386.2005, 45.95129
386.6826, 47.36707
387.1648, 47.76733
387.6469, 48.02820
388.1290, 49.50586
388.6111, 52.00500
389.0932, 54.39722
389.5753, 56.65308
390.0575, 58.14355
390.5396, 58.29004
391.0217, 57.14526
391.5038, 54.24512
391.9859, 48.07935
392.4680, 40.05188
392.9502, 32.62402
393.4323, 26.96155
393.9144, 22.16052
394.3965, 17.83008
394.8786, 13.91492
395.3607, 10.34790
395.8429, 6.843872
396.3250, 3.761353
396.8071, 1.406738
397.2892, 3.0520000E-03
397.7713, 0.8385010
398.2534, 1.245728
398.7356, 1.170532
399.2177, 0.3692630
399.6998, 1.430298
400.1819, 3.780762
400.6640, 6.558716
401.1461, 10.12842
401.6283, 13.31653
402.1104, 15.12878
402.5925, 17.00842
403.0746, 21.41089
403.5567, 29.86426
404.0388, 38.00208
404.5210, 44.20984
405.0031, 48.47400
405.4852, 55.39490
405.9673, 66.01208
406.4494, 77.39832
406.9315, 87.14990
407.4137, 95.20862
407.8958, 102.3215
408.3779, 108.0232
408.8600, 113.4181
409.3421, 121.7804
409.8242, 133.2664
410.3064, 144.7511
410.7885, 154.0493
411.2706, 161.8273
411.7527, 170.9275
412.2348, 181.5006
412.7169, 193.4364
413.1991, 206.8333
413.6812, 221.5118
414.1633, 236.5706
414.6454, 252.6991
415.1275, 268.2179
415.6096, 280.2777
416.0918, 289.1328
416.5739, 297.5077
417.0560, 307.0446
417.5381, 317.1987
418.0202, 327.0162
418.5023, 335.4364
418.9845, 345.7271
419.4666, 360.4891
419.9487, 378.5221
420.4308, 397.2034
420.9129, 415.0709
421.3951, 433.8821
421.8772, 454.6569
422.3593, 477.1061
422.8414, 501.6665
423.3235, 528.2806
423.8056, 556.9971
424.2878, 587.5774
424.7699, 620.1372
425.2520, 654.4001
425.7341, 689.7378
426.2162, 726.2134
426.6983, 766.0413
427.1805, 809.0332
427.6626, 855.0575
428.1447, 904.4618
428.6268, 956.8831
429.1089, 1012.687
429.5910, 1071.864
430.0732, 1135.297
430.5553, 1205.646
431.0374, 1283.812
431.5195, 1364.842
432.0016, 1448.817
432.4837, 1535.050
432.9659, 1622.247
433.4480, 1710.566
433.9301, 1798.767
434.4122, 1888.658
434.8943, 1978.849
435.3764, 2060.721
435.8586, 2134.371
436.3407, 2196.623
436.8228, 2246.335
437.3049, 2281.969
437.7870, 2296.282
438.2691, 2285.969
438.7513, 2252.987
439.2334, 2198.308
439.7155, 2122.243
440.1976, 2029.538
440.6797, 1914.918
441.1618, 1789.242
441.6440, 1664.337
442.1261, 1542.419
442.6082, 1425.809
443.0903, 1314.642
443.5724, 1209.955
444.0545, 1114.010
444.5367, 1028.625
445.0188, 951.3730
445.5009, 880.1558
445.9830, 815.3904
446.4651, 757.3505
446.9472, 708.2277
447.4294, 664.5361
447.9115, 623.9456
448.3936, 586.1931
448.8757, 551.1656
449.3578, 519.1973
449.8399, 490.2729
450.3221, 462.1979
450.8042, 434.3368
451.2863, 408.3558
451.7684, 384.9899
452.2505, 364.6367
452.7326, 344.4882
453.2148, 324.6945
453.6969, 305.1461
454.1790, 286.0963
454.6611, 267.3159
455.1432, 249.7656
455.6253, 233.4470
456.1075, 218.8120
456.5896, 207.9854
457.0717, 200.8132
457.5538, 195.1971
458.0359, 190.3967
458.5180, 185.9644
459.0002, 180.6982
459.4823, 174.4188
459.9644, 168.7844
460.4465, 165.8815
460.9286, 164.6068
461.4107, 163.0442
461.8929, 159.3217
462.3750, 156.0518
462.8571, 155.7279
463.3392, 157.7860
463.8213, 159.6355
464.3034, 159.9417
464.7856, 159.7568
465.2677, 159.7236
465.7498, 159.8651
466.2319, 160.4969
466.7140, 162.1410
467.1961, 164.1604
467.6783, 165.7468
468.1604, 166.1616
468.6425, 166.7551
469.1246, 168.1699
469.6067, 170.3141
470.0888, 171.2649
470.5710, 170.8073
471.0531, 169.0383
471.5352, 166.0913
472.0173, 161.9918
472.4994, 156.5792
472.9815, 149.5592
473.4637, 141.6599
473.9458, 134.0890
474.4279, 126.8348
474.9100, 119.4469
475.3921, 111.6788
475.8742, 103.7766
476.3564, 96.67810
476.8385, 90.37561
477.3206, 83.75195
477.8027, 74.98413
478.2848, 65.47351
478.7669, 58.42261
479.2491, 54.51257
479.7312, 51.88428
480.2133, 49.70850
480.6954, 47.44250
481.1775, 44.06677
481.6596, 37.67896
482.1418, 31.29993
482.6239, 26.88184
483.1060, 24.22766
483.5881, 22.03967
484.0702, 20.58521
484.5523, 18.83679
485.0345, 16.05554
485.5166, 11.64990
485.9987, 7.418701
486.4808, 3.608276
486.9629, 0.1750490
487.4450, 2.960205
487.9272, 6.195557
488.4093, 8.492065
488.8914, 9.349976
489.3735, 8.970825
489.8556, 9.123535
490.3377, 9.962036
490.8199, 10.96606
491.3020, 12.02319
491.7841, 13.21790
492.2662, 13.20081
492.7483, 11.60620
493.2304, 9.640259
493.7126, 9.366577
494.1947, 10.50085
494.6768, 10.73499
495.1589, 8.963867
495.6410, 6.213989
496.1231, 4.666504
496.6053, 4.040649
497.0874, 2.518311
497.5695, 2.496094
498.0516, 8.348022
498.5337, 11.73682
499.0158, 11.91028
499.4980, 11.79504
499.9801, 12.33472
500.4622, 13.88574
500.9443, 16.88403
501.4264, 23.57678
501.9085, 29.46985
502.3907, 32.93518
502.8728, 34.45557
503.3549, 36.08630
503.8370, 38.53833
504.3191, 40.83545
504.8012, 42.65466
505.2834, 43.94861
505.7655, 44.67834
506.2476, 44.79297
506.7297, 44.50623
507.2118, 44.02283
507.6939, 43.41199
508.1761, 42.10608
508.6582, 39.84900
509.1403, 36.98804
509.6224, 34.41919
510.1045, 32.14355
510.5866, 29.62012
511.0688, 26.23206
511.5509, 22.41003
512.0330, 19.50330
512.5151, 17.50977
512.9973, 15.84436
513.4794, 14.36377
513.9615, 12.74756
514.4436, 10.25586
514.9257, 6.080078
515.4078, 2.593018
515.8900, 2.637451
516.3721, 4.518311
516.8542, 5.002808
517.3363, 1.023804
517.8184, 2.855957
518.3005, 4.599243
518.7827, 4.168579
519.2648, 3.474243
519.7469, 2.694946
520.2290, 1.857422
520.7111, 0.9571530
521.1932, 0.1047360
521.6754, 1.032593
522.1575, 1.871704
522.6396, 2.532349
523.1217, 2.818604
523.6038, 2.607422
524.0859, 2.418213
524.5681, 2.327881
525.0502, 2.355225
525.5323, 2.819824
526.0144, 3.768555
526.4965, 4.208862
526.9786, 2.679688
527.4608, 0.1481930
527.9429, 0.2600100
528.4250, 1.739868
528.9071, 4.418457
529.3892, 6.478760
529.8713, 8.099976
530.3535, 9.481079
530.8356, 10.45740
531.3177, 11.55566
531.7998, 13.36377
532.2819, 15.61719
532.7640, 17.56409
533.2462, 18.76001
533.7283, 19.71985
534.2104, 20.39355
534.6925, 20.68298
535.1746, 22.01294
535.6567, 25.16455
536.1389, 28.83752
536.6210, 32.23962
537.1031, 35.43542
537.5852, 38.31799
538.0673, 40.93958
538.5494, 43.32544
539.0316, 45.37000
539.5137, 47.02734
539.9958, 48.56201
540.4779, 49.76208
540.9600, 51.09436
541.4421, 54.34143
541.9243, 59.39270
542.4064, 64.42407
542.8885, 68.28760
543.3706, 71.19727
543.8527, 73.48755
544.3348, 75.17676
544.8170, 76.36694
545.2991, 77.40527
545.7812, 77.75842
546.2633, 76.73010
546.7454, 72.80115
547.2275, 69.42322
547.7097, 68.81970
548.1918, 69.73206
548.6739, 69.32043
549.1560, 65.74817
549.6381, 62.02466
550.1202, 59.35596
550.6024, 57.89233
551.0845, 55.56372
551.5666, 51.38110
552.0487, 47.39136
552.5308, 45.25842
553.0129, 45.52722
553.4951, 45.32629
553.9772, 44.49438
554.4593, 43.01306
554.9414, 40.67834
555.4235, 37.69116
555.9056, 34.92493
556.3878, 32.67065
556.8699, 30.86230
557.3520, 29.64270
557.8341, 28.88599
558.3162, 28.07605
558.7983, 26.70520
559.2805, 25.27295
559.7626, 24.60779
560.2447, 24.79236
560.7268, 24.07373
561.2089, 19.89905
561.6910, 15.49207
562.1732, 13.55994
562.6553, 17.18054
563.1374, 19.26416
563.6195, 17.70923
564.1016, 14.49304
564.5837, 12.52209
565.0659, 12.25012
565.5480, 12.36414
566.0301, 12.64612
566.5122, 13.10120
566.9943, 13.90515
567.4764, 15.18933
567.9586, 16.17273
568.4407, 16.16443
568.9228, 15.37671
569.4049, 14.96497
569.8870, 14.94983
570.3691, 15.34741
570.8513, 16.77454
571.3334, 18.53711
571.8155, 19.06702
572.2976, 17.47070
572.7797, 15.83289
573.2618, 15.92163
573.7440, 17.08142
574.2261, 17.99841
574.7082, 17.87488
575.1903, 17.39746
575.6724, 16.46094
576.1545, 15.33594
576.6367, 15.34180
577.1188, 18.15759
577.6009, 20.58643
578.0830, 21.33350
578.5651, 20.09814
579.0472, 18.77258
579.5294, 17.28589
580.0115, 15.79724
580.4936, 14.37500
580.9757, 12.98779
581.4578, 11.94556
581.9399, 11.38232
582.4221, 10.99097
582.9042, 10.30981
583.3863, 9.405273
583.8684, 8.454834
584.3505, 7.208984
584.8326, 6.057739
585.3148, 5.682983
585.7969, 5.975586
586.2789, 6.122070
586.7610, 5.017700
587.2432, 4.003418
587.7253, 4.292358
588.2074, 6.341187
588.6895, 7.314453
589.1716, 5.398682
589.6537, 3.014282
590.1359, 2.042480
590.6180, 3.655640
591.1001, 4.294800
591.5822, 3.494019
592.0643, 1.980347
592.5464, 0.9100340
593.0286, 0.3175050
593.5107, 5.1146999E-02
593.9928, 0.2802730
594.4749, 0.6688230
594.9570, 0.1298830
595.4391, 1.220581
595.9213, 2.349121
596.4034, 2.294189
596.8855, 1.794922
597.3676, 2.118774
597.8497, 3.290039
598.3318, 3.868286
598.8140, 2.387817
599.2961, 0.2346190
599.7782, 1.336182
600.2603, 1.593140
600.7424, 2.323975
601.2245, 4.487061
601.7067, 7.088623
602.1888, 8.769653
602.6709, 8.654907
603.1530, 9.052612
603.6351, 10.48218
604.1172, 12.50549
604.5994, 13.74988
605.0815, 14.03687
605.5636, 14.40723
606.0457, 15.34070
606.5278, 16.71680
607.0099, 18.18384
607.4921, 19.73474
607.9742, 21.19214
608.4563, 22.22412
608.9384, 23.17578
609.4205, 24.61499
609.9026, 26.71594
610.3848, 28.76172
610.8669, 30.24060
611.3490, 31.46033
611.8311, 32.72595
612.3132, 33.02844
612.7953, 34.79443
613.2775, 40.01038
613.7596, 46.64453
614.2417, 50.86035
614.7238, 50.85999
615.2059, 51.38708
615.6880, 53.55273
616.1702, 57.02881
616.6523, 60.50854
617.1344, 64.12915
617.6165, 67.08289
618.0986, 68.83459
618.5807, 69.55847
619.0629, 69.62012
619.5450, 68.98438
620.0271, 68.60913
620.5092, 69.87195
620.9913, 71.70923
621.4734, 72.57874
621.9556, 71.98499
622.4377, 71.17310
622.9198, 70.77551
623.4019, 70.57019
623.8840, 70.29333
624.3661, 69.23401
624.8483, 68.86890
625.3304, 69.92273
625.8125, 71.69177
626.2946, 72.63965
626.7767, 72.54260
627.2589, 72.10168
627.7410, 71.56763
628.2231, 70.87830
628.7052, 69.65515
629.1873, 67.90564
629.6694, 65.71594
630.1516, 62.20923
630.6337, 58.46582
631.1158, 57.69788
631.5979, 60.04480
632.0800, 62.02844
632.5621, 59.79895
633.0443, 56.38049
633.5264, 55.32129
634.0085, 58.34814
634.4906, 60.91052
634.9727, 61.24915
635.4548, 60.26282
635.9370, 58.96399
636.4191, 56.97144
636.9012, 55.29968
637.3833, 54.10486
637.8654, 53.23645
638.3475, 52.27588
638.8297, 51.05713
639.3118, 50.60938
639.7939, 51.87976
640.2760, 53.91467
640.7581, 53.00623
641.2402, 49.32971
641.7224, 45.94580
642.2045, 45.55066
642.6866, 46.17981
643.1687, 45.22058
643.6508, 42.55371
644.1329, 39.11719
644.6151, 34.12854
645.0972, 29.36816
645.5793, 26.50623
646.0614, 26.74597
646.5435, 26.54736
647.0256, 24.49170
647.5078, 22.24475
647.9899, 21.42139
648.4720, 22.60339
648.9541, 24.06555
649.4362, 26.17859
649.9183, 27.81323
650.4005, 26.16736
650.8826, 21.32800
651.3647, 17.76843
651.8468, 17.32776
652.3289, 18.63440
652.8110, 19.66833
653.2932, 20.38806
653.7753, 20.74182
654.2574, 20.73962
654.7395, 20.47974
655.2216, 19.82764
655.7037, 18.74707
656.1859, 17.73511
656.6680, 17.33057
657.1501, 16.94470
657.6322, 16.11353
658.1143, 14.65015
658.5964, 13.43665
659.0786, 12.40747
659.5607, 11.80310
660.0428, 12.15869
660.5249, 13.58923
661.0070, 13.80408
661.4891, 12.41443
661.9713, 10.50989
662.4534, 9.581055
662.9355, 9.278076
663.4176, 8.492676
663.8997, 6.351563
664.3818, 4.594849
664.8640, 5.399292
665.3461, 7.572144
665.8282, 8.797363
666.3103, 7.688843
666.7924, 6.094727
667.2745, 3.853027
667.7567, 1.396851
668.2388, 1.214600
668.7209, 4.937622
669.2030, 8.385864
669.6851, 9.783447
670.1672, 9.351929
670.6494, 9.337524
671.1315, 10.03186
671.6136, 10.39465
672.0957, 9.015747
672.5778, 6.697266
673.0599, 5.875732
673.5421, 6.769775
674.0242, 8.432129
674.5063, 10.31860
674.9884, 12.33533
675.4705, 14.19885
675.9526, 16.11633
676.4348, 17.58118
676.9169, 19.10913
677.3990, 19.96338
677.8811, 19.12500
678.3632, 14.40161
678.8453, 12.03442
679.3275, 13.48865
679.8096, 16.59790
680.2917, 17.09253
680.7738, 14.71472
681.2559, 13.98157
681.7380, 16.88086
682.2202, 21.29492
682.7023, 22.99426
683.1844, 22.55811
683.6665, 22.19153
684.1486, 23.55396
684.6307, 25.03833
685.1129, 25.05896
685.5950, 23.98901
686.0771, 23.40479
686.5592, 24.79175
687.0413, 26.16418
687.5234, 26.17419
688.0056, 24.61621
688.4877, 24.86365
688.9698, 27.66797
689.4519, 30.88989
689.9340, 33.50415
690.4161, 35.50391
690.8983, 35.69910
691.3804, 33.82166
691.8625, 31.87183
692.3446, 31.94531
692.8267, 33.39136
693.3088, 35.23950
693.7910, 37.61304
694.2731, 39.05090
694.7552, 37.46680
695.2373, 34.81628
695.7194, 33.36609
696.2015, 34.64209
696.6837, 35.91577
697.1658, 36.62988
697.6479, 37.19348
698.1300, 38.42053
698.6121, 41.01904
699.0942, 42.01624
699.5764, 40.14807
700.0585, 37.01440
700.5406, 36.89062
701.0227, 39.44043
701.5048, 41.07410
701.9869, 39.10913
702.4691, 36.24902
702.9512, 36.81177
703.4333, 39.84814
703.9154, 41.69312
704.3975, 39.68884
704.8796, 36.82703
705.3618, 34.31531
705.8439, 32.25232
706.3260, 31.30103
706.8081, 32.64758
707.2902, 33.69604
707.7723, 32.92139
708.2545, 30.14185
708.7366, 29.59326
709.2187, 31.65002
709.7008, 34.17993
710.1829, 35.60498
710.6650, 36.05188
711.1472, 35.75439
711.6293, 34.67749
712.1114, 33.44739
712.5935, 33.00293
713.0756, 32.47290
713.5577, 30.64197
714.0399, 26.42212
714.5220, 23.27502
715.0041, 22.57996
715.4862, 23.36023
715.9683, 24.74512
716.4504, 28.10828
716.9326, 28.91309
717.4147, 26.15588
717.8968, 21.66907
718.3789, 18.07532
718.8610, 15.33801
719.3431, 13.47351
719.8253, 12.69348
720.3074, 12.29614
720.7895, 11.06750
721.2716, 9.467407
721.7537, 8.561890
722.2358, 10.22302
722.7180, 11.26685
723.2001, 9.397095
723.6822, 5.565186
724.1643, 2.681885
724.6464, 2.605225
725.1285, 1.616211
725.6107, 2.069824
726.0928, 7.330933
726.5749, 7.922119
727.0570, 2.905396
727.5391, 0.9530030
728.0212, 0.6781010
728.5034, 5.432739
728.9855, 6.489868
729.4676, 4.317261
729.9497, 2.390625
730.4318, 3.067139
730.9139, 4.949829
731.3961, 7.765869
731.8782, 11.42957
732.3603, 12.65979
732.8424, 7.580444
733.3245, 2.363281
733.8066, 0.3641360
734.2888, 2.240601
734.7709, 3.182861
735.2530, 3.060303
735.7351, 2.359497
736.2172, 1.864624
736.6993, 1.278931
737.1815, 1.873657
737.6636, 7.958496
738.1457, 13.99792
738.6278, 18.69763
739.1099, 21.02808
739.5920, 18.60156
740.0742, 9.187256
740.5563, 1.895874
741.0384, 2.561401
741.5205, 5.804077
742.0026, 6.187866
742.4847, 0.5056150
742.9669, 2.015625
743.4490, 0.1563720
743.9311, 3.719238
744.4132, 4.005249
744.8953, 1.126465
745.3774, 0.6142580
745.8596, 0.4160160
746.3417, 1.128906
746.8238, 4.705200
747.3059, 8.855713
747.7880, 10.52527
748.2701, 6.472046
748.7523, 3.013062
749.2344, 3.791382
749.7165, 7.079834
750.1986, 9.725586
750.6807, 11.46558
751.1628, 12.44995
751.6450, 12.34656
752.1271, 11.70068
752.6092, 11.96582
753.0913, 13.22961
753.5734, 13.94360
754.0555, 13.34290
754.5377, 12.18872
755.0198, 11.65100
755.5019, 11.63452
755.9840, 11.88965
756.4661, 12.53027
756.9482, 13.14526
757.4304, 13.64185
757.9125, 13.92212
758.3946, 13.71777
758.8767, 12.87012
759.3588, 11.59912
759.8409, 9.504761
760.3231, 7.009888
760.8052, 6.878662
761.2873, 9.571167
761.7694, 11.40820
762.2515, 10.08801
762.7336, 6.985718
763.2158, 5.220093
763.6979, 4.583008
764.1800, 3.950806
764.6621, 1.783447
765.1442, 7.4951001E-02
765.6263, 0.6791990
766.1085, 3.511230
766.5906, 5.565063
767.0727, 6.062012
767.5548, 5.929688
768.0369, 5.446167
768.5190, 4.603638
769.0012, 3.099121
769.4833, 0.7454830
769.9654, 1.058105
770.4475, 1.121094
770.9296, 3.5767000E-02
771.4117, 1.348511
771.8939, 2.755371
772.3760, 3.632935
772.8581, 2.858765
773.3402, 1.915405
773.8223, 1.937866
774.3044, 3.110718
774.7866, 4.657227
775.2687, 7.434082
775.7508, 9.496704
776.2329, 9.358398
776.7150, 6.566284
777.1971, 6.391113
777.6793, 9.267212
778.1614, 12.27930
778.6435, 12.19836
779.1256, 10.53577
779.6077, 11.17920
780.0898, 14.48767
780.5720, 17.60730
781.0541, 17.97717
781.5362, 17.80432
782.0183, 19.21045
782.5004, 23.31201
782.9825, 25.78516
783.4647, 25.31201
783.9468, 23.75232
784.4289, 22.51672
784.9110, 21.87048
785.3931, 22.61084
785.8752, 24.53284
786.3574, 26.74365
786.8395, 29.36963
787.3216, 32.04297
787.8037, 33.44751
788.2858, 33.08496
788.7679, 32.40979
789.2501, 32.02576
789.7322, 31.76038
790.2143, 31.69763
790.6964, 32.32373
791.1785, 33.35864
791.6606, 35.00647
792.1428, 36.14600
792.6249, 35.62097
793.1070, 33.40405
793.5891, 33.10620
794.0712, 35.18042
794.5533, 37.76721
795.0355, 38.63281
795.5176, 38.78027
795.9997, 40.35254
796.4818, 44.10168
796.9639, 47.38599
797.4460, 48.79199
797.9282, 49.22900
798.4103, 49.38831
798.8924, 48.45581
799.3745, 49.39197
799.8566, 53.04236
800.3387, 57.15161
800.8209, 59.06311
801.3030, 59.17920
801.7851, 59.87354
802.2672, 61.40881
802.7493, 63.63208
803.2314, 66.83167
803.7136, 70.41650
804.1957, 73.45312
804.6778, 75.52563
805.1599, 77.81421
805.6420, 80.43384
806.1241, 83.63367
806.6063, 87.74866
807.0884, 93.63843
807.5705, 97.74365
808.0526, 99.31384
808.5347, 100.8793
809.0168, 106.0597
809.4990, 113.7626
809.9811, 119.0182
810.4632, 120.9043
810.9453, 122.4648
811.4274, 126.0590
811.9095, 130.8711
812.3917, 136.1781
812.8738, 142.5122
813.3559, 147.6301
813.8380, 150.0488
814.3201, 152.1400
814.8022, 155.8704
815.2844, 161.5515
815.7665, 166.6814
816.2486, 171.0648
816.7307, 175.3931
817.2128, 180.8365
817.6949, 186.7280
818.1771, 191.8025
818.6592, 195.8900
819.1413, 198.6996
819.6234, 198.7332
820.1055, 198.2892
820.5876, 199.5387
821.0698, 204.2094
821.5519, 206.8732
822.0340, 207.0063
822.5161, 205.9240
822.9982, 204.7310
823.4803, 203.3846
823.9625, 200.7017
824.4446, 196.5107
824.9267, 192.1483
825.4088, 188.7079
825.8909, 185.8885
826.3730, 183.5974
826.8552, 181.8755
827.3373, 179.6918
827.8194, 176.3844
828.3015, 172.6429
828.7836, 168.8596
829.2657, 165.0336
829.7479, 161.2239
830.2300, 157.4872
830.7121, 153.8577
831.1942, 150.0374
831.6763, 146.4203
832.1584, 144.7953
832.6406, 145.2277
833.1227, 145.4750
833.6048, 144.1995
834.0869, 141.9401
834.5690, 138.4280
835.0511, 133.2639
835.5333, 130.6812
836.0154, 132.5364
836.4975, 134.7628
836.9796, 135.6793
837.4617, 135.2429
837.9438, 132.0957
838.4260, 126.1007
838.9081, 120.2098
839.3902, 116.6802
839.8723, 114.4193
840.3544, 112.4258
840.8365, 110.5422
841.3187, 107.8230
841.8008, 103.4598
842.2829, 98.60120
842.7650, 93.67273
843.2471, 88.68835
843.7292, 83.94568
844.2114, 79.34387
844.6935, 75.39380
845.1756, 72.51343
845.6577, 70.41321
846.1398, 68.20776
846.6219, 65.91003
847.1041, 63.61255
847.5862, 61.42212
848.0683, 59.17737
848.5504, 56.48474
849.0325, 53.54211
849.5146, 51.32068
849.9968, 50.25806
850.4789, 49.47144
850.9610, 48.95068
851.4431, 48.46497
851.9252, 46.82141
852.4073, 44.01428
852.8895, 42.24731
853.3716, 43.22107
853.8537, 44.87988
854.3358, 44.53345
854.8179, 42.93213
855.3000, 42.01343
855.7822, 42.95288
856.2643, 43.50806
856.7464, 42.84094
857.2285, 41.62573
857.7106, 41.22717
858.1927, 41.91980
858.6749, 41.93140
859.1570, 40.57495
859.6391, 39.04541
860.1212, 39.61841
860.6033, 41.59424
861.0854, 43.22815
861.5676, 44.00574
862.0497, 44.31824
862.5318, 43.94629
863.0139, 43.41199
863.4960, 43.46350
863.9781, 44.28369
864.4603, 45.53735
864.9424, 47.20740
865.4245, 48.97144
865.9066, 50.84717
866.3887, 52.62573
866.8708, 53.15857
867.3530, 52.08679
867.8351, 50.71094
868.3172, 49.72131
868.7993, 49.32410
869.2814, 49.67798
869.7635, 50.78357
870.2457, 52.10559
870.7278, 54.63464
871.2099, 56.47205
871.6920, 55.62439
872.1741, 51.91565
872.6563, 49.68835
873.1384, 49.08252
873.6205, 48.91846
874.1026, 48.63123
874.5847, 48.03992
875.0668, 46.89832
875.5490, 45.30615
876.0311, 43.57080
876.5132, 40.75049
876.9953, 38.53296
877.4774, 38.13098
877.9595, 39.56812
878.4417, 39.83618
878.9238, 38.84314
879.4059, 37.02930
879.8880, 33.66553
880.3701, 30.09192
880.8522, 29.63953
881.3344, 31.55847
881.8165, 32.88831
882.2986, 32.00623
882.7807, 30.49451
883.2628, 28.70935
883.7449, 26.91980
884.2271, 25.75549
884.7092, 25.57117
885.1913, 25.00220
885.6734, 23.76501
886.1555, 21.84851
886.6376, 18.68652
887.1198, 14.77393
887.6019, 11.57788
888.0840, 9.253662
888.5661, 8.449829
889.0482, 11.27136
889.5303, 15.39258
890.0125, 17.02710
890.4946, 14.66919
890.9767, 11.73975
891.4588, 7.774780
891.9409, 4.330322
892.4230, 3.943237
892.9052, 6.067627
893.3873, 7.142578
893.8694, 6.390625
894.3515, 6.072144
894.8336, 9.390259
895.3157, 13.36072
895.7979, 14.76050
896.2800, 12.07568
896.7621, 9.873291
897.2442, 8.188965
897.7263, 7.442383
898.2084, 8.467896
898.6906, 11.15881
899.1727, 12.04004
899.6548, 11.10266
900.1369, 9.629639
900.6190, 8.069824
901.1011, 6.849121
901.5833, 6.817749
902.0654, 7.851685
902.5475, 8.184814
903.0296, 6.324341
903.5117, 4.894775
903.9938, 4.879517
904.4760, 5.916382
904.9581, 6.441284
905.4402, 6.439575
905.9223, 5.899048
906.4044, 4.445313
906.8865, 2.838867
907.3687, 2.160400
907.8508, 2.044922
908.3329, 1.710693
908.8150, 0.1074220
909.2971, 0.7230220
909.7792, 4.2114001E-02
910.2614, 1.418579
910.7435, 2.944214
911.2256, 4.688110
911.7077, 4.311768
912.1898, 0.8874510
912.6719, 2.563965
913.1541, 1.664917
913.6362, 1.367188
914.1183, 3.096069
914.6004, 2.409790
915.0825, 1.802612
915.5646, 1.899414
916.0468, 2.465210
916.5289, 3.476807
917.0110, 5.057373
917.4931, 5.895020
917.9752, 5.910522
918.4573, 5.750732
918.9395, 6.194946
919.4216, 6.649170
919.9037, 6.101318
920.3858, 4.594360
920.8679, 2.943237
921.3500, 0.5391850
921.8322, 0.8916020
922.3143, 4.3457001E-02
922.7964, 2.401001
923.2785, 3.090210
923.7606, 1.828735
924.2427, 0.4326170
924.7249, 0.3168950
925.2070, 0.9414060
925.6891, 2.736084
926.1712, 5.014282
926.6533, 6.228394
927.1354, 4.315674
927.6176, 3.029663
928.0997, 4.200195
928.5818, 6.180664
929.0639, 6.978882
929.5460, 6.463623
930.0281, 5.551392
930.5103, 4.249634
930.9924, 3.001953
931.4745, 2.019653
931.9566, 1.553345
932.4387, 2.411499
932.9208, 4.974854
933.4030, 6.543701
933.8851, 4.715454
934.3672, 2.721436
934.8493, 2.545776
935.3314, 4.249390
935.8135, 5.599731
936.2957, 6.606689
936.7778, 7.150879
937.2599, 7.271484
937.7420, 6.837402
938.2241, 5.226563
938.7062, 2.796021
939.1884, 0.8975830
939.6705, 1.149414
940.1526, 0.7396240
940.6347, 1.994141
941.1168, 5.619873
941.5989, 6.439819
942.0811, 4.136719
942.5632, 3.078735
943.0453, 4.644897
943.5274, 6.921021
944.0095, 7.604248
944.4916, 7.367676
944.9738, 7.113037
945.4559, 6.420654
945.9380, 7.347412
946.4201, 12.91235
946.9022, 18.14038
947.3843, 18.68958
947.8665, 13.95081
948.3486, 12.63916
948.8307, 14.97693
949.3128, 18.17773
949.7949, 20.29150
950.2770, 21.87573
950.7592, 23.49512
951.2413, 25.17468
951.7234, 26.74817
952.2055, 27.11108
952.6876, 28.78125
953.1697, 33.14087
953.6519, 39.10730
954.1340, 42.87207
954.6161, 44.53516
955.0982, 45.48535
955.5803, 45.31006
956.0624, 46.37476
956.5446, 51.80090
957.0267, 59.81738
957.5088, 67.73401
957.9909, 74.34692
958.4730, 81.67200
958.9551, 90.04346
959.4373, 98.77722
959.9194, 106.6974
960.4015, 114.1338
960.8836, 124.7495
961.3657, 138.7386
961.8478, 152.8810
962.3300, 163.7567
962.8121, 174.2288
963.2942, 186.1992
963.7763, 199.9150
964.2584, 215.2344
964.7405, 231.7460
965.2227, 250.1520
965.7048, 270.6013
966.1869, 293.1973
966.6690, 319.2144
967.1511, 348.6611
967.6332, 380.9326
968.1154, 415.0093
968.5975, 453.2882
969.0796, 499.7010
969.5617, 550.4631
970.0438, 601.9208
970.5259, 655.8657
971.0081, 704.9421
971.4902, 750.5322
971.9723, 784.6157
972.4544, 799.9360
972.9365, 796.2656
973.4186, 769.5127
973.9008, 719.4526
974.3829, 661.8439
974.8650, 597.3749
975.3471, 535.3223
975.8292, 479.1788
976.3113, 429.2415
976.7935, 387.2397
977.2756, 353.4620
977.7577, 325.6324
978.2398, 303.8546
978.7219, 286.2272
979.2040, 269.9001
979.6862, 255.7201
980.1683, 245.7705
980.6504, 244.6334
981.1325, 242.4651
981.6146, 235.8696
982.0967, 228.8196
982.5789, 225.5719
983.0610, 226.1233
983.5431, 230.1073
984.0252, 237.7964
984.5073, 245.6863
984.9894, 249.5233
985.4716, 253.0645
985.9537, 259.5536
986.4358, 269.2864
986.9179, 282.3746
987.4000, 299.3734
987.8821, 318.5808
988.3643, 338.9821
988.8464, 361.2279
989.3285, 385.9767
989.8106, 413.8568
990.2927, 447.9447
990.7748, 489.5696
991.2570, 537.6310
991.7391, 591.6667
992.2212, 651.7819
992.7033, 719.7484
993.1854, 795.7164
993.6675, 878.0884
994.1497, 967.7268
994.6318, 1061.275
995.1139, 1153.520
995.5960, 1246.491
996.0781, 1344.001
996.5602, 1447.027
997.0424, 1559.279
997.5245, 1678.668
998.0066, 1813.080
998.4887, 1963.843
998.9708, 2130.904
999.4529, 2321.373
999.9351, 2534.123
1000.417, 2777.971
1000.899, 3059.341
1001.381, 3370.773
1001.864, 3717.599
1002.346, 4089.301
1002.828, 4467.576
1003.310, 4870.321
1003.792, 5241.346
1004.274, 5616.877
1004.756, 5910.988
1005.238, 6073.783
1005.720, 6098.815
1006.203, 5920.695
1006.685, 5546.030
1007.167, 5072.007
1007.649, 4490.586
1008.131, 3903.544
1008.613, 3367.638
1009.095, 2894.106
1009.577, 2487.667
1010.060, 2156.823
1010.542, 1875.687
1011.024, 1642.159
1011.506, 1447.439
1011.988, 1284.646
1012.470, 1147.956
1012.952, 1029.576
1013.434, 929.5978
1013.916, 841.0046
1014.399, 766.6406
1014.881, 701.0336
1015.363, 641.1617
1015.845, 587.2457
1016.327, 539.5892
1016.809, 498.4751
1017.291, 461.1317
1017.773, 426.0886
1018.255, 393.7931
1018.738, 364.0586
1019.220, 337.0723
1019.702, 313.5983
1020.184, 295.2148
1020.666, 277.4253
1021.148, 259.6241
1021.630, 242.2515
1022.112, 226.3652
1022.595, 211.5925
1023.077, 196.5033
1023.559, 180.6793
1024.041, 166.8800
1024.523, 158.3652
1025.005, 150.9952
1025.487, 141.9869
1025.969, 131.3849
1026.452, 121.4254
1026.934, 111.9834
1027.416, 104.3860
1027.898, 100.2780
1028.380, 96.96997
1028.862, 89.56909
1029.344, 80.41650
1029.826, 73.85632
1030.308, 74.01892
1030.791, 72.89368
1031.273, 69.79272
1031.755, 65.37036
1032.237, 59.55432
1032.719, 52.68567
1033.201, 47.94092
1033.683, 45.39111
1034.165, 43.53735
1034.647, 41.73840
1035.130, 39.95447
1035.612, 38.23633
1036.094, 36.61621
1036.576, 34.98035
1037.058, 33.35059
1037.540, 31.70068
1038.022, 29.97278
1038.504, 28.20142
1038.987, 26.86218
1039.469, 25.58459
1039.951, 23.32214
1040.433, 18.90552
1040.915, 16.52441
1041.397, 19.02917
1041.879, 21.49133
1042.361, 20.96216
1042.844, 17.78638
1043.326, 14.94092
1043.808, 12.56104
1044.290, 11.10034
1044.772, 11.79211
1045.254, 12.38501
1045.736, 10.73132
1046.218, 8.217651
1046.700, 7.815674
1047.182, 10.77991
1047.665, 11.54712
1048.147, 9.277100
1048.629, 6.560303
1049.111, 6.313232
1049.593, 7.273926
1050.075, 7.511963
1050.557, 6.885620
1051.039, 6.261108
1051.522, 5.521362
1052.004, 4.911865
1052.486, 4.469482
1052.968, 4.216064
1053.450, 4.524170
1053.932, 5.216064
1054.414, 4.981689
1054.896, 2.992065
1055.379, 0.9655760
1055.861, 0.2530520
1056.343, 0.3391110
1056.825, 1.054077
1057.307, 3.771484
1057.789, 6.427124
1058.271, 9.347534
1058.753, 11.18591
1059.235, 10.39709
1059.718, 8.312500
1060.200, 6.458740
1060.682, 4.907593
1061.164, 3.864380
1061.646, 3.555664
1062.128, 3.553833
1062.610, 3.960938
1063.092, 4.428223
1063.574, 4.187988
1064.057, 3.517700
1064.539, 4.159912
1065.021, 6.315674
1065.503, 7.953857
1065.985, 7.246094
1066.467, 6.201538
1066.949, 6.160034
1067.431, 6.884155
1067.914, 7.128540
1068.396, 6.767212
1068.878, 6.135620
1069.360, 5.163574
1069.842, 4.475708
1070.324, 5.081909
1070.806, 6.256104
1071.288, 7.043457
1071.771, 7.070557
1072.253, 7.291992
1072.735, 7.872925
1073.217, 8.293823
1073.699, 7.984497
1074.181, 7.351318
1074.663, 7.723755
1075.145, 8.855957
1075.627, 9.894775
1076.109, 10.64233
1076.592, 10.92432
1077.074, 10.18604
1077.556, 9.400146
1078.038, 10.01489
1078.520, 11.98315
1079.002, 12.50598
1079.484, 11.40833
1079.966, 9.147461
1080.448, 4.248413
1080.931, 8.0077998E-02
1081.413, 0.8470460
1081.895, 1.564575
1082.377, 3.301758
1082.859, 4.367554
1083.341, 4.485718
1083.823, 3.218750
1084.305, 1.992310
1084.788, 3.479370
1085.270, 6.036133
1085.752, 6.890259
1086.234, 5.102173
1086.716, 4.267334
1087.198, 5.799072
1087.680, 7.064331
1088.162, 6.808105
1088.645, 5.422241
1089.127, 4.022827
1089.609, 2.603882
1090.091, 1.068481
1090.573, 1.094849
1091.055, 2.617188
1091.537, 2.675781
1092.019, 1.967651
1092.501, 0.8972170
1092.984, 0.6978760
1093.466, 0.4239500
1093.948, 1.778442
1094.430, 3.846069
1094.912, 4.488647
1095.394, 4.259888
1095.876, 2.789307
1096.358, 0.8333740
1096.840, 0.8343510
1097.323, 3.926880
1097.805, 5.597046
1098.287, 5.015381
1098.769, 3.779663
1099.251, 4.123291
1099.733, 4.835938
1100.215, 3.781494
1100.697, 0.7906490
1101.180, 1.803101
1101.662, 3.617798
1102.144, 4.615479
1102.626, 4.668213
1103.108, 3.966064
1103.590, 2.497559
1104.072, 0.6691890
1104.554, 4.8830002E-03
1105.036, 1.251099
1105.519, 2.316772
1106.001, 1.810059
1106.483, 1.114014
1106.965, 1.454468
1107.447, 2.655518
1107.929, 1.409058
1108.411, 2.065918
1108.893, 4.593384
1109.375, 4.081421
1109.858, 2.661865
1110.340, 1.476196
1110.822, 0.5957030
1111.304, 0.1689450
1111.786, 0.4527590
1112.268, 6.4819001E-02
1112.750, 1.668823
1113.232, 2.260986
1113.715, 1.777466
1114.197, 6.353149
1114.679, 5.804321
1115.161, 1.349854
1115.643, 2.084106
1116.125, 3.434326
1116.607, 3.934692
1117.089, 3.472656
1117.572, 2.781006
1118.054, 2.720581
1118.536, 3.142456
1119.018, 3.972412
1119.500, 5.165894
1119.982, 5.702759
1120.464, 3.672119
1120.946, 2.891846
1121.428, 5.137451
1121.911, 8.796631
1122.393, 10.14343
1122.875, 9.497803
1123.357, 8.176025
1123.839, 6.321777
1124.321, 4.556274
1124.803, 2.159058
1125.285, 1.075684
1125.767, 3.012207
1126.250, 7.500610
1126.732, 9.838745
1127.214, 10.10339
1127.696, 10.18872
1128.178, 11.06604
1128.660, 11.74170
1129.142, 11.07996
1129.624, 9.920898
1130.107, 9.265991
1130.589, 9.145020
1131.071, 9.918213
1131.553, 11.82898
1132.035, 12.77332
1132.517, 9.678101
1132.999, 6.145508
1133.481, 7.703369
1133.964, 12.00452
1134.446, 13.47827
1134.928, 8.297485
1135.410, 6.388184
1135.892, 8.980225
1136.374, 12.62354
1136.856, 13.95056
1137.338, 13.95508
1137.820, 14.27808
1138.302, 14.92273
1138.785, 15.32104
1139.267, 14.92065
1139.749, 14.85986
1140.231, 15.54980
1140.713, 16.28687
1141.195, 15.33069
1141.677, 13.66028
1142.159, 14.57788
1142.642, 18.55164
1143.124, 21.46973
1143.606, 19.93640
1144.088, 18.65210
1144.570, 19.51160
1145.052, 21.72253
1145.534, 23.05896
1146.016, 23.73303
1146.499, 25.18933
1146.981, 28.19312
1147.463, 29.98547
1147.945, 27.04138
1148.427, 23.97437
1148.909, 24.18127
1149.391, 27.27380
1149.873, 29.04639
1150.355, 29.60278
1150.838, 29.98022
1151.320, 30.65442
1151.802, 30.87537
1152.284, 29.10193
1152.766, 27.36523
1153.248, 28.05579
1153.730, 31.58447
1154.212, 34.71680
1154.694, 37.32336
1155.177, 39.10364
1155.659, 39.78528
1156.141, 40.16577
1156.623, 40.94226
1157.105, 41.79041
1157.587, 42.21863
1158.069, 42.00671
1158.551, 42.58826
1159.034, 44.01147
1159.516, 45.40015
1159.998, 45.71204
1160.480, 45.92126
1160.962, 47.66077
1161.444, 50.36523
1161.926, 51.96973
1162.408, 51.39575
1162.891, 51.59631
1163.373, 52.81824
1163.855, 54.71582
1164.337, 57.69922
1164.819, 60.75391
1165.301, 61.86023
1165.783, 61.14856
1166.265, 60.66028
1166.747, 60.74841
1167.229, 61.78394
1167.712, 64.07812
1168.194, 66.99695
1168.676, 69.96277
1169.158, 72.76880
1169.640, 74.72510
1170.122, 75.81982
1170.604, 77.74744
1171.086, 81.49011
1171.569, 85.21252
1172.051, 88.42700
1172.533, 91.61902
1173.015, 95.91162
1173.497, 100.6112
1173.979, 103.5851
1174.461, 103.9965
1174.943, 105.5312
1175.426, 111.1219
1175.908, 116.4071
1176.390, 119.5885
1176.872, 121.2561
1177.354, 123.2961
1177.836, 125.5804
1178.318, 127.6206
1178.800, 129.0385
1179.282, 130.9496
1179.765, 135.1956
1180.247, 138.5995
1180.729, 138.8970
1181.211, 136.7681
1181.693, 136.2639
1182.175, 137.1018
1182.657, 137.7548
1183.139, 137.9071
1183.621, 137.3383
1184.104, 135.3069
1184.586, 132.9233
1185.068, 131.1442
1185.550, 130.0225
1186.032, 128.9689
1186.514, 127.6342
1186.996, 124.8263
1187.478, 117.0487
1187.961, 111.0242
1188.443, 112.4893
1188.925, 115.7170
1189.407, 114.3629
1189.889, 108.2570
1190.371, 103.6743
1190.853, 100.6025
1191.335, 97.47400
1191.818, 92.65088
1192.300, 88.09546
1192.782, 84.94495
1193.264, 82.76892
1193.746, 81.24976
1194.228, 80.44299
1194.710, 78.12170
1195.192, 74.18555
1195.674, 70.11255
1196.156, 66.63477
1196.639, 63.70618
1197.121, 61.64380
1197.603, 60.06006
1198.085, 58.06958
1198.567, 55.54968
1199.049, 53.57031
1199.531, 52.31848
1200.013, 50.77283
1200.496, 47.00500
1200.978, 43.67664
1201.460, 43.32825
1201.942, 44.70630
1202.424, 44.35522
1202.906, 42.23633
1203.388, 39.91602
1203.870, 37.58105
1204.353, 35.61401
1204.835, 34.08313
1205.317, 33.29309
1205.799, 34.19910
1206.281, 36.07300
1206.763, 36.16553
1207.245, 34.41882
1207.727, 32.44836
1208.209, 30.59058
1208.692, 28.72815
1209.174, 26.29968
1209.656, 24.20312
1210.138, 23.43762
1210.620, 23.72070
1211.102, 23.34277
1211.584, 22.27258
1212.066, 21.93835
1212.548, 23.03125
1213.031, 23.75488
1213.513, 21.52698
1213.995, 19.05896
1214.477, 19.20715
1214.959, 21.56506
1215.441, 22.43042
1215.923, 21.79736
1216.405, 20.76367
1216.888, 19.59387
1217.370, 18.49329
1217.852, 17.63196
1218.334, 16.97815
1218.816, 16.66577
1219.298, 16.66150
1219.780, 15.60876
1220.262, 13.51880
1220.745, 12.45520
1221.227, 13.71973
1221.709, 14.98486
1222.191, 14.14148
1222.673, 12.52698
1223.155, 11.27869
1223.637, 10.41272
1224.119, 10.66846
1224.601, 11.95923
1225.083, 12.93909
1225.566, 12.74548
1226.048, 12.52490
1226.530, 13.53784
1227.012, 14.61719
1227.494, 14.42175
1227.976, 12.96936
1228.458, 12.19336
1228.940, 12.01746
1229.423, 11.29895
1229.905, 8.733276
1230.387, 6.617920
1230.869, 6.550659
1231.351, 7.440674
1231.833, 8.470459
1232.315, 9.630005
1232.797, 8.750488
1233.280, 6.136963
1233.762, 4.540771
1234.244, 6.271362
1234.726, 8.257568
1235.208, 9.800537
1235.690, 10.17810
1236.172, 8.247070
1236.654, 4.154785
1237.136, 1.507568
1237.619, 0.2548830
1238.101, 0.2377930
1238.583, 0.3204350
1239.065, 0.8284910
1239.547, 0.8149410
1240.029, 0.6292720
1240.511, 0.5433350
1240.993, 0.5502930
1241.475, 0.7313230
1241.958, 1.000610
1242.440, 0.7896730
1242.922, 1.489624
1243.404, 2.416626
1243.886, 0.2823490
1244.368, 2.566895
1244.850, 3.940552
1245.332, 4.042847
1245.815, 3.704468
1246.297, 2.993408
1246.779, 2.132690
1247.261, 0.6992190
1247.743, 5.9813999E-02
1248.225, 0.4439700
1248.707, 1.269897
1249.189, 2.305908
1249.672, 3.251709
1250.154, 2.968140
1250.636, 1.733154
1251.118, 0.8798830
1251.600, 1.328125
1252.082, 1.667847
1252.564, 1.754150
1253.046, 1.676514
1253.528, 1.599854
1254.010, 1.407593
1254.493, 0.6298830
1254.975, 0.5407710
1255.457, 1.222778
1255.939, 0.6839600
1256.421, 0.5894780
1256.903, 1.197998
1257.385, 1.939941
1257.867, 2.599976
1258.350, 2.839111
1258.832, 1.888306
1259.314, 2.2583000E-02
1259.796, 1.568970
1260.278, 2.731445
1260.760, 3.676636
1261.242, 4.484619
1261.724, 4.822510
1262.207, 3.744263
1262.689, 2.533569
1263.171, 2.868896
1263.653, 4.329590
1264.135, 5.214966
1264.617, 5.417725
1265.099, 5.128540
1265.581, 4.292603
1266.063, 3.636353
1266.546, 3.806641
1267.028, 4.387939
1267.510, 5.066528
1267.992, 5.875488
1268.474, 6.891113
1268.956, 8.100952
1269.438, 10.01306
1269.920, 12.74243
1270.402, 14.32397
1270.885, 11.91699
1271.367, 9.213013
1271.849, 9.000732
1272.331, 7.459351
1272.813, 6.804932
1273.295, 7.117310
1273.777, 6.714600
1274.259, 7.678955
1274.742, 9.152588
1275.224, 10.60864
1275.706, 10.64868
1276.188, 7.750488
1276.670, 4.337524
1277.152, 4.814453
1277.634, 7.903198
1278.116, 7.778931
1278.599, 4.512207
1279.081, 2.059570
1279.563, 3.033203
1280.045, 3.673340
1280.527, 2.935669
1281.009, 2.092896
1281.491, 2.309692
1281.973, 3.225586
1282.455, 4.345825
1282.938, 4.865723
1283.420, 4.362183
1283.902, 1.364746
1284.384, 0.1944580
1284.866, 0.3330080
1285.348, 1.739624
1285.830, 3.545776
1286.312, 4.929077
1286.794, 4.035889
1287.277, 1.512207
1287.759, 0.5681150
1288.241, 1.727417
1288.723, 3.433105
1289.205, 5.660278
1289.687, 7.310791
1290.169, 6.822510
1290.651, 5.856567
1291.134, 5.629639
1291.616, 6.326416
1292.098, 7.631226
1292.580, 10.01184
1293.062, 9.906738
1293.544, 7.202393
1294.026, 4.696167
1294.508, 4.345215
1294.990, 4.128052
1295.473, 4.188110
1295.955, 4.035278
1296.437, 2.664673
1296.919, 0.6870120
1297.401, 0.3171390
1297.883, 1.404419
1298.365, 2.099609
1298.847, 0.3541260
1299.329, 0.2565920
1299.812, 1.777954
1300.294, 4.163940
1300.776, 3.953979
1301.258, 1.831665
1301.740, 0.8741460
1302.222, 4.9194001E-02
1302.704, 0.2791750
1303.186, 0.6567380
1303.669, 0.5469970
1304.151, 0.2716060
1304.633, 0.0000000E+00
##END=



