##NAMES=Zoisite
##RRUFFID=X060001
##IDEAL CHEMISTRY=Ca_2_Al_3_(Si_2_O_7_)(SiO_4_)O(OH)
##LOCALITY=unknown
##OWNER=
##SOURCE=Michael Scott
##DESCRIPTION=Colorless to blue bicolored gem stone
##STATUS=The identification of this mineral has been determined only by Raman spectroscopy
##URL=rruff.info/X060001
101.7563, 0.0000000E+00
102.2384, 13.24765
102.7205, 28.19356
103.2026, 39.73378
103.6847, 30.27654
104.1668, 21.39169
104.6490, 20.79326
105.1311, 49.13754
105.6132, 75.24314
106.0953, 76.73447
106.5774, 59.85635
107.0595, 43.15703
107.5417, 24.25790
108.0238, 7.860168
108.5059, 3.851685
108.9880, 9.955002
109.4701, 12.51855
109.9522, 11.91776
110.4344, 7.924988
110.9165, 0.3251340
111.3986, 10.32947
111.8807, 24.98972
112.3628, 44.07901
112.8449, 59.63525
113.3271, 87.00302
113.8092, 131.9623
114.2913, 195.9053
114.7734, 266.9182
115.2555, 331.9847
115.7376, 404.4549
116.2198, 499.5615
116.7019, 613.7817
117.1840, 757.3104
117.6661, 938.0914
118.1482, 1159.311
118.6303, 1410.378
119.1124, 1751.159
119.5946, 2124.003
120.0767, 2390.745
120.5588, 2449.536
121.0409, 2385.740
121.5230, 2267.248
122.0051, 2073.162
122.4873, 1878.297
122.9694, 1750.388
123.4515, 1681.312
123.9336, 1627.868
124.4157, 1565.489
124.8979, 1497.952
125.3800, 1431.700
125.8621, 1371.899
126.3442, 1313.047
126.8263, 1244.068
127.3084, 1164.911
127.7905, 1088.035
128.2727, 1028.148
128.7548, 982.0604
129.2369, 939.2239
129.7190, 892.7653
130.2011, 845.8262
130.6832, 809.4398
131.1654, 785.8301
131.6475, 766.4769
132.1296, 734.5273
132.6117, 690.4955
133.0938, 655.1097
133.5759, 644.6818
134.0581, 657.3251
134.5402, 664.4052
135.0223, 659.7827
135.5044, 652.1021
135.9865, 664.7368
136.4686, 700.1578
136.9508, 742.7179
137.4329, 779.4211
137.9150, 807.6189
138.3971, 847.3744
138.8792, 904.6234
139.3613, 976.6941
139.8434, 1044.607
140.3256, 1104.851
140.8077, 1168.436
141.2898, 1248.878
141.7719, 1351.823
142.2540, 1454.303
142.7361, 1546.838
143.2183, 1627.765
143.7004, 1726.522
144.1825, 1840.787
144.6646, 1974.698
145.1467, 2131.460
145.6288, 2316.708
146.1110, 2519.944
146.5931, 2745.578
147.0752, 3022.273
147.5573, 3251.533
148.0394, 3452.844
148.5215, 3603.254
149.0037, 3655.570
149.4858, 3590.154
149.9679, 3444.039
150.4500, 3224.691
150.9321, 2862.910
151.4142, 2526.511
151.8964, 2212.405
152.3785, 1923.595
152.8606, 1671.968
153.3427, 1456.821
153.8248, 1277.245
154.3069, 1132.699
154.7890, 1042.221
155.2712, 964.1191
155.7533, 894.8008
156.2354, 834.2615
156.7175, 777.9539
157.1996, 717.8170
157.6817, 664.6150
158.1639, 626.3677
158.6460, 618.8063
159.1281, 613.5006
159.6102, 600.6620
160.0923, 580.6820
160.5744, 559.1670
161.0566, 531.8778
161.5387, 505.7124
162.0208, 488.3929
162.5029, 491.7622
162.9850, 497.7136
163.4671, 497.5016
163.9493, 489.9656
164.4314, 478.5879
164.9135, 461.4889
165.3956, 441.8636
165.8777, 424.8976
166.3598, 415.9329
166.8420, 408.7396
167.3241, 397.9117
167.8062, 381.0386
168.2883, 366.8690
168.7704, 361.9849
169.2525, 363.9105
169.7346, 367.2003
170.2168, 370.6816
170.6989, 373.2628
171.1810, 372.8198
171.6631, 367.2108
172.1452, 364.6334
172.6273, 372.3016
173.1095, 388.7014
173.5916, 408.9275
174.0737, 430.6719
174.5558, 453.8850
175.0379, 478.1263
175.5201, 503.8651
176.0022, 530.6101
176.4843, 557.4468
176.9664, 584.1550
177.4485, 611.3280
177.9306, 640.9065
178.4128, 670.9580
178.8949, 698.1489
179.3770, 722.2498
179.8591, 742.4010
180.3412, 753.6086
180.8233, 755.7285
181.3055, 761.3701
181.7876, 784.7087
182.2697, 822.4104
182.7518, 864.0032
183.2339, 900.7224
183.7160, 939.3683
184.1982, 994.6201
184.6803, 1066.860
185.1624, 1150.905
185.6445, 1247.337
186.1266, 1353.452
186.6087, 1458.847
187.0908, 1539.089
187.5730, 1611.086
188.0551, 1742.826
188.5372, 1945.838
189.0193, 2177.735
189.5014, 2399.452
189.9835, 2612.371
190.4657, 2789.043
190.9478, 2938.050
191.4299, 3050.964
191.9120, 3044.804
192.3941, 2899.059
192.8762, 2668.921
193.3584, 2433.265
193.8405, 2192.232
194.3226, 1963.224
194.8047, 1757.268
195.2868, 1574.187
195.7689, 1409.630
196.2511, 1260.302
196.7332, 1130.062
197.2153, 1033.515
197.6974, 973.5106
198.1795, 923.5251
198.6616, 867.3877
199.1438, 804.1556
199.6259, 744.3574
200.1080, 687.1384
200.5901, 635.0923
201.0722, 598.8804
201.5543, 580.6008
202.0364, 568.8779
202.5186, 555.9827
203.0007, 541.5177
203.4828, 528.1711
203.9649, 515.1765
204.4470, 503.6071
204.9291, 497.8788
205.4113, 497.1575
205.8934, 504.1654
206.3755, 522.9656
206.8576, 555.8837
207.3397, 588.4894
207.8218, 616.3015
208.3040, 641.0641
208.7861, 676.8889
209.2682, 724.8395
209.7503, 780.9214
210.2324, 840.0211
210.7145, 898.4395
211.1967, 971.8994
211.6788, 1067.133
212.1609, 1183.056
212.6430, 1298.020
213.1251, 1417.151
213.6072, 1526.135
214.0894, 1617.722
214.5715, 1704.119
215.0536, 1737.959
215.5357, 1700.373
216.0178, 1589.819
216.4999, 1466.751
216.9820, 1326.634
217.4642, 1180.676
217.9463, 1036.812
218.4284, 889.7876
218.9105, 760.5444
219.3926, 655.4680
219.8747, 576.7087
220.3569, 509.7080
220.8390, 457.2024
221.3211, 414.0403
221.8032, 372.1489
222.2853, 331.0552
222.7674, 293.1775
223.2496, 260.5049
223.7317, 234.0508
224.2138, 205.3489
224.6959, 172.4490
225.1780, 138.8311
225.6601, 107.8176
226.1423, 77.86646
226.6244, 54.04565
227.1065, 40.38672
227.5886, 40.99438
228.0707, 31.87183
228.5528, 7.668701
229.0350, 23.13232
229.5171, 47.06860
229.9992, 64.63232
230.4813, 75.13379
230.9634, 76.84912
231.4455, 66.29443
231.9276, 59.85352
232.4098, 58.88306
232.8919, 61.25732
233.3740, 63.86060
233.8561, 68.81250
234.3382, 70.46997
234.8203, 65.95264
235.3025, 52.36108
235.7846, 41.96191
236.2667, 36.27832
236.7488, 33.00122
237.2309, 28.08252
237.7130, 22.29150
238.1952, 13.66211
238.6773, 0.5634770
239.1594, 27.05566
239.6415, 39.16821
240.1236, 30.20557
240.6057, 9.675049
241.0879, 2.962158
241.5700, 5.359863
242.0521, 3.297119
242.5342, 2.535889
243.0163, 16.53271
243.4984, 21.94434
243.9806, 14.93408
244.4627, 0.6845700
244.9448, 10.44385
245.4269, 21.42651
245.9090, 24.90869
246.3911, 17.45166
246.8732, 4.291260
247.3554, 28.37598
247.8375, 55.94531
248.3196, 85.32471
248.8017, 112.0884
249.2838, 131.5181
249.7659, 155.3486
250.2481, 189.6018
250.7302, 239.8401
251.2123, 285.3245
251.6944, 322.6956
252.1765, 356.7778
252.6586, 398.7295
253.1408, 448.4719
253.6229, 506.7075
254.1050, 575.9604
254.5871, 660.3660
255.0692, 741.4573
255.5513, 814.4114
256.0334, 886.2791
256.5156, 976.2700
256.9977, 1094.054
257.4798, 1213.613
257.9619, 1323.568
258.4440, 1421.075
258.9261, 1523.943
259.4083, 1647.412
259.8904, 1768.738
260.3725, 1838.640
260.8546, 1856.936
261.3367, 1824.410
261.8188, 1736.585
262.3010, 1581.049
262.7831, 1407.299
263.2652, 1200.919
263.7473, 985.2371
264.2294, 802.5767
264.7115, 658.5920
265.1937, 538.3767
265.6758, 438.8286
266.1579, 363.6970
266.6400, 296.7537
267.1221, 236.6357
267.6042, 186.5481
268.0864, 154.6721
268.5685, 143.1106
269.0506, 143.3320
269.5327, 154.7043
270.0148, 179.9319
270.4969, 198.7766
270.9791, 206.5442
271.4612, 213.4456
271.9433, 238.9272
272.4254, 286.5293
272.9075, 339.2166
273.3896, 390.9690
273.8718, 441.3723
274.3539, 488.4746
274.8360, 528.7302
275.3181, 571.7537
275.8002, 637.8101
276.2823, 731.9592
276.7645, 822.4351
277.2466, 897.6675
277.7287, 957.1467
278.2108, 1012.795
278.6929, 1067.688
279.1750, 1113.148
279.6572, 1133.230
280.1393, 1125.683
280.6214, 1112.680
281.1035, 1099.560
281.5856, 1086.757
282.0677, 1084.385
282.5499, 1095.740
283.0320, 1108.287
283.5141, 1100.424
283.9962, 1071.264
284.4783, 1051.947
284.9604, 1061.804
285.4425, 1094.369
285.9247, 1103.635
286.4068, 1087.442
286.8889, 1057.170
287.3710, 1031.271
287.8531, 1008.603
288.3352, 965.7546
288.8174, 887.3440
289.2995, 783.3049
289.7816, 687.3464
290.2637, 601.1167
290.7458, 520.4089
291.2279, 439.8889
291.7101, 360.6987
292.1922, 290.6614
292.6743, 232.8010
293.1564, 186.8904
293.6385, 153.4565
294.1206, 132.6931
294.6028, 119.1450
295.0849, 107.3650
295.5670, 98.59937
296.0491, 97.21924
296.5312, 105.0122
297.0133, 120.4988
297.4955, 146.3000
297.9776, 181.5374
298.4597, 213.3274
298.9418, 229.6870
299.4239, 234.1975
299.9060, 234.3948
300.3882, 231.5996
300.8703, 226.0474
301.3524, 216.1658
301.8345, 202.6116
302.3166, 191.0496
302.7987, 188.2629
303.2809, 189.0774
303.7630, 184.2864
304.2451, 167.7502
304.7272, 152.2031
305.2093, 147.3298
305.6914, 153.1267
306.1736, 169.6831
306.6557, 197.0908
307.1378, 235.6033
307.6199, 286.4807
308.1020, 353.6421
308.5841, 426.7317
309.0663, 495.3486
309.5484, 563.7234
310.0305, 640.7327
310.5126, 741.6006
310.9947, 848.1116
311.4768, 947.1040
311.9590, 1042.875
312.4411, 1112.685
312.9232, 1144.160
313.4053, 1139.629
313.8874, 1104.303
314.3695, 1014.054
314.8517, 910.7551
315.3337, 820.0378
315.8159, 747.8455
316.2980, 678.7471
316.7801, 600.9380
317.2622, 523.3589
317.7443, 458.9517
318.2264, 410.4500
318.7086, 377.1104
319.1907, 360.0088
319.6728, 360.5359
320.1549, 367.6787
320.6370, 379.0659
321.1191, 395.3120
321.6013, 417.3948
322.0834, 441.6589
322.5655, 475.7493
323.0476, 524.6399
323.5297, 589.3057
324.0118, 654.3110
324.4940, 709.0430
324.9761, 767.2490
325.4582, 840.3967
325.9403, 932.3892
326.4224, 1036.475
326.9045, 1155.219
327.3867, 1288.273
327.8688, 1423.194
328.3509, 1553.248
328.8330, 1689.302
329.3151, 1839.068
329.7972, 2000.755
330.2794, 2179.015
330.7615, 2377.309
331.2436, 2594.891
331.7257, 2820.475
332.2078, 3050.622
332.6899, 3294.649
333.1721, 3558.346
333.6542, 3840.774
334.1363, 4143.475
334.6184, 4486.490
335.1005, 4844.658
335.5826, 5164.615
336.0648, 5456.479
336.5469, 5691.563
337.0290, 5868.508
337.5111, 6002.255
337.9932, 6011.000
338.4753, 5873.668
338.9575, 5635.159
339.4396, 5354.370
339.9217, 5016.520
340.4038, 4692.665
340.8859, 4396.575
341.3680, 4130.778
341.8502, 3930.147
342.3323, 3805.825
342.8144, 3727.138
343.2965, 3663.630
343.7786, 3614.927
344.2607, 3581.162
344.7429, 3576.948
345.2250, 3587.340
345.7071, 3555.168
346.1892, 3480.577
346.6713, 3358.121
347.1534, 3164.434
347.6355, 2909.932
348.1176, 2644.887
348.5998, 2370.832
349.0819, 2099.913
349.5640, 1851.111
350.0461, 1621.395
350.5282, 1415.411
351.0103, 1236.031
351.4925, 1080.620
351.9746, 941.5957
352.4567, 819.2732
352.9388, 711.9426
353.4209, 618.1494
353.9030, 537.8584
354.3852, 470.8503
354.8673, 424.2292
355.3494, 387.7788
355.8315, 350.2178
356.3136, 310.0718
356.7957, 269.4949
357.2779, 229.2939
357.7600, 190.1372
358.2421, 153.9185
358.7242, 115.8259
359.2063, 84.54102
359.6884, 68.85010
360.1706, 70.77246
360.6527, 72.81787
361.1348, 65.35645
361.6169, 53.82056
362.0990, 44.73389
362.5811, 43.76123
363.0633, 41.92065
363.5454, 34.58960
364.0275, 21.93042
364.5096, 11.50366
364.9917, 7.497070
365.4738, 5.098633
365.9560, 0.8669430
366.4381, 7.644531
366.9202, 15.73657
367.4023, 25.40942
367.8844, 35.16333
368.3665, 37.44092
368.8487, 21.27026
369.3308, 5.914307
369.8129, 0.3029790
370.2950, 6.384766
370.7771, 16.01758
371.2592, 34.24316
371.7414, 53.87231
372.2235, 58.75977
372.7056, 37.95044
373.1877, 19.79565
373.6698, 14.72925
374.1519, 24.85400
374.6341, 37.19165
375.1162, 55.39600
375.5983, 71.13818
376.0804, 72.39600
376.5625, 56.28809
377.0446, 37.52954
377.5267, 19.76245
378.0089, 2.602051
378.4910, 17.11865
378.9731, 40.85571
379.4552, 61.24609
379.9373, 68.33765
380.4194, 62.91772
380.9016, 62.41699
381.3837, 71.79199
381.8658, 86.35400
382.3479, 94.02759
382.8300, 95.22388
383.3121, 99.75610
383.7943, 115.2949
384.2764, 139.2083
384.7585, 165.3442
385.2406, 193.0586
385.7227, 221.7690
386.2048, 243.7280
386.6870, 264.0381
387.1691, 298.5330
387.6512, 361.7876
388.1333, 439.7554
388.6154, 516.5454
389.0975, 590.4866
389.5797, 670.5952
390.0618, 757.3076
390.5439, 855.2366
391.0260, 969.0254
391.5081, 1110.647
391.9902, 1259.433
392.4724, 1414.629
392.9545, 1572.500
393.4366, 1710.549
393.9187, 1846.695
394.4008, 1942.710
394.8829, 1972.127
395.3651, 1903.047
395.8472, 1802.679
396.3293, 1677.275
396.8114, 1531.877
397.2935, 1379.815
397.7756, 1198.745
398.2578, 1032.287
398.7399, 896.2593
399.2220, 798.1433
399.7041, 714.0293
400.1862, 645.2446
400.6683, 589.6604
401.1505, 544.9197
401.6326, 513.4880
402.1147, 489.1074
402.5968, 469.4924
403.0789, 455.2512
403.5610, 456.0693
404.0432, 472.7112
404.5253, 498.9768
405.0074, 528.8733
405.4895, 560.0461
405.9716, 603.5781
406.4537, 662.8042
406.9359, 733.9954
407.4180, 807.4172
407.9001, 882.7734
408.3822, 956.7471
408.8643, 1029.323
409.3464, 1100.359
409.8285, 1165.832
410.3106, 1224.760
410.7928, 1282.712
411.2749, 1343.820
411.7570, 1411.289
412.2391, 1491.457
412.7212, 1594.547
413.2033, 1710.927
413.6855, 1815.902
414.1676, 1909.440
414.6497, 2018.567
415.1318, 2166.671
415.6139, 2343.839
416.0960, 2531.897
416.5782, 2728.627
417.0603, 2933.585
417.5424, 3167.445
418.0245, 3413.688
418.5066, 3613.906
418.9887, 3756.645
419.4709, 3833.431
419.9530, 3836.955
420.4351, 3758.611
420.9172, 3628.329
421.3993, 3438.727
421.8814, 3207.902
422.3636, 2962.566
422.8457, 2683.580
423.3278, 2415.604
423.8099, 2172.195
424.2920, 1951.611
424.7741, 1753.248
425.2563, 1574.118
425.7384, 1417.550
426.2205, 1290.618
426.7026, 1205.779
427.1847, 1130.886
427.6668, 1063.021
428.1490, 1002.198
428.6311, 949.8723
429.1132, 900.8708
429.5953, 868.1345
430.0774, 862.2039
430.5595, 887.9363
431.0417, 917.9888
431.5238, 952.6375
432.0059, 987.1028
432.4880, 1013.159
432.9701, 1030.223
433.4522, 1052.664
433.9344, 1089.264
434.4165, 1136.148
434.8986, 1180.586
435.3807, 1222.532
435.8628, 1263.086
436.3449, 1303.172
436.8271, 1342.126
437.3092, 1381.666
437.7913, 1427.518
438.2734, 1461.317
438.7555, 1458.398
439.2376, 1426.070
439.7197, 1386.022
440.2018, 1346.739
440.6840, 1306.613
441.1661, 1264.066
441.6482, 1219.187
442.1303, 1172.801
442.6124, 1126.865
443.0945, 1078.965
443.5767, 1026.972
444.0588, 961.9231
444.5409, 900.6909
445.0230, 847.3606
445.5051, 801.8374
445.9872, 764.0256
446.4694, 738.3582
446.9515, 717.1526
447.4336, 697.3130
447.9157, 684.4731
448.3978, 662.3271
448.8799, 621.4626
449.3621, 575.1792
449.8442, 547.4702
450.3263, 540.8357
450.8084, 547.7744
451.2905, 568.9109
451.7726, 603.7900
452.2548, 637.2556
452.7369, 667.8298
453.2190, 700.8921
453.7011, 744.9592
454.1832, 799.9868
454.6653, 849.6292
455.1475, 894.9812
455.6296, 928.7976
456.1117, 945.5029
456.5938, 943.2051
457.0759, 901.3916
457.5580, 788.8513
458.0402, 632.4622
458.5223, 479.1531
459.0044, 329.1155
459.4865, 196.5154
459.9686, 91.09839
460.4507, 10.98853
460.9329, 49.26172
461.4150, 83.56006
461.8971, 104.1421
462.3792, 115.5522
462.8613, 118.8301
463.3434, 119.5771
463.8256, 123.3879
464.3077, 123.3369
464.7898, 113.9312
465.2719, 89.54834
465.7540, 66.54272
466.2361, 47.02734
466.7183, 30.80420
467.2004, 18.12744
467.6825, 23.23828
468.1646, 15.89062
468.6467, 12.75098
469.1288, 62.94824
469.6110, 113.1965
470.0930, 163.5579
470.5752, 214.0571
471.0573, 262.9377
471.5394, 306.0203
472.0215, 364.3259
472.5036, 441.6316
472.9857, 532.5791
473.4679, 627.8013
473.9500, 726.5071
474.4321, 828.1235
474.9142, 932.1260
475.3963, 1038.713
475.8784, 1152.699
476.3606, 1275.125
476.8427, 1390.741
477.3248, 1481.190
477.8069, 1553.766
478.2890, 1619.380
478.7711, 1668.672
479.2533, 1732.388
479.7354, 1849.513
480.2175, 2007.085
480.6996, 2166.872
481.1817, 2296.849
481.6638, 2428.794
482.1460, 2582.199
482.6281, 2757.469
483.1102, 2955.417
483.5923, 3175.987
484.0744, 3419.017
484.5565, 3685.432
485.0387, 3980.178
485.5208, 4288.707
486.0029, 4621.364
486.4850, 4970.299
486.9671, 5301.044
487.4492, 5592.139
487.9314, 5887.256
488.4135, 6201.390
488.8956, 6528.807
489.3777, 6896.264
489.8598, 7316.390
490.3419, 7762.029
490.8241, 8231.767
491.3062, 8737.863
491.7883, 9153.424
492.2704, 9462.724
492.7525, 9654.553
493.2346, 9713.160
493.7168, 9637.214
494.1989, 9409.241
494.6810, 8968.868
495.1631, 8376.074
495.6452, 7724.418
496.1273, 7020.040
496.6095, 6310.553
497.0916, 5631.942
497.5737, 4995.583
498.0558, 4416.005
498.5379, 3909.996
499.0201, 3460.142
499.5022, 3075.972
499.9843, 2747.802
500.4664, 2439.935
500.9485, 2131.394
501.4306, 1848.082
501.9127, 1609.667
502.3948, 1431.286
502.8770, 1271.315
503.3591, 1134.227
503.8412, 1012.375
504.3233, 893.5366
504.8054, 765.9700
505.2875, 663.3098
505.7697, 597.6924
506.2518, 563.6042
506.7339, 521.8125
507.2160, 469.6067
507.6981, 417.7764
508.1802, 375.7141
508.6624, 342.9497
509.1445, 300.7456
509.6266, 245.0083
510.1087, 189.6113
510.5908, 152.8342
511.0729, 132.6584
511.5551, 120.6885
512.0372, 116.4360
512.5193, 116.7092
513.0014, 116.1604
513.4835, 115.6975
513.9656, 120.4990
514.4478, 138.2012
514.9299, 160.0522
515.4120, 177.1348
515.8941, 185.3384
516.3762, 198.0942
516.8583, 224.2319
517.3405, 256.7441
517.8226, 286.7126
518.3047, 300.0774
518.7868, 319.7119
519.2689, 357.0203
519.7510, 410.0715
520.2332, 458.4189
520.7153, 498.4568
521.1974, 538.1765
521.6795, 579.9331
522.1616, 622.6477
522.6437, 673.2212
523.1259, 730.4575
523.6080, 799.1252
524.0901, 889.5625
524.5722, 1002.876
525.0543, 1112.513
525.5364, 1210.297
526.0186, 1302.449
526.5007, 1411.647
526.9828, 1531.550
527.4649, 1628.567
527.9470, 1670.843
528.4291, 1680.063
528.9113, 1691.954
529.3934, 1712.407
529.8755, 1711.047
530.3576, 1666.832
530.8397, 1588.881
531.3218, 1487.391
531.8040, 1340.517
532.2861, 1197.330
532.7682, 1074.295
533.2503, 968.3010
533.7324, 875.0779
534.2145, 796.1885
534.6967, 727.3130
535.1788, 667.3855
535.6609, 618.3708
536.1430, 570.5132
536.6251, 525.0557
537.1072, 480.4272
537.5894, 436.3474
538.0715, 393.4199
538.5536, 348.1624
539.0357, 299.6282
539.5178, 249.7202
539.9999, 197.5002
540.4821, 144.2295
540.9642, 102.7834
541.4463, 86.32983
541.9284, 84.16479
542.4105, 73.36328
542.8926, 53.95605
543.3748, 34.87378
543.8569, 22.17944
544.3390, 14.35034
544.8211, 9.504639
545.3032, 7.437256
545.7853, 7.673828
546.2675, 12.19263
546.7495, 18.50269
547.2316, 22.33862
547.7137, 15.98096
548.1959, 17.08960
548.6780, 32.07642
549.1601, 59.99243
549.6422, 83.98584
550.1243, 105.5364
550.6064, 121.6025
551.0886, 128.7087
551.5707, 121.9431
552.0528, 125.6096
552.5349, 143.2998
553.0170, 163.9543
553.4991, 171.9233
553.9813, 167.4773
554.4634, 161.8833
554.9455, 158.1675
555.4276, 155.3364
555.9097, 145.0991
556.3918, 130.8525
556.8740, 132.3652
557.3561, 176.3638
557.8382, 235.1497
558.3203, 276.4631
558.8024, 296.5701
559.2845, 314.8201
559.7667, 334.4343
560.2488, 361.4309
560.7309, 401.9412
561.2130, 465.8081
561.6951, 533.1140
562.1772, 601.9910
562.6594, 672.0186
563.1415, 741.6184
563.6236, 798.4807
564.1057, 871.3074
564.5878, 972.2241
565.0699, 1099.563
565.5521, 1222.491
566.0342, 1337.463
566.5163, 1458.570
566.9984, 1600.101
567.4805, 1760.528
567.9626, 1922.054
568.4448, 2082.796
568.9269, 2250.454
569.4090, 2444.654
569.8911, 2655.909
570.3732, 2863.111
570.8553, 3059.812
571.3375, 3245.807
571.8196, 3423.673
572.3017, 3590.288
572.7838, 3723.377
573.2659, 3841.419
573.7480, 3902.078
574.2302, 3875.521
574.7123, 3748.834
575.1944, 3583.913
575.6765, 3381.449
576.1586, 3149.925
576.6407, 2894.693
577.1229, 2588.394
577.6050, 2306.180
578.0871, 2054.950
578.5692, 1828.801
579.0513, 1622.294
579.5334, 1436.377
580.0156, 1263.561
580.4977, 1097.626
580.9798, 943.7527
581.4619, 820.7856
581.9440, 728.7642
582.4261, 655.6685
582.9083, 598.0283
583.3904, 553.1338
583.8725, 516.3535
584.3546, 487.1069
584.8367, 463.0444
585.3188, 445.8440
585.8010, 432.1738
586.2831, 418.0674
586.7652, 395.1506
587.2473, 377.1853
587.7294, 364.5032
588.2115, 359.1104
588.6937, 367.7991
589.1758, 394.8286
589.6579, 428.4341
590.1400, 464.6755
590.6221, 504.0061
591.1042, 554.6050
591.5864, 618.2112
592.0685, 687.4485
592.5506, 748.7258
593.0327, 804.5552
593.5148, 900.2998
593.9969, 1048.615
594.4791, 1208.458
594.9612, 1337.095
595.4433, 1437.134
595.9254, 1514.175
596.4075, 1578.696
596.8896, 1611.780
597.3718, 1595.788
597.8539, 1534.682
598.3360, 1440.475
598.8181, 1302.754
599.3002, 1145.666
599.7823, 974.3997
600.2645, 784.6606
600.7466, 612.2322
601.2287, 454.9739
601.7108, 321.0940
602.1929, 217.3589
602.6750, 150.0190
603.1572, 99.33252
603.6393, 69.11401
604.1214, 48.09106
604.6035, 15.00244
605.0856, 30.29541
605.5677, 62.75073
606.0499, 72.35352
606.5320, 68.03491
607.0141, 64.28687
607.4962, 61.18994
607.9783, 59.12305
608.4604, 61.64673
608.9425, 63.22974
609.4246, 58.30713
609.9067, 46.48267
610.3889, 31.89014
610.8710, 15.95142
611.3531, 1.753174
611.8352, 21.35547
612.3173, 41.70581
612.7994, 66.30347
613.2816, 95.71118
613.7637, 129.2991
614.2458, 166.7896
614.7279, 209.3486
615.2100, 251.8774
615.6921, 290.7681
616.1743, 330.7576
616.6564, 385.2065
617.1385, 454.1716
617.6206, 531.3123
618.1027, 620.9541
618.5848, 714.7361
619.0670, 797.3425
619.5491, 868.7964
620.0312, 935.6147
620.5133, 1007.224
620.9954, 1074.723
621.4775, 1128.777
621.9597, 1165.560
622.4418, 1195.233
622.9239, 1223.119
623.4060, 1245.257
623.8881, 1257.151
624.3702, 1262.373
624.8524, 1250.815
625.3345, 1214.379
625.8166, 1162.117
626.2987, 1124.507
626.7808, 1109.213
627.2629, 1076.973
627.7451, 1006.808
628.2272, 907.8560
628.7093, 818.9341
629.1914, 740.0750
629.6735, 665.8640
630.1556, 591.9189
630.6378, 521.5781
631.1199, 461.9814
631.6020, 414.6472
632.0841, 372.2266
632.5662, 331.0962
633.0483, 291.8232
633.5305, 254.5667
634.0126, 216.0520
634.4947, 185.2449
634.9768, 171.8264
635.4589, 165.5159
635.9410, 146.4590
636.4232, 104.8220
636.9053, 68.48193
637.3874, 43.66309
637.8695, 29.23438
638.3516, 21.21680
638.8337, 20.39233
639.3159, 18.01538
639.7980, 6.992920
640.2801, 9.592773
640.7622, 23.42627
641.2443, 34.44336
641.7264, 40.57080
642.2086, 34.58789
642.6907, 25.27246
643.1728, 24.64233
643.6549, 39.85083
644.1370, 49.64282
644.6191, 39.91724
645.1013, 21.82324
645.5834, 9.482666
646.0655, 14.23071
646.5476, 12.54199
647.0297, 0.5319820
647.5118, 20.64990
647.9940, 35.30371
648.4761, 43.03613
648.9582, 50.88550
649.4403, 60.85083
649.9224, 72.59814
650.4045, 84.05347
650.8867, 95.45288
651.3688, 113.4180
651.8509, 149.2031
652.3330, 191.8772
652.8151, 223.4778
653.2972, 241.5854
653.7794, 261.1218
654.2615, 289.7695
654.7436, 323.9438
655.2257, 360.2910
655.7078, 395.8320
656.1899, 438.5022
656.6721, 499.4990
657.1542, 563.9111
657.6363, 610.2866
658.1184, 630.0903
658.6005, 656.0964
659.0826, 698.5530
659.5648, 747.2075
660.0469, 771.5300
660.5290, 771.8064
661.0111, 771.4219
661.4932, 775.1008
661.9753, 788.3386
662.4575, 829.3677
662.9396, 892.6550
663.4217, 946.9141
663.9038, 961.2109
664.3859, 969.8220
664.8680, 996.0437
665.3502, 1042.232
665.8323, 1108.370
666.3144, 1207.172
666.7965, 1317.506
667.2786, 1423.344
667.7607, 1518.818
668.2429, 1622.471
668.7250, 1733.161
669.2071, 1854.229
669.6892, 1990.450
670.1713, 2141.997
670.6534, 2302.673
671.1355, 2470.226
671.6176, 2647.716
672.0997, 2837.499
672.5818, 3038.886
673.0640, 3253.232
673.5461, 3489.527
674.0282, 3731.834
674.5103, 3983.513
674.9924, 4238.461
675.4745, 4463.860
675.9567, 4646.918
676.4388, 4798.646
676.9209, 4931.465
677.4030, 5053.471
677.8851, 5094.675
678.3672, 5044.802
678.8494, 4931.820
679.3315, 4768.413
679.8136, 4555.351
680.2957, 4305.122
680.7778, 4017.359
681.2599, 3716.708
681.7421, 3431.820
682.2242, 3158.677
682.7063, 2893.662
683.1884, 2626.056
683.6705, 2380.970
684.1526, 2187.013
684.6348, 2025.739
685.1169, 1864.381
685.5990, 1665.494
686.0811, 1499.282
686.5632, 1399.177
687.0453, 1345.312
687.5275, 1274.771
688.0096, 1174.498
688.4917, 1088.181
688.9738, 1035.079
689.4559, 1007.922
689.9380, 959.4578
690.4202, 889.4636
690.9023, 819.3701
691.3844, 761.3176
691.8665, 714.8772
692.3486, 681.8179
692.8307, 661.9485
693.3129, 641.3262
693.7950, 607.5337
694.2771, 570.9839
694.7592, 542.2473
695.2413, 529.4783
695.7234, 507.3679
696.2056, 466.7688
696.6877, 419.1880
697.1698, 374.0574
697.6519, 330.5930
698.1340, 289.4441
698.6161, 249.2358
699.0983, 214.5005
699.5804, 197.6985
700.0625, 197.0405
700.5446, 191.3740
701.0267, 170.5327
701.5089, 143.4580
701.9910, 123.6016
702.4731, 109.2280
702.9552, 92.62012
703.4373, 59.26758
703.9194, 30.91943
704.4016, 24.18213
704.8837, 37.49902
705.3658, 40.47485
705.8479, 16.35840
706.3300, 1.991211
706.8121, 0.9072270
707.2943, 25.60938
707.7764, 37.25220
708.2585, 34.19849
708.7406, 26.41333
709.2227, 21.47949
709.7048, 18.20752
710.1870, 11.40527
710.6691, 8.5205004E-02
711.1512, 7.798340
711.6333, 7.294922
712.1154, 0.7021480
712.5975, 17.23364
713.0797, 50.83032
713.5618, 73.90747
714.0439, 68.44360
714.5260, 52.44727
715.0081, 47.68848
715.4902, 59.20361
715.9724, 71.77295
716.4545, 83.75464
716.9366, 96.04272
717.4187, 108.7568
717.9008, 122.1145
718.3829, 142.0969
718.8651, 175.2520
719.3472, 210.4553
719.8293, 228.1223
720.3114, 233.9075
720.7935, 245.9309
721.2756, 278.7185
721.7578, 315.3342
722.2399, 347.5034
722.7220, 375.3425
723.2041, 399.1980
723.6862, 422.5103
724.1683, 438.1982
724.6505, 441.5200
725.1326, 432.5439
725.6147, 429.3020
726.0968, 434.2549
726.5789, 434.4077
727.0610, 416.9551
727.5432, 387.1960
728.0253, 364.8716
728.5074, 351.2546
728.9895, 333.8015
729.4716, 296.4604
729.9537, 253.1956
730.4359, 221.0662
730.9180, 207.5967
731.4001, 188.9653
731.8822, 146.4517
732.3643, 102.8521
732.8464, 79.92163
733.3285, 87.22900
733.8106, 93.71509
734.2927, 99.14893
734.7748, 101.1914
735.2570, 94.21753
735.7391, 79.22852
736.2212, 67.65259
736.7033, 63.56079
737.1854, 61.06763
737.6675, 51.49463
738.1497, 38.20435
738.6318, 27.99927
739.1139, 27.68652
739.5960, 26.83008
740.0781, 18.51929
740.5602, 6.256104
741.0424, 1.281006
741.5245, 9.869873
742.0066, 17.10156
742.4887, 17.78296
742.9708, 13.73535
743.4529, 17.13281
743.9351, 29.03931
744.4172, 36.76709
744.8993, 25.79541
745.3814, 7.736328
745.8635, 10.75806
746.3456, 31.97803
746.8278, 50.58789
747.3099, 47.15942
747.7920, 41.33398
748.2741, 49.29297
748.7562, 73.88135
749.2383, 89.35181
749.7205, 88.08887
750.2026, 80.94385
750.6847, 74.68628
751.1668, 71.33008
751.6489, 55.83569
752.1310, 22.11865
752.6132, 2.951660
753.0953, 13.08545
753.5774, 58.36377
754.0595, 98.58740
754.5416, 131.1057
755.0237, 155.9670
755.5059, 167.1653
755.9880, 171.6831
756.4701, 179.0969
756.9522, 195.8921
757.4343, 208.4011
757.9164, 210.7815
758.3986, 211.2815
758.8807, 217.0701
759.3628, 228.5957
759.8449, 240.5581
760.3270, 250.8687
760.8091, 261.5730
761.2913, 282.1191
761.7734, 310.4546
762.2555, 327.0078
762.7376, 317.0869
763.2197, 308.2190
763.7018, 334.1335
764.1840, 377.3718
764.6661, 408.1951
765.1482, 402.4121
765.6303, 399.1936
766.1124, 408.8572
766.5945, 428.4089
767.0767, 450.2847
767.5588, 473.6802
768.0409, 499.0925
768.5230, 527.6677
769.0051, 557.3262
769.4872, 586.7686
769.9694, 614.0786
770.4515, 631.0476
770.9336, 620.4253
771.4157, 608.0437
771.8978, 622.7561
772.3799, 658.1838
772.8621, 688.2412
773.3442, 704.8862
773.8263, 713.7695
774.3084, 713.7424
774.7905, 706.4712
775.2726, 706.7908
775.7548, 718.7676
776.2369, 726.7429
776.7190, 721.0051
777.2011, 705.1030
777.6832, 693.6565
778.1653, 686.4839
778.6475, 681.8601
779.1296, 681.5679
779.6117, 681.2617
780.0938, 676.9517
780.5759, 668.3518
781.0580, 656.4514
781.5402, 645.8845
782.0223, 627.7729
782.5044, 595.7231
782.9865, 547.7004
783.4686, 504.4851
783.9507, 465.1165
784.4329, 432.8254
784.9150, 411.7285
785.3971, 399.4429
785.8792, 387.6250
786.3613, 375.9619
786.8434, 359.9897
787.3256, 328.7961
787.8077, 295.9663
788.2898, 276.9578
788.7719, 278.3967
789.2540, 274.6870
789.7361, 254.5547
790.2183, 230.8618
790.7004, 212.5264
791.1825, 201.1938
791.6646, 188.0039
792.1467, 171.8066
792.6288, 156.9436
793.1110, 149.5872
793.5930, 147.2446
794.0751, 141.1765
794.5573, 129.4653
795.0394, 118.1323
795.5215, 111.6282
796.0036, 108.4331
796.4857, 107.6003
796.9678, 113.5781
797.4500, 113.1440
797.9321, 103.2068
798.4142, 87.76367
798.8963, 68.62305
799.3784, 43.46533
799.8605, 30.54883
800.3427, 33.97095
800.8248, 41.80713
801.3069, 37.20850
801.7890, 25.27490
802.2711, 19.39258
802.7532, 25.66016
803.2354, 30.14136
803.7175, 22.01709
804.1996, 8.435791
804.6817, 1.944092
805.1638, 6.036621
805.6459, 9.135254
806.1281, 11.65527
806.6102, 12.83765
807.0923, 9.835205
807.5744, 2.410645
808.0565, 2.952393
808.5386, 16.23706
809.0208, 31.29053
809.5029, 31.83667
809.9850, 23.79102
810.4671, 18.70801
810.9492, 19.09351
811.4313, 21.83569
811.9135, 31.43726
812.3956, 41.58618
812.8777, 40.87500
813.3598, 20.59326
813.8419, 6.803467
814.3240, 2.535156
814.8062, 6.198242
815.2883, 18.52686
815.7704, 37.91675
816.2525, 52.10303
816.7346, 58.06641
817.2167, 56.57837
817.6989, 39.58765
818.1810, 17.35400
818.6631, 8.021240
819.1452, 34.34399
819.6273, 54.07031
820.1094, 53.44775
820.5916, 41.31323
821.0737, 30.33911
821.5558, 20.48877
822.0379, 11.73486
822.5200, 2.928467
823.0021, 2.551514
823.4843, 4.532959
823.9664, 20.44214
824.4485, 32.67285
824.9306, 35.60571
825.4127, 35.22754
825.8948, 37.21045
826.3770, 38.58789
826.8591, 34.00317
827.3412, 15.08228
827.8233, 0.4443360
828.3054, 10.78320
828.7875, 16.50049
829.2697, 15.28418
829.7518, 6.625244
830.2339, 8.760498
830.7160, 31.04102
831.1981, 57.28345
831.6802, 63.65332
832.1624, 57.03442
832.6445, 51.56934
833.1266, 45.45410
833.6087, 50.07788
834.0908, 78.67334
834.5729, 118.5122
835.0551, 145.4583
835.5372, 154.8960
836.0193, 161.3586
836.5014, 164.8936
836.9835, 169.8879
837.4656, 186.3223
837.9478, 211.9285
838.4299, 237.0061
838.9120, 259.8850
839.3941, 279.1670
839.8762, 286.7693
840.3583, 291.7239
840.8405, 308.9749
841.3226, 357.4800
841.8047, 398.4341
842.2868, 421.9146
842.7689, 439.5117
843.2510, 472.2681
843.7332, 522.1172
844.2153, 564.9297
844.6974, 596.1592
845.1795, 617.6702
845.6616, 625.8364
846.1437, 626.8696
846.6259, 633.0227
847.1080, 647.5486
847.5901, 669.0264
848.0722, 702.4890
848.5543, 740.5168
849.0364, 772.3005
849.5186, 795.5315
850.0007, 817.2361
850.4828, 835.5063
850.9649, 857.2346
851.4470, 893.2354
851.9291, 941.8894
852.4113, 996.5195
852.8934, 1056.601
853.3755, 1120.355
853.8576, 1181.426
854.3397, 1247.280
854.8218, 1328.258
855.3040, 1435.651
855.7860, 1545.364
856.2681, 1658.055
856.7502, 1768.207
857.2324, 1867.419
857.7145, 1953.968
858.1966, 2057.902
858.6787, 2187.401
859.1608, 2313.124
859.6429, 2405.023
860.1251, 2471.691
860.6072, 2529.803
861.0893, 2583.130
861.5714, 2625.514
862.0535, 2642.603
862.5356, 2655.684
863.0178, 2684.843
863.4999, 2736.903
863.9820, 2779.084
864.4641, 2802.936
864.9462, 2840.625
865.4283, 2925.716
865.9105, 3048.516
866.3926, 3185.857
866.8747, 3333.676
867.3568, 3500.785
867.8389, 3705.703
868.3210, 3919.166
868.8032, 4120.266
869.2853, 4303.266
869.7674, 4480.396
870.2495, 4669.075
870.7316, 4826.909
871.2137, 4925.838
871.6959, 4967.778
872.1780, 4978.019
872.6601, 4956.523
873.1422, 4888.775
873.6243, 4752.872
874.1064, 4571.120
874.5886, 4360.231
875.0707, 4121.035
875.5528, 3869.275
876.0349, 3586.607
876.5170, 3311.016
876.9991, 3051.956
877.4813, 2810.865
877.9634, 2614.225
878.4455, 2464.378
878.9276, 2336.979
879.4097, 2215.660
879.8918, 2109.326
880.3740, 2030.795
880.8561, 1979.667
881.3382, 1952.462
881.8203, 1967.750
882.3024, 1986.084
882.7845, 1984.531
883.2667, 1970.966
883.7488, 1984.201
884.2309, 2026.382
884.7130, 2088.254
885.1951, 2177.050
885.6772, 2273.837
886.1594, 2344.747
886.6415, 2391.519
887.1236, 2422.437
887.6057, 2439.716
888.0878, 2443.764
888.5699, 2442.125
889.0521, 2426.189
889.5342, 2371.955
890.0163, 2255.804
890.4984, 2157.653
890.9805, 2098.074
891.4626, 2051.811
891.9448, 1968.179
892.4269, 1854.956
892.9090, 1739.950
893.3911, 1627.794
893.8732, 1523.487
894.3553, 1428.111
894.8375, 1343.095
895.3196, 1272.527
895.8017, 1233.668
896.2838, 1180.823
896.7659, 1100.610
897.2480, 1022.249
897.7302, 986.8809
898.2123, 989.1863
898.6944, 977.4468
899.1765, 941.6892
899.6586, 911.3770
900.1407, 918.0779
900.6229, 942.6548
901.1050, 964.1670
901.5871, 976.7200
902.0692, 994.3984
902.5513, 1018.242
903.0334, 1048.195
903.5156, 1083.093
903.9977, 1123.130
904.4798, 1178.344
904.9619, 1249.206
905.4440, 1325.662
905.9261, 1401.307
906.4083, 1476.767
906.8904, 1556.669
907.3725, 1640.447
907.8546, 1714.354
908.3367, 1766.714
908.8188, 1816.495
909.3010, 1873.675
909.7831, 1935.536
910.2652, 1974.574
910.7473, 1990.369
911.2294, 1992.657
911.7115, 1983.296
912.1937, 1965.793
912.6758, 1939.496
913.1579, 1908.622
913.6400, 1886.010
914.1221, 1874.110
914.6042, 1874.174
915.0864, 1882.447
915.5685, 1903.537
916.0506, 1953.727
916.5327, 2036.897
917.0148, 2117.234
917.4969, 2182.738
917.9790, 2249.806
918.4611, 2329.126
918.9432, 2429.705
919.4254, 2571.027
919.9075, 2785.933
920.3896, 2999.417
920.8717, 3161.701
921.3538, 3325.984
921.8359, 3545.571
922.3181, 3827.654
922.8002, 4135.417
923.2823, 4469.111
923.7644, 4817.994
924.2465, 5157.521
924.7286, 5500.500
925.2108, 5879.042
925.6929, 6307.385
926.1750, 6687.762
926.6571, 7009.783
927.1392, 7243.659
927.6213, 7382.263
928.1035, 7426.183
928.5856, 7351.048
929.0677, 7149.840
929.5498, 6865.538
930.0319, 6508.489
930.5140, 6094.113
930.9962, 5621.223
931.4783, 5098.203
931.9604, 4599.785
932.4425, 4139.645
932.9246, 3720.851
933.4067, 3344.841
933.8889, 3008.644
934.3710, 2694.674
934.8531, 2403.377
935.3352, 2144.775
935.8173, 1929.129
936.2994, 1746.070
936.7816, 1592.011
937.2637, 1460.304
937.7458, 1339.111
938.2279, 1216.427
938.7100, 1113.646
939.1921, 1045.798
939.6743, 999.7402
940.1564, 958.5713
940.6385, 921.9255
941.1206, 894.0723
941.6027, 875.9702
942.0848, 863.2437
942.5670, 852.6455
943.0491, 843.3433
943.5312, 835.0635
944.0133, 828.7380
944.4954, 815.7273
944.9775, 790.3567
945.4597, 758.8547
945.9418, 725.8945
946.4239, 691.5916
946.9060, 651.2617
947.3881, 604.5898
947.8702, 553.4968
948.3524, 497.7437
948.8345, 439.1863
949.3166, 380.5662
949.7987, 321.3914
950.2808, 261.5947
950.7629, 192.9175
951.2451, 133.8945
951.7272, 93.10010
952.2093, 65.35889
952.6914, 34.98901
953.1735, 0.7690430
953.6556, 28.21216
954.1378, 49.08228
954.6199, 64.52588
955.1020, 76.12500
955.5841, 83.66895
956.0662, 87.08545
956.5483, 85.37646
957.0305, 84.08521
957.5126, 86.03711
957.9947, 86.44214
958.4768, 81.54932
958.9589, 71.91333
959.4410, 55.23120
959.9232, 29.92993
960.4053, 5.110596
960.8874, 4.099121
961.3695, 9.722168
961.8516, 28.61768
962.3337, 63.30615
962.8159, 92.16748
963.2980, 102.6458
963.7801, 119.1179
964.2622, 151.9692
964.7443, 197.1047
965.2264, 235.4055
965.7086, 268.0842
966.1907, 307.4868
966.6728, 363.7087
967.1549, 427.7329
967.6370, 494.9104
968.1191, 561.4648
968.6013, 618.4067
969.0834, 643.3125
969.5655, 696.4458
970.0476, 794.1008
970.5297, 909.2168
971.0118, 1005.624
971.4940, 1085.530
971.9761, 1155.270
972.4582, 1212.059
972.9403, 1286.962
973.4224, 1413.821
973.9045, 1564.240
974.3867, 1714.912
974.8688, 1866.139
975.3509, 2010.284
975.8330, 2141.565
976.3151, 2277.414
976.7972, 2428.859
977.2794, 2592.276
977.7615, 2765.002
978.2436, 2945.165
978.7257, 3127.918
979.2078, 3319.433
979.6899, 3503.765
980.1720, 3674.009
980.6541, 3830.453
981.1362, 3984.705
981.6183, 4141.914
982.1005, 4272.002
982.5826, 4368.610
983.0647, 4434.011
983.5468, 4476.318
984.0289, 4487.376
984.5110, 4450.490
984.9932, 4355.432
985.4753, 4228.604
985.9574, 4064.133
986.4395, 3880.903
986.9216, 3691.411
987.4037, 3496.293
987.8859, 3281.196
988.3680, 3046.354
988.8501, 2818.669
989.3322, 2624.344
989.8143, 2444.752
990.2964, 2259.263
990.7786, 2069.698
991.2607, 1884.980
991.7428, 1697.477
992.2249, 1532.578
992.7070, 1400.893
993.1891, 1292.407
993.6713, 1183.084
994.1534, 1074.034
994.6355, 974.7571
995.1176, 888.6470
995.5997, 811.6689
996.0818, 745.6338
996.5640, 684.4219
997.0461, 619.6824
997.5282, 542.4319
998.0103, 484.3032
998.4924, 451.1689
998.9745, 421.3264
999.4567, 368.8713
999.9388, 305.8145
1000.421, 265.8022
1000.903, 248.9973
1001.385, 238.8489
1001.867, 242.3059
1002.349, 234.3555
1002.831, 190.8853
1003.314, 124.8992
1003.796, 91.84985
1004.278, 95.23291
1004.760, 98.92627
1005.242, 91.71631
1005.724, 78.66943
1006.206, 63.91187
1006.688, 48.86743
1007.171, 35.43481
1007.653, 22.25610
1008.135, 14.54907
1008.617, 17.39136
1009.099, 20.00610
1009.581, 10.08350
1010.063, 11.16553
1010.545, 21.21997
1011.027, 19.44482
1011.510, 13.01440
1011.992, 0.6816410
1012.474, 10.59888
1012.956, 4.221680
1013.438, 16.74634
1013.920, 27.85083
1014.402, 24.09082
1014.884, 20.91748
1015.367, 23.70190
1015.849, 28.45410
1016.331, 23.83984
1016.813, 14.45874
1017.295, 14.14600
1017.777, 34.93091
1018.259, 48.66333
1018.741, 37.29785
1019.223, 19.02710
1019.706, 9.122314
1020.188, 8.297363
1020.670, 14.21826
1021.152, 27.98901
1021.634, 36.83423
1022.116, 26.32227
1022.598, 7.967285
1023.080, 9.683350
1023.563, 24.55591
1024.045, 26.14990
1024.527, 4.029053
1025.009, 24.04712
1025.491, 23.03589
1025.973, 7.812988
1026.455, 10.24341
1026.937, 29.96826
1027.419, 46.93994
1027.901, 61.46045
1028.384, 67.83301
1028.866, 54.87622
1029.348, 36.52368
1029.830, 27.54517
1030.312, 31.53296
1030.794, 29.04980
1031.276, 18.84619
1031.758, 8.591797
1032.241, 0.4831540
1032.723, 2.166504
1033.205, 12.42627
1033.687, 39.04468
1034.169, 55.17969
1034.651, 39.57422
1035.133, 28.60278
1035.615, 33.30396
1036.098, 44.93994
1036.580, 43.39478
1037.062, 31.06689
1037.544, 34.16943
1038.026, 61.65723
1038.508, 86.44312
1038.990, 79.24683
1039.472, 63.03394
1039.954, 60.62524
1040.437, 76.89307
1040.919, 89.07275
1041.401, 95.87012
1041.883, 103.4556
1042.365, 116.7754
1042.847, 132.5098
1043.329, 141.1096
1043.811, 145.8452
1044.293, 156.7117
1044.776, 185.8013
1045.258, 211.4365
1045.740, 227.1392
1046.222, 237.7866
1046.704, 247.2358
1047.186, 255.7263
1047.668, 275.2129
1048.150, 307.6187
1048.633, 341.4045
1049.115, 367.3430
1049.597, 389.3801
1050.079, 405.5820
1050.561, 415.9873
1051.043, 452.2163
1051.525, 524.6836
1052.007, 591.7031
1052.490, 633.9707
1052.972, 665.9863
1053.454, 713.0256
1053.936, 773.1367
1054.418, 842.0759
1054.900, 918.9346
1055.382, 1001.989
1055.864, 1084.727
1056.346, 1178.874
1056.828, 1297.294
1057.311, 1439.869
1057.793, 1579.215
1058.275, 1715.269
1058.757, 1867.132
1059.239, 2054.004
1059.721, 2259.313
1060.203, 2476.350
1060.685, 2702.039
1061.168, 2921.915
1061.650, 3123.953
1062.132, 3350.512
1062.614, 3610.700
1063.096, 3892.424
1063.578, 4167.624
1064.060, 4452.320
1064.542, 4782.402
1065.025, 5168.946
1065.507, 5585.843
1065.989, 6015.276
1066.471, 6474.699
1066.953, 6966.243
1067.435, 7495.290
1067.917, 8098.243
1068.399, 8773.983
1068.881, 9460.997
1069.364, 10134.16
1069.846, 10812.07
1070.328, 11590.54
1070.810, 12352.31
1071.292, 12895.14
1071.774, 13229.42
1072.256, 13316.52
1072.738, 13144.42
1073.220, 12758.22
1073.703, 12145.50
1074.185, 11386.89
1074.667, 10577.18
1075.149, 9722.852
1075.631, 8904.064
1076.113, 8123.401
1076.595, 7408.595
1077.077, 6769.707
1077.559, 6209.266
1078.042, 5741.196
1078.524, 5359.339
1079.006, 5034.250
1079.488, 4763.238
1079.970, 4542.950
1080.452, 4381.749
1080.934, 4263.516
1081.416, 4166.759
1081.899, 4089.059
1082.381, 4035.385
1082.863, 4005.431
1083.345, 4018.518
1083.827, 4107.276
1084.309, 4228.094
1084.791, 4332.188
1085.273, 4434.694
1085.755, 4581.203
1086.238, 4792.758
1086.720, 5014.485
1087.202, 5241.819
1087.684, 5475.351
1088.166, 5721.265
1088.648, 5974.896
1089.130, 6236.682
1089.612, 6506.575
1090.094, 6769.256
1090.577, 7043.968
1091.059, 7281.506
1091.541, 7477.557
1092.023, 7618.741
1092.505, 7666.549
1092.987, 7623.834
1093.469, 7514.094
1093.951, 7347.339
1094.434, 7107.049
1094.916, 6756.763
1095.398, 6338.552
1095.880, 5892.019
1096.362, 5410.168
1096.844, 4941.986
1097.326, 4482.712
1097.808, 4056.467
1098.291, 3678.396
1098.773, 3341.400
1099.255, 3051.085
1099.737, 2797.696
1100.219, 2566.861
1100.701, 2351.972
1101.183, 2168.402
1101.665, 2021.312
1102.147, 1894.101
1102.630, 1772.804
1103.112, 1656.814
1103.594, 1540.420
1104.076, 1424.550
1104.558, 1319.288
1105.040, 1239.819
1105.522, 1160.754
1106.004, 1071.115
1106.486, 977.4604
1106.969, 899.3076
1107.451, 836.9736
1107.933, 788.8472
1108.415, 757.4934
1108.897, 724.2971
1109.379, 670.3440
1109.861, 614.5852
1110.343, 574.4446
1110.826, 550.8293
1111.308, 526.8931
1111.790, 503.2588
1112.272, 475.3938
1112.754, 434.7207
1113.236, 393.3003
1113.718, 365.2910
1114.200, 346.3123
1114.682, 328.0403
1115.165, 307.1555
1115.647, 291.3213
1116.129, 282.3855
1116.611, 273.8816
1117.093, 256.9746
1117.575, 237.3853
1118.057, 228.7402
1118.539, 229.3684
1119.021, 224.6804
1119.504, 203.1094
1119.986, 184.0320
1120.468, 172.2268
1120.950, 164.0212
1121.432, 153.3411
1121.914, 140.6057
1122.396, 124.9636
1122.878, 105.3594
1123.361, 92.29712
1123.843, 102.4924
1124.325, 110.1765
1124.807, 96.84424
1125.289, 67.98486
1125.771, 57.73633
1126.253, 65.14404
1126.735, 72.13867
1127.218, 71.68896
1127.700, 69.27124
1128.182, 68.79468
1128.664, 69.07178
1129.146, 68.84863
1129.628, 68.32031
1130.110, 65.65454
1130.592, 60.68262
1131.074, 54.34888
1131.557, 43.72803
1132.039, 34.70093
1132.521, 38.42554
1133.003, 49.31641
1133.485, 53.21973
1133.967, 41.98364
1134.449, 35.60498
1134.931, 36.42139
1135.413, 39.60962
1135.896, 41.74756
1136.378, 41.95728
1136.860, 38.59180
1137.342, 31.64868
1137.824, 21.68042
1138.306, 4.380371
1138.788, 14.02759
1139.270, 7.262451
1139.752, 39.42212
1140.235, 42.34790
1140.717, 24.16846
1141.199, 8.421631
1141.681, 1.026367
1142.163, 2.571533
1142.645, 14.90332
1143.127, 29.66455
1143.609, 28.53027
1144.092, 16.03271
1144.574, 16.28479
1145.056, 26.96533
1145.538, 29.93689
1146.020, 15.06018
1146.502, 1.064941
1146.984, 10.00745
1147.466, 12.71497
1147.948, 9.524170
1148.431, 0.4514160
1148.913, 6.500732
1149.395, 8.553589
1149.877, 9.038208
1150.359, 10.67261
1150.841, 10.07605
1151.323, 1.290649
1151.805, 10.95630
1152.287, 17.08679
1152.770, 14.86401
1153.252, 14.14343
1153.734, 15.85156
1154.216, 16.67969
1154.698, 10.51904
1155.180, 3.976563
1155.662, 7.366699
1156.144, 17.95215
1156.627, 20.09717
1157.109, 8.318481
1157.591, 4.729248
1158.073, 18.13147
1158.555, 29.06592
1159.037, 34.06213
1159.519, 34.27637
1160.001, 30.02124
1160.484, 21.18640
1160.966, 15.20447
1161.448, 13.86511
1161.930, 14.66028
1162.412, 17.61023
1162.894, 21.20422
1163.376, 25.19788
1163.858, 26.82202
1164.340, 17.92603
1164.823, 8.395020
1165.305, 24.76477
1165.787, 18.82812
1166.269, 8.227539
1166.751, 6.5917999E-02
1167.233, 5.689575
1167.715, 9.005615
1168.197, 9.858276
1168.679, 7.664307
1169.162, 1.388916
1169.644, 7.094238
1170.126, 3.880005
1170.608, 2.083984
1171.090, 6.571289
1171.572, 9.707031
1172.054, 12.88928
1172.536, 16.44812
1173.019, 23.26013
1173.501, 41.95837
1173.983, 56.17590
1174.465, 55.94165
1174.947, 48.56799
1175.429, 41.82849
1175.911, 35.79736
1176.393, 29.48120
1176.875, 23.00293
1177.358, 19.54114
1177.840, 20.55701
1178.322, 26.26135
1178.804, 41.29846
1179.286, 60.14307
1179.768, 69.23706
1180.250, 68.19873
1180.732, 66.28430
1181.214, 64.47742
1181.697, 65.90027
1182.179, 76.66174
1182.661, 88.86572
1183.143, 97.77344
1183.625, 102.4487
1184.107, 97.90979
1184.589, 83.23035
1185.071, 69.10413
1185.554, 57.51550
1186.036, 50.45752
1186.518, 54.05725
1187.000, 60.76135
1187.482, 62.20593
1187.964, 57.66187
1188.446, 54.65125
1188.928, 53.33069
1189.411, 52.48535
1189.893, 52.03418
1190.375, 51.14514
1190.857, 46.84412
1191.339, 42.53088
1191.821, 43.75269
1192.303, 53.51807
1192.785, 57.43054
1193.267, 54.44458
1193.750, 51.29248
1194.232, 52.94019
1194.714, 55.39539
1195.196, 52.46802
1195.678, 46.90625
1196.160, 43.56018
1196.642, 43.16296
1197.124, 45.83484
1197.606, 50.97278
1198.089, 58.09009
1198.571, 72.00415
1199.053, 84.00562
1199.535, 77.70911
1200.017, 59.77502
1200.499, 50.71240
1200.981, 58.99841
1201.463, 63.40613
1201.945, 61.54749
1202.428, 58.47217
1202.910, 57.83691
1203.392, 59.71960
1203.874, 69.93579
1204.356, 84.54907
1204.838, 79.47205
1205.320, 36.87463
1205.802, 10.49097
1206.285, 10.76526
1206.767, 21.33582
1207.249, 25.35645
1207.731, 25.56287
1208.213, 25.68958
1208.695, 26.70923
1209.177, 32.34387
1209.659, 47.95056
1210.141, 53.36621
1210.624, 41.31580
1211.106, 24.92993
1211.588, 27.18945
1212.070, 35.67175
1212.552, 26.39819
1213.034, 6.429199
1213.516, 15.25586
1213.998, 15.05151
1214.480, 39.91846
1214.963, 44.69385
1215.445, 39.37268
1215.927, 36.49707
1216.409, 36.61243
1216.891, 42.55457
1217.373, 57.77588
1217.855, 62.45862
1218.337, 52.51648
1218.820, 39.77893
1219.302, 28.60559
1219.784, 18.88770
1220.266, 6.896118
1220.748, 2.589233
1221.230, 1.074097
1221.712, 29.54224
1222.194, 42.65906
1222.677, 32.97473
1223.159, 21.71985
1223.641, 25.30029
1224.123, 33.80481
1224.605, 25.72363
1225.087, 8.883545
1225.569, 0.1563720
1226.051, 9.664429
1226.533, 14.23425
1227.016, 10.85583
1227.498, 8.336914
1227.980, 14.91626
1228.462, 25.97766
1228.944, 37.68347
1229.426, 47.01965
1229.908, 46.31824
1230.390, 20.48804
1230.872, 11.70959
1231.355, 25.14099
1231.837, 41.39368
1232.319, 41.46631
1232.801, 36.45483
1233.283, 47.10437
1233.765, 66.20764
1234.247, 69.25208
1234.729, 42.06665
1235.212, 25.13025
1235.694, 22.41235
1236.176, 25.21094
1236.658, 26.51465
1237.140, 27.73315
1237.622, 28.52197
1238.104, 30.63879
1238.586, 42.61365
1239.068, 72.71741
1239.551, 85.18860
1240.033, 73.24854
1240.515, 56.74634
1240.997, 56.56494
1241.479, 61.79834
1241.961, 59.78687
1242.443, 51.64807
1242.925, 48.35510
1243.407, 52.63550
1243.890, 49.32092
1244.372, 33.53076
1244.854, 22.32410
1245.336, 41.52783
1245.818, 67.61169
1246.300, 78.42773
1246.782, 73.53723
1247.264, 63.97461
1247.747, 47.84937
1248.229, 41.98022
1248.711, 51.44897
1249.193, 62.87146
1249.675, 64.56641
1250.157, 61.82996
1250.639, 58.54248
1251.121, 55.15784
1251.604, 52.15222
1252.086, 49.60449
1252.568, 48.09033
1253.050, 48.42480
1253.532, 46.67566
1254.014, 35.54651
1254.496, 24.87280
1254.978, 24.64697
1255.460, 32.03357
1255.943, 28.36584
1256.425, 14.52441
1256.907, 14.15710
1257.389, 34.12390
1257.871, 59.69727
1258.353, 89.21191
1258.835, 103.5455
1259.317, 82.61731
1259.799, 37.10217
1260.281, 29.07153
1260.764, 51.54468
1261.246, 58.95178
1261.728, 32.07043
1262.210, 9.749878
1262.692, 23.89709
1263.174, 37.41980
1263.656, 25.64160
1264.138, 2.758545
1264.621, 14.36780
1265.103, 11.30066
1265.585, 0.5902100
1266.067, 20.82593
1266.549, 34.36536
1267.031, 24.11401
1267.513, 15.88989
1267.995, 26.09119
1268.478, 46.27649
1268.960, 48.62170
1269.442, 38.56482
1269.924, 31.74060
1270.406, 35.48206
1270.888, 35.15015
1271.370, 23.72314
1271.852, 18.03516
1272.334, 33.91272
1272.817, 56.97192
1273.299, 49.95984
1273.781, 26.07019
1274.263, 13.49170
1274.745, 24.81458
1275.227, 39.34985
1275.709, 59.25061
1276.191, 73.26611
1276.673, 73.96521
1277.156, 65.72717
1277.638, 49.11243
1278.120, 30.59204
1278.602, 21.90942
1279.084, 27.22937
1279.566, 37.13831
1280.048, 52.86658
1280.530, 65.65186
1281.013, 69.97766
1281.495, 68.97742
1281.977, 66.89380
1282.459, 61.15686
1282.941, 43.04724
1283.423, 10.76245
1283.905, 0.6193850
1284.387, 7.521729
1284.870, 16.41724
1285.352, 9.088501
1285.834, 4.095459
1286.316, 21.17432
1286.798, 43.01440
1287.280, 46.57654
1287.762, 30.86548
1288.244, 27.45227
1288.726, 35.04456
1289.208, 39.57043
1289.691, 29.78894
1290.173, 19.29895
1290.655, 9.777710
1291.137, 6.095215
1291.619, 18.34937
1292.101, 41.91577
1292.583, 41.73120
1293.065, 23.22168
1293.548, 9.656128
1294.030, 19.53015
1294.512, 23.06616
1294.994, 9.954224
1295.476, 1.338989
1295.958, 11.00366
1296.440, 35.56519
1296.922, 44.88257
1297.405, 44.44165
1297.887, 41.05029
1298.369, 22.62549
1298.851, 9.868652
1299.333, 4.9438000E-02
1299.815, 1.2451000E-02
1300.297, 7.002319
1300.779, 0.0000000E+00
##END=



